Wavelength	rt0713west_far_sunny00003.asd
350	 4.52506192827402E-02 
351	 4.46193825128872E-02 
352	 4.43502862650825E-02 
353	 4.43096724906005E-02 
354	 4.42126672529078E-02 
355	 4.37308182407314E-02 
356	 4.37441101369275E-02 
357	 4.38906396193102E-02 
358	 4.36221754103118E-02 
359	 4.33893528370588E-02 
360	 4.29670385330263E-02 
361	 4.26733855712603E-02 
362	 4.30420897652704E-02 
363	 4.28759476453405E-02 
364	 4.26231975094431E-02 
365	 0.042540300524898 
366	 4.22778375594119E-02 
367	 4.21079314820152E-02 
368	 0.042107557247186 
369	 4.22197378661168E-02 
370	 4.21470571894894E-02 
371	 4.19663689911223E-02 
372	 0.041777184291219 
373	 4.16559729748469E-02 
374	 4.13518732392486E-02 
375	 4.11252839489995E-02 
376	 4.11205749866674E-02 
377	 4.12484253917621E-02 
378	 4.11542233252001E-02 
379	 4.11507436044197E-02 
380	 4.14002959242275E-02 
381	 4.10659422485583E-02 
382	 0.040997740459627 
383	 4.11739206194342E-02 
384	 4.12089612790661E-02 
385	 4.14837964030175E-02 
386	 4.13506530482347E-02 
387	 4.08955855559211E-02 
388	 4.10384179053912E-02 
389	 4.11113171715679E-02 
390	 4.09799189166835E-02 
391	 4.07712559693511E-02 
392	 4.09668555956765E-02 
393	 4.11602992615989E-02 
394	 4.11525766434444E-02 
395	 4.09313211194577E-02 
396	 4.09230700679022E-02 
397	 4.08450689747642E-02 
398	 4.07116744624877E-02 
399	 4.08013543530077E-02 
400	 4.08444640849772E-02 
401	 4.08019058446265E-02 
402	 4.07326804372013E-02 
403	 4.08150289455659E-02 
404	 4.09940722334778E-02 
405	 4.11123362645546E-02 
406	 0.041041967466864 
407	 4.10576349089067E-02 
408	 4.10259662706504E-02 
409	 4.09538651976152E-02 
410	 4.09976595278057E-02 
411	 4.10266742005329E-02 
412	 4.10362958519588E-02 
413	 4.10409645414252E-02 
414	 4.10362662798147E-02 
415	 4.10793139262648E-02 
416	 4.11453071690686E-02 
417	 4.11941800356738E-02 
418	 4.13146945249018E-02 
419	 4.15015590832546E-02 
420	 4.16497768614486E-02 
421	 4.15714659853395E-02 
422	 4.15836458467499E-02 
423	 4.17032528266902E-02 
424	 4.18909350478447E-02 
425	 4.21722554211953E-02 
426	 4.22983475297405E-02 
427	 4.23570407388398E-02 
428	 0.042561953721627 
429	 4.27135428269198E-02 
430	 4.28711881846859E-02 
431	 0.043034620260548 
432	 0.043110805134767 
433	 4.33315601780047E-02 
434	 4.35933221040908E-02 
435	 4.37706979357482E-02 
436	 4.39000409112419E-02 
437	 0.044041187404297 
438	 4.42207759722787E-02 
439	 4.44343605460128E-02 
440	 4.46098334311231E-02 
441	 4.47915577060879E-02 
442	 4.49875667714808E-02 
443	 4.51326535612046E-02 
444	 4.52988826157073E-02 
445	 4.54832544846816E-02 
446	 4.56579000699438E-02 
447	 4.57875961758486E-02 
448	 4.59105872474002E-02 
449	 4.60400795207728E-02 
450	 4.61715351053008E-02 
451	 0.046338251403143 
452	 4.64720912795098E-02 
453	 4.65526290514602E-02 
454	 4.66890915252681E-02 
455	 4.67469719928697E-02 
456	 4.67717635889332E-02 
457	 4.68610744215168E-02 
458	 4.70159328244824E-02 
459	 4.71369915624028E-02 
460	 4.72052851880817E-02 
461	 4.72842484684426E-02 
462	 4.72998920649548E-02 
463	 4.73101061620546E-02 
464	 4.73697042185643E-02 
465	 4.74604439740971E-02 
466	 4.75108920467625E-02 
467	 4.75626841590395E-02 
468	 4.76903047269275E-02 
469	 4.77373512111446E-02 
470	 4.78543364621399E-02 
471	 4.80379176784381E-02 
472	 4.80474267729397E-02 
473	 4.80717795861261E-02 
474	 4.81281663387435E-02 
475	 4.82107522023351E-02 
476	 4.84074074646358E-02 
477	 4.85354803785198E-02 
478	 4.86223129558083E-02 
479	 0.048820239585897 
480	 4.89182613287621E-02 
481	 4.90318581268464E-02 
482	 4.92256346838138E-02 
483	 4.93656856569969E-02 
484	 4.96339447058664E-02 
485	 4.98722327990066E-02 
486	 4.98975412698606E-02 
487	 5.00858291461052E-02 
488	 5.03481809583401E-02 
489	 5.05750342063364E-02 
490	 5.06766175945716E-02 
491	 5.08202128694333E-02 
492	 5.10472647803978E-02 
493	 5.13398269103084E-02 
494	 5.16106376455533E-02 
495	 5.18289369151173E-02 
496	 5.20652670097105E-02 
497	 5.24125089219673E-02 
498	 5.26632393321167E-02 
499	 5.28487088885016E-02 
500	 5.30282897718735E-02 
501	 5.32610288865756E-02 
502	 5.35352839218108E-02 
503	 5.38012623867322E-02 
504	 5.40236740427797E-02 
505	 5.42593284210279E-02 
506	 0.054574690618304 
507	 5.49339687239291E-02 
508	 5.52271206442504E-02 
509	 5.55063575181706E-02 
510	 5.58301786305526E-02 
511	 5.62069335997421E-02 
512	 5.65252340049686E-02 
513	 5.68907823207498E-02 
514	 5.72852906789675E-02 
515	 5.76399897451435E-02 
516	 5.79578075972628E-02 
517	 5.83459205771303E-02 
518	 5.87867973349544E-02 
519	 5.91059223859502E-02 
520	 5.94800318384237E-02 
521	 5.98634174182394E-02 
522	 6.02092854729849E-02 
523	 0.060651697024827 
524	 6.10214824184443E-02 
525	 6.13335277769128E-02 
526	 6.17310490704244E-02 
527	 6.21875044417271E-02 
528	 6.26228583582633E-02 
529	 6.29884046439379E-02 
530	 0.06329644706511 
531	 6.36988837150489E-02 
532	 6.41561293133032E-02 
533	 6.45618888039562E-02 
534	 6.49168901540183E-02 
535	 6.53281984734344E-02 
536	 6.57887726778818E-02 
537	 6.61563057182524E-02 
538	 6.65398498880979E-02 
539	 6.69178197346037E-02 
540	 6.72702747385032E-02 
541	 0.067680852994821 
542	 6.81218500020365E-02 
543	 6.85438154392934E-02 
544	 6.88983958625972E-02 
545	 6.92681945037822E-02 
546	 6.96789791836251E-02 
547	 7.01172849046587E-02 
548	 7.05139597585582E-02 
549	 7.09089000573759E-02 
550	 0.071292508563631 
551	 7.16564868523971E-02 
552	 7.20962246466046E-02 
553	 7.24715214524849E-02 
554	 7.27802442148184E-02 
555	 7.31841566033764E-02 
556	 7.35692378540205E-02 
557	 7.39210761268352E-02 
558	 7.42547255420234E-02 
559	 7.46236709384091E-02 
560	 7.49132497457243E-02 
561	 7.51686101382748E-02 
562	 7.55150883049266E-02 
563	 0.075768943787218 
564	 0.075980063279498 
565	 7.61918880902281E-02 
566	 7.63756556946286E-02 
567	 7.65390027062151E-02 
568	 7.66958887049305E-02 
569	 7.68639533144928E-02 
570	 7.70721846230124E-02 
571	 7.72164036671884E-02 
572	 7.72941212062896E-02 
573	 7.74167885111674E-02 
574	 0.077534877995176 
575	 7.76570408852025E-02 
576	 7.77785428462952E-02 
577	 7.78139253532229E-02 
578	 7.78696835021529E-02 
579	 7.79226939314011E-02 
580	 7.78847631763424E-02 
581	 7.78842586958229E-02 
582	 7.78519538675051E-02 
583	 7.77330291456187E-02 
584	 7.75399029432952E-02 
585	 7.73170377133105E-02 
586	 7.70041190842095E-02 
587	 7.65535609951074E-02 
588	 7.62550567536386E-02 
589	 7.60099781554173E-02 
590	 7.57710769089669E-02 
591	 7.55583695244093E-02 
592	 7.53657177142329E-02 
593	 7.51005061574248E-02 
594	 7.47333011413973E-02 
595	 7.44706952615366E-02 
596	 7.40402353689409E-02 
597	 7.35036436633602E-02 
598	 7.30923622149212E-02 
599	 7.26470430537367E-02 
600	 7.22413194478725E-02 
601	 7.19250670584716E-02 
602	 7.16600887811288E-02 
603	 7.14896298376619E-02 
604	 7.13662817751927E-02 
605	 7.12383520015653E-02 
606	 7.11928716512271E-02 
607	 7.11157080420836E-02 
608	 7.10113784435506E-02 
609	 7.10108059093693E-02 
610	 7.10238863229349E-02 
611	 0.070973252313458 
612	 7.08415875903535E-02 
613	 7.07723088854971E-02 
614	 7.06908969777885E-02 
615	 0.070663136301955 
616	 7.07782946254967E-02 
617	 7.06169952705264E-02 
618	 7.04975287099443E-02 
619	 7.05456170954419E-02 
620	 7.04532991928068E-02 
621	 7.03243778184236E-02 
622	 7.02689597918432E-02 
623	 7.03322687025943E-02 
624	 7.02153061431534E-02 
625	 7.00842689775681E-02 
626	 6.99808406536967E-02 
627	 6.98207416123938E-02 
628	 6.97846506104422E-02 
629	 0.069808920820426 
630	 6.97950572040145E-02 
631	 0.069677447601571 
632	 6.96296113025775E-02 
633	 6.96252588697363E-02 
634	 6.95575358739409E-02 
635	 6.95325928391276E-02 
636	 6.94941532864225E-02 
637	 6.94074444259872E-02 
638	 6.92877601082021E-02 
639	 6.91487509052679E-02 
640	 6.89845453820886E-02 
641	 6.88053051807759E-02 
642	 6.87122544736327E-02 
643	 6.85585246960548E-02 
644	 6.82758196933806E-02 
645	 6.78812206108994E-02 
646	 6.76052343902258E-02 
647	 6.74083752134424E-02 
648	 6.72515050946366E-02 
649	 6.72483417012797E-02 
650	 6.70782958665886E-02 
651	 6.68241735688402E-02 
652	 6.66856511691483E-02 
653	 0.066423909010739 
654	 6.61285897723577E-02 
655	 6.58035799610673E-02 
656	 6.53579665489801E-02 
657	 6.50734578652465E-02 
658	 6.48670154211791E-02 
659	 0.064620506494954 
660	 6.43664156830066E-02 
661	 0.064138204835874 
662	 6.39418657121184E-02 
663	 6.37710683713019E-02 
664	 6.36542312010252E-02 
665	 6.35265138943176E-02 
666	 6.33557911453214E-02 
667	 6.31856282647646E-02 
668	 6.30891575663394E-02 
669	 0.062993424154279 
670	 6.28228548362275E-02 
671	 0.062749001428893 
672	 6.27558357926865E-02 
673	 6.27608206365426E-02 
674	 6.26430134100919E-02 
675	 6.25930486174855E-02 
676	 6.25944016165651E-02 
677	 6.26091859556875E-02 
678	 6.26600266082432E-02 
679	 6.26760250209808E-02 
680	 6.26809147755684E-02 
681	 6.27255380926312E-02 
682	 0.062703818999573 
683	 6.27253377623078E-02 
684	 6.27784289978962E-02 
685	 6.26623246617726E-02 
686	 6.25113579925354E-02 
687	 6.24300621517986E-02 
688	 6.24661911488279E-02 
689	 6.25436280205055E-02 
690	 6.25421127780664E-02 
691	 6.23262203595123E-02 
692	 6.18015996679273E-02 
693	 6.15392493671014E-02 
694	 6.15667232661963E-02 
695	 6.16716524167909E-02 
696	 6.14840046749972E-02 
697	 6.10762586209693E-02 
698	 6.04737218218743E-02 
699	 5.98044236687629E-02 
700	 5.94438092986804E-02 
701	 5.91956861082885E-02 
702	 0.058897808240163 
703	 5.84507024528225E-02 
704	 5.78666926787658E-02 
705	 5.72150457447828E-02 
706	 5.65828526340622E-02 
707	 5.60455234398199E-02 
708	 5.53335836807339E-02 
709	 5.44899603933665E-02 
710	 5.36450589302782E-02 
711	 5.26810421723077E-02 
712	 5.16642590958672E-02 
713	 5.05727908972718E-02 
714	 4.92502530687382E-02 
715	 4.77966534166763E-02 
716	 0.046163213326278 
717	 4.44936695317465E-02 
718	 4.29963331311505E-02 
719	 4.19665563144969E-02 
720	 0.04132977510517 
721	 4.06693756307755E-02 
722	 3.95880516060507E-02 
723	 3.81717515270809E-02 
724	 3.67608034791565E-02 
725	 3.55434198961646E-02 
726	 3.45562397507089E-02 
727	 3.34552070761279E-02 
728	 3.20511926898425E-02 
729	 3.07633759904299E-02 
730	 2.95689813324624E-02 
731	 2.85908289714518E-02 
732	 2.78620375491757E-02 
733	 2.71789987934758E-02 
734	 0.026482203920642 
735	 2.58191613447742E-02 
736	 0.025352171129716 
737	 2.51110968834231E-02 
738	 2.49743759541565E-02 
739	 2.48323940200141E-02 
740	 2.47115529807891E-02 
741	 2.46834615532317E-02 
742	 2.46827637204131E-02 
743	 2.45963424209196E-02 
744	 0.024560272062178 
745	 2.45385349564684E-02 
746	 2.44967770130684E-02 
747	 2.44257367843816E-02 
748	 2.44043468833455E-02 
749	 2.44374643154109E-02 
750	 2.44808594685211E-02 
751	 2.44030458831532E-02 
752	 2.43622729816017E-02 
753	 2.43617735783397E-02 
754	 2.43247114005186E-02 
755	 2.43080680727829E-02 
756	 2.42289385915269E-02 
757	 2.40726766189554E-02 
758	 2.39104715095099E-02 
759	 2.35781800831616E-02 
760	 2.31290014534651E-02 
761	 2.29929893107312E-02 
762	 2.30840759296659E-02 
763	 2.32369671263183E-02 
764	 2.34713225892203E-02 
765	 2.38240776810013E-02 
766	 2.41270667298836E-02 
767	 2.42970109924445E-02 
768	 2.43588851397858E-02 
769	 2.44225510556441E-02 
770	 2.45465674511622E-02 
771	 2.46675284024092E-02 
772	 2.47430128667328E-02 
773	 2.48685965120567E-02 
774	 2.49663804316995E-02 
775	 2.50341134666938E-02 
776	 2.51011664987788E-02 
777	 2.51521987169798E-02 
778	 2.52807244091937E-02 
779	 2.54476268866138E-02 
780	 2.54889961907082E-02 
781	 2.55731761664485E-02 
782	 2.57288859226883E-02 
783	 2.59198512154743E-02 
784	 2.60246632066512E-02 
785	 2.61552932053338E-02 
786	 2.62419753285471E-02 
787	 2.62246597848231E-02 
788	 2.64365717693351E-02 
789	 2.66557768135358E-02 
790	 2.68190471402643E-02 
791	 2.70215359091102E-02 
792	 0.027316564058273 
793	 2.75075573629824E-02 
794	 2.75507384412182E-02 
795	 2.76938544971309E-02 
796	 2.78660432565995E-02 
797	 2.80264107155795E-02 
798	 2.81658795039674E-02 
799	 2.83586291957397E-02 
800	 2.84287149270566E-02 
801	 2.85017427701503E-02 
802	 0.028802946426891 
803	 2.89257442214344E-02 
804	 2.90342766763286E-02 
805	 2.91376358328588E-02 
806	 0.029037552257346 
807	 2.90418497396435E-02 
808	 2.90233224957928E-02 
809	 2.88362674559172E-02 
810	 2.85095418037914E-02 
811	 2.81810150551191E-02 
812	 2.78426503989149E-02 
813	 2.74539395085373E-02 
814	 2.71802500951852E-02 
815	 2.69704245524997E-02 
816	 2.67597452713805E-02 
817	 2.65045639623923E-02 
818	 2.63090978106742E-02 
819	 2.61521806470421E-02 
820	 2.59461840492881E-02 
821	 2.55431813545084E-02 
822	 2.48905659932077E-02 
823	 2.42408929717265E-02 
824	 2.37796856650673E-02 
825	 2.33325547685537E-02 
826	 2.26517434994929E-02 
827	 2.18153115183681E-02 
828	 2.10811502454672E-02 
829	 0.020424477673547 
830	 1.99279168961764E-02 
831	 1.95949406147549E-02 
832	 1.93675780121921E-02 
833	 1.90889549915464E-02 
834	 1.88034459498844E-02 
835	 1.85658086131748E-02 
836	 1.84081716727712E-02 
837	 1.83732581717122E-02 
838	 1.84565610787312E-02 
839	 1.85575850463439E-02 
840	 1.83601424123376E-02 
841	 0.018173198756036 
842	 1.80738765937418E-02 
843	 1.80472460159261E-02 
844	 1.81074519675575E-02 
845	 1.79942379678585E-02 
846	 1.78153263464392E-02 
847	 1.78775087146875E-02 
848	 1.77846117617607E-02 
849	 1.77008924179877E-02 
850	 1.76964462592219E-02 
851	 1.76425981484582E-02 
852	 1.75331535598425E-02 
853	 1.74152588116735E-02 
854	 1.73187913253266E-02 
855	 1.71958561090921E-02 
856	 1.71920131081209E-02 
857	 1.71930071646855E-02 
858	 1.70864846127798E-02 
859	 1.70307219715624E-02 
860	 1.69825289361643E-02 
861	 0.016959548272442 
862	 1.69716568388371E-02 
863	 1.67906325791828E-02 
864	 1.67374437953691E-02 
865	 1.67865912142973E-02 
866	 1.65979767650022E-02 
867	 1.63478279693451E-02 
868	 1.63635795834523E-02 
869	 0.016542815946809 
870	 1.62530874745939E-02 
871	 1.62214387545252E-02 
872	 1.62203115807726E-02 
873	 1.60470699252437E-02 
874	 1.60246732298919E-02 
875	 1.59051004236742E-02 
876	 1.57864290945797E-02 
877	 1.57958383013826E-02 
878	 1.57719126198099E-02 
879	 0.015748687927972 
880	 1.56836010184992E-02 
881	 1.55224464634299E-02 
882	 0.015315866545946 
883	 1.52705657157286E-02 
884	 1.53725580373157E-02 
885	 1.54177680827475E-02 
886	 1.51905124284315E-02 
887	 1.50053290974763E-02 
888	 1.49714294650428E-02 
889	 1.48919203708011E-02 
890	 1.47117969384278E-02 
891	 1.43889965602758E-02 
892	 1.40566093936603E-02 
893	 1.41608470310698E-02 
894	 1.40335105169085E-02 
895	 0.01354188533706 
896	 1.29494862923696E-02 
897	 1.31177501749211E-02 
898	 1.33443927602654E-02 
899	 1.33595462044059E-02 
900	 1.31845750838382E-02 
901	 1.30716152997854E-02 
902	 1.33113395062984E-02 
903	 1.34639850925478E-02 
904	 1.30643345829811E-02 
905	 1.29464530254174E-02 
906	 1.26743889058988E-02 
907	 1.25071198985995E-02 
908	 1.29398899216757E-02 
909	 1.19531569976893E-02 
910	 1.17980337602963E-02 
911	 1.27676328879741E-02 
912	 1.30476792524956E-02 
913	 1.24295419655976E-02 
914	 1.18365824089157E-02 
915	 1.18059471584853E-02 
916	 0.012133468348988 
917	 1.24643555246242E-02 
918	 1.23209983360294E-02 
919	 1.18199641557597E-02 
920	 1.17606862802116E-02 
921	 1.15932132148693E-02 
922	 1.16636451187227E-02 
923	 1.19502139905608E-02 
924	 1.13064567624433E-02 
925	 0.011029271043164 
926	 1.11685188971663E-02 
927	 1.11802720099932E-02 
928	 9.8137571646521E-03 
929	 9.30553766535536E-03 
930	 9.70218135528896E-03 
931	 9.57187228885156E-03 
932	 8.53751477362623E-03 
933	 1.03376868118242E-02 
934	 1.00169667043655E-02 
935	 3.48648883703454E-03 
936	 6.97503091058911E-03 
937	 7.87593051328842E-03 
938	 6.49862901317838E-03 
939	 6.6305077558154E-03 
940	 8.09419591016143E-03 
941	 8.5833442362582E-03 
942	 7.91961756727218E-03 
943	 7.08317540551975E-03 
944	 6.58666568466101E-03 
945	 6.77885877741282E-03 
946	 7.19845154253673E-03 
947	 7.0276111371543E-03 
948	 5.99362134462757E-03 
949	 7.77348221560427E-03 
950	 0.010016195434178 
951	 8.18632786516886E-03 
952	 9.22675166078162E-03 
953	 5.42605687342524E-03 
954	 1.58741186318922E-03 
955	 7.90255986097474E-03 
956	 0.010195069643229 
957	 8.23282761449002E-03 
958	 6.99146838512226E-03 
959	 0.011535332020857 
960	 9.76668311550227E-03 
961	 1.01515401317952E-02 
962	 1.22851888611989E-02 
963	 1.00682234074449E-02 
964	 9.77353520207036E-03 
965	 9.47264235307638E-03 
966	 9.26441376561038E-03 
967	 1.05739674435442E-02 
968	 1.02077045949383E-02 
969	 8.79653803222994E-03 
970	 8.14195074259821E-03 
971	 0.010024777496395 
972	 1.04887315429682E-02 
973	 1.05824070146141E-02 
974	 1.09051456723534E-02 
975	 1.09682442413076E-02 
976	 9.43940917783464E-03 
977	 1.04916292862922E-02 
978	 1.24830763801372E-02 
979	 9.97255634408752E-03 
980	 1.10514832343274E-02 
981	 0.011280817385974 
982	 1.05094691997921E-02 
983	 1.20764657387765E-02 
984	 1.10131585424572E-02 
985	 0.010947233664808 
986	 1.17477173422984E-02 
987	 1.04724340254972E-02 
988	 1.06135079477769E-02 
989	 1.16370731879567E-02 
990	 1.20716794498251E-02 
991	 1.07797287023468E-02 
992	 1.11701903285056E-02 
993	 0.012196463653247 
994	 1.26242623490273E-02 
995	 1.17705316784543E-02 
996	 1.08117028301404E-02 
997	 1.15745992284357E-02 
998	 1.29636938038273E-02 
999	 1.26751797886917E-02 
1000	 1.27468125522106E-02 
1001	 1.05174016801366E-02 
1002	 1.06215269802615E-02 
1003	 1.08499704048966E-02 
1004	 1.12726601286744E-02 
1005	 1.13957105369217E-02 
1006	 1.14527036146582E-02 
1007	 1.16178918138777E-02 
1008	 1.14020214110023E-02 
1009	 1.14945936240717E-02 
1010	 0.011637693654425 
1011	 1.16591173088224E-02 
1012	 0.01171985537894 
1013	 1.14931020303664E-02 
1014	 1.14603722704595E-02 
1015	 1.14908732832671E-02 
1016	 1.14483156863248E-02 
1017	 1.14920912890442E-02 
1018	 1.14952948067971E-02 
1019	 1.14115062067176E-02 
1020	 1.12690663415795E-02 
1021	 1.10867772991344E-02 
1022	 1.08249027840476E-02 
1023	 1.09329479118004E-02 
1024	 1.10213954579646E-02 
1025	 1.09897438143163E-02 
1026	 0.011301029329978 
1027	 0.011460882441809 
1028	 1.14196446952298E-02 
1029	 1.15449114475298E-02 
1030	 1.20815619655239E-02 
1031	 1.19660010773585E-02 
1032	 1.13494833045354E-02 
1033	 1.11036645378918E-02 
1034	 1.04954719060122E-02 
1035	 1.03941720159718E-02 
1036	 1.08400461865666E-02 
1037	 0.0110925377649 
1038	 1.14278143566145E-02 
1039	 1.18414086446493E-02 
1040	 1.21303277461258E-02 
1041	 1.25403193550614E-02 
1042	 1.23772046158705E-02 
1043	 1.18815131672439E-02 
1044	 1.15455975975757E-02 
1045	 1.05654666377488E-02 
1046	 1.04903788804856E-02 
1047	 1.11336977327205E-02 
1048	 1.13194146349331E-02 
1049	 1.17461753777945E-02 
1050	 1.19108506304994E-02 
1051	 1.16469073135369E-02 
1052	 1.16504293930913E-02 
1053	 1.18091958925335E-02 
1054	 1.18859933922809E-02 
1055	 1.21096761308881E-02 
1056	 1.21211740532179E-02 
1057	 1.20182336004328E-02 
1058	 1.17684103542754E-02 
1059	 1.15602184730938E-02 
1060	 1.10605742820295E-02 
1061	 1.10472860163164E-02 
1062	 1.13363591893883E-02 
1063	 1.14207809406353E-02 
1064	 1.17875608883398E-02 
1065	 0.011823022923188 
1066	 1.15141362833552E-02 
1067	 1.13661802824431E-02 
1068	 1.10446022575279E-02 
1069	 1.09911823217724E-02 
1070	 1.12271465764758E-02 
1071	 1.12916107583262E-02 
1072	 1.13876048469264E-02 
1073	 1.15586136421879E-02 
1074	 1.15772965096689E-02 
1075	 1.13974147985007E-02 
1076	 1.12586446293284E-02 
1077	 1.11214602884865E-02 
1078	 1.10027225817419E-02 
1079	 1.07081690360053E-02 
1080	 1.07504582151545E-02 
1081	 1.10646190010261E-02 
1082	 1.11676252349357E-02 
1083	 1.14951947751464E-02 
1084	 1.15242225207335E-02 
1085	 0.011169472623897 
1086	 1.10455442633863E-02 
1087	 1.07074866693192E-02 
1088	 1.06578777938322E-02 
1089	 1.09522730330728E-02 
1090	 1.13917535937687E-02 
1091	 1.12459335948775E-02 
1092	 1.09166450051053E-02 
1093	 1.07805307048418E-02 
1094	 1.00560264383116E-02 
1095	 9.99620757995585E-03 
1096	 1.08620582259373E-02 
1097	 1.08565642979463E-02 
1098	 1.03857434658292E-02 
1099	 0.010302500687919 
1100	 9.91920912464824E-03 
1101	 9.81022213506804E-03 
1102	 1.04683409943831E-02 
1103	 1.05434983802216E-02 
1104	 1.03263201152535E-02 
1105	 9.95507185116917E-03 
1106	 9.31695064324674E-03 
1107	 0.008853238281461 
1108	 9.01809180265885E-03 
1109	 9.31393411110785E-03 
1110	 9.36627207080249E-03 
1111	 9.6596911086656E-03 
1112	 9.77256663073372E-03 
1113	 9.31894040498799E-03 
1114	 9.08115557571005E-03 
1115	 9.58646508447856E-03 
1116	 9.41207121047992E-03 
1117	 7.60760004728676E-03 
1118	 7.36798580562567E-03 
1119	 8.5377857529233E-03 
1120	 7.94033625586919E-03 
1121	 6.96409549035037E-03 
1122	 8.40326685595045E-03 
1123	 3.80824084555387E-03 
1124	 1.97742454153052E-03 
1125	 5.00812273155679E-03 
1126	 5.04689384014501E-03 
1127	 9.21044663191646E-03 
1128	 1.08570357707891E-02 
1129	 8.92287508218165E-03 
1130	 3.04972055230304E-03 
1131	 3.45131755789947E-03 
1132	 3.91385997988012E-03 
1133	 4.62445632956086E-03 
1134	 8.92917070939078E-03 
1135	 8.78777547065304E-03 
1136	 5.91149132159353E-03 
1137	 5.13811668187817E-03 
1138	 3.83618350397576E-03 
1139	 3.17688752270647E-03 
1140	 5.61345481832694E-03 
1141	 6.83561066696817E-03 
1142	 5.68475176366346E-03 
1143	 4.44537680306845E-03 
1144	 3.06062197116388E-03 
1145	 2.17041831040073E-03 
1146	 3.20617809929746E-03 
1147	 6.79292962724441E-03 
1148	 9.28836937420826E-03 
1149	 7.06733038157766E-03 
1150	 7.09626576370511E-03 
1151	 7.80225170819747E-03 
1152	 7.47457832807484E-03 
1153	 7.06804161688037E-03 
1154	 7.22055878043129E-03 
1155	 7.14643427671319E-03 
1156	 6.27679100613692E-03 
1157	 7.1560373639819E-03 
1158	 8.01025760065672E-03 
1159	 8.59217590795117E-03 
1160	 8.63167894060433E-03 
1161	 8.41540279821714E-03 
1162	 8.49063348713525E-03 
1163	 8.38866834126595E-03 
1164	 8.86666359731412E-03 
1165	 9.2760018289955E-03 
1166	 9.16451903183034E-03 
1167	 9.29233766521468E-03 
1168	 9.14741897823888E-03 
1169	 9.07127489751875E-03 
1170	 9.38748316951136E-03 
1171	 9.44037293755064E-03 
1172	 9.45478696532365E-03 
1173	 9.50202036638239E-03 
1174	 9.50748166365503E-03 
1175	 9.29694665476635E-03 
1176	 9.32313644350363E-03 
1177	 9.50184822456687E-03 
1178	 9.56566438241381E-03 
1179	 9.56497510481077E-03 
1180	 9.65983593266104E-03 
1181	 9.62714816272372E-03 
1182	 9.47132631410855E-03 
1183	 9.57834763347943E-03 
1184	 9.68989324082144E-03 
1185	 9.67216209955085E-03 
1186	 9.71360069301023E-03 
1187	 9.7759775600883E-03 
1188	 9.69228628660306E-03 
1189	 9.5578343901195E-03 
1190	 9.72464260911171E-03 
1191	 9.65695965661674E-03 
1192	 9.60334998240789E-03 
1193	 9.49892470905717E-03 
1194	 9.84487056538995E-03 
1195	 9.74547405697937E-03 
1196	 9.60294637834214E-03 
1197	 1.00254017209195E-02 
1198	 0.010022128333225 
1199	 9.61865474807497E-03 
1200	 9.6575528676276E-03 
1201	 9.93313967101433E-03 
1202	 9.86656561564298E-03 
1203	 9.89737579141044E-03 
1204	 1.01443298792332E-02 
1205	 9.88518477548534E-03 
1206	 9.59639991778371E-03 
1207	 9.74824358434411E-03 
1208	 9.90253777254344E-03 
1209	 9.96200429077264E-03 
1210	 1.00724550368148E-02 
1211	 0.010174939693729 
1212	 1.00344500861905E-02 
1213	 9.93405127506614E-03 
1214	 9.95397569385328E-03 
1215	 1.00099392953738E-02 
1216	 0.010015248101382 
1217	 1.00743529023847E-02 
1218	 1.00625490397479E-02 
1219	 1.00434204574129E-02 
1220	 1.00437624390172E-02 
1221	 1.01273588286041E-02 
1222	 1.02137216909678E-02 
1223	 1.00767193642263E-02 
1224	 9.96296661733585E-03 
1225	 1.00509442863386E-02 
1226	 1.01972353007744E-02 
1227	 1.02211624257358E-02 
1228	 1.02680596560593E-02 
1229	 0.010367422873923 
1230	 1.03631780916799E-02 
1231	 1.03603770092969E-02 
1232	 1.03355347348648E-02 
1233	 1.02258560567675E-02 
1234	 1.01445049452078E-02 
1235	 1.01463842296063E-02 
1236	 1.03494204524129E-02 
1237	 0.010385525376972 
1238	 1.03421569915589E-02 
1239	 1.04045729565275E-02 
1240	 1.04933361030177E-02 
1241	 1.04433776551533E-02 
1242	 1.04803486329496E-02 
1243	 1.05614344922693E-02 
1244	 1.04885934244267E-02 
1245	 1.04165820511866E-02 
1246	 1.03940850525655E-02 
1247	 1.03291517208683E-02 
1248	 1.02830356675802E-02 
1249	 1.03590765073078E-02 
1250	 1.04851664912926E-02 
1251	 1.03161167600603E-02 
1252	 1.01455047741726E-02 
1253	 1.03262840374651E-02 
1254	 1.03138838415183E-02 
1255	 1.02533268703345E-02 
1256	 1.03383536972821E-02 
1257	 1.04760923064357E-02 
1258	 1.04158121836883E-02 
1259	 1.04110697424147E-02 
1260	 1.04155452830868E-02 
1261	 1.02754494174372E-02 
1262	 1.01444726538409E-02 
1263	 1.00324808914302E-02 
1264	 9.95631363818427E-03 
1265	 9.89716041234085E-03 
1266	 9.89678147589542E-03 
1267	 1.00707906099931E-02 
1268	 1.02664066162382E-02 
1269	 1.03265178219807E-02 
1270	 1.02751378491431E-02 
1271	 1.02250519846724E-02 
1272	 0.01013722854467 
1273	 9.9631520095613E-03 
1274	 1.00227548679985E-02 
1275	 1.02198684915815E-02 
1276	 1.02288143487856E-02 
1277	 1.02253013240458E-02 
1278	 1.01736115670095E-02 
1279	 1.00518313534297E-02 
1280	 9.97249329368182E-03 
1281	 9.95235298729615E-03 
1282	 1.01736879410483E-02 
1283	 1.02156677852107E-02 
1284	 1.00695051130033E-02 
1285	 1.00246824745358E-02 
1286	 1.01061807266432E-02 
1287	 1.00478602789537E-02 
1288	 9.80686038962582E-03 
1289	 9.82444966976934E-03 
1290	 1.00380913732505E-02 
1291	 9.98359156474402E-03 
1292	 9.80509054828192E-03 
1293	 9.84813384029842E-03 
1294	 9.95886594268894E-03 
1295	 9.71313539635913E-03 
1296	 9.59288389088074E-03 
1297	 9.83600614602488E-03 
1298	 9.71396779969805E-03 
1299	 9.57940729045081E-03 
1300	 9.71402471591189E-03 
1301	 9.66453856035751E-03 
1302	 9.54016099201999E-03 
1303	 9.41079236151637E-03 
1304	 9.46255888164448E-03 
1305	 9.58514082930783E-03 
1306	 9.4295214966961E-03 
1307	 9.03819754560724E-03 
1308	 9.09473284966326E-03 
1309	 9.25562206792201E-03 
1310	 9.12928529483322E-03 
1311	 9.15711420116497E-03 
1312	 9.18671139592918E-03 
1313	 8.9122171331382E-03 
1314	 8.76169291444629E-03 
1315	 0.008955248018302 
1316	 9.03200636137097E-03 
1317	 8.71174148491841E-03 
1318	 8.60967489281826E-03 
1319	 9.06556054261217E-03 
1320	 9.02596848075495E-03 
1321	 8.67969548761457E-03 
1322	 8.21912253890169E-03 
1323	 8.14229965502797E-03 
1324	 8.27697158802535E-03 
1325	 8.03161326033438E-03 
1326	 7.3190145919428E-03 
1327	 7.03966713273739E-03 
1328	 7.06749455212914E-03 
1329	 6.97681495472685E-03 
1330	 7.63492578452328E-03 
1331	 8.12282119088869E-03 
1332	 7.61921968631994E-03 
1333	 7.43052925001052E-03 
1334	 7.24400454490194E-03 
1335	 7.29200262594255E-03 
1336	 6.95846285482318E-03 
1337	 6.56922979861695E-03 
1338	 6.50670796203936E-03 
1339	 7.10957181993493E-03 
1340	 7.77054336509575E-03 
1341	 7.41928873518303E-03 
1342	 7.30439335547321E-03 
1343	 7.7787301426498E-03 
1344	 7.10812746501842E-03 
1345	 6.90034529086279E-03 
1346	 9.71843737616352E-03 
1347	 1.05490445513921E-02 
1348	 6.89146609132415E-03 
1349	 5.69050909866324E-03 
1350	 6.46087174421302E-03 
1351	 5.31755319231224E-03 
1352	 5.52335478034415E-03 
1353	 6.28772875414037E-03 
1354	 4.3925905612944E-03 
1355	 3.79231758661234E-03 
1356	 1.13877677083331E-02 
1357	 1.01259062284163E-02 
1358	-6.18074420022252E-02 
1359	-0.115223003553407 
1360	-1.36952974248217E-02 
1361	-5.20059306523906E-02 
1362	-0.184763335620413 
1363	-2.30361180777411E-02 
1364	-6.23485490121628E-04 
1365	-0.13794214046369 
1366	-0.052545022669193 
1367	 7.12784707205841E-02 
1368	 5.86783295142879E-02 
1369	-0.175064485110754 
1370	-3.51887098023589E-02 
1371	 0.277796484162244 
1372	 0.240735469220232 
1373	 0.420047300437569 
1374	 0.459174157906481 
1375	 1.99233650948508E-02 
1376	-0.111699630602871 
1377	-9.01810312548569E-02 
1378	-5.12702884042276E-02 
1379	-0.089492990076393 
1380	-6.06009184385261E-02 
1381	 0.102616141640136 
1382	 0.174298676443977 
1383	 0.194476391893492 
1384	 0.151308511723996 
1385	 0.125367521748788 
1386	 0.162934230275617 
1387	 0.150763750980085 
1388	 4.68690510336831E-02 
1389	-6.00104565078191E-02 
1390	-8.21241694587184E-02 
1391	-0.174335277212376 
1392	-0.145955253770206 
1393	 0.161491747637914 
1394	 8.97096910183852E-02 
1395	-0.19555133033227 
1396	 2.03145615749983E-02 
1397	 8.41911727912266E-03 
1398	-0.145470546726934 
1399	-0.123492369654369 
1400	-6.77782890874041E-02 
1401	 0.149863422768921 
1402	 0.370216283480864 
1403	 0.352176088508301 
1404	 0.473935482893634 
1405	 0.506627859247876 
1406	 0.465387667327583 
1407	 0.344775304903629 
1408	 0.237673977035763 
1409	 0.174420946271698 
1410	 2.27218993251572E-02 
1411	 1.46765463431202E-02 
1412	 9.72855324918927E-02 
1413	 0.102081186855044 
1414	 0.135443391578354 
1415	 8.75284302330615E-02 
1416	-5.65743235299666E-02 
1417	-3.79696617142705E-02 
1418	 0.070610017424182 
1419	 0.040749119636415 
1420	-1.43494029276113E-02 
1421	 1.64972433067096E-02 
1422	 0.050895289710191 
1423	 3.49121596038996E-02 
1424	 4.68713154073266E-02 
1425	 4.75673056855591E-02 
1426	-1.88773185196511E-03 
1427	-1.39426239447751E-02 
1428	 1.22993838997015E-02 
1429	 1.58482525045503E-02 
1430	 2.76414873324415E-03 
1431	 1.78778445822305E-03 
1432	 2.35316120685969E-03 
1433	 4.20885565305269E-04 
1434	 3.7244792704734E-03 
1435	 6.15993022584855E-03 
1436	 6.83743657376524E-03 
1437	 9.6323428794324E-03 
1438	 6.07779496888248E-03 
1439	-4.70819474348716E-03 
1440	 2.11500071348274E-04 
1441	 5.08860677861017E-03 
1442	 7.71039699204486E-05 
1443	 5.90167477339959E-03 
1444	 6.94803902445542E-03 
1445	-2.07118122382501E-03 
1446	 2.92189858764134E-03 
1447	 1.01033872667228E-02 
1448	 9.10040507258131E-03 
1449	 1.14095190102258E-02 
1450	 0.012250196845264 
1451	 9.02977191932724E-03 
1452	 7.77666474926568E-03 
1453	 7.73587036405949E-03 
1454	 7.62444743586663E-03 
1455	 8.08512329036462E-03 
1456	 7.05601547862769E-03 
1457	 4.99778280871852E-03 
1458	 5.20753768505178E-03 
1459	 5.96180877982015E-03 
1460	 5.29914091151339E-03 
1461	 5.0163972303533E-03 
1462	 5.57053887027601E-03 
1463	 0.005296336655294 
1464	 5.18702044702819E-03 
1465	 6.82434135644068E-03 
1466	 7.31716209135887E-03 
1467	 5.91200498133852E-03 
1468	 5.84856082638209E-03 
1469	 7.31023308528009E-03 
1470	 7.54574825624376E-03 
1471	 6.9663376126053E-03 
1472	 6.68738294781915E-03 
1473	 6.07477013638359E-03 
1474	 6.18932689449975E-03 
1475	 6.6711097272167E-03 
1476	 7.02619904432916E-03 
1477	 7.55142543083284E-03 
1478	 7.76202232924424E-03 
1479	 8.16951509048565E-03 
1480	 8.05385841131849E-03 
1481	 7.48327069662588E-03 
1482	 7.27884184830948E-03 
1483	 6.72228786391335E-03 
1484	 6.88500859659179E-03 
1485	 8.01447278039523E-03 
1486	 7.86777023700047E-03 
1487	 6.93538228106865E-03 
1488	 7.07798285361841E-03 
1489	 7.39671419872402E-03 
1490	 7.14977487587493E-03 
1491	 7.16965779757646E-03 
1492	 7.44094418897954E-03 
1493	 7.45913020694613E-03 
1494	 7.26210976256455E-03 
1495	 6.97615432933525E-03 
1496	 7.22905327156976E-03 
1497	 7.80943569410784E-03 
1498	 7.78822849149107E-03 
1499	 7.64139726960201E-03 
1500	 7.92576315020743E-03 
1501	 8.13065741183346E-03 
1502	 8.02607163624019E-03 
1503	 8.25227787574126E-03 
1504	 8.36917130005846E-03 
1505	 8.02790084990425E-03 
1506	 7.66814923481657E-03 
1507	 7.68007834366571E-03 
1508	 7.98161942256085E-03 
1509	 8.1239852383224E-03 
1510	 8.01363449232296E-03 
1511	 8.05963644792989E-03 
1512	 8.23866717754603E-03 
1513	 8.36457287395709E-03 
1514	 8.42273354279043E-03 
1515	 8.44880140058651E-03 
1516	 8.41177508648943E-03 
1517	 8.50185156236922E-03 
1518	 8.74341515469462E-03 
1519	 8.69042990725492E-03 
1520	 8.67431675180612E-03 
1521	 8.77290507331078E-03 
1522	 8.62399027926742E-03 
1523	 8.58010021727255E-03 
1524	 8.75589551761517E-03 
1525	 8.92845980398408E-03 
1526	 8.88196593581151E-03 
1527	 8.73001260045241E-03 
1528	 8.80684234446497E-03 
1529	 8.90450699528714E-03 
1530	 8.84726080756859E-03 
1531	 8.92987615722889E-03 
1532	 9.04938175008547E-03 
1533	 8.95885907371592E-03 
1534	 8.91386043792962E-03 
1535	 8.93310153563491E-03 
1536	 8.86649926115582E-03 
1537	 8.87745220425535E-03 
1538	 8.91372818115804E-03 
1539	 8.80030038154348E-03 
1540	 8.82417852101454E-03 
1541	 9.02957539140396E-03 
1542	 9.01214320408317E-03 
1543	 8.8800229941762E-03 
1544	 8.97278607416683E-03 
1545	 9.06273930679916E-03 
1546	 9.07634598547344E-03 
1547	 9.10115872451748E-03 
1548	 8.99703082512584E-03 
1549	 9.00073532145655E-03 
1550	 9.06857001093374E-03 
1551	 9.15110781077338E-03 
1552	 9.37805285698718E-03 
1553	 9.26029026242044E-03 
1554	 8.93204163915379E-03 
1555	 8.9428186441682E-03 
1556	 9.03763522306382E-03 
1557	 9.07962834279053E-03 
1558	 9.13167643740276E-03 
1559	 9.1500753680415E-03 
1560	 9.16264882089122E-03 
1561	 9.05152703831889E-03 
1562	 8.92196256918385E-03 
1563	 8.99291929144385E-03 
1564	 9.07390517538718E-03 
1565	 9.03250363569487E-03 
1566	 9.17239810286732E-03 
1567	 9.34700577281177E-03 
1568	 9.11776456973569E-03 
1569	 8.86534852904049E-03 
1570	 9.01977949679446E-03 
1571	 9.26191737982941E-03 
1572	 9.2635972187678E-03 
1573	 9.19236942841877E-03 
1574	 9.17994393968397E-03 
1575	 9.18958096704748E-03 
1576	 9.23011403203965E-03 
1577	 9.39312858337431E-03 
1578	 9.54483464221875E-03 
1579	 9.28151308882694E-03 
1580	 9.17902993277242E-03 
1581	 9.52141269642048E-03 
1582	 9.56885290786789E-03 
1583	 9.57395626174407E-03 
1584	 9.64933941753169E-03 
1585	 9.45654896351779E-03 
1586	 9.30851657923965E-03 
1587	 9.20349194900603E-03 
1588	 9.13437118291111E-03 
1589	 9.29597986011717E-03 
1590	 9.36320687318475E-03 
1591	 9.1568717875555E-03 
1592	 9.10807903497722E-03 
1593	 9.3530826003306E-03 
1594	 9.42756793287806E-03 
1595	 9.30184648942831E-03 
1596	 9.23616314100907E-03 
1597	 9.1367094613062E-03 
1598	 9.09966448548446E-03 
1599	 9.13294743505895E-03 
1600	 9.11546851261033E-03 
1601	 9.00871543034374E-03 
1602	 8.7746925783519E-03 
1603	 8.83286331353066E-03 
1604	 9.09105589088376E-03 
1605	 9.09682475782411E-03 
1606	 9.19782898987572E-03 
1607	 9.38377696415828E-03 
1608	 9.44723452131715E-03 
1609	 9.62608655596502E-03 
1610	 9.49921839044439E-03 
1611	 9.10626583464729E-03 
1612	 9.18167355325515E-03 
1613	 9.38961197897241E-03 
1614	 9.4488865914925E-03 
1615	 9.64632343890472E-03 
1616	 9.7435698358178E-03 
1617	 9.48362504170756E-03 
1618	 9.16884923913099E-03 
1619	 9.18962956150801E-03 
1620	 9.21328955435546E-03 
1621	 9.10748633198005E-03 
1622	 9.25723251099829E-03 
1623	 9.28020838430613E-03 
1624	 9.13604002645899E-03 
1625	 9.19443198641563E-03 
1626	 9.2040133778036E-03 
1627	 9.20313585816204E-03 
1628	 9.37490259901929E-03 
1629	 9.36324651380622E-03 
1630	 9.15675249641226E-03 
1631	 9.08387582455834E-03 
1632	 9.1299699186872E-03 
1633	 9.27274217272706E-03 
1634	 9.33008929160925E-03 
1635	 9.34086791157686E-03 
1636	 9.40970256761095E-03 
1637	 9.41020010847263E-03 
1638	 9.45484764082555E-03 
1639	 9.39187702014688E-03 
1640	 9.20742504391534E-03 
1641	 9.05860289519803E-03 
1642	 9.1220986104053E-03 
1643	 9.31698369272192E-03 
1644	 9.3368916381646E-03 
1645	 9.54815931637078E-03 
1646	 9.6687737184206E-03 
1647	 9.45755117291889E-03 
1648	 9.35780720122103E-03 
1649	 9.31282121870098E-03 
1650	 9.3205805536101E-03 
1651	 9.22508001102669E-03 
1652	 9.00533213531164E-03 
1653	 8.85304705240066E-03 
1654	 8.83954137127879E-03 
1655	 9.35108100238263E-03 
1656	 9.49843308638465E-03 
1657	 9.24131801487963E-03 
1658	 9.25160735795002E-03 
1659	 9.42039993277245E-03 
1660	 9.43891192237705E-03 
1661	 9.55845019405521E-03 
1662	 9.48574915026626E-03 
1663	 9.06887599984684E-03 
1664	 9.06221536301192E-03 
1665	 9.17100422937198E-03 
1666	 9.15335612736426E-03 
1667	 9.4646635950115E-03 
1668	 9.46477999755455E-03 
1669	 9.06691743059091E-03 
1670	 8.98535628869369E-03 
1671	 8.90522440597702E-03 
1672	 8.75333274497944E-03 
1673	 8.88617915398027E-03 
1674	 9.0396870592313E-03 
1675	 8.95075455568456E-03 
1676	 8.79652760249195E-03 
1677	 8.81917579706811E-03 
1678	 8.84678838028934E-03 
1679	 8.85034939793916E-03 
1680	 9.17839961999223E-03 
1681	 9.27299586793167E-03 
1682	 9.01171391102998E-03 
1683	 9.08923008354092E-03 
1684	 9.18129285228736E-03 
1685	 9.01894070149971E-03 
1686	 8.96858698908534E-03 
1687	 8.92812060305846E-03 
1688	 8.84947788149903E-03 
1689	 8.91703636067673E-03 
1690	 9.06095224083847E-03 
1691	 9.27673806817425E-03 
1692	 9.05064293572165E-03 
1693	 8.68708892977559E-03 
1694	 8.92558581625123E-03 
1695	 9.13051923373525E-03 
1696	 8.96786155161337E-03 
1697	 8.71745772815968E-03 
1698	 8.67937862511834E-03 
1699	 8.84257609515027E-03 
1700	 9.06428435466406E-03 
1701	 9.2591096642317E-03 
1702	 9.18074624155338E-03 
1703	 8.80325533994861E-03 
1704	 8.32429445052358E-03 
1705	 8.44766789605355E-03 
1706	 9.08747585780665E-03 
1707	 9.06526277783516E-03 
1708	 8.84955019908812E-03 
1709	 8.96678054387572E-03 
1710	 8.64306605948841E-03 
1711	 8.31761882126569E-03 
1712	 8.55799132882849E-03 
1713	 8.91442656630556E-03 
1714	 8.84314992318788E-03 
1715	 8.62313841166524E-03 
1716	 8.52348868627191E-03 
1717	 8.27736587628655E-03 
1718	 8.3164689076528E-03 
1719	 8.51250702448898E-03 
1720	 8.6236474227626E-03 
1721	 8.76460147230432E-03 
1722	 8.94867411682321E-03 
1723	 9.32562535479581E-03 
1724	 9.10199621209936E-03 
1725	 8.50473558109663E-03 
1726	 8.65931113829611E-03 
1727	 8.59659608782428E-03 
1728	 8.36282447628281E-03 
1729	 8.65151273638993E-03 
1730	 8.40816452528287E-03 
1731	 8.01922999273631E-03 
1732	 8.25913194247027E-03 
1733	 8.41085124107056E-03 
1734	 8.24413785323107E-03 
1735	 8.07877301954323E-03 
1736	 8.05292057330999E-03 
1737	 8.07378319668173E-03 
1738	 7.93172784143961E-03 
1739	 7.90124030140034E-03 
1740	 7.87597722507851E-03 
1741	 7.44973576738891E-03 
1742	 7.6415822485109E-03 
1743	 8.35872238119315E-03 
1744	 8.34988294645572E-03 
1745	 8.44245049905281E-03 
1746	 8.03262836959189E-03 
1747	 7.89205406563353E-03 
1748	 8.13530821072527E-03 
1749	 8.20263430806732E-03 
1750	 8.53444738226932E-03 
1751	 8.56737365306467E-03 
1752	 7.79792859355951E-03 
1753	 7.75420897566414E-03 
1754	 8.28519547791868E-03 
1755	 8.43721843176791E-03 
1756	 9.16602620014318E-03 
1757	 8.70745402891973E-03 
1758	 7.19221450675735E-03 
1759	 6.9019655534259E-03 
1760	 7.28086756331753E-03 
1761	 7.68216694761915E-03 
1762	 8.48344780821722E-03 
1763	 8.03769058461416E-03 
1764	 6.84915739294803E-03 
1765	 6.72883895089095E-03 
1766	 6.81615302975828E-03 
1767	 7.48748587054051E-03 
1768	 8.25955655247645E-03 
1769	 7.81715173749537E-03 
1770	 7.72606895526235E-03 
1771	 7.55732548814275E-03 
1772	 6.74166217573968E-03 
1773	 7.02072555022556E-03 
1774	 7.73270523544072E-03 
1775	 7.52266630163795E-03 
1776	 7.32293251504516E-03 
1777	 5.79184765354197E-03 
1778	 5.46444564180184E-03 
1779	 6.72662081268148E-03 
1780	 7.24322343587333E-03 
1781	 8.75416341603778E-03 
1782	 9.07768815265113E-03 
1783	 7.01964692795783E-03 
1784	 6.24850016884881E-03 
1785	 5.59114768900797E-03 
1786	 5.3746602608099E-03 
1787	 6.61686286580786E-03 
1788	 7.17959912685379E-03 
1789	 8.15342844805136E-03 
1790	 7.90961703659888E-03 
1791	 5.24775544188182E-03 
1792	 5.19053700209716E-03 
1793	 4.21386266497879E-03 
1794	 6.3078141942358E-03 
1795	 1.40531416939171E-02 
1796	 1.56763312906555E-02 
1797	 1.58952794246274E-02 
1798	 1.31692388688807E-02 
1799	 3.97310996625202E-03 
1800	 4.17526751275676E-03 
1801	 3.92145910259214E-03 
1802	 1.69307498315775E-02 
1803	 1.97526583298724E-02 
1804	 7.13925160658534E-03 
1805	-3.47890395305677E-03 
1806	-4.73928426209138E-02 
1807	-0.061362312580984 
1808	-1.57123343321951E-02 
1809	 1.07810740722585E-02 
1810	 0.134333430171535 
1811	 0.146009624345258 
1812	-0.104499249920101 
1813	-0.155324736609848 
1814	-0.184990651970654 
1815	-0.198971583170452 
1816	 0.108052988226643 
1817	-0.11859945805498 
1818	-0.205530011378891 
1819	 8.86105236467651E-02 
1820	-7.75626359410467E-02 
1821	 0.32930306005838 
1822	 0.419026135952833 
1823	-0.145379488814797 
1824	-0.206843535476658 
1825	-0.236588430327842 
1826	-0.161591981941389 
1827	 0.628248518616271 
1828	 1.35647854174051 
1829	-1.2671536688969 
1830	-1.58427991610519 
1831	-8.07272178975208E-02 
1832	 8.55939297243768E-02 
1833	 1.35505210202289 
1834	 1.89918783311427 
1835	-0.570036150886723 
1836	 0.295112039990385 
1837	-0.69464314194013 
1838	-0.985485322318671 
1839	-8.42637358995445 
1840	-9.51504012216232E-02 
1841	 0.239587990619613 
1842	 0.556552592675045 
1843	 0.660966035016307 
1844	 2.02198760248171 
1845	 3.15988845104449 
1846	 1.5636285872627 
1847	 1.55863859969591 
1848	 4.76659766206165 
1849	-0.947751464721166 
1850	-0.786969271767638 
1851	-0.991936798397274 
1852	-0.584783789229696 
1853	-1.01640127356671 
1854	 1.62088960888838 
1855	 2.2525620478369 
1856	 1.83508639883261 
1857	 0.348595832384368 
1858	 0.314196105141718 
1859	 0.752338121300704 
1860	 4.353704646079 
1861	 3.36227857187486 
1862	 2.03346828286752 
1863	 1.7046395966181 
1864	 0.689967517613202 
1865	 0.227073802687684 
1866	 0.708189597047231 
1867	 1.0579727043668 
1868	 0.661980767313226 
1869	 0.478308454119271 
1870	 0.250988228126968 
1871	-0.343874102430984 
1872	 0.226197815860891 
1873	 0.672054160908053 
1874	 7.93774082614342 
1875	-2.78124039169826 
1876	-2.61974512993941 
1877	-0.848694922773181 
1878	-0.727710110171518 
1879	 0.398797000917186 
1880	 0.775834990166469 
1881	 9.16309633198541 
1882	-11.8480879452169 
1883	-3.25908281349815 
1884	 103.145783188058 
1885	 0.780368796209307 
1886	 1.44726790516728 
1887	 21.2687937133917 
1888	-21.2183129366323 
1889	 0.999830194138054 
1890	 0.670445791533713 
1891	 0.797112169145571 
1892	 1.60676054261532 
1893	 1.08982016793797 
1894	 0.334857890059134 
1895	 0.622774462825932 
1896	 5.74814361541145E-02 
1897	-0.385106467967654 
1898	-0.947904009972515 
1899	-1.60613402508158 
1900	-2.95721994264698 
1901	-0.7800635746548 
1902	-0.89937144273172 
1903	-0.677313877805264 
1904	-0.511347270142317 
1905	-0.438965986696468 
1906	-0.25320198445399 
1907	-7.47256035138233E-02 
1908	 0.442589451466444 
1909	-0.482650806745582 
1910	-8.04791697108647E-02 
1911	-0.281990058179842 
1912	-0.124164504992552 
1913	-0.218295023207779 
1914	-26.1068283833382 
1915	 2.17275546199209 
1916	 1.31209768559463 
1917	 2.62604118767864 
1918	 0.747357099561748 
1919	-0.895308583555393 
1920	-2.03558699441033 
1921	-5.97961552206115 
1922	-4.12618177896252 
1923	-1.97261738964726 
1924	-1.56833731960986 
1925	-1.45963721885789 
1926	-1.24271010547328 
1927	-1.65385631393576 
1928	-0.748145012544992 
1929	 0.503904150806956 
1930	-0.221367453735697 
1931	 0.101545586207907 
1932	 0.471919386697005 
1933	 0.778655319489015 
1934	 0.94697833293594 
1935	 0.244321397165889 
1936	-4.43449541479823E-02 
1937	-9.77091149564364E-02 
1938	-0.136826567942653 
1939	-0.156626637087745 
1940	-0.181136012375835 
1941	-0.149677636819094 
1942	-0.140124389524055 
1943	-0.113134177566169 
1944	 2.70247134056346E-03 
1945	 0.049483550006433 
1946	 0.059378378086424 
1947	 0.117254945954638 
1948	 0.116330776001844 
1949	 5.56688576188112E-02 
1950	 1.68781182511015E-03 
1951	-1.98091010631699E-02 
1952	-2.09736551653544E-02 
1953	-1.58924979621417E-02 
1954	-4.24217554839624E-04 
1955	 3.82772170664992E-02 
1956	 4.93708824659544E-02 
1957	 2.03497947484612E-02 
1958	 2.50975189426061E-02 
1959	 3.45813322915144E-02 
1960	 2.85482525447898E-02 
1961	 2.21631973148368E-02 
1962	 0.011359483873471 
1963	 0.010376262971345 
1964	 1.21585840195814E-02 
1965	 9.9765763314515E-03 
1966	 9.51954263128494E-03 
1967	 1.20667301232276E-02 
1968	 9.89170980265867E-03 
1969	 7.02670173407541E-03 
1970	 8.3725122144149E-03 
1971	 1.05228911175932E-02 
1972	 0.01108728954344 
1973	 9.53590115667368E-03 
1974	 8.53298781604432E-03 
1975	 7.44442721254471E-03 
1976	 6.73363767004968E-03 
1977	 7.82388456250762E-03 
1978	 8.21647529195273E-03 
1979	 7.43556512684589E-03 
1980	 6.03823089137715E-03 
1981	 4.31438788499079E-03 
1982	 2.86697049378871E-03 
1983	 2.36368553267908E-03 
1984	 3.02399504985491E-03 
1985	 3.90987555867705E-03 
1986	 4.50521435136639E-03 
1987	 5.04081903308121E-03 
1988	 5.43840422711787E-03 
1989	 5.54604158373486E-03 
1990	 5.8024326137507E-03 
1991	 6.31985653450724E-03 
1992	 6.75359852630581E-03 
1993	 7.0193973670572E-03 
1994	 7.08476093329352E-03 
1995	 6.74228382863878E-03 
1996	 6.44055643942239E-03 
1997	 6.83599520611282E-03 
1998	 8.07488433277466E-03 
1999	 9.12037467952104E-03 
2000	 9.67804190788999E-03 
2001	 9.93294481568291E-03 
2002	 8.32438597389544E-03 
2003	 6.22222096369718E-03 
2004	 4.24398628734105E-03 
2005	 4.21109188786576E-03 
2006	 8.14148477561726E-03 
2007	 1.06149134288368E-02 
2008	 1.01265338692303E-02 
2009	 1.07921716899803E-02 
2010	 8.84869262597699E-03 
2011	 7.64855723725371E-03 
2012	 6.18095186286942E-03 
2013	 9.23261809902392E-03 
2014	 1.26887046827236E-02 
2015	 1.20001061228465E-02 
2016	 0.011509582553612 
2017	 0.011193755931068 
2018	 7.87678548144225E-03 
2019	 5.71135691528198E-03 
2020	 5.65041328095043E-03 
2021	 6.50627437672748E-03 
2022	 6.38718955963088E-03 
2023	 6.21819340089769E-03 
2024	 6.27171811432875E-03 
2025	 5.6497814976617E-03 
2026	 5.40946940564175E-03 
2027	 5.27668024577444E-03 
2028	 6.41182584941201E-03 
2029	 6.87075113666144E-03 
2030	 7.08173497239699E-03 
2031	 7.42613430212533E-03 
2032	 7.24072726560217E-03 
2033	 6.33034817526017E-03 
2034	 6.60304094037112E-03 
2035	 7.33192143931098E-03 
2036	 7.08746400138979E-03 
2037	 7.04635536214704E-03 
2038	 6.85149996976612E-03 
2039	 6.57180381536106E-03 
2040	 5.76654666756269E-03 
2041	 5.84054242729506E-03 
2042	 6.58554168772353E-03 
2043	 6.6996008864666E-03 
2044	 7.08834594060673E-03 
2045	 6.77826841804822E-03 
2046	 6.16254274323058E-03 
2047	 6.00447221125076E-03 
2048	 5.79024778201786E-03 
2049	 6.17092756658736E-03 
2050	 7.13275522814759E-03 
2051	 7.69737061605525E-03 
2052	 8.00002295173214E-03 
2053	 8.18136668564458E-03 
2054	 7.8523893212877E-03 
2055	 7.61596034758683E-03 
2056	 7.66565908528235E-03 
2057	 8.30292131502557E-03 
2058	 8.39720588337395E-03 
2059	 8.51236942301111E-03 
2060	 8.45713032795952E-03 
2061	 7.86410818653895E-03 
2062	 8.29189532456987E-03 
2063	 8.26904967489461E-03 
2064	 6.6345879395545E-03 
2065	 6.16077497224725E-03 
2066	 5.97625110251182E-03 
2067	 5.36970567542123E-03 
2068	 5.75055503407324E-03 
2069	 5.75485076452276E-03 
2070	 5.30438640553642E-03 
2071	 5.97340598043373E-03 
2072	 6.70268419671235E-03 
2073	 6.8031499009983E-03 
2074	 6.68409404086969E-03 
2075	 6.70238905967224E-03 
2076	 5.93205015241133E-03 
2077	 5.88369592530015E-03 
2078	 6.87868894489845E-03 
2079	 7.06134716819548E-03 
2080	 6.89641437870957E-03 
2081	 7.04547674490471E-03 
2082	 6.65898174460695E-03 
2083	 5.77689272940594E-03 
2084	 0.00566636554307 
2085	 5.44890851864376E-03 
2086	 5.63345478682691E-03 
2087	 5.88034306618068E-03 
2088	 6.0167007998318E-03 
2089	 6.41314001438236E-03 
2090	 6.63037918356202E-03 
2091	 6.67021115785102E-03 
2092	 6.80258560435509E-03 
2093	 6.89306494857881E-03 
2094	 6.81562569008519E-03 
2095	 6.66136609341206E-03 
2096	 6.66234548377325E-03 
2097	 6.51240071426011E-03 
2098	 6.37064453746054E-03 
2099	 6.29071809993034E-03 
2100	 6.48825977053128E-03 
2101	 6.71550194785023E-03 
2102	 6.60233718591645E-03 
2103	 7.14209216553716E-03 
2104	 7.91809325730411E-03 
2105	 7.95354597534653E-03 
2106	 7.6961867663397E-03 
2107	 7.3531000198032E-03 
2108	 7.11755933937805E-03 
2109	 7.18076406208106E-03 
2110	 7.40356736401216E-03 
2111	 7.5182968644317E-03 
2112	 7.76721221223234E-03 
2113	 7.89233487800761E-03 
2114	 7.92594896472805E-03 
2115	 7.80878356222236E-03 
2116	 7.47002778040852E-03 
2117	 7.44363760510332E-03 
2118	 7.29013799046005E-03 
2119	 7.28074484016972E-03 
2120	 0.007624922595904 
2121	 8.02185011976238E-03 
2122	 8.1539146956965E-03 
2123	 8.79316138843159E-03 
2124	 8.95520351951313E-03 
2125	 9.1181490245915E-03 
2126	 9.13457437556418E-03 
2127	 8.50163503205423E-03 
2128	 8.19114191034855E-03 
2129	 8.13840571419181E-03 
2130	 8.13514804745766E-03 
2131	 8.49072829801373E-03 
2132	 8.6504957385775E-03 
2133	 7.95353027857236E-03 
2134	 7.72933154574704E-03 
2135	 7.07996745963429E-03 
2136	 6.92942275949656E-03 
2137	 7.61664664165335E-03 
2138	 7.65961299055433E-03 
2139	 7.31523193906509E-03 
2140	 7.09639184788079E-03 
2141	 6.29372769255464E-03 
2142	 6.34837754147534E-03 
2143	 7.28006929235399E-03 
2144	 7.45121709386913E-03 
2145	 7.10243964322498E-03 
2146	 7.31539083311955E-03 
2147	 6.23642761825834E-03 
2148	 5.10714618297064E-03 
2149	 5.11682373478277E-03 
2150	 5.63909028517365E-03 
2151	 6.35858815823078E-03 
2152	 6.96879251844627E-03 
2153	 7.11937112197564E-03 
2154	 6.22655775782799E-03 
2155	 5.80448962112454E-03 
2156	 5.8334726554403E-03 
2157	 5.62372065878514E-03 
2158	 5.79197222729582E-03 
2159	 6.03051713404234E-03 
2160	 5.86821063465179E-03 
2161	 5.90074597750451E-03 
2162	 6.54142686493113E-03 
2163	 7.02756629401936E-03 
2164	 0.007584296607009 
2165	 7.55399713526975E-03 
2166	 6.71890606029281E-03 
2167	 7.05277110886545E-03 
2168	 8.16547754181304E-03 
2169	 7.90961339902104E-03 
2170	 7.63328124178023E-03 
2171	 7.59879621660915E-03 
2172	 6.6419739624593E-03 
2173	 6.50025165429784E-03 
2174	 7.51270628633218E-03 
2175	 7.68598828360194E-03 
2176	 7.66187387234539E-03 
2177	 7.62183902920084E-03 
2178	 6.54953914409283E-03 
2179	 6.65519552859622E-03 
2180	 7.64806756006356E-03 
2181	 7.47872542428762E-03 
2182	 7.85859403161422E-03 
2183	 8.21960353575316E-03 
2184	 6.59492060204798E-03 
2185	 6.04605324787723E-03 
2186	 5.90325006054945E-03 
2187	 6.78779225145198E-03 
2188	 7.11153938791538E-03 
2189	 7.52806264564127E-03 
2190	 7.34357885753526E-03 
2191	 6.92038107471145E-03 
2192	 6.68032163852571E-03 
2193	 5.40606594135406E-03 
2194	 5.77493008753957E-03 
2195	 8.51325424126775E-03 
2196	 8.91535438568655E-03 
2197	 8.88666076450614E-03 
2198	 9.19792026192967E-03 
2199	 8.73857848396283E-03 
2200	 5.97089866246282E-03 
2201	 7.09569973111919E-03 
2202	 7.19734118630108E-03 
2203	 5.18402932785858E-03 
2204	 6.40360596278332E-03 
2205	 8.45710843289388E-03 
2206	 8.88199009401193E-03 
2207	 8.33311040661304E-03 
2208	 7.11969986818481E-03 
2209	 4.4845742314974E-03 
2210	 2.78610656424629E-03 
2211	 4.3410793678324E-03 
2212	 5.7893545193857E-03 
2213	 5.19920195853317E-03 
2214	 5.00581434498882E-03 
2215	 7.21308051285947E-03 
2216	 8.62093173009256E-03 
2217	 8.67260250605485E-03 
2218	 9.56378154086343E-03 
2219	 8.79111537756222E-03 
2220	 4.05762631518909E-03 
2221	 3.53913854679582E-03 
2222	 5.0482964586923E-03 
2223	 5.47808743701919E-03 
2224	 7.62850653682515E-03 
2225	 8.35489640712939E-03 
2226	 7.40060330612232E-03 
2227	 7.65509950472353E-03 
2228	 8.54119519637807E-03 
2229	 8.39217906605444E-03 
2230	 8.47156246789185E-03 
2231	 8.36971246888276E-03 
2232	 7.19029251661603E-03 
2233	 6.55827212638741E-03 
2234	 5.88768273430151E-03 
2235	 5.3093586415734E-03 
2236	 6.74702296754751E-03 
2237	 6.29480001946521E-03 
2238	 7.61891065845363E-03 
2239	 8.26049444610181E-03 
2240	 5.04052852827675E-03 
2241	 4.87741654068801E-03 
2242	 0.005662122737949 
2243	 6.50370851466939E-03 
2244	 8.88304436560616E-03 
2245	 9.45137681132215E-03 
2246	 8.17871125455457E-03 
2247	 6.46288449741336E-03 
2248	 4.68950128651633E-03 
2249	 5.14266341340507E-03 
2250	 6.99635575447139E-03 
2251	 7.88466397765047E-03 
2252	 8.48076610194086E-03 
2253	 8.99719354093827E-03 
2254	 9.29422839563984E-03 
2255	 9.88979074536042E-03 
2256	 1.15665749867347E-02 
2257	 1.18426842668297E-02 
2258	 8.76699912860104E-03 
2259	 6.24096646815575E-03 
2260	 4.96304962081337E-03 
2261	 2.88012961291565E-03 
2262	 2.88974388037162E-03 
2263	 6.39328781781311E-03 
2264	 6.5877293154476E-03 
2265	 6.2648345004855E-03 
2266	 5.89173851040791E-03 
2267	 3.14718202111644E-03 
2268	 3.07576664753662E-03 
2269	 4.51681955072929E-03 
2270	 4.89513925364018E-03 
2271	 6.57533946775869E-03 
2272	 7.59409010717498E-03 
2273	 7.0492446903491E-03 
2274	 7.66795621384196E-03 
2275	 9.23707126899944E-03 
2276	 9.44207197993871E-03 
2277	 9.34868449921398E-03 
2278	 1.01139168332253E-02 
2279	 0.011592862783877 
2280	 0.011574629354713 
2281	 1.19796117263247E-02 
2282	 9.53772388791569E-03 
2283	 6.36079485512458E-03 
2284	 4.9914403773088E-03 
2285	 4.1297154613378E-03 
2286	 5.86355045913759E-03 
2287	 1.02889543543141E-02 
2288	 9.37016854321242E-03 
2289	 6.64451406729389E-03 
2290	 4.79632005169397E-03 
2291	 2.73168177838894E-03 
2292	 3.8993963614355E-03 
2293	 6.16124443151259E-03 
2294	 9.56731145364521E-03 
2295	 1.06252325293503E-02 
2296	 7.75042866311833E-03 
2297	 8.43561088018588E-03 
2298	 9.95746697043282E-03 
2299	 8.16058344177415E-03 
2300	 7.98809720966366E-03 
2301	 8.89958094162827E-03 
2302	 8.92671893879115E-03 
2303	 9.18859027500035E-03 
2304	 0.010914453146771 
2305	 0.01197283851916 
2306	 9.65217426853766E-03 
2307	 7.51614934254214E-03 
2308	 6.34610304462738E-03 
2309	 3.00365753249121E-03 
2310	 9.46382634491781E-04 
2311	 3.34018216302974E-03 
2312	 4.74687399067473E-03 
2313	 5.79613613564374E-03 
2314	 9.90878906155648E-03 
2315	 1.24404079174858E-02 
2316	 1.12726504485556E-02 
2317	 9.98771174191002E-03 
2318	 7.03909118327059E-03 
2319	 3.37192471870216E-04 
2320	-4.64095718578395E-03 
2321	-3.87639763933927E-03 
2322	-2.11734467044601E-03 
2323	 2.13296239111408E-04 
2324	 6.1098682726027E-03 
2325	 8.55472857405865E-03 
2326	 5.50196442449619E-03 
2327	 1.07022920974822E-03 
2328	-4.08944941046339E-04 
2329	-2.08114890485317E-03 
2330	-2.97451914296712E-03 
2331	 1.5108474570832E-03 
2332	 3.5771713003874E-03 
2333	-1.75328298136315E-04 
2334	-3.9712496039241E-03 
2335	-1.37212527017445E-03 
2336	-9.85898704209618E-04 
2337	 1.5368024798351E-03 
2338	 8.9059485303393E-03 
2339	 5.56052463032385E-03 
2340	 3.17945775459609E-03 
2341	 2.72573922445893E-03 
2342	-2.56279242103521E-04 
2343	-1.81746477173147E-03 
2344	-3.55245547494205E-03 
2345	-1.92892837032252E-03 
2346	-5.48420072735399E-03 
2347	-1.12676154808194E-02 
2348	-1.34322673052409E-02 
2349	-1.71829513373753E-02 
2350	-1.72868610967212E-02 
2351	-1.18574714259785E-02 
2352	 2.33026564831491E-03 
2353	 1.15085268948004E-02 
2354	 9.9257103318888E-03 
2355	 1.91634386391344E-02 
2356	 1.66766045552896E-02 
2357	 2.00123314112317E-03 
2358	 3.78440349891778E-03 
2359	 6.99729240968371E-04 
2360	-7.35981359681019E-03 
2361	-5.10390415102183E-03 
2362	-2.17732637199941E-03 
2363	 2.2300103346944E-03 
2364	 5.93799649868273E-03 
2365	-5.26947743032256E-03 
2366	-1.05148871128134E-02 
2367	-3.34068447674064E-03 
2368	-1.60894208977921E-02 
2369	-1.45691559146851E-02 
2370	-1.84620175160695E-03 
2371	-2.21070978686499E-02 
2372	-0.028948213015901 
2373	-1.69060368352809E-02 
2374	-1.01254932738822E-02 
2375	 2.01836833387111E-03 
2376	 1.57610187079021E-02 
2377	 1.15004837714256E-02 
2378	-1.24902993288242E-02 
2379	-1.67156252413508E-02 
2380	-1.36252131078801E-02 
2381	-1.68353891627716E-02 
2382	 1.22409852689784E-02 
2383	 3.23224448253451E-02 
2384	 1.11186765353349E-02 
2385	 0.019746047974375 
2386	 2.05316188282238E-02 
2387	-3.50051172456858E-02 
2388	-0.044944598832279 
2389	-2.18546064395197E-02 
2390	-0.027542632058875 
2391	-2.14500967705813E-03 
2392	 0.024009351318381 
2393	 8.52807863243685E-03 
2394	 3.20649431818535E-03 
2395	-2.04192720290483E-02 
2396	-2.97396536384257E-02 
2397	-1.44179206689631E-02 
2398	-2.93196664040506E-02 
2399	-2.23587080208397E-02 
2400	-3.94061882130009E-02 
2401	-7.89944274696077E-02 
2402	-7.65587039188404E-02 
2403	-8.68207812661066E-02 
2404	-7.23601484082275E-02 
2405	-3.55804009367619E-02 
2406	-4.86769888493041E-02 
2407	-0.056208438219295 
2408	-0.051095581845225 
2409	-9.98629140852009E-02 
2410	-0.151437614477171 
2411	-0.174832762607518 
2412	-0.219129474140344 
2413	-0.241249559423065 
2414	-0.227073510048598 
2415	-0.227232095938047 
2416	-0.234445634943479 
2417	-0.206452052537662 
2418	-0.171660388195805 
2419	-0.133229653303743 
2420	-0.12084492805099 
2421	-0.125787710988609 
2422	-0.152666269103596 
2423	-0.180526443836774 
2424	-0.137875887870999 
2425	-0.112966957629194 
2426	-9.98470102664201E-02 
2427	-0.052625732528149 
2428	-9.28818795969312E-02 
2429	-0.128935190975189 
2430	-0.128421806338525 
2431	-0.17326466777091 
2432	-0.185349874283461 
2433	-0.155177670342857 
2434	-8.37457310957704E-02 
2435	 3.16158219834605E-02 
2436	 4.72867293353292E-02 
2437	 6.85613881955539E-02 
2438	 5.99527804450163E-02 
2439	-0.109785701598135 
2440	-4.97964810384874E-02 
2441	 2.11129721536519E-03 
2442	-0.147409795354643 
2443	-0.190730792250371 
2444	-0.296834558584726 
2445	-0.385862791488637 
2446	-0.2421996391937 
2447	-0.138860415517182 
2448	-9.05312785579671E-02 
2449	-9.70094454997446E-02 
2450	 2.76000580612078E-02 
2451	 0.285501785793798 
2452	 0.510554047827467 
2453	 0.441418200657029 
2454	 4.63124318824408E-03 
2455	-0.253263501082676 
2456	-0.835923137086271 
2457	-0.632774523228622 
2458	-0.29246321956643 
2459	-0.399776007743239 
2460	-0.282627275049406 
2461	-0.12770343860759 
2462	-0.230061006336307 
2463	-0.136780869803509 
2464	 0.232684132397076 
2465	 0.268184499489611 
2466	 4.80982848914411E-03 
2467	-0.108162002804333 
2468	-0.513278599309486 
2469	-0.742258181536997 
2470	-0.900736386497156 
2471	-0.700488458920297 
2472	-0.434030901608577 
2473	-0.452869756332199 
2474	-0.426939735941631 
2475	-0.571116200257749 
2476	-1.73866069924633 
2477	 1.12623449175496 
2478	 0.509517932884458 
2479	 0.473986380602691 
2480	 0.629494094435737 
2481	 0.802855137587237 
2482	 0.37121972313414 
2483	-0.551222499053879 
2484	-1.99816756368596 
2485	-1.46026135264795 
2486	-0.980523296534141 
2487	 0.86427743408808 
2488	 1.12365988918264 
2489	 0.946154146222786 
2490	 0.848891215933175 
2491	 1.36251713717425 
2492	-0.376420989340842 
2493	-0.249800499049217 
2494	 0.65594534670057 
2495	-0.546525435547362 
2496	 5.28036675741453 
2497	-1.02680267103083 
2498	 2.84842657856631 
2499	 0.28777698589901 
2500	-0.208197087909392 
