Wavelength	rt0713east_close00002.asd
350	 7.46782397521662E-02 
351	 7.43981894093943E-02 
352	 7.39329895750905E-02 
353	 7.38459618475185E-02 
354	 7.41045012493401E-02 
355	 0.073673484935393 
356	 7.32086482357137E-02 
357	 7.31550593742805E-02 
358	 7.35982657304129E-02 
359	 7.35027924260534E-02 
360	 7.33921726150385E-02 
361	 7.31153820358074E-02 
362	 7.22564728175567E-02 
363	 0.073009318341373 
364	 7.34592010398018E-02 
365	 7.27722141223482E-02 
366	 7.24729680870934E-02 
367	 7.22697249995429E-02 
368	 7.23508728263795E-02 
369	 7.28126980925428E-02 
370	 7.32101571921842E-02 
371	 7.30817527403818E-02 
372	 7.28757597607452E-02 
373	 7.33840441660039E-02 
374	 7.33370488944679E-02 
375	 7.29793796092502E-02 
376	 7.27878143473668E-02 
377	 7.32902409309038E-02 
378	 7.37823019507301E-02 
379	 7.38562797556444E-02 
380	 7.34678812126683E-02 
381	 7.33267464675213E-02 
382	 7.34958220105992E-02 
383	 7.38455442857209E-02 
384	 7.41074404393765E-02 
385	 7.38894430321551E-02 
386	 7.42187919763967E-02 
387	 7.48513069818464E-02 
388	 7.41477272335599E-02 
389	 7.45233505190997E-02 
390	 7.50212465672239E-02 
391	 7.48108877200448E-02 
392	 7.50442796453524E-02 
393	 7.49297599407313E-02 
394	 0.074910691634352 
395	 7.55156572887106E-02 
396	 7.52760035243813E-02 
397	 7.51090153488985E-02 
398	 7.53752357073345E-02 
399	 7.58099547292054E-02 
400	 7.58212370575635E-02 
401	 7.57327851181897E-02 
402	 7.58062192842819E-02 
403	 7.57937505994111E-02 
404	 7.61086314124939E-02 
405	 7.64321068708789E-02 
406	 7.63360055719934E-02 
407	 7.64472686929587E-02 
408	 7.65227352699627E-02 
409	 7.65431887998569E-02 
410	 7.67442078626399E-02 
411	 7.69486976973797E-02 
412	 7.69498479039525E-02 
413	 7.68143771752511E-02 
414	 7.72954994796289E-02 
415	 7.75549861679569E-02 
416	 0.077594493220395 
417	 7.77477265058449E-02 
418	 7.80665402987338E-02 
419	 7.83773068238924E-02 
420	 7.85479163117454E-02 
421	 7.85264087242643E-02 
422	 7.87940712313573E-02 
423	 7.90041930265808E-02 
424	 7.89985099311616E-02 
425	 7.97031096821656E-02 
426	 8.00408518255212E-02 
427	 8.00227135910814E-02 
428	 8.01900921690809E-02 
429	 8.06334120018221E-02 
430	 8.12074381920175E-02 
431	 8.16314327322138E-02 
432	 8.15277657326843E-02 
433	 8.18271221546162E-02 
434	 8.24162206193251E-02 
435	 8.29468815864313E-02 
436	 8.31372347006231E-02 
437	 8.33311078779305E-02 
438	 8.36543489521223E-02 
439	 8.40759950930241E-02 
440	 8.44072168916651E-02 
441	 8.46209385255905E-02 
442	 8.48424649885233E-02 
443	 8.53954263314776E-02 
444	 8.57267853932375E-02 
445	 8.59524945268877E-02 
446	 8.62960059818079E-02 
447	 8.66216333952724E-02 
448	 8.69488469268623E-02 
449	 8.72328648145766E-02 
450	 8.74023131236453E-02 
451	 8.76583161894688E-02 
452	 8.79405184855754E-02 
453	 8.81770995583683E-02 
454	 8.83339201679304E-02 
455	 8.87254777624496E-02 
456	 8.90489469575026E-02 
457	 8.89692347917816E-02 
458	 0.089272176333065 
459	 8.95484214661349E-02 
460	 8.96826344469186E-02 
461	 8.99078847296646E-02 
462	 9.01362132266834E-02 
463	 9.03446100927568E-02 
464	 9.05259212655363E-02 
465	 9.06868531064139E-02 
466	 9.08123608471229E-02 
467	 9.09307262996952E-02 
468	 9.11038423518696E-02 
469	 9.14752525354475E-02 
470	 9.17145386060267E-02 
471	 9.17574985204455E-02 
472	 9.19453776511476E-02 
473	 9.21908309105438E-02 
474	 0.092410185719759 
475	 9.25622101934126E-02 
476	 9.27680118395053E-02 
477	 9.30033358778877E-02 
478	 9.32933630653326E-02 
479	 9.36694653472335E-02 
480	 9.38320464969064E-02 
481	 9.40395375638775E-02 
482	 9.44399955522754E-02 
483	 9.48157924318185E-02 
484	 9.50751999707531E-02 
485	 9.53240990605824E-02 
486	 9.57080373191836E-02 
487	 9.60941777183143E-02 
488	 9.64443513513248E-02 
489	 9.67519185362029E-02 
490	 9.70387383434555E-02 
491	 9.73368376253806E-02 
492	 9.77614246289005E-02 
493	 9.82903233145569E-02 
494	 9.84791041282907E-02 
495	 9.88305961871531E-02 
496	 9.93156756494631E-02 
497	 9.96612414527403E-02 
498	 0.100007257765395 
499	 0.100465972434444 
500	 0.101020747695539 
501	 0.101469047033771 
502	 0.101802545258437 
503	 0.102103495350494 
504	 0.102475442518328 
505	 0.102945005195577 
506	 0.103570778526654 
507	 0.104177433207204 
508	 0.104452659986735 
509	 0.104903273139053 
510	 0.10546158137407 
511	 0.106007889357691 
512	 0.106539443288169 
513	 0.107083617949705 
514	 0.10760605295723 
515	 0.108073693916108 
516	 0.108688417711795 
517	 0.109301990132338 
518	 0.109820499093272 
519	 0.110262011269727 
520	 0.110856073781343 
521	 0.11144214097999 
522	 0.111888985107741 
523	 0.11248322982063 
524	 0.113113396397769 
525	 0.113738065670773 
526	 0.114366011635014 
527	 0.114924489349958 
528	 0.11550404114529 
529	 0.116134229184124 
530	 0.116668972035847 
531	 0.11734789935648 
532	 0.118093748508584 
533	 0.118724691072076 
534	 0.119227851129507 
535	 0.119782158553691 
536	 0.120481601262489 
537	 0.121303645610905 
538	 0.121793853065729 
539	 0.122308655273648 
540	 0.123144144474177 
541	 0.123710302160806 
542	 0.124287886775887 
543	 0.124958684605101 
544	 0.125665262412361 
545	 0.126260171662528 
546	 0.126916121914228 
547	 0.127683601748575 
548	 0.128295097519258 
549	 0.128961684728013 
550	 0.129651429064027 
551	 0.130284628887338 
552	 0.131021284483282 
553	 0.131664862375358 
554	 0.132184775709571 
555	 0.132754655048881 
556	 0.133431207496444 
557	 0.134129955967236 
558	 0.134763271723486 
559	 0.135414057876367 
560	 0.135898787168947 
561	 0.136339598721341 
562	 0.137007600402092 
563	 0.137547050497564 
564	 0.138017720151228 
565	 0.138460725991181 
566	 0.138756642194997 
567	 0.139197239346252 
568	 0.139678100797863 
569	 0.140023049989205 
570	 0.140603578090347 
571	 0.141049454897757 
572	 0.14129483763911 
573	 0.14163740213468 
574	 0.141854693360521 
575	 0.142143303433016 
576	 0.142639052346998 
577	 0.143003613943822 
578	 0.143286332731641 
579	 0.14359508586382 
580	 0.144038090427338 
581	 0.144315826011929 
582	 0.144560554352392 
583	 0.144791519173506 
584	 0.144699402568812 
585	 0.144691816467692 
586	 0.144650862020584 
587	 0.14434924421146 
588	 0.144132317367541 
589	 0.144162136465151 
590	 0.14433669841843 
591	 0.144319524349524 
592	 0.144452920584549 
593	 0.144530382842691 
594	 0.14440406979202 
595	 0.144441275184212 
596	 0.144479538863842 
597	 0.144517289167254 
598	 0.144614926481594 
599	 0.144534995836018 
600	 0.144492641823719 
601	 0.144560582699884 
602	 0.14447340852001 
603	 0.144373875025534 
604	 0.144385582072604 
605	 0.144539552711298 
606	 0.144390886127811 
607	 0.144509013024965 
608	 0.144829119768898 
609	 0.144619485911902 
610	 0.144594316777624 
611	 0.144769987705723 
612	 0.144976361552437 
613	 0.144944648406575 
614	 0.144970677073712 
615	 0.145047585859011 
616	 0.145023878776208 
617	 0.145108264464688 
618	 0.145224793028229 
619	 0.145312600239563 
620	 0.145386541086488 
621	 0.145389540601012 
622	 0.145303905204332 
623	 0.145196961986133 
624	 0.14547057800164 
625	 0.145541570635938 
626	 0.145344432875368 
627	 0.145334904053588 
628	 0.1454165599295 
629	 0.145608526500272 
630	 0.145844609904044 
631	 0.14578854967721 
632	 0.145787885673072 
633	 0.145874018290045 
634	 0.145936432857126 
635	 0.146047465746116 
636	 0.146114216703505 
637	 0.146152811878123 
638	 0.146358174648256 
639	 0.146483547907814 
640	 0.146426663489271 
641	 0.146234304142233 
642	 0.146360817714221 
643	 0.146242756993989 
644	 0.145893712500141 
645	 0.145790322411963 
646	 0.145493957745511 
647	 0.145241874806452 
648	 0.14526084965071 
649	 0.145501977070336 
650	 0.145429158874502 
651	 0.145214083255186 
652	 0.145223950854374 
653	 0.145020775011603 
654	 0.144686008994597 
655	 0.144360274686659 
656	 0.144249326674194 
657	 0.143991812267412 
658	 0.143756874479572 
659	 0.143672664917564 
660	 0.143417694729619 
661	 0.143270219208833 
662	 0.143164274405327 
663	 0.14285483228916 
664	 0.142585733946764 
665	 0.14242084599042 
666	 0.142345232386157 
667	 0.142257058797391 
668	 0.142163598738253 
669	 0.142102860033395 
670	 0.142114370334734 
671	 0.142176865850822 
672	 0.142208309420077 
673	 0.142228210438166 
674	 0.14234546400792 
675	 0.142441629473561 
676	 0.142566074545188 
677	 0.142761789634507 
678	 0.142963346072147 
679	 0.143317904873846 
680	 0.143653613053999 
681	 0.143735256865087 
682	 0.143990328364505 
683	 0.144260121347369 
684	 0.144408293009183 
685	 0.144397230620968 
686	 0.144436312275614 
687	 0.144508893278347 
688	 0.144608861608741 
689	 0.145112704272362 
690	 0.145305823022292 
691	 0.145153817494989 
692	 0.14503917111183 
693	 0.144987391877323 
694	 0.145224136176337 
695	 0.145688804759061 
696	 0.145972105936097 
697	 0.145820226574151 
698	 0.145382613589655 
699	 0.144984947701188 
700	 0.144837058884168 
701	 0.144937619261523 
702	 0.14504961630888 
703	 0.144829273047099 
704	 0.144672245377636 
705	 0.144460077891479 
706	 0.144080635650891 
707	 0.143569020301528 
708	 0.143103422470572 
709	 0.142680656965289 
710	 0.142201710914377 
711	 0.141514314398727 
712	 0.140675304620978 
713	 0.139654903468337 
714	 0.138279156063093 
715	 0.136510841927519 
716	 0.134493661302993 
717	 0.132683410565844 
718	 0.131123972865689 
719	 0.1305124848393 
720	 0.13028816677068 
721	 0.129559871835934 
722	 0.128118603136646 
723	 0.126208718774593 
724	 0.124472731431734 
725	 0.123367390346772 
726	 0.121794007730723 
727	 0.120119266462123 
728	 0.118694867866714 
729	 0.116745600522613 
730	 0.114811349660871 
731	 0.113246961822684 
732	 0.112030538404035 
733	 0.110766158911465 
734	 0.109308016596178 
735	 0.107925663572549 
736	 0.107389881042393 
737	 0.106908985159508 
738	 0.106485178489914 
739	 0.106259694675061 
740	 0.106186898384296 
741	 0.10613682843156 
742	 0.106031411161936 
743	 0.105865586796124 
744	 0.105917290605749 
745	 0.106027466792746 
746	 0.106099899959742 
747	 0.106186495768255 
748	 0.106091674968855 
749	 0.106000752099464 
750	 0.106080243597648 
751	 0.106110905754195 
752	 0.106037189109693 
753	 0.105937396859097 
754	 0.105952049648587 
755	 0.106058605832681 
756	 0.106021201388832 
757	 0.105746571719825 
758	 0.105260512534628 
759	 0.104698426112589 
760	 0.104025050049728 
761	 0.103583307788102 
762	 0.103719221916567 
763	 0.104485922193071 
764	 0.105365131298086 
765	 0.105919853337667 
766	 0.106572306375058 
767	 0.106888755061386 
768	 0.106998811075111 
769	 0.107541073303338 
770	 0.107716231903881 
771	 0.107860988302853 
772	 0.108237236915466 
773	 0.108235860594299 
774	 0.108539251446908 
775	 0.108940855506622 
776	 0.108988121581743 
777	 0.109255498489445 
778	 0.109675802762776 
779	 0.110091033248826 
780	 0.110323083460703 
781	 0.110682577172648 
782	 0.110965013762136 
783	 0.11109058207897 
784	 0.111484454435137 
785	 0.111819555475173 
786	 0.112052653279348 
787	 0.112260028734466 
788	 0.112552703460544 
789	 0.113018034869973 
790	 0.11357606609568 
791	 0.114052239585012 
792	 0.11476066536241 
793	 0.115121467732064 
794	 0.115071876136115 
795	 0.115553903552356 
796	 0.115860104274628 
797	 0.11622425946189 
798	 0.116875831984607 
799	 0.117082053027231 
800	 0.11723742571612 
801	 0.117448946905319 
802	 0.117663755445145 
803	 0.117939773157044 
804	 0.118324104194391 
805	 0.118671041701244 
806	 0.118655085000608 
807	 0.118439456701913 
808	 0.118078061532677 
809	 0.11765524923508 
810	 0.117408983267571 
811	 0.116729077054444 
812	 0.115738889571792 
813	 0.11488384798496 
814	 0.114048009674075 
815	 0.11366606477435 
816	 0.113496586243195 
817	 0.112894007561627 
818	 0.112955126442742 
819	 0.112997501452794 
820	 0.112464816901186 
821	 0.111062779044699 
822	 0.109545509450893 
823	 0.108324203245083 
824	 0.107356259883375 
825	 0.105943882739519 
826	 0.10373562336422 
827	 0.101586854634158 
828	 0.100588508768656 
829	 9.88793682608286E-02 
830	 9.69321698555545E-02 
831	 0.095293939392811 
832	 9.44175275318132E-02 
833	 9.38447934913657E-02 
834	 9.30335815962035E-02 
835	 9.19454452367651E-02 
836	 0.091165823428594 
837	 0.090798028946277 
838	 9.06484927480093E-02 
839	 9.04878178886444E-02 
840	 9.02353677892736E-02 
841	 8.96659332471303E-02 
842	 8.92348401649594E-02 
843	 8.93771870852585E-02 
844	 8.92756142958907E-02 
845	 8.85871522551057E-02 
846	 8.78907514881202E-02 
847	 8.81409543380672E-02 
848	 8.77630837044185E-02 
849	 0.087180030937352 
850	 8.67991444219485E-02 
851	 8.66637167653566E-02 
852	 8.61272348168275E-02 
853	 8.57472422711871E-02 
854	 8.57938690820717E-02 
855	 0.085361887947709 
856	 0.08530772294594 
857	 8.52547423567432E-02 
858	 8.48063031996675E-02 
859	 8.47837441070879E-02 
860	 8.42916039284885E-02 
861	 8.36337042515455E-02 
862	 8.35880882307893E-02 
863	 8.37731778327659E-02 
864	 8.36366846031839E-02 
865	 8.29197229548504E-02 
866	 8.18637788524265E-02 
867	 8.24157993700695E-02 
868	 8.23449134952057E-02 
869	 8.11545295772744E-02 
870	 8.12416395789792E-02 
871	 8.11440134171652E-02 
872	 8.06960489394444E-02 
873	 8.01451764311027E-02 
874	 8.00849027835859E-02 
875	 7.92935113396975E-02 
876	 7.84772722034662E-02 
877	 7.84451638903802E-02 
878	 7.80738748814304E-02 
879	 7.76807284545478E-02 
880	 7.71823126499915E-02 
881	 7.64340595573175E-02 
882	 7.59939348561052E-02 
883	 7.54486579477545E-02 
884	 7.49665784094844E-02 
885	 7.50462456304487E-02 
886	 7.48048603822531E-02 
887	 7.43211592714353E-02 
888	 7.38666984408756E-02 
889	 7.36925915765631E-02 
890	 7.20741671672346E-02 
891	 7.14764380465824E-02 
892	 7.25602952083853E-02 
893	 7.09883596165636E-02 
894	 7.00575248355532E-02 
895	 6.95245327946598E-02 
896	 6.87105774206146E-02 
897	 6.91272809620848E-02 
898	 6.83842782351018E-02 
899	 6.75023067540354E-02 
900	 6.78598607427518E-02 
901	 6.75089348634861E-02 
902	 0.067161996022632 
903	 6.69421633899386E-02 
904	 0.066681440956969 
905	 6.58418465982774E-02 
906	 6.61461448311923E-02 
907	 6.63950030208823E-02 
908	 6.39688166204601E-02 
909	 6.40394055320603E-02 
910	 6.32700229658863E-02 
911	 6.21578818924508E-02 
912	 6.44750488201478E-02 
913	 0.064018019927432 
914	 6.15456948872331E-02 
915	 5.95363684808595E-02 
916	 6.04621168556961E-02 
917	 5.91583168881244E-02 
918	 5.83165328423871E-02 
919	 0.05886509989112 
920	 5.81697210052996E-02 
921	 0.057778941157693 
922	 5.69251513217036E-02 
923	 5.52430305095536E-02 
924	 5.41247935800594E-02 
925	 5.38956127277994E-02 
926	 5.45785491112906E-02 
927	 5.52329589416986E-02 
928	 5.17894817282029E-02 
929	 5.07697579984467E-02 
930	 5.15140966850532E-02 
931	 4.95895278521321E-02 
932	 5.22396178007371E-02 
933	 5.32477314782364E-02 
934	 5.18899310543622E-02 
935	 5.19234778007433E-02 
936	 5.56986695395779E-02 
937	 4.94828407243222E-02 
938	 4.12610051285778E-02 
939	 4.14117565412074E-02 
940	 0.047586964806761 
941	 4.74809460287515E-02 
942	 4.19746423144973E-02 
943	 3.91394849761187E-02 
944	 4.35139861005619E-02 
945	 4.23919932487927E-02 
946	 3.80800474810002E-02 
947	 4.03265306472881E-02 
948	 4.15329213835525E-02 
949	 3.68832982779007E-02 
950	 3.53950575520922E-02 
951	 4.74498847406626E-02 
952	 4.32931020689283E-02 
953	 3.53158123958839E-02 
954	 3.36770632574154E-02 
955	 4.09576220128124E-02 
956	 4.20282479771102E-02 
957	 4.02718311549967E-02 
958	 3.68718936594784E-02 
959	 3.23315823585546E-02 
960	 3.97945583290998E-02 
961	 4.43761727107798E-02 
962	 4.16356506891173E-02 
963	 3.73064740161469E-02 
964	 3.71637514820939E-02 
965	 3.97879032418391E-02 
966	 4.22077541757535E-02 
967	 4.19525827659969E-02 
968	 4.36081879017543E-02 
969	 4.12851814140122E-02 
970	 3.81293209596279E-02 
971	 0.043176206381958 
972	 4.24282621381088E-02 
973	 4.01311708273459E-02 
974	 4.03957900949906E-02 
975	 4.38235265900864E-02 
976	 4.17609480188313E-02 
977	 3.92281387257801E-02 
978	 3.90469621147567E-02 
979	 4.01976466437614E-02 
980	 4.12129429341212E-02 
981	 3.96598702972274E-02 
982	 0.038890354683746 
983	 4.43511114556112E-02 
984	 4.34632161578995E-02 
985	 4.21689159322975E-02 
986	 0.042458651186306 
987	 4.20355231595762E-02 
988	 0.041713822021175 
989	 4.37084209600479E-02 
990	 4.51244691066127E-02 
991	 0.041338929657005 
992	 4.19343519183105E-02 
993	 4.41936669000145E-02 
994	 4.43096078244677E-02 
995	 4.02564654279704E-02 
996	 3.89227079292616E-02 
997	 4.14885699818789E-02 
998	 4.37628883051546E-02 
999	 4.10134070899057E-02 
1000	 4.20736578658652E-02 
1001	 3.86269095148283E-02 
1002	 3.95314937421418E-02 
1003	 3.98324107429329E-02 
1004	 4.00707813173834E-02 
1005	 3.99261748625514E-02 
1006	 3.92485856335335E-02 
1007	 3.84480812036768E-02 
1008	 3.83138823704296E-02 
1009	 3.80415025526928E-02 
1010	 0.037540495924298 
1011	 0.037688373802014 
1012	 3.77018533205261E-02 
1013	 3.75743183288194E-02 
1014	 3.81659914089054E-02 
1015	 4.01302126466128E-02 
1016	 4.03625355967664E-02 
1017	 3.99245259653901E-02 
1018	 3.99954067559028E-02 
1019	 3.91814676860568E-02 
1020	 3.91626748574632E-02 
1021	 3.98141395711707E-02 
1022	 4.07646644603284E-02 
1023	 4.15015462759143E-02 
1024	 0.041247124469634 
1025	 4.13473073824427E-02 
1026	 4.13762274243043E-02 
1027	 4.11141983850907E-02 
1028	 4.04442227904071E-02 
1029	 4.04343545596663E-02 
1030	 4.03959829758457E-02 
1031	 4.05111494231448E-02 
1032	 4.12201740168457E-02 
1033	 4.14090721450798E-02 
1034	 4.12939752250828E-02 
1035	 4.13752023934986E-02 
1036	 4.12146754777376E-02 
1037	 4.15603609788535E-02 
1038	 4.26366561993889E-02 
1039	 4.29410949607698E-02 
1040	 4.35959063298949E-02 
1041	 4.34329947114707E-02 
1042	 0.043588866197842 
1043	 4.35318532084582E-02 
1044	 4.33170843948174E-02 
1045	 4.28178990436966E-02 
1046	 4.30493258995969E-02 
1047	 4.34108035528417E-02 
1048	 4.35439521104211E-02 
1049	 4.41765445631589E-02 
1050	 0.044621211421283 
1051	 0.04453221281072 
1052	 4.46980290122318E-02 
1053	 4.54612115112635E-02 
1054	 4.58066056892749E-02 
1055	 0.045540353214021 
1056	 4.57072974359768E-02 
1057	 4.59952086250216E-02 
1058	 4.65450919767078E-02 
1059	 4.65105514778395E-02 
1060	 4.63850925308506E-02 
1061	 4.63520485989213E-02 
1062	 4.57872392053524E-02 
1063	 4.57449446757527E-02 
1064	 4.63641899609099E-02 
1065	 4.64332973672517E-02 
1066	 4.61527393906644E-02 
1067	 4.61863155861064E-02 
1068	 4.60596443292514E-02 
1069	 4.62239280159945E-02 
1070	 4.72512253936303E-02 
1071	 4.74074294023019E-02 
1072	 4.69653689252334E-02 
1073	 0.046780066587219 
1074	 4.66421419755896E-02 
1075	 4.60588819014457E-02 
1076	 0.045930917702237 
1077	 4.63861671990999E-02 
1078	 4.62796033715141E-02 
1079	 4.60338662268345E-02 
1080	 4.56484556029329E-02 
1081	 4.47339018117823E-02 
1082	 4.45375205900397E-02 
1083	 4.42496820742016E-02 
1084	 4.44143802482502E-02 
1085	 4.62372276707991E-02 
1086	 4.64849431800279E-02 
1087	 4.57680929191265E-02 
1088	 4.54237807120517E-02 
1089	 4.43462411833218E-02 
1090	 4.29511352024536E-02 
1091	 4.27369025458419E-02 
1092	 4.39141711611486E-02 
1093	 4.37763487976801E-02 
1094	 4.32995627859989E-02 
1095	 4.32791092784694E-02 
1096	 0.043060698791318 
1097	 4.26960100061328E-02 
1098	 4.27850179307902E-02 
1099	 4.25740189772891E-02 
1100	 4.11473591279593E-02 
1101	 4.09692364427452E-02 
1102	 4.28396510615373E-02 
1103	 4.28134917422215E-02 
1104	 4.21356450624783E-02 
1105	 0.04074035233643 
1106	 4.04039682505292E-02 
1107	 4.01561754374737E-02 
1108	 4.08152124289021E-02 
1109	 4.26679706169968E-02 
1110	 4.31370113173773E-02 
1111	 4.10854627427419E-02 
1112	 4.08071540981184E-02 
1113	 4.23987503956916E-02 
1114	 4.22927894677908E-02 
1115	 4.03575838646178E-02 
1116	 4.02722676511689E-02 
1117	 4.11897792179917E-02 
1118	 4.01500961931767E-02 
1119	 3.96237649937688E-02 
1120	 4.04239380264618E-02 
1121	 3.95293096830321E-02 
1122	 0.034252690636265 
1123	 4.56466851770724E-02 
1124	 5.47965237572663E-02 
1125	 5.43095342487606E-02 
1126	 5.39250059136898E-02 
1127	 4.58842488716732E-02 
1128	 3.53396129346782E-02 
1129	 3.70811597233077E-02 
1130	 5.33542032657355E-02 
1131	 5.24177566358443E-02 
1132	 0.04511974629347 
1133	 4.52138439814229E-02 
1134	 4.20425540475635E-02 
1135	 4.10778720545901E-02 
1136	 4.86087607163587E-02 
1137	 4.89894936454371E-02 
1138	 4.61935047225851E-02 
1139	 3.96637461384553E-02 
1140	 3.51967610035263E-02 
1141	 3.57751395110619E-02 
1142	 3.73150602297036E-02 
1143	 4.17782205909766E-02 
1144	 4.46987546580331E-02 
1145	 0.039751683760533 
1146	 0.037981136753285 
1147	 3.81750303897293E-02 
1148	 3.70201952582078E-02 
1149	 0.040420424871497 
1150	 3.99299543743572E-02 
1151	 3.51629547724861E-02 
1152	 0.034657506340852 
1153	 3.67021608822006E-02 
1154	 3.66968360425519E-02 
1155	 3.71231721495235E-02 
1156	 3.71398664844654E-02 
1157	 3.72949339618786E-02 
1158	 3.60463408147081E-02 
1159	 3.45019725126723E-02 
1160	 3.45963093251386E-02 
1161	 3.52682349764605E-02 
1162	 3.46740854294505E-02 
1163	 3.46531986727997E-02 
1164	 3.59726134420402E-02 
1165	 3.61521904786203E-02 
1166	 3.54082801932002E-02 
1167	 3.50245302219273E-02 
1168	 3.44679046557881E-02 
1169	 3.46911761561357E-02 
1170	 0.035934830123441 
1171	 3.60827455341974E-02 
1172	 0.036295860716823 
1173	 3.61603759946401E-02 
1174	 3.52368283538774E-02 
1175	 3.41960945619239E-02 
1176	 3.46775556832854E-02 
1177	 3.53999294906304E-02 
1178	 3.58534656826363E-02 
1179	 3.61928998733807E-02 
1180	 3.58145525808543E-02 
1181	 3.54718374287988E-02 
1182	 3.54750342439355E-02 
1183	 3.55564707074788E-02 
1184	 3.57283092941137E-02 
1185	 3.58280578489497E-02 
1186	 3.56390858782316E-02 
1187	 3.59379657966268E-02 
1188	 3.64095573461028E-02 
1189	 3.63973707934955E-02 
1190	 0.036506791457257 
1191	 3.60483911087795E-02 
1192	 3.57003782001776E-02 
1193	 3.48658970043051E-02 
1194	 3.48523623704056E-02 
1195	 3.52715435391793E-02 
1196	 3.54892240927317E-02 
1197	 3.51984386082752E-02 
1198	 3.49562795815652E-02 
1199	 3.46983310662203E-02 
1200	 3.45113478083475E-02 
1201	 0.034853637576104 
1202	 3.53718818777154E-02 
1203	 3.57815012213446E-02 
1204	 3.56350411320576E-02 
1205	 3.49893148829197E-02 
1206	 3.48618785901618E-02 
1207	 3.50576096448185E-02 
1208	 3.51823173175857E-02 
1209	 3.59379206328451E-02 
1210	 3.63667836447614E-02 
1211	 3.56422358733749E-02 
1212	 0.035313262925605 
1213	 3.56081323670974E-02 
1214	 3.56061599878562E-02 
1215	 3.55361232827372E-02 
1216	 3.56599620738844E-02 
1217	 3.55629854072683E-02 
1218	 0.035135785759455 
1219	 3.52932681093256E-02 
1220	 0.03569252074013 
1221	 3.58340734118154E-02 
1222	 0.036070507828921 
1223	 0.036004637706419 
1224	 3.56525202152981E-02 
1225	 3.57313719822946E-02 
1226	 3.57677342442691E-02 
1227	 3.56584606458772E-02 
1228	 3.56228739201301E-02 
1229	 0.035548133645879 
1230	 3.57971629071316E-02 
1231	 3.58767884882104E-02 
1232	 3.56023119064627E-02 
1233	 3.56905889715053E-02 
1234	 3.55823550095848E-02 
1235	 3.54357329999944E-02 
1236	 3.52214259486884E-02 
1237	 3.55329673122455E-02 
1238	 3.61659370790761E-02 
1239	 3.62357443825426E-02 
1240	 3.61751161118443E-02 
1241	 3.63581739725485E-02 
1242	 3.62393332042047E-02 
1243	 3.58280076545752E-02 
1244	 3.59711917712703E-02 
1245	 3.63613800381909E-02 
1246	 3.61573870327266E-02 
1247	 3.61742777742907E-02 
1248	 3.65675153501855E-02 
1249	 3.61945267818679E-02 
1250	 3.58618923890356E-02 
1251	 3.63102864322016E-02 
1252	 3.65845160549331E-02 
1253	 3.64618493872474E-02 
1254	 3.61834057623501E-02 
1255	 3.56956685076101E-02 
1256	 3.55541979741427E-02 
1257	 3.57131722927015E-02 
1258	 3.57170202084423E-02 
1259	 0.035833828483598 
1260	 3.59148834896699E-02 
1261	 3.56440023714596E-02 
1262	 3.55489634823444E-02 
1263	 3.56362783295547E-02 
1264	 3.61238458710919E-02 
1265	 3.59343942551471E-02 
1266	 3.56068947585846E-02 
1267	 3.57585710874344E-02 
1268	 3.60294440548368E-02 
1269	 3.58914490162136E-02 
1270	 3.56351730422076E-02 
1271	 3.54775949239663E-02 
1272	 0.035206619105558 
1273	 3.51852481416666E-02 
1274	 3.53305899177658E-02 
1275	 3.56185858020018E-02 
1276	 3.60849567153618E-02 
1277	 3.58330887260264E-02 
1278	 3.53130096433835E-02 
1279	 3.54110324090318E-02 
1280	 3.52930059913743E-02 
1281	 3.51487176417983E-02 
1282	 3.53425401590847E-02 
1283	 0.035574770407062 
1284	 3.55915298059456E-02 
1285	 3.55234350424203E-02 
1286	 3.57155832992435E-02 
1287	 3.57015959664222E-02 
1288	 3.52815466307293E-02 
1289	 0.035098269878246 
1290	 3.47680676021358E-02 
1291	 3.50484525438118E-02 
1292	 3.56754966426827E-02 
1293	 3.56339371168005E-02 
1294	 3.52154819775871E-02 
1295	 3.52823564549826E-02 
1296	 3.49003391910563E-02 
1297	 3.40635045874562E-02 
1298	 3.42705163256371E-02 
1299	 3.44788112541865E-02 
1300	 3.40912491722811E-02 
1301	 3.46236385821164E-02 
1302	 3.51558120450129E-02 
1303	 3.50526030965035E-02 
1304	 3.48487950717341E-02 
1305	 3.45013957409459E-02 
1306	 3.46315598250721E-02 
1307	 3.50844212924144E-02 
1308	 3.48576913776673E-02 
1309	 3.46626444460162E-02 
1310	 3.48820299886494E-02 
1311	 3.45488288867459E-02 
1312	 3.42492871849865E-02 
1313	 3.47193502476496E-02 
1314	 3.50334254454031E-02 
1315	 3.49723107633356E-02 
1316	 3.48752169183624E-02 
1317	 3.48315664879532E-02 
1318	 3.46770177347424E-02 
1319	 0.033942978058774 
1320	 3.38136320624563E-02 
1321	 3.42624651272806E-02 
1322	 3.49281013493487E-02 
1323	 3.60126887466776E-02 
1324	 3.63422175852791E-02 
1325	 3.54802890054382E-02 
1326	 3.51260025902336E-02 
1327	 3.49100661785384E-02 
1328	 3.40030710077384E-02 
1329	 3.27127290001839E-02 
1330	 3.21737156542822E-02 
1331	 0.033193979955676 
1332	 3.39373282206329E-02 
1333	 3.39014035251978E-02 
1334	 3.48531222056769E-02 
1335	 3.56522011196087E-02 
1336	 0.034052043381001 
1337	 3.31520899484573E-02 
1338	 3.44346764915816E-02 
1339	 3.50488539809957E-02 
1340	 3.27589107912494E-02 
1341	 3.29935465573357E-02 
1342	 3.72444303187692E-02 
1343	 3.85647840456765E-02 
1344	 3.77586252245907E-02 
1345	 3.96468613177404E-02 
1346	 0.043626857062294 
1347	 4.71183368094189E-02 
1348	 5.41854724188278E-02 
1349	 6.14648948806137E-02 
1350	 6.21241050575539E-02 
1351	 0.070852749898383 
1352	 9.31608040324326E-02 
1353	 0.120282323296844 
1354	 0.181212780036152 
1355	 0.221895623945414 
1356	 0.178022082615969 
1357	 0.183443416142091 
1358	 0.269567571413338 
1359	 0.288397039217813 
1360	 0.3093557708471 
1361	 0.364146144684349 
1362	 0.311070780818751 
1363	 0.334228951652943 
1364	 0.44276060471403 
1365	 0.693283289991721 
1366	 1.02518853704198 
1367	 0.892926930650628 
1368	 0.88432305506856 
1369	 0.883498811228457 
1370	 0.824640170721756 
1371	 0.725887400466079 
1372	 0.508145825071316 
1373	-0.205643094809027 
1374	-6.44963393033616E-02 
1375	-5.24771670224802E-02 
1376	-4.43246336629832E-02 
1377	 0.664747519963129 
1378	 0.648728029593103 
1379	 0.224500656532912 
1380	 0.2589121980795 
1381	 0.75626715829207 
1382	 0.726006124813235 
1383	 0.9060084885873 
1384	 1.42727681775528 
1385	 0.37123635083343 
1386	 0.137652131235738 
1387	 9.77528230114206E-02 
1388	 0.257287128671319 
1389	 0.943989306497796 
1390	 1.24811919156819 
1391	 5.00466499534687 
1392	 6.45175687096642 
1393	 5.36457535770926 
1394	 11.1165566033011 
1395	 1.99944166348706 
1396	 2.08620948964717 
1397	 3.35318468258721 
1398	 1.07453246349121 
1399	 0.997905077244067 
1400	 1.84331706253952 
1401	 2.47036127037188 
1402	 3.455311598137 
1403	 4.69588606621928 
1404	 5.11501006414853 
1405	 6.67021262728953 
1406	 4.41157884599022 
1407	 2.60442658360058 
1408	 1.33704471455511 
1409	 1.04255068218048 
1410	 0.611568254059017 
1411	 0.634895731640209 
1412	 2.48858866661072 
1413	 2.77708608298914 
1414	 1.88632568816928 
1415	 1.24898426888973 
1416	 0.555580069350931 
1417	 0.492623897348878 
1418	 0.641100596092404 
1419	 0.509571622173852 
1420	 0.3134491825564 
1421	 0.332093391472918 
1422	 0.38501973343294 
1423	 0.338684304154459 
1424	 0.36106850374398 
1425	 0.354431550274278 
1426	 0.258901766779917 
1427	 0.194522481109867 
1428	 0.165276509532598 
1429	 0.149758587881222 
1430	 9.43873189451135E-02 
1431	 7.19584166916609E-02 
1432	 9.57424715195264E-02 
1433	 0.11626818547561 
1434	 0.157767942881995 
1435	 0.16013144349925 
1436	 0.141145259805994 
1437	 0.139545546533693 
1438	 0.16872273959497 
1439	 0.154048111340021 
1440	 0.106546023766403 
1441	 0.118712371310046 
1442	 0.123975469828547 
1443	 7.59117753789438E-02 
1444	 0.07685745295139 
1445	 0.118127901570344 
1446	 0.115007001050402 
1447	 9.30075053035196E-02 
1448	 7.62558438465542E-02 
1449	 5.64057172239718E-02 
1450	 4.49135957185641E-02 
1451	 3.99229379644938E-02 
1452	 4.55714039500597E-02 
1453	 5.16822951185477E-02 
1454	 5.02662198858189E-02 
1455	 4.81225720387496E-02 
1456	 4.75011538077356E-02 
1457	 0.041580781300999 
1458	 4.01463696791721E-02 
1459	 4.36797608177753E-02 
1460	 4.32482807469389E-02 
1461	 4.24782577836159E-02 
1462	 3.95925129056579E-02 
1463	 3.01237140072997E-02 
1464	 3.05792382530431E-02 
1465	 3.67480551901278E-02 
1466	 3.76903734477089E-02 
1467	 4.51457339499743E-02 
1468	 4.58607608089005E-02 
1469	 3.46223682045747E-02 
1470	 3.29273035197896E-02 
1471	 3.80649483511138E-02 
1472	 3.74877085036464E-02 
1473	 3.45246498232214E-02 
1474	 3.37535817772143E-02 
1475	 3.27615572403156E-02 
1476	 3.22490926825394E-02 
1477	 3.49823328542085E-02 
1478	 3.41481496926483E-02 
1479	 0.029111876347936 
1480	 2.83743432062755E-02 
1481	 2.77516543022532E-02 
1482	 2.91363800257416E-02 
1483	 3.43998167856003E-02 
1484	 3.54680590538701E-02 
1485	 3.52554471091562E-02 
1486	 3.53071123162276E-02 
1487	 3.48545584710117E-02 
1488	 0.033603702166658 
1489	 0.031475289790533 
1490	 3.13817479624451E-02 
1491	 0.032059849465699 
1492	 3.13754163260515E-02 
1493	 3.02214591754874E-02 
1494	 3.07078434263852E-02 
1495	 3.16510653960417E-02 
1496	 3.13379441662089E-02 
1497	 3.12946036420677E-02 
1498	 0.031997408271156 
1499	 0.032279911909211 
1500	 3.19633588226897E-02 
1501	 3.21631511950001E-02 
1502	 3.26166100337407E-02 
1503	 3.21422038240433E-02 
1504	 3.19175202706717E-02 
1505	 0.03286305102755 
1506	 3.30139639282787E-02 
1507	 3.25232685227807E-02 
1508	 3.25350583254748E-02 
1509	 3.28211694809378E-02 
1510	 3.39210434485375E-02 
1511	 3.42755601757024E-02 
1512	 3.33934034801528E-02 
1513	 3.29180053203828E-02 
1514	 3.29700655343999E-02 
1515	 3.28214944734815E-02 
1516	 3.31167546275567E-02 
1517	 3.36129488742488E-02 
1518	 3.31980524251501E-02 
1519	 3.21716487950766E-02 
1520	 3.16109801092626E-02 
1521	 3.17737431850079E-02 
1522	 3.22113095049865E-02 
1523	 0.033072038106106 
1524	 3.34785928506181E-02 
1525	 3.30351179129649E-02 
1526	 3.26470809297741E-02 
1527	 0.032450097274869 
1528	 0.032617543737623 
1529	 3.29634004408097E-02 
1530	 3.32594254349201E-02 
1531	 3.34915835486527E-02 
1532	 3.36532673917138E-02 
1533	 3.40312064403302E-02 
1534	 3.41230380072006E-02 
1535	 3.37623633507398E-02 
1536	 3.38599524099095E-02 
1537	 3.41618848579541E-02 
1538	 3.37705755352013E-02 
1539	 3.37101278376063E-02 
1540	 3.42144063145129E-02 
1541	 3.41372179377442E-02 
1542	 3.40003510835885E-02 
1543	 3.40754409569979E-02 
1544	 3.39334487002331E-02 
1545	 3.35995731666162E-02 
1546	 3.33449725498049E-02 
1547	 3.31978433985757E-02 
1548	 3.30672734848739E-02 
1549	 3.31399760753478E-02 
1550	 3.35498659370269E-02 
1551	 3.38374114925005E-02 
1552	 3.32735613132319E-02 
1553	 3.31354266930403E-02 
1554	 3.38554991700652E-02 
1555	 3.40135821130233E-02 
1556	 3.40176117294793E-02 
1557	 3.42433489083315E-02 
1558	 3.40422836837012E-02 
1559	 3.38157122270607E-02 
1560	 3.42062493631395E-02 
1561	 3.43043767227563E-02 
1562	 3.39201392606389E-02 
1563	 3.41046484596205E-02 
1564	 0.034261018790601 
1565	 3.41855379905547E-02 
1566	 3.43916439225252E-02 
1567	 3.40962506896991E-02 
1568	 3.41342461507206E-02 
1569	 3.49811130312712E-02 
1570	 3.49112040444826E-02 
1571	 3.47341867453704E-02 
1572	 3.47596414358759E-02 
1573	 3.41028771502233E-02 
1574	 3.39475191582128E-02 
1575	 3.39722315287931E-02 
1576	 3.39378381761848E-02 
1577	 3.43529528529176E-02 
1578	 3.43434608253143E-02 
1579	 3.41252533145455E-02 
1580	 3.40841203834914E-02 
1581	 3.40942334994869E-02 
1582	 0.03434587866968 
1583	 3.45622422072428E-02 
1584	 3.47726385360875E-02 
1585	 3.50338479868683E-02 
1586	 3.50199296827739E-02 
1587	 3.49710921004169E-02 
1588	 3.48630182181377E-02 
1589	 3.46000744446548E-02 
1590	 3.46152676492499E-02 
1591	 3.45577445638856E-02 
1592	 3.45327171727624E-02 
1593	 3.46170143495431E-02 
1594	 3.41369141798399E-02 
1595	 3.39845884028032E-02 
1596	 3.44310866503533E-02 
1597	 3.44382928005379E-02 
1598	 0.03440125933934 
1599	 3.45774973091761E-02 
1600	 3.43923173707905E-02 
1601	 3.42163184100356E-02 
1602	 3.45916103760235E-02 
1603	 3.50535439518209E-02 
1604	 3.49552267274514E-02 
1605	 3.44964074616037E-02 
1606	 3.44353943130639E-02 
1607	 3.44891214642208E-02 
1608	 3.43425503781005E-02 
1609	 3.47036395999718E-02 
1610	 3.46125760225803E-02 
1611	 3.42051821985628E-02 
1612	 3.45530700881183E-02 
1613	 3.47463095031478E-02 
1614	 3.48686225196705E-02 
1615	 3.46719736479685E-02 
1616	 3.44920981866286E-02 
1617	 0.035097114425646 
1618	 3.51469674367238E-02 
1619	 3.47675808960897E-02 
1620	 3.47309910918765E-02 
1621	 3.43900528585484E-02 
1622	 3.43548048442811E-02 
1623	 3.51054688897655E-02 
1624	 3.54725699627468E-02 
1625	 3.51429754305224E-02 
1626	 3.47896105087586E-02 
1627	 3.49185465939932E-02 
1628	 3.47979777195681E-02 
1629	 3.44200524736416E-02 
1630	 3.45237910554994E-02 
1631	 3.44083082110953E-02 
1632	 0.034309380702062 
1633	 3.47471910483162E-02 
1634	 3.49161856806271E-02 
1635	 3.47774597959749E-02 
1636	 3.50036497344254E-02 
1637	 3.51754386337813E-02 
1638	 3.51209923137146E-02 
1639	 3.51898821815641E-02 
1640	 3.52105307627342E-02 
1641	 3.50741316783315E-02 
1642	 3.50464071905881E-02 
1643	 3.52396987308169E-02 
1644	 3.49757154529903E-02 
1645	 3.46895804926941E-02 
1646	 3.50160995686514E-02 
1647	 3.52129918056646E-02 
1648	 3.49235794414554E-02 
1649	 0.03440343355537 
1650	 3.47030483736872E-02 
1651	 3.54508545507643E-02 
1652	 0.035325724397792 
1653	 3.54888396173314E-02 
1654	 3.55880569567361E-02 
1655	 3.46068093655675E-02 
1656	 3.47365898386461E-02 
1657	 3.61664740789485E-02 
1658	 3.61491749126472E-02 
1659	 3.55960142676541E-02 
1660	 0.035497801828789 
1661	 0.034857108622845 
1662	 3.46951165617418E-02 
1663	 3.51212393276196E-02 
1664	 3.49770336927574E-02 
1665	 3.44930266357784E-02 
1666	 3.46968288803511E-02 
1667	 3.53106681103357E-02 
1668	 3.46283195268585E-02 
1669	 3.47908266144486E-02 
1670	 3.53209324465313E-02 
1671	 3.49654245470668E-02 
1672	 3.51231513991395E-02 
1673	 3.55445497016946E-02 
1674	 3.45302091330342E-02 
1675	 3.35006680289058E-02 
1676	 3.40061092783079E-02 
1677	 3.45276020732812E-02 
1678	 3.42543028017159E-02 
1679	 3.47281099835924E-02 
1680	 0.035362500885636 
1681	 3.52762074947472E-02 
1682	 3.47855117901259E-02 
1683	 3.38994084568583E-02 
1684	 3.42182600714955E-02 
1685	 3.44697501956851E-02 
1686	 3.40861236512926E-02 
1687	 3.53042580102332E-02 
1688	 3.56923526246097E-02 
1689	 3.44649422237652E-02 
1690	 3.44571470042994E-02 
1691	 3.56758358893361E-02 
1692	 0.03652129493681 
1693	 3.68704599248532E-02 
1694	 3.67554936131819E-02 
1695	 3.56448195518958E-02 
1696	 3.45931270565583E-02 
1697	 3.47119954144067E-02 
1698	 3.57665636223898E-02 
1699	 3.63237515955613E-02 
1700	 3.59554958709151E-02 
1701	 3.60100044070407E-02 
1702	 3.61361758836611E-02 
1703	 3.61842708196196E-02 
1704	 3.63376233046197E-02 
1705	 3.59908159748283E-02 
1706	 3.54921549090052E-02 
1707	 3.52099705993229E-02 
1708	 0.035803538756917 
1709	 3.62826071124229E-02 
1710	 3.56130034571913E-02 
1711	 3.49724017166379E-02 
1712	 3.44890215342216E-02 
1713	 0.034071834536962 
1714	 3.38069499621889E-02 
1715	 3.48631224352216E-02 
1716	 3.61354405067121E-02 
1717	 3.54311534875207E-02 
1718	 3.50620079758589E-02 
1719	 3.57211183086055E-02 
1720	 3.47513047017051E-02 
1721	 3.34847337965053E-02 
1722	 3.42839052601597E-02 
1723	 3.41667148664177E-02 
1724	 3.35034815101006E-02 
1725	 3.51540214830626E-02 
1726	 3.57981724497747E-02 
1727	 3.42956774780026E-02 
1728	 3.42282473611802E-02 
1729	 3.50264900050175E-02 
1730	 3.50604166540232E-02 
1731	 3.50257812322266E-02 
1732	 3.50980181706259E-02 
1733	 3.43125902610103E-02 
1734	 0.033771732996516 
1735	 3.53605667524535E-02 
1736	 3.59224683419131E-02 
1737	 3.49994237412403E-02 
1738	 3.50950882791266E-02 
1739	 3.38743894658054E-02 
1740	 3.30625219398376E-02 
1741	 3.52548133526795E-02 
1742	 3.57684260386935E-02 
1743	 3.51223890997217E-02 
1744	 3.54748279856539E-02 
1745	 3.37789850516202E-02 
1746	 3.47896542120065E-02 
1747	 3.50851911784866E-02 
1748	 0.034446795064517 
1749	 3.45794452280276E-02 
1750	 3.46236716183219E-02 
1751	 3.46596899402706E-02 
1752	 3.62495307625062E-02 
1753	 3.56979413096836E-02 
1754	 3.24393223016886E-02 
1755	 3.19135093496447E-02 
1756	 3.17214640147275E-02 
1757	 3.34895688343707E-02 
1758	 3.61993867967395E-02 
1759	 3.52138748369444E-02 
1760	 3.41799146777626E-02 
1761	 3.36907913211097E-02 
1762	 3.29698863120845E-02 
1763	 3.52709473666538E-02 
1764	 3.56770196948756E-02 
1765	 0.034422354499989 
1766	 3.50248924619828E-02 
1767	 3.44852264005552E-02 
1768	 3.43566248910961E-02 
1769	 3.50938189832663E-02 
1770	 3.38095245936257E-02 
1771	 3.12862663338072E-02 
1772	 3.17132412219225E-02 
1773	 3.53399573264658E-02 
1774	 0.036707551291793 
1775	 3.77095925246908E-02 
1776	 3.75479959869563E-02 
1777	 0.031827613014107 
1778	 3.02248425860994E-02 
1779	 3.07395987235389E-02 
1780	 3.21543732114368E-02 
1781	 3.78006471952095E-02 
1782	 3.86021795106142E-02 
1783	 3.81217847269384E-02 
1784	 3.77425971708342E-02 
1785	 3.37583830447168E-02 
1786	 3.22729603081558E-02 
1787	 3.19723938444945E-02 
1788	 2.98522082373124E-02 
1789	 2.41918541707867E-02 
1790	 3.08302011294628E-02 
1791	 4.07516696012776E-02 
1792	 0.045720194548131 
1793	 5.44875090634248E-02 
1794	 4.40882977405825E-02 
1795	 2.66668593800145E-02 
1796	 2.98040876002886E-02 
1797	 1.62542316084381E-02 
1798	 2.15337398885235E-02 
1799	 5.70463642554137E-02 
1800	 5.31947758463049E-02 
1801	 6.73249666854926E-02 
1802	 5.40644596218664E-02 
1803	 5.94594126751768E-02 
1804	 0.164454204685627 
1805	 0.188811526320255 
1806	 7.08759966292793E-02 
1807	 3.69025896341277E-02 
1808	-0.211920162371647 
1809	-0.202362843952136 
1810	 0.369857220777017 
1811	 0.539381493046017 
1812	 0.593498870590846 
1813	 0.649594739791449 
1814	-0.939749457670356 
1815	 0.216375856320716 
1816	-94.6037629944595 
1817	-0.651855024396764 
1818	 0.194422414053767 
1819	 0.753686102117258 
1820	 2.90534312436257 
1821	 0.286834528737595 
1822	-3.76421465792612E-02 
1823	 4.86777319161293 
1824	 4.15151143134394 
1825	 3.04700704866979 
1826	 2.65434433002205 
1827	-44.2946222812744 
1828	-4.69366654563414 
1829	 5.53786353436532 
1830	 3.18834231255981 
1831	-0.441951356329713 
1832	 0.295458697618579 
1833	 0.433162953538245 
1834	 0.518156511855353 
1835	 5.22873245429777 
1836	-46.8897416466729 
1837	 0.760519997885905 
1838	 9.46715763809135 
1839	-1.13332468677636 
1840	-0.42161368726036 
1841	-0.424918321507319 
1842	-0.697559176009749 
1843	-0.842825693039816 
1844	-3.41220792568944 
1845	-11.6089393068619 
1846	-1.74396180544572 
1847	-1.04398366338313 
1848	 0.180043619189618 
1849	-1.30202310465198 
1850	-1.32395483373744 
1851	-1.42324961277538 
1852	-3.08001939405254 
1853	-4.08855143717942 
1854	 1.41275389385806 
1855	 0.385444812822851 
1856	 0.251519464088436 
1857	 0.633340265640961 
1858	 1.04634010274149 
1859	 2.47635713430681 
1860	 3.59195370566676E-02 
1861	 7.9849062938007 
1862	-2.97129068277772 
1863	-3.71559577919272 
1864	 15.9979722715071 
1865	 3.04435573218757 
1866	-0.452357648646982 
1867	-0.741044777636579 
1868	-1.47620958595751 
1869	 2.0548412361439 
1870	 9.77892773375157E-03 
1871	-0.629716647352658 
1872	-1.5800610677461 
1873	-0.83797074578986 
1874	-0.11226779708463 
1875	 3.92726062602269E-02 
1876	 0.160370128244754 
1877	 0.39208555629889 
1878	 0.3670482417144 
1879	-0.171068033239091 
1880	-0.356673982089205 
1881	-0.167830985368703 
1882	-0.249268115287562 
1883	 0.263241009042493 
1884	 0.436757522500408 
1885	 1.36152007861322 
1886	-1.23688301485292 
1887	-0.226484641213494 
1888	-1.32238482679671 
1889	-1.49868772057412 
1890	-0.859793386402255 
1891	-1.37047900698869 
1892	-4.00359551067458 
1893	-2.71717923348587 
1894	-2.56064983751893 
1895	-2.08853968006619 
1896	-1.84498460582787 
1897	-2.52532824840831 
1898	-5.75998896721735 
1899	-1.64546627822247E-03 
1900	 1.9290248962378 
1901	 0.710112671364476 
1902	 0.737202589900361 
1903	 1.12392778735244 
1904	 0.451125668383923 
1905	 0.248031884270787 
1906	 0.302610360452713 
1907	 0.245002918679658 
1908	 9.80847235093818E-02 
1909	-4.42016867830597E-03 
1910	-0.509318498839672 
1911	 0.950680691185369 
1912	 2.19483763693417 
1913	 2.78304311933189 
1914	 2.73172367455101 
1915	 1.96140298765212 
1916	 1.7934389975083 
1917	 0.940395836423952 
1918	 0.619505096112469 
1919	 0.684351670592423 
1920	 0.129675869778718 
1921	-0.518100015347922 
1922	-0.575612990142414 
1923	-0.30144587380556 
1924	-2.89854756714967E-02 
1925	 0.404731033552415 
1926	 1.16049625437195 
1927	 3.04161062458761 
1928	-4.69171767924795 
1929	 3.57975924147337 
1930	 0.418018079899448 
1931	-2.90596511113318E-02 
1932	-0.220577819024071 
1933	-1.41346510657675 
1934	-3.7083269212172 
1935	-1.99173145186944 
1936	 0.309926015935969 
1937	 1.56200640161246E-03 
1938	 0.943315677723566 
1939	 1.32123943665756 
1940	-3.52391350295849 
1941	-1.86783142301941 
1942	-4.91664499785078 
1943	 12.1479838863627 
1944	 4.47687577334211 
1945	 2.1783433983219 
1946	 0.590201387758699 
1947	 0.280109003043098 
1948	 0.463469395980939 
1949	 0.272427366631375 
1950	 0.119378797414741 
1951	 0.13946548066594 
1952	 6.71691873847465E-02 
1953	-2.84196895460138E-02 
1954	-0.128973668402837 
1955	-5.78959523718703E-02 
1956	-4.70603658433219E-02 
1957	-0.088456117028766 
1958	 2.71528400868033E-02 
1959	 1.17371816527241E-02 
1960	-3.93439744637431E-02 
1961	-3.71726387658824E-03 
1962	 4.23153290785859E-03 
1963	-1.20423945643493E-02 
1964	 1.51075787883025E-03 
1965	 0.005707668776979 
1966	 8.55623274426166E-03 
1967	 6.64837149648993E-03 
1968	 1.87215431965801E-02 
1969	 2.30739634921408E-02 
1970	 2.95530894245197E-02 
1971	 3.64949067680716E-02 
1972	 3.26321007070427E-02 
1973	 2.87713099493856E-02 
1974	 1.69558964155065E-02 
1975	 8.99140773287943E-03 
1976	 1.55073331582563E-02 
1977	 2.31623909743952E-02 
1978	 3.32752898016768E-02 
1979	 3.79883034425863E-02 
1980	 4.30709028281684E-02 
1981	 4.02613268326908E-02 
1982	 3.69560107108261E-02 
1983	 3.58013533459507E-02 
1984	 3.99218266685469E-02 
1985	 3.87977982840873E-02 
1986	 3.40434010591919E-02 
1987	 3.47948493321726E-02 
1988	 3.19538755494404E-02 
1989	 2.97260798367472E-02 
1990	 3.21554862726716E-02 
1991	 3.23797058015697E-02 
1992	 3.20521098405074E-02 
1993	 3.16004306161385E-02 
1994	 3.49811760640109E-02 
1995	 4.27293427116677E-02 
1996	 5.03407419951572E-02 
1997	 4.98749207254421E-02 
1998	 4.93411404986034E-02 
1999	 4.24485146436915E-02 
2000	 2.19993940882232E-02 
2001	 4.69694450545508E-03 
2002	-1.89159577640953E-03 
2003	-1.12193211242467E-02 
2004	-5.53453618580604E-03 
2005	 6.62528438423924E-03 
2006	 7.38814633495154E-03 
2007	 2.75595156228969E-02 
2008	 3.75525101231199E-02 
2009	 0.04155725832448 
2010	 4.65618185004584E-02 
2011	 5.38550639905748E-02 
2012	 5.45691149398774E-02 
2013	 5.45361514923642E-02 
2014	 5.22687203243823E-02 
2015	 5.03694260843712E-02 
2016	 4.24084285980767E-02 
2017	 3.29267222821505E-02 
2018	 0.036223194952655 
2019	 3.46463249481786E-02 
2020	 3.41608225576255E-02 
2021	 3.50788853565624E-02 
2022	 2.92485808471849E-02 
2023	 3.22493925713082E-02 
2024	 0.034554998779139 
2025	 3.79130938960157E-02 
2026	 3.91625026921857E-02 
2027	 4.28108857564534E-02 
2028	 4.07307536954193E-02 
2029	 3.73326520109802E-02 
2030	 3.43814800625707E-02 
2031	 2.90230239056187E-02 
2032	 2.56742976033521E-02 
2033	 2.75858514519453E-02 
2034	 2.79657921183053E-02 
2035	 2.91252503968714E-02 
2036	 0.03424574646482 
2037	 3.63698596639881E-02 
2038	 3.76811147985529E-02 
2039	 3.82673280832239E-02 
2040	 3.83017275630256E-02 
2041	 3.80071793342068E-02 
2042	 3.67244281441058E-02 
2043	 3.56534101383082E-02 
2044	 3.46754510331068E-02 
2045	 3.34967091100563E-02 
2046	 3.29561843895867E-02 
2047	 3.24446427807836E-02 
2048	 3.38284792283114E-02 
2049	 3.56817087969459E-02 
2050	 0.035145076016453 
2051	 3.19142132823071E-02 
2052	 2.85335843884188E-02 
2053	 2.85921117740003E-02 
2054	 2.85958723998071E-02 
2055	 2.96436761184826E-02 
2056	 2.93446493908638E-02 
2057	 2.70185951044362E-02 
2058	 2.49565818014067E-02 
2059	 2.14579311976052E-02 
2060	 2.12137523984122E-02 
2061	 2.17968226464974E-02 
2062	 2.54252674285598E-02 
2063	 2.88702690578934E-02 
2064	 0.031415935160831 
2065	 3.50066122849977E-02 
2066	 3.80614353722716E-02 
2067	 3.83125934080975E-02 
2068	 3.97337803462956E-02 
2069	 4.13432292298892E-02 
2070	 3.94981975410321E-02 
2071	 3.66340932749892E-02 
2072	 3.50673450811534E-02 
2073	 3.44780611829998E-02 
2074	 3.17839917618565E-02 
2075	 3.21457984797076E-02 
2076	 3.71058008479829E-02 
2077	 3.74406275696776E-02 
2078	 3.59939036958595E-02 
2079	 3.62635007450306E-02 
2080	 3.61537722545818E-02 
2081	 3.49848852966627E-02 
2082	 3.60360275269893E-02 
2083	 3.70690933547636E-02 
2084	 3.49159676088513E-02 
2085	 3.40083386935414E-02 
2086	 3.52489197251911E-02 
2087	 3.21513303026315E-02 
2088	 3.08007073005169E-02 
2089	 3.41044013095865E-02 
2090	 3.65756399220006E-02 
2091	 3.80540754746494E-02 
2092	 3.80984873625813E-02 
2093	 3.63842986533713E-02 
2094	 3.61796653437681E-02 
2095	 3.49871922841093E-02 
2096	 3.47213039841527E-02 
2097	 3.64298799985402E-02 
2098	 3.73758349212996E-02 
2099	 3.83720940952094E-02 
2100	 3.74336618316313E-02 
2101	 3.64710618456175E-02 
2102	 3.59798158203792E-02 
2103	 3.45665720295026E-02 
2104	 3.40994384449707E-02 
2105	 3.38833559888817E-02 
2106	 3.27595782006351E-02 
2107	 3.16050041653381E-02 
2108	 3.06959999285793E-02 
2109	 3.10107428585159E-02 
2110	 3.07435894867261E-02 
2111	 3.04562312931377E-02 
2112	 3.12238037791928E-02 
2113	 3.12517302466602E-02 
2114	 3.12971583394861E-02 
2115	 3.22995741697854E-02 
2116	 3.40396992738209E-02 
2117	 3.39665818109148E-02 
2118	 3.51755300720871E-02 
2119	 3.40353256213574E-02 
2120	 2.95192106966264E-02 
2121	 2.58965572168733E-02 
2122	 0.025041187342206 
2123	 2.47577686902159E-02 
2124	 2.71578125517333E-02 
2125	 2.62810077169662E-02 
2126	 2.40115272815948E-02 
2127	 2.41881403686785E-02 
2128	 2.32202147491507E-02 
2129	 2.46191479717428E-02 
2130	 2.87059900826389E-02 
2131	 3.15127695283709E-02 
2132	 3.33119758463397E-02 
2133	 3.66259333897539E-02 
2134	 3.73146982248724E-02 
2135	 3.43246683737354E-02 
2136	 3.39375898898183E-02 
2137	 3.37867468791537E-02 
2138	 3.34839401198727E-02 
2139	 3.46894884519408E-02 
2140	 3.50814148145466E-02 
2141	 3.45016544145347E-02 
2142	 3.44642486164141E-02 
2143	 3.48363609307315E-02 
2144	 3.44293528667266E-02 
2145	 3.36444988422796E-02 
2146	 0.033202370148271 
2147	 3.40036942574891E-02 
2148	 3.56473528761025E-02 
2149	 3.71252293940827E-02 
2150	 3.88807861422145E-02 
2151	 3.84814547824472E-02 
2152	 3.67547058716259E-02 
2153	 3.95861310035204E-02 
2154	 4.09102320478697E-02 
2155	 4.02648662584035E-02 
2156	 0.04348834027326 
2157	 4.33485614293103E-02 
2158	 3.93857317683757E-02 
2159	 3.88374646952183E-02 
2160	 3.96365873456231E-02 
2161	 0.038622520272268 
2162	 0.036699755850653 
2163	 3.60029040465837E-02 
2164	 3.55729311499534E-02 
2165	 3.41333768732334E-02 
2166	 0.03346439620562 
2167	 3.33336341724684E-02 
2168	 3.17877203026094E-02 
2169	 0.031845733305084 
2170	 3.28184284025194E-02 
2171	 0.036497364537407 
2172	 3.68684911829932E-02 
2173	 3.32896335942972E-02 
2174	 3.17657818554471E-02 
2175	 3.00424911380418E-02 
2176	 3.19757726252561E-02 
2177	 3.31833800835677E-02 
2178	 3.21658452804599E-02 
2179	 3.29482036707674E-02 
2180	 3.48661614995373E-02 
2181	 3.82754099933006E-02 
2182	 4.21570769389682E-02 
2183	 4.22218981474866E-02 
2184	 3.94523356025938E-02 
2185	 3.89222288029947E-02 
2186	 3.76467517361832E-02 
2187	 3.69705274803244E-02 
2188	 3.64807506078475E-02 
2189	 3.60925980170232E-02 
2190	 3.36037000185782E-02 
2191	 2.85267980895808E-02 
2192	 2.78192203221933E-02 
2193	 2.86646920844267E-02 
2194	 2.89846126223226E-02 
2195	 0.033778156356169 
2196	 3.40974713004879E-02 
2197	 2.84375571098862E-02 
2198	 2.78757129942571E-02 
2199	 2.61063236835589E-02 
2200	 3.20945334979224E-02 
2201	 4.22582392128876E-02 
2202	 4.11759465739065E-02 
2203	 3.82789680462482E-02 
2204	 3.87961712513804E-02 
2205	 3.37618770539542E-02 
2206	 3.16821470548321E-02 
2207	 0.033763482781479 
2208	 2.91161394033365E-02 
2209	 2.84101494919408E-02 
2210	 3.35196732229154E-02 
2211	 3.48959044570532E-02 
2212	 3.50693017749817E-02 
2213	 3.17069064115507E-02 
2214	 3.04492713775126E-02 
2215	 3.39500803893375E-02 
2216	 3.36451825196785E-02 
2217	 0.034953687234223 
2218	 3.98172296849463E-02 
2219	 4.03840637773968E-02 
2220	 3.85379499308135E-02 
2221	 3.84804407225874E-02 
2222	 3.70584060256236E-02 
2223	 3.52702291266859E-02 
2224	 3.20888551300603E-02 
2225	 3.13465473290372E-02 
2226	 0.033305373432621 
2227	 3.37700763621061E-02 
2228	 3.63819398200528E-02 
2229	 3.54316061929635E-02 
2230	 2.75592815292697E-02 
2231	 2.60031559002445E-02 
2232	 2.67312579098903E-02 
2233	 0.028460124925629 
2234	 3.50473262799778E-02 
2235	 4.08010516817698E-02 
2236	 4.01307565554559E-02 
2237	 3.75646010387603E-02 
2238	 3.42884232349265E-02 
2239	 3.17130452684301E-02 
2240	 3.37865307263889E-02 
2241	 3.45843222381403E-02 
2242	 3.31442385908406E-02 
2243	 3.33298831671936E-02 
2244	 3.72533336049574E-02 
2245	 3.94223464105559E-02 
2246	 3.77744513934743E-02 
2247	 3.91215270956356E-02 
2248	 4.14486281973233E-02 
2249	 4.31202115300485E-02 
2250	 0.044156347843985 
2251	 4.42094134498629E-02 
2252	 0.0425675696501 
2253	 3.27288346476159E-02 
2254	 2.80476920892046E-02 
2255	 3.48440472358605E-02 
2256	 3.47455252567564E-02 
2257	 3.48252157448163E-02 
2258	 4.09604425146811E-02 
2259	 4.09927214772589E-02 
2260	 4.14320637305293E-02 
2261	 4.33287019034307E-02 
2262	 4.34608414028365E-02 
2263	 4.08457961752134E-02 
2264	 3.81916814677924E-02 
2265	 3.44359743726393E-02 
2266	 3.19415599119768E-02 
2267	 2.72603778896995E-02 
2268	 2.67565995244007E-02 
2269	 2.96207777506522E-02 
2270	 3.09586090933201E-02 
2271	 3.30297238320566E-02 
2272	 3.56938492940332E-02 
2273	 4.24405902834116E-02 
2274	 4.51127515166248E-02 
2275	 4.47527028822043E-02 
2276	 4.47542292849958E-02 
2277	 4.15487103906816E-02 
2278	 3.80576887414432E-02 
2279	 3.62816798297547E-02 
2280	 3.45440238203661E-02 
2281	 3.28400046032608E-02 
2282	 2.51259646661121E-02 
2283	 2.76535966003114E-02 
2284	 0.031431464632895 
2285	 3.71772153972363E-02 
2286	 4.64815679612229E-02 
2287	 4.42242252952294E-02 
2288	 4.37829796182108E-02 
2289	 4.50441972450219E-02 
2290	 4.53325206370977E-02 
2291	 5.09505590730491E-02 
2292	 5.71195980930416E-02 
2293	 5.35134959029119E-02 
2294	 3.81686363534167E-02 
2295	 2.98583421269285E-02 
2296	 2.45946157049321E-02 
2297	 2.78207593825715E-02 
2298	 4.58639959852426E-02 
2299	 4.88953386896368E-02 
2300	 0.037868012227592 
2301	 0.0330627500575 
2302	 2.70229969815991E-02 
2303	 2.63088909944122E-02 
2304	 4.10689115266584E-02 
2305	 4.68242636784716E-02 
2306	 5.24847066868713E-02 
2307	 5.93109607228041E-02 
2308	 5.00258587223309E-02 
2309	 4.81304208385304E-02 
2310	 4.70400477700998E-02 
2311	 4.14814637380261E-02 
2312	 4.96290918968781E-02 
2313	 6.04943936251415E-02 
2314	 6.50109120153929E-02 
2315	 6.87431176334499E-02 
2316	 6.26412672070835E-02 
2317	 3.84567800159405E-02 
2318	 2.88428715304012E-02 
2319	 3.37898668829665E-02 
2320	 3.52713362079837E-02 
2321	 5.88967654558739E-02 
2322	 6.54434050786199E-02 
2323	 4.21482897430203E-02 
2324	 3.81150470017471E-02 
2325	 3.98005165600724E-02 
2326	 3.75422157603224E-02 
2327	 4.02894773325827E-02 
2328	 3.97014664948338E-02 
2329	 3.03145424904298E-02 
2330	 2.03844775695603E-02 
2331	 3.24150621234425E-02 
2332	 0.036140700716058 
2333	 4.10838406508422E-02 
2334	 6.91350943752752E-02 
2335	 7.33050824529509E-02 
2336	 5.50315992972484E-02 
2337	 3.92304935119404E-02 
2338	 0.017264116696771 
2339	 1.12072368830367E-02 
2340	 5.32006784077331E-02 
2341	 9.16607027549753E-02 
2342	 8.38785025139892E-02 
2343	 6.63158066488403E-02 
2344	 5.05089770838786E-02 
2345	 3.07353104117514E-02 
2346	 2.80226410170476E-02 
2347	 3.32310424459924E-02 
2348	 2.90927009004414E-02 
2349	 5.05163692895074E-02 
2350	 4.67678028261579E-02 
2351	 2.74465591025681E-02 
2352	 0.046656982695333 
2353	 3.32589412610482E-02 
2354	 2.15407366703164E-02 
2355	 3.50688972235922E-02 
2356	 2.03744443803223E-02 
2357	 3.35107427045987E-02 
2358	 7.41957680088101E-02 
2359	 8.34279425849399E-02 
2360	 6.42763153176362E-02 
2361	 6.34120158242393E-02 
2362	 7.79687515999167E-02 
2363	 7.13634071472238E-02 
2364	 6.03434322390998E-02 
2365	 2.58944129967518E-02 
2366	-9.86298812604532E-03 
2367	-1.68545047530075E-02 
2368	-2.37168258442115E-02 
2369	 5.15551079480703E-03 
2370	 2.72279233119446E-02 
2371	 7.95917131670209E-02 
2372	 0.153306095288952 
2373	 0.18330292361878 
2374	 0.230213153667149 
2375	 0.193443420213472 
2376	 0.188832217755866 
2377	 0.292887034258061 
2378	 0.263672313402019 
2379	 0.229255107907817 
2380	 0.167381489863589 
2381	-8.12939464113322E-02 
2382	-0.202030203950121 
2383	-0.198043052748612 
2384	-0.203141471872203 
2385	-3.28456454159634E-02 
2386	 0.185140186782798 
2387	 0.222227151204321 
2388	 0.182886725059803 
2389	 0.113101871426075 
2390	 4.38521759031355E-03 
2391	-3.67169879119036E-02 
2392	 0.139660262868048 
2393	 0.113604626406383 
2394	-3.44856849075981E-02 
2395	-9.22723949918128E-02 
2396	-0.16779300983678 
2397	-8.71806261976064E-02 
2398	 9.74774773504733E-02 
2399	 0.170201675666356 
2400	 0.134392096977798 
2401	 0.126451100053747 
2402	 0.121011821163385 
2403	 6.81082407063139E-02 
2404	 0.156126440757816 
2405	 0.266648963422449 
2406	 0.26247973595152 
2407	 0.372435128633644 
2408	 0.43401773348212 
2409	 0.303444451264127 
2410	 0.445818541871227 
2411	 0.630974550164275 
2412	 0.611587283115257 
2413	 0.819821020297125 
2414	 0.56511454026622 
2415	 0.5294132252465 
2416	 0.678181573563031 
2417	 0.763730413863414 
2418	 0.844967325355346 
2419	 0.843420372244735 
2420	 1.30320132108635 
2421	 1.66053368595749 
2422	 0.831349583454344 
2423	 0.832294624119219 
2424	-0.383305734083142 
2425	-0.371236559406745 
2426	 1.90513376808777 
2427	 0.766146565189202 
2428	 0.49903265629668 
2429	 0.263934740602891 
2430	 4.97957473641724E-02 
2431	 0.387358735351318 
2432	 0.712196398419985 
2433	 0.863803459490132 
2434	 0.805799279617298 
2435	-0.374448672199124 
2436	-1.21198116296741 
2437	-174.93650022916 
2438	 0.473402945354312 
2439	-3.65331117793993 
2440	 48.8456499440664 
2441	 18.6485682024835 
2442	 1.23135910598046 
2443	 0.874946977679082 
2444	-5.56664908644423 
2445	-2.45670977489804 
2446	-0.541785227155398 
2447	-0.392275694252977 
2448	-0.296880713921896 
2449	 2.73888157139626E-02 
2450	 0.113664780706797 
2451	 4.04043627520891E-02 
2452	-5.30476408701743E-02 
2453	 0.119215543495866 
2454	 0.270860765672654 
2455	 0.125928572077036 
2456	 0.200894858658116 
2457	 0.155406515746434 
2458	-0.258691697579177 
2459	-0.168508119432255 
2460	 0.652988968392363 
2461	-0.329806891007415 
2462	-0.644909234950293 
2463	-0.605408354765206 
2464	-0.778091194452109 
2465	-0.605768813477677 
2466	-0.38976520139176 
2467	-1.30500933768521 
2468	-3.76585373688418 
2469	-13.9510600253538 
2470	 8.62314036891466 
2471	 5.98182139007254 
2472	-2.30388367718465 
2473	-1.34735332449116 
2474	-2.83439285992475 
2475	-0.796421203026405 
2476	 0.181507888499913 
2477	 1.12287587362447 
2478	 3.27394080806916 
2479	-0.875920146704069 
2480	-0.52435219905146 
2481	-0.573595629602179 
2482	-0.339832033771338 
2483	-0.422691465006278 
2484	-0.258361480879736 
2485	 0.181771947737491 
2486	 0.171238926511565 
2487	 1.06132066302991 
2488	 0.715303604745716 
2489	-0.211101958238417 
2490	-0.349433538681859 
2491	-0.63312508563073 
2492	-0.847062003409239 
2493	-0.53911088535134 
2494	 1.89899007458727E-02 
2495	 0.846578758992957 
2496	-5.53134357252256 
2497	-2.6004352194934 
2498	-4.56652298105085 
2499	-2.19037932183712 
2500	-0.744655147099116 
