Wavelength	rt0713east_far00001.asd
350	 8.04675027416496E-02 
351	 8.01885744490777E-02 
352	 8.04801715911999E-02 
353	 8.07893461331047E-02 
354	 8.05386081038984E-02 
355	 0.079595603125753 
356	 7.90442874631128E-02 
357	 7.91606320436491E-02 
358	 0.079673790549472 
359	 7.94580215245084E-02 
360	 7.92067717284588E-02 
361	 7.90369083802058E-02 
362	 7.87407828068245E-02 
363	 7.96179468441326E-02 
364	 8.00248950080519E-02 
365	 7.93589777469038E-02 
366	 7.90703195122257E-02 
367	 7.91995970988609E-02 
368	 7.93876382148146E-02 
369	 7.93928076276612E-02 
370	 7.99820714446469E-02 
371	 8.00496059672084E-02 
372	 7.97509629744764E-02 
373	 7.99101217533311E-02 
374	 7.99497530002448E-02 
375	 8.02408314066633E-02 
376	 8.05569114176306E-02 
377	 7.97941567785339E-02 
378	 8.00130287428211E-02 
379	 8.05887183931942E-02 
380	 8.05856587437291E-02 
381	 8.01644529784252E-02 
382	 0.080441270640377 
383	 8.10897582544623E-02 
384	 0.081181717325389 
385	 8.11419418965252E-02 
386	 8.15040855179446E-02 
387	 8.19952342231192E-02 
388	 8.15426185192904E-02 
389	 8.20575508552954E-02 
390	 8.25475735944174E-02 
391	 8.23113426829903E-02 
392	 0.082818518731518 
393	 8.26878634035394E-02 
394	 8.23939940462262E-02 
395	 0.082790324790882 
396	 8.28696149570359E-02 
397	 8.27923582907904E-02 
398	 8.28672285451764E-02 
399	 0.083400203722381 
400	 8.33676993679412E-02 
401	 8.32089511018034E-02 
402	 0.083313968527918 
403	 8.34224853320816E-02 
404	 0.083809083338279 
405	 0.084086180902063 
406	 8.38571724682052E-02 
407	 8.41276710226781E-02 
408	 8.44080010821043E-02 
409	 8.45050731168034E-02 
410	 8.46072998264386E-02 
411	 8.46308257538408E-02 
412	 8.47814341439441E-02 
413	 8.51023740533812E-02 
414	 8.51275642044361E-02 
415	 8.52664749611288E-02 
416	 8.55490334772566E-02 
417	 8.58434116645859E-02 
418	 8.60544384384387E-02 
419	 8.63630933562742E-02 
420	 8.67003402608373E-02 
421	 0.086731195345461 
422	 8.69854737669726E-02 
423	 8.72923724663589E-02 
424	 8.75082462329321E-02 
425	 8.80096900023297E-02 
426	 8.84228967982424E-02 
427	 8.87291630621289E-02 
428	 8.90709615008656E-02 
429	 8.93764607429133E-02 
430	 8.97663502782688E-02 
431	 9.02170759981103E-02 
432	 9.05277398813702E-02 
433	 9.07658412474922E-02 
434	 9.11560376453571E-02 
435	 0.091779680037217 
436	 9.22318785860018E-02 
437	 9.25316256660013E-02 
438	 9.28155664052518E-02 
439	 9.32496210645537E-02 
440	 9.36105460597757E-02 
441	 9.39763363005999E-02 
442	 0.09440111047375 
443	 9.48627022833414E-02 
444	 9.51754944436179E-02 
445	 9.54733821545702E-02 
446	 9.58860345071443E-02 
447	 9.61345364990178E-02 
448	 9.65658718131466E-02 
449	 9.70706619855392E-02 
450	 9.72433618891851E-02 
451	 9.75260952289497E-02 
452	 9.77977507816202E-02 
453	 0.097998226411626 
454	 9.83610757402508E-02 
455	 9.87420753384163E-02 
456	 9.90061507862206E-02 
457	 9.91101269016541E-02 
458	 9.94725882486507E-02 
459	 9.97964067622492E-02 
460	 0.100006760082623 
461	 0.100279682330602 
462	 0.100449416056876 
463	 0.100633950124741 
464	 0.100912426366574 
465	 0.10109488578709 
466	 0.1013603616194 
467	 0.101678223073785 
468	 0.101930848912617 
469	 0.102200692912955 
470	 0.102411958086606 
471	 0.102563058795318 
472	 0.102765760392587 
473	 0.102925016292969 
474	 0.103229337184038 
475	 0.103758665456806 
476	 0.103969136294722 
477	 0.104130474609593 
478	 0.104409850183942 
479	 0.104857062333072 
480	 0.105114434127258 
481	 0.105364603847419 
482	 0.105735767474177 
483	 0.10609104919155 
484	 0.106490839656737 
485	 0.106826706744278 
486	 0.107045272348801 
487	 0.10770286948445 
488	 0.108189774083506 
489	 0.108430549830653 
490	 0.108902766232701 
491	 0.109225359958223 
492	 0.109592944219897 
493	 0.110135045536768 
494	 0.110517288453558 
495	 0.110871710224278 
496	 0.111324174091363 
497	 0.111943984194348 
498	 0.112302935818508 
499	 0.112762081421883 
500	 0.113400002590941 
501	 0.113735941262371 
502	 0.114178450115279 
503	 0.114696878812247 
504	 0.11517238258003 
505	 0.115644469514127 
506	 0.116256570256963 
507	 0.116918678161507 
508	 0.117377034495282 
509	 0.117854059521473 
510	 0.118339804082087 
511	 0.118854186195842 
512	 0.119610153203717 
513	 0.120240831857491 
514	 0.120779157337927 
515	 0.121403150102977 
516	 0.121963654690099 
517	 0.12257125344704 
518	 0.123238548291478 
519	 0.12383691234953 
520	 0.124457481787469 
521	 0.12508421292518 
522	 0.125686565489507 
523	 0.126245479477131 
524	 0.126877141071852 
525	 0.127555873473208 
526	 0.128170172930217 
527	 0.128857138414837 
528	 0.129495988218629 
529	 0.130081608931923 
530	 0.130934336101173 
531	 0.131663531644706 
532	 0.132298372234214 
533	 0.132983797514519 
534	 0.133540130490937 
535	 0.134130133115303 
536	 0.134843613498374 
537	 0.135658587031052 
538	 0.136262961747029 
539	 0.136833966433882 
540	 0.137573479465991 
541	 0.138357838496396 
542	 0.139012110514595 
543	 0.139600435967339 
544	 0.140316668842004 
545	 0.140942249154893 
546	 0.14164833173679 
547	 0.142468562160255 
548	 0.143072365299091 
549	 0.143775653573425 
550	 0.144502210829205 
551	 0.145097426842697 
552	 0.14578255691757 
553	 0.146497010303552 
554	 0.147162500769864 
555	 0.147701251033739 
556	 0.14838513226518 
557	 0.149109672012437 
558	 0.14974370263372 
559	 0.150447653398316 
560	 0.150893102897226 
561	 0.151247786678512 
562	 0.151934541190931 
563	 0.152504450910257 
564	 0.152982749545596 
565	 0.153429507250846 
566	 0.153852343925565 
567	 0.154203737179602 
568	 0.154541963134282 
569	 0.154956956381364 
570	 0.155479016538863 
571	 0.155933063369533 
572	 0.156302462482812 
573	 0.156744608399311 
574	 0.15692508053353 
575	 0.1571583393681 
576	 0.157679273688958 
577	 0.157989135309282 
578	 0.158241969534611 
579	 0.158472230649251 
580	 0.158663231590901 
581	 0.159019659487059 
582	 0.159303178670933 
583	 0.159373375649125 
584	 0.159358670309935 
585	 0.15928739442976 
586	 0.159183614923587 
587	 0.159024092130467 
588	 0.158524699604782 
589	 0.158378278603083 
590	 0.158625291249185 
591	 0.158557455584509 
592	 0.158526605821719 
593	 0.158420544005034 
594	 0.158162145890438 
595	 0.158029349371062 
596	 0.157919382334043 
597	 0.157746873818082 
598	 0.157457267280107 
599	 0.157188625503789 
600	 0.157000967613408 
601	 0.156875975523244 
602	 0.156672869735605 
603	 0.156634032706879 
604	 0.1566681733865 
605	 0.15660592701173 
606	 0.156449674982141 
607	 0.156553702528155 
608	 0.156803470586834 
609	 0.156615491931798 
610	 0.156635635162666 
611	 0.156788332096854 
612	 0.156884799641959 
613	 0.15685560375457 
614	 0.156961876713413 
615	 0.157108989577422 
616	 0.157039486496347 
617	 0.157032258119719 
618	 0.157115157267064 
619	 0.157237904361104 
620	 0.157275187852656 
621	 0.157241401094657 
622	 0.157233929560291 
623	 0.157336283171559 
624	 0.157429642605003 
625	 0.157333552660213 
626	 0.157188267856185 
627	 0.15740837115084 
628	 0.157518625914795 
629	 0.157583280812708 
630	 0.157681429554775 
631	 0.157623747093478 
632	 0.157663761761265 
633	 0.157753277784732 
634	 0.15772487067133 
635	 0.157706857764695 
636	 0.157787531047141 
637	 0.157966705146447 
638	 0.158134187841598 
639	 0.158180347003456 
640	 0.158068479645502 
641	 0.157871853860783 
642	 0.157967964650896 
643	 0.157898035412445 
644	 0.15760465852119 
645	 0.157367393030789 
646	 0.157077328231878 
647	 0.156797191742572 
648	 0.156654934074739 
649	 0.156912123028088 
650	 0.156728064279964 
651	 0.156317840677803 
652	 0.156223637100667 
653	 0.156073870304205 
654	 0.155653324018831 
655	 0.155017514991307 
656	 0.154665026553874 
657	 0.154306694853475 
658	 0.15402145052452 
659	 0.153845242866641 
660	 0.153468473939088 
661	 0.153184409724368 
662	 0.152968376122837 
663	 0.152627549608573 
664	 0.152362437120126 
665	 0.152228602225255 
666	 0.152155024943076 
667	 0.151883743229056 
668	 0.15160526901809 
669	 0.151478036181125 
670	 0.151572737469345 
671	 0.151582565967222 
672	 0.151633950031662 
673	 0.151685813309787 
674	 0.151550290428682 
675	 0.151681386463268 
676	 0.151833186616936 
677	 0.151823493804599 
678	 0.151966971994129 
679	 0.152223598385058 
680	 0.152496886469704 
681	 0.152673442516792 
682	 0.152786617248734 
683	 0.152935685762974 
684	 0.153104828845491 
685	 0.153123897637443 
686	 0.152933986424556 
687	 0.152818891081067 
688	 0.153034246903319 
689	 0.153379030479314 
690	 0.153404026231965 
691	 0.153094129239268 
692	 0.152718434784589 
693	 0.152502886062709 
694	 0.152471532723169 
695	 0.152577467558631 
696	 0.15281084451579 
697	 0.152369073262373 
698	 0.151581620059214 
699	 0.151082749392808 
700	 0.150680857207229 
701	 0.150368442743783 
702	 0.150092203892577 
703	 0.149752703475466 
704	 0.149220227593675 
705	 0.148639491263713 
706	 0.148062567128426 
707	 0.1471763253201 
708	 0.146366434296083 
709	 0.145574330791886 
710	 0.144611543111346 
711	 0.143574037140124 
712	 0.142380459678514 
713	 0.140987388433197 
714	 0.139351430040574 
715	 0.137417834293021 
716	 0.135138921729633 
717	 0.132830205276374 
718	 0.130915647440456 
719	 0.129830203957081 
720	 0.129086426682774 
721	 0.127883278862089 
722	 0.126260280736587 
723	 0.124076038126119 
724	 0.12191848570936 
725	 0.120640027710142 
726	 0.11875387144106 
727	 0.116607293226598 
728	 0.114663846004184 
729	 0.11235784183074 
730	 0.110169925884984 
731	 0.108442194038519 
732	 0.107123491480957 
733	 0.105712273480869 
734	 0.104264487957465 
735	 0.102905675192627 
736	 0.101797815041641 
737	 0.101441385629253 
738	 0.101172580086946 
739	 0.100520669058728 
740	 0.100399372313229 
741	 0.100427541842161 
742	 0.100375178380511 
743	 0.100146975888124 
744	 0.100026210777186 
745	 0.100004765787233 
746	 0.100022842661622 
747	 9.99958369454376E-02 
748	 9.99631304811069E-02 
749	 9.98979276486765E-02 
750	 9.98176998584789E-02 
751	 9.99606885912747E-02 
752	 0.099841686729872 
753	 0.099561215414052 
754	 9.95275695389684E-02 
755	 9.97285347653237E-02 
756	 9.98360812691386E-02 
757	 9.96524254119833E-02 
758	 9.90551765595169E-02 
759	 9.87542336662291E-02 
760	 9.85818064296276E-02 
761	 9.80464701819245E-02 
762	 9.78333512679315E-02 
763	 9.84242152851049E-02 
764	 9.91629984239828E-02 
765	 9.93784512522564E-02 
766	 9.97536440208354E-02 
767	 0.100107893718777 
768	 0.100405927826068 
769	 0.100748589101823 
770	 0.100809852142556 
771	 0.100922590796581 
772	 0.101283378154667 
773	 0.10133333233892 
774	 0.101576753321959 
775	 0.101894133492325 
776	 0.101996660338319 
777	 0.102320527044049 
778	 0.102658110014027 
779	 0.102928475775851 
780	 0.103222726088055 
781	 0.103469119997377 
782	 0.10376381579707 
783	 0.104164842801243 
784	 0.104610058738261 
785	 0.10474868360147 
786	 0.10477816518892 
787	 0.105058867736785 
788	 0.105543958115594 
789	 0.106055761634004 
790	 0.106495194910817 
791	 0.106885383970322 
792	 0.107578714551681 
793	 0.108112351889623 
794	 0.108274329727742 
795	 0.10839920189716 
796	 0.108845863701811 
797	 0.109320987172517 
798	 0.109573679134844 
799	 0.110189964181656 
800	 0.110441220215726 
801	 0.110471896505125 
802	 0.110848489208368 
803	 0.111066370089951 
804	 0.111364650518641 
805	 0.111736922329322 
806	 0.111857011479045 
807	 0.111602299539839 
808	 0.111188678789152 
809	 0.110855592419946 
810	 0.11071438913745 
811	 0.110326682886806 
812	 0.109522274477688 
813	 0.108437355640618 
814	 0.108116623140217 
815	 0.107693609360322 
816	 0.106962869556038 
817	 0.106421674656548 
818	 0.106325525440062 
819	 0.106079763878448 
820	 0.105431163732558 
821	 0.104595234148828 
822	 0.103330000359793 
823	 0.101854655480609 
824	 0.100469412529056 
825	 9.92020947155293E-02 
826	 9.75356811645343E-02 
827	 9.56864281210299E-02 
828	 9.41711023803575E-02 
829	 9.24404602233615E-02 
830	 9.06554045408737E-02 
831	 8.91858399853597E-02 
832	 8.84669424877093E-02 
833	 8.79771325421558E-02 
834	 8.72880335873501E-02 
835	 0.086411763827081 
836	 8.58762105248484E-02 
837	 8.57298387190765E-02 
838	 0.085505221264877 
839	 8.49499666704221E-02 
840	 8.46375011542001E-02 
841	 8.43429417561781E-02 
842	 8.41573512193165E-02 
843	 8.41176346476985E-02 
844	 8.35207869394452E-02 
845	 8.31193048263516E-02 
846	 8.30274979324785E-02 
847	 8.28862258269132E-02 
848	 8.27149274643696E-02 
849	 8.23427257826026E-02 
850	 8.18442777843443E-02 
851	 8.15896076916197E-02 
852	 8.12239640579676E-02 
853	 8.09697496003751E-02 
854	 8.09407041007003E-02 
855	 8.07816097093946E-02 
856	 8.04311651233407E-02 
857	 8.00367772544437E-02 
858	 7.98404714942006E-02 
859	 8.02643208732146E-02 
860	 8.00276139433967E-02 
861	 7.93582804555952E-02 
862	 7.91473147055148E-02 
863	 7.89707228308849E-02 
864	 7.90497960581955E-02 
865	 7.88740271331092E-02 
866	 7.75973475238928E-02 
867	 7.81589000548944E-02 
868	 7.82461673312415E-02 
869	 7.71557384377733E-02 
870	 0.077125221360664 
871	 7.69762223903928E-02 
872	 7.67494196459576E-02 
873	 7.65552664849062E-02 
874	 0.076119162740937 
875	 7.56489303980535E-02 
876	 7.52235830435995E-02 
877	 7.48480898964513E-02 
878	 7.44319494671438E-02 
879	 7.39310415240899E-02 
880	 7.36069485080864E-02 
881	 7.36964674920634E-02 
882	 7.35970307340984E-02 
883	 7.28153039016022E-02 
884	 7.19607058381415E-02 
885	 7.21864351774082E-02 
886	 7.18741578522719E-02 
887	 7.17424117726605E-02 
888	 7.18006212222775E-02 
889	 7.10586105675758E-02 
890	 7.03369972903611E-02 
891	 7.00624191701354E-02 
892	 7.01605376715339E-02 
893	 6.97155368846064E-02 
894	 6.85838375549579E-02 
895	 6.74077123017857E-02 
896	 6.68584078696817E-02 
897	 6.65382503008325E-02 
898	 6.68805613827658E-02 
899	 0.066807586344287 
900	 6.56888145286999E-02 
901	 6.58542168438267E-02 
902	 6.65864031998079E-02 
903	 6.70581649126315E-02 
904	 6.64895911521937E-02 
905	 6.40766899007862E-02 
906	 6.43141054630095E-02 
907	 0.066218044916471 
908	 6.50682460068621E-02 
909	 6.40996313247054E-02 
910	 6.31593014944044E-02 
911	 0.062966571632338 
912	 6.46431812304274E-02 
913	 6.38144232383377E-02 
914	 0.062462633291367 
915	 0.061788961557728 
916	 6.10487238000198E-02 
917	 6.01967031717335E-02 
918	 5.98938587654503E-02 
919	 6.00400861776669E-02 
920	 5.95186763885425E-02 
921	 5.85448987846075E-02 
922	 5.80084378301965E-02 
923	 5.79792779774854E-02 
924	 0.056474452040059 
925	 5.74144665539649E-02 
926	 5.77206867831564E-02 
927	 5.42633656899735E-02 
928	 5.37899594946976E-02 
929	 5.37690543137567E-02 
930	 0.054815241648644 
931	 5.83587276904541E-02 
932	 5.89219688038821E-02 
933	 6.11001847917248E-02 
934	 5.76873819906459E-02 
935	 4.59964586157595E-02 
936	 5.80932945157268E-02 
937	 6.22426252851658E-02 
938	 5.62883522714873E-02 
939	 4.90871448196357E-02 
940	 5.15056883286751E-02 
941	 5.16298006172921E-02 
942	 4.66655869997126E-02 
943	 0.040879215358488 
944	 4.78935920619481E-02 
945	 5.25029042980662E-02 
946	 5.01355321973061E-02 
947	 0.046179203960076 
948	 4.98399822576621E-02 
949	 4.53284521598449E-02 
950	 4.14777509978513E-02 
951	 5.47721712793477E-02 
952	 4.84039869339815E-02 
953	 4.88522439514813E-02 
954	 5.42754887933622E-02 
955	 4.57771388169146E-02 
956	 0.044075799037739 
957	 4.49941518326524E-02 
958	 4.55735026794077E-02 
959	 4.54737244424309E-02 
960	 4.58538927138217E-02 
961	 4.55235609761506E-02 
962	 0.045569691949079 
963	 0.047283493431737 
964	 4.20705366640869E-02 
965	 4.12933643738718E-02 
966	 4.60338553343821E-02 
967	 4.93316219007942E-02 
968	 0.047712887959785 
969	 4.53864518572187E-02 
970	 4.56602427611235E-02 
971	 0.049205519171956 
972	 4.69333017498377E-02 
973	 4.41089827432283E-02 
974	 4.46320762441302E-02 
975	 4.82970080434216E-02 
976	 4.86441090112677E-02 
977	 4.61080166694427E-02 
978	 4.40916454195156E-02 
979	 4.61417702344595E-02 
980	 4.56614087743149E-02 
981	 4.51675788480882E-02 
982	 4.61932138005947E-02 
983	 4.83305241647889E-02 
984	 4.93570879030943E-02 
985	 4.89947441855029E-02 
986	 4.72380738311972E-02 
987	 0.044779993222021 
988	 4.66504116937955E-02 
989	 4.72023008266999E-02 
990	 0.046734753816197 
991	 4.93904759776818E-02 
992	 4.83876977834401E-02 
993	 4.97523491721997E-02 
994	 5.12055500317642E-02 
995	 0.046470685992941 
996	 4.50291646224661E-02 
997	 4.88716017149851E-02 
998	 5.16022075730065E-02 
999	 4.59778833034597E-02 
1000	 4.60594330973542E-02 
1001	 4.42166068046575E-02 
1002	 4.40010177487627E-02 
1003	 4.36249565830863E-02 
1004	 4.26579679778727E-02 
1005	 4.23781255660122E-02 
1006	 4.21118991555179E-02 
1007	 0.041948506009323 
1008	 4.32284889004001E-02 
1009	 4.42120654841855E-02 
1010	 4.44634332159168E-02 
1011	 4.53150188926763E-02 
1012	 4.58223186364284E-02 
1013	 4.60209943577326E-02 
1014	 0.045957744307425 
1015	 4.59448594285263E-02 
1016	 4.56205096305198E-02 
1017	 4.42611965831529E-02 
1018	 4.40538392359787E-02 
1019	 4.43955323485115E-02 
1020	 4.46161876491795E-02 
1021	 4.53606541148738E-02 
1022	 4.59039366234672E-02 
1023	 4.59856732306293E-02 
1024	 0.045980292473349 
1025	 0.045782291102529 
1026	 0.045404479809215 
1027	 4.54267037870749E-02 
1028	 0.045485782023335 
1029	 4.59066345823665E-02 
1030	 4.68873269680786E-02 
1031	 4.74156614318215E-02 
1032	 4.82569229579413E-02 
1033	 4.83262541759133E-02 
1034	 4.75877329479523E-02 
1035	 4.73179799646792E-02 
1036	 4.68446249317957E-02 
1037	 4.64928104240031E-02 
1038	 4.61866136135136E-02 
1039	 4.62345574004934E-02 
1040	 4.63290568346985E-02 
1041	 4.67988390154816E-02 
1042	 4.76195077668765E-02 
1043	 4.95352533606538E-02 
1044	 4.99883399872471E-02 
1045	 5.01621964003069E-02 
1046	 4.99974075260705E-02 
1047	 4.87330687239106E-02 
1048	 0.048285717258206 
1049	 0.047816297221553 
1050	 4.78204025358891E-02 
1051	 4.85045867965418E-02 
1052	 4.87090494955221E-02 
1053	 4.89772287959955E-02 
1054	 4.92477557805038E-02 
1055	 4.93249670067517E-02 
1056	 4.93343352485918E-02 
1057	 0.049336742689867 
1058	 4.95510939747014E-02 
1059	 4.94277981412673E-02 
1060	 4.88682708836178E-02 
1061	 4.87819823247497E-02 
1062	 4.87434769821015E-02 
1063	 4.88830581505304E-02 
1064	 4.94778074886763E-02 
1065	 4.96495635485005E-02 
1066	 4.96738674273366E-02 
1067	 4.97533007084782E-02 
1068	 4.97043834510607E-02 
1069	 4.96459555434055E-02 
1070	 4.95435754720688E-02 
1071	 4.96165482893214E-02 
1072	 5.00768811585089E-02 
1073	 4.97905554667904E-02 
1074	 4.98424304946269E-02 
1075	 5.01165250901885E-02 
1076	 4.99148364285757E-02 
1077	 4.92303005058095E-02 
1078	 4.91657414739681E-02 
1079	 4.93653821458704E-02 
1080	 4.92735991204705E-02 
1081	 0.049369753889233 
1082	 0.04924549393757 
1083	 4.84620108396335E-02 
1084	 4.83149519886241E-02 
1085	 4.88002243344624E-02 
1086	 4.88785749823603E-02 
1087	 0.049263422434862 
1088	 4.91162089088346E-02 
1089	 4.84871639492382E-02 
1090	 0.047416351175273 
1091	 0.046981473567763 
1092	 4.64282907593457E-02 
1093	 4.63886319966027E-02 
1094	 4.73962139453817E-02 
1095	 4.71660792748863E-02 
1096	 0.046315894352522 
1097	 4.58712273154596E-02 
1098	 4.46992180231214E-02 
1099	 4.43011712783252E-02 
1100	 4.50623576830593E-02 
1101	 4.50385666776495E-02 
1102	 4.44911658849728E-02 
1103	 4.43978729862944E-02 
1104	 4.43900007218653E-02 
1105	 4.42169268902112E-02 
1106	 4.47499619093528E-02 
1107	 4.56446555448996E-02 
1108	 4.50385884555907E-02 
1109	 4.38471233623746E-02 
1110	 4.31127208412139E-02 
1111	 4.08439702069483E-02 
1112	 4.05656404843477E-02 
1113	 4.34168548887794E-02 
1114	 4.42416372786585E-02 
1115	 4.41877724828493E-02 
1116	 4.50322311116295E-02 
1117	 0.046768376234276 
1118	 4.53949421759656E-02 
1119	 4.35279604501397E-02 
1120	 4.13259128776468E-02 
1121	 3.14903850709905E-02 
1122	 1.75047036997409E-02 
1123	 2.70427162067436E-02 
1124	 0.033673227362152 
1125	 0.037600517677026 
1126	 4.24177087797285E-02 
1127	 3.32849487251698E-02 
1128	 3.10052746527106E-02 
1129	 0.03262361170458 
1130	 4.20617389227736E-02 
1131	 4.45114471938138E-02 
1132	 4.53778075438183E-02 
1133	 4.31826844402961E-02 
1134	 4.03824829267373E-02 
1135	 3.90998966428221E-02 
1136	 3.38268315267662E-02 
1137	 3.43995390573161E-02 
1138	 3.97359755329525E-02 
1139	 4.14793932489454E-02 
1140	 3.98957553356973E-02 
1141	 3.88827530433657E-02 
1142	 3.67823154731796E-02 
1143	 3.11956636720574E-02 
1144	 3.14865565479166E-02 
1145	 3.77867865829186E-02 
1146	 3.83758540222422E-02 
1147	 0.036779620070452 
1148	 3.64651335740885E-02 
1149	 3.80263044192465E-02 
1150	 3.83617252224609E-02 
1151	 4.04606366265924E-02 
1152	 3.91801594080279E-02 
1153	 3.40198411811919E-02 
1154	 3.46236623800981E-02 
1155	 3.66920052451388E-02 
1156	 3.81887405809745E-02 
1157	 0.038240139958189 
1158	 3.80620321732103E-02 
1159	 3.72139924161606E-02 
1160	 3.74114319350789E-02 
1161	 3.90139831682484E-02 
1162	 3.95758802939229E-02 
1163	 3.88607169417662E-02 
1164	 3.85755017145525E-02 
1165	 3.88613880875585E-02 
1166	 3.92355787927902E-02 
1167	 3.93603556662503E-02 
1168	 3.87193721657493E-02 
1169	 3.85236798929996E-02 
1170	 3.92236389971628E-02 
1171	 0.03943351002752 
1172	 3.97437039200112E-02 
1173	 3.99051839827225E-02 
1174	 3.99637210441961E-02 
1175	 3.94734009861045E-02 
1176	 4.00097455959056E-02 
1177	 4.07652054830125E-02 
1178	 0.040577253436013 
1179	 4.02375736729686E-02 
1180	 4.00418436499524E-02 
1181	 3.94162596568963E-02 
1182	 3.96182756402192E-02 
1183	 4.04472801062871E-02 
1184	 4.00254603220793E-02 
1185	 3.95276408756205E-02 
1186	 3.98773298942582E-02 
1187	 4.02383798509477E-02 
1188	 4.00722373099593E-02 
1189	 3.94933623375452E-02 
1190	 3.91899797555395E-02 
1191	 0.039310626454385 
1192	 3.91971028241817E-02 
1193	 3.94185291809333E-02 
1194	 3.96735135863982E-02 
1195	 3.95930958192603E-02 
1196	 3.93580700645505E-02 
1197	 3.93571711085461E-02 
1198	 3.98374152900783E-02 
1199	 0.040540184597852 
1200	 4.05970123745502E-02 
1201	 4.04185793663885E-02 
1202	 4.03192195180837E-02 
1203	 4.01308431180858E-02 
1204	 0.040461313040567 
1205	 4.06046083745595E-02 
1206	 4.02904284177824E-02 
1207	 4.04942724313943E-02 
1208	 4.05622869943555E-02 
1209	 0.040106635726262 
1210	 4.02705761374061E-02 
1211	 4.05323512070846E-02 
1212	 0.04016672089208 
1213	 0.040272832099308 
1214	 4.03762651879063E-02 
1215	 4.08059106701269E-02 
1216	 0.040752241897312 
1217	 4.05310193593801E-02 
1218	 4.02008578125001E-02 
1219	 4.01928151216788E-02 
1220	 4.03562970378185E-02 
1221	 4.05479271088093E-02 
1222	 4.09078668959205E-02 
1223	 4.09119538925908E-02 
1224	 4.04721989559933E-02 
1225	 4.03667323295391E-02 
1226	 4.04395641944715E-02 
1227	 4.03382936327402E-02 
1228	 4.07019529019259E-02 
1229	 4.11124690578462E-02 
1230	 4.10438210678287E-02 
1231	 4.09560605110791E-02 
1232	 0.040979144534312 
1233	 0.040980016657916 
1234	 0.04103989746223 
1235	 4.12150600028476E-02 
1236	 4.19377204680816E-02 
1237	 4.20181885840907E-02 
1238	 4.18017300501696E-02 
1239	 4.13849747171804E-02 
1240	 4.14295991718932E-02 
1241	 4.16184248389426E-02 
1242	 4.15102386649039E-02 
1243	 0.041537198769598 
1244	 4.14908962243488E-02 
1245	 4.09938804574383E-02 
1246	 4.08255759965016E-02 
1247	 4.12048392354283E-02 
1248	 4.13374184372388E-02 
1249	 4.10817010461332E-02 
1250	 4.12198063494347E-02 
1251	 4.16358722558189E-02 
1252	 4.14125845595182E-02 
1253	 4.12446751674646E-02 
1254	 4.17166287620928E-02 
1255	 4.17266956356549E-02 
1256	 4.15415837875678E-02 
1257	 0.041557158024468 
1258	 4.15851876490824E-02 
1259	 4.09689256948855E-02 
1260	 4.07676973297542E-02 
1261	 4.12618463689928E-02 
1262	 4.11637895897649E-02 
1263	 4.05450147853256E-02 
1264	 4.03772530527147E-02 
1265	 4.04618475985101E-02 
1266	 4.09255785867391E-02 
1267	 4.11825835746875E-02 
1268	 4.08507379175926E-02 
1269	 4.09603695481488E-02 
1270	 4.07642436719158E-02 
1271	 4.02976079584323E-02 
1272	 4.06563430278928E-02 
1273	 4.12006843842717E-02 
1274	 4.11740144087954E-02 
1275	 4.12687158643222E-02 
1276	 4.16299679951432E-02 
1277	 4.14010794102095E-02 
1278	 4.09289769634141E-02 
1279	 4.09111829175846E-02 
1280	 4.11686479310849E-02 
1281	 4.11964706602303E-02 
1282	 4.11586396339635E-02 
1283	 4.09651422638918E-02 
1284	 4.05036168574947E-02 
1285	 4.04705727007555E-02 
1286	 4.06287028523945E-02 
1287	 4.06386650888316E-02 
1288	 4.08221375063022E-02 
1289	 4.09524332806688E-02 
1290	 0.040969701861805 
1291	 4.08022669078446E-02 
1292	 4.06645626265678E-02 
1293	 0.040723364522962 
1294	 4.06278767556605E-02 
1295	 4.01523116450813E-02 
1296	 3.99168130756789E-02 
1297	 3.98211594019443E-02 
1298	 3.95153709525663E-02 
1299	 3.97211119098864E-02 
1300	 4.00497428475536E-02 
1301	 3.99736821490734E-02 
1302	 3.95915270459657E-02 
1303	 3.92183711890306E-02 
1304	 3.92744607904521E-02 
1305	 3.92011106218904E-02 
1306	 3.90562730731231E-02 
1307	 3.90089037126956E-02 
1308	 3.87321855991235E-02 
1309	 3.76804950664961E-02 
1310	 3.78527760378362E-02 
1311	 3.91309663252099E-02 
1312	 3.88831104560114E-02 
1313	 0.038244778448118 
1314	 3.87193665896512E-02 
1315	 3.94799824211963E-02 
1316	 3.87177680887285E-02 
1317	 3.70007179219688E-02 
1318	 3.71563186656509E-02 
1319	 3.74889479118899E-02 
1320	 3.68325845834882E-02 
1321	 3.72086577176151E-02 
1322	 3.83035211931419E-02 
1323	 3.86591386978723E-02 
1324	 3.81503043544309E-02 
1325	 3.84553106121815E-02 
1326	 3.88067553354095E-02 
1327	 3.79759245518499E-02 
1328	 0.03618489239041 
1329	 3.43526898201525E-02 
1330	 3.48461804219037E-02 
1331	 3.62462967820202E-02 
1332	 3.49688791172618E-02 
1333	 0.033767003930077 
1334	 3.61554563939476E-02 
1335	 3.69134707039841E-02 
1336	 3.47426982638945E-02 
1337	 3.33735756190421E-02 
1338	 3.37713529319597E-02 
1339	 3.43074016255577E-02 
1340	 3.42542729266482E-02 
1341	 3.27508399778775E-02 
1342	 2.97392669868637E-02 
1343	 2.96760302280816E-02 
1344	 3.09580567784009E-02 
1345	 2.99962130936555E-02 
1346	 3.20349538179506E-02 
1347	 3.52145842191069E-02 
1348	 3.34743919964184E-02 
1349	 2.81706005144808E-02 
1350	 2.45111377283117E-02 
1351	 2.75067762400187E-02 
1352	 1.86481833144588E-02 
1353	 1.69660309021732E-02 
1354	 9.17992558267972E-02 
1355	 0.14934110857152 
1356	 9.96536166151259E-02 
1357	 3.11211604948205E-03 
1358	-8.57023551844585E-02 
1359	-0.131016978278952 
1360	-5.05353486273941E-02 
1361	 0.100059412848185 
1362	 5.24013330856203E-02 
1363	-8.74041153667739E-02 
1364	 0.183598012031179 
1365	 0.58695434561607 
1366	 9.95668653316241E-02 
1367	-0.227761319434783 
1368	-0.205661858780499 
1369	-0.601560554745756 
1370	-0.579738121639052 
1371	 0.165877930095919 
1372	 0.416054397153535 
1373	 0.559340532266231 
1374	 0.303821651173875 
1375	 0.210251071222095 
1376	 0.173321599836532 
1377	-0.175499709549098 
1378	-0.16956075644068 
1379	 8.79828228129922E-02 
1380	 0.126470771222748 
1381	-0.028854839383047 
1382	 3.33927228062362E-02 
1383	 0.163649163738854 
1384	 0.155344567072827 
1385	 8.12422705744608E-02 
1386	 0.173973197869339 
1387	 0.222765937609209 
1388	 0.230978426642233 
1389	 0.135406007048276 
1390	 0.445078696232834 
1391	 1.68975733174821 
1392	 2.7430607483507 
1393	 3.58713942327488 
1394	 6.91067777185893 
1395	 1.04519473898692 
1396	 0.994244434376127 
1397	 1.94903656074467 
1398	 0.931225162399421 
1399	 1.21134842002708 
1400	 1.91194381746962 
1401	 1.67406763186354 
1402	 1.91291430293811 
1403	 2.3907511056971 
1404	 2.44658963752644 
1405	 2.16988709909551 
1406	 0.800912334021532 
1407	 0.423356421637554 
1408	 4.56800731749912E-02 
1409	-0.138765243141047 
1410	-8.26469152306742E-04 
1411	-3.78693311129728E-02 
1412	-0.719111003925458 
1413	-0.814932606064729 
1414	-0.331112814915476 
1415	-0.283807742749623 
1416	-0.257044395935555 
1417	-0.169765674807992 
1418	-9.68066626851598E-02 
1419	-7.08380546244031E-02 
1420	 9.9087464667469E-03 
1421	 4.53091819563541E-02 
1422	 5.27640047558869E-03 
1423	-3.63570095127653E-03 
1424	 1.94523995501041E-03 
1425	 2.92776745230763E-02 
1426	 8.22661978063337E-02 
1427	 9.35266937931132E-02 
1428	 0.106082194848956 
1429	 0.104511334417673 
1430	 8.69056931741947E-02 
1431	 5.30720398329494E-02 
1432	-2.38174061742185E-02 
1433	-3.23205452979458E-02 
1434	-2.05989118464111E-02 
1435	-1.77051149269409E-02 
1436	 5.99614760088051E-03 
1437	 0.094420450098184 
1438	 0.104459755472036 
1439	 5.53461958062059E-02 
1440	 1.70110248675872E-02 
1441	-1.88679452509251E-02 
1442	-0.026486156890614 
1443	-1.91775636081528E-02 
1444	-1.55012442522204E-02 
1445	-8.63747603906407E-03 
1446	 3.95600447238926E-03 
1447	 9.54374844585609E-03 
1448	 8.87015802840185E-03 
1449	 2.63405836485567E-02 
1450	 4.45191626226926E-02 
1451	 4.30338185027447E-02 
1452	 3.45599589302057E-02 
1453	 3.33324274061036E-02 
1454	 3.25667451977981E-02 
1455	 2.69625133180653E-02 
1456	 2.27797323277471E-02 
1457	 2.15854081717611E-02 
1458	 2.33584274176253E-02 
1459	 2.29162905246032E-02 
1460	 2.55776801546695E-02 
1461	 3.71322511088807E-02 
1462	 4.06484645342664E-02 
1463	 3.69451998702604E-02 
1464	 3.87686795450813E-02 
1465	 4.52695776593273E-02 
1466	 4.56819736776266E-02 
1467	 0.044216686495519 
1468	 4.41482031753901E-02 
1469	 3.74154825711441E-02 
1470	 3.54062675759814E-02 
1471	 4.15784197207839E-02 
1472	 4.00397215118583E-02 
1473	 3.44604075153912E-02 
1474	 0.032875977269406 
1475	 3.03926616510201E-02 
1476	 2.71994258694546E-02 
1477	 2.47797956381305E-02 
1478	 2.45758306457771E-02 
1479	 2.49650094340636E-02 
1480	 0.024322120965947 
1481	 0.02390740777124 
1482	 2.53102721903598E-02 
1483	 0.026410900663761 
1484	 2.69122509313518E-02 
1485	 2.84004369011701E-02 
1486	 3.04321867143106E-02 
1487	 0.03166316577956 
1488	 3.27294200386042E-02 
1489	 3.47558127571481E-02 
1490	 3.55955400806965E-02 
1491	 3.55915490039818E-02 
1492	 3.58935529002994E-02 
1493	 3.64566654805758E-02 
1494	 3.65112176369057E-02 
1495	 3.61546538619864E-02 
1496	 3.58716548481572E-02 
1497	 0.035091495499062 
1498	 3.51794641138036E-02 
1499	 3.60206657767475E-02 
1500	 3.61833551441513E-02 
1501	 3.62729641729148E-02 
1502	 3.64736071621205E-02 
1503	 3.64795155229411E-02 
1504	 3.64046801683308E-02 
1505	 3.62071653852338E-02 
1506	 3.65417726618017E-02 
1507	 3.67831683375794E-02 
1508	 3.64699026426461E-02 
1509	 3.69731563325703E-02 
1510	 3.73443778184522E-02 
1511	 3.63826547144041E-02 
1512	 3.61415566434127E-02 
1513	 3.64266581237603E-02 
1514	 3.63438926655035E-02 
1515	 3.70839245772423E-02 
1516	 3.79844561017408E-02 
1517	 3.82186837057627E-02 
1518	 3.78029857147663E-02 
1519	 3.72342677376513E-02 
1520	 3.77743857425631E-02 
1521	 3.79099471217175E-02 
1522	 3.73034431691269E-02 
1523	 3.80182636598812E-02 
1524	 3.83342668150142E-02 
1525	 3.75069652711823E-02 
1526	 0.037744046030328 
1527	 3.86518510836083E-02 
1528	 3.87205868455447E-02 
1529	 3.82934126548773E-02 
1530	 3.86453312028351E-02 
1531	 3.92056377823238E-02 
1532	 3.86004202244954E-02 
1533	 0.038147859763851 
1534	 0.038823099301603 
1535	 3.91443648448171E-02 
1536	 3.87768952687963E-02 
1537	 3.86234398896261E-02 
1538	 3.88837452285658E-02 
1539	 3.91369516305369E-02 
1540	 3.91761419292517E-02 
1541	 3.94145325079873E-02 
1542	 3.96354591038176E-02 
1543	 3.92708864848506E-02 
1544	 3.93887352207361E-02 
1545	 3.99708139572622E-02 
1546	 3.99278149824299E-02 
1547	 3.97800342479314E-02 
1548	 3.90678115427652E-02 
1549	 3.82149860132658E-02 
1550	 3.86088050362383E-02 
1551	 3.90054949924167E-02 
1552	 3.88758855202666E-02 
1553	 3.93512642510365E-02 
1554	 4.00305331338958E-02 
1555	 3.99677114034738E-02 
1556	 3.95617930355618E-02 
1557	 3.94627990676129E-02 
1558	 0.03957772591816 
1559	 3.93847288205545E-02 
1560	 3.89787913195854E-02 
1561	 3.89069345516677E-02 
1562	 0.038838070346641 
1563	 3.88874445595146E-02 
1564	 3.95205935157318E-02 
1565	 3.97432656473927E-02 
1566	 0.039151193590483 
1567	 0.038624254954326 
1568	 3.89779153479141E-02 
1569	 3.96522357912256E-02 
1570	 3.97410359264129E-02 
1571	 3.95280439454635E-02 
1572	 3.93141241090896E-02 
1573	 3.98235259158456E-02 
1574	 4.00937575843083E-02 
1575	 3.98188542471647E-02 
1576	 4.00423750355018E-02 
1577	 3.97571021727261E-02 
1578	 3.94875456315219E-02 
1579	 4.01958979048752E-02 
1580	 4.07619035272896E-02 
1581	 4.03436229489878E-02 
1582	 3.97538886676503E-02 
1583	 3.97236544572526E-02 
1584	 3.97554618723533E-02 
1585	 3.95443489519031E-02 
1586	 3.95036625829809E-02 
1587	 3.98789593158616E-02 
1588	 4.00583069653991E-02 
1589	 4.02057922334552E-02 
1590	 4.06272846389421E-02 
1591	 4.02187611588766E-02 
1592	 3.96595456976298E-02 
1593	 3.98760995707323E-02 
1594	 3.99507860337797E-02 
1595	 4.02988294493971E-02 
1596	 4.06885154152765E-02 
1597	 0.040031606436653 
1598	 3.98135297866067E-02 
1599	 0.040451346983127 
1600	 4.01823427092802E-02 
1601	 3.96433284738374E-02 
1602	 4.00880693587728E-02 
1603	 4.04345221612985E-02 
1604	 4.00960616810823E-02 
1605	 4.03014223164289E-02 
1606	 4.06805221464496E-02 
1607	 3.99313758913633E-02 
1608	 3.94022815510301E-02 
1609	 3.97450582197123E-02 
1610	 3.97405821005401E-02 
1611	 0.040007416108649 
1612	 4.03786448623402E-02 
1613	 4.00454671970455E-02 
1614	 3.97887563797805E-02 
1615	 3.96718275732263E-02 
1616	 4.00971360847657E-02 
1617	 4.04826145911704E-02 
1618	 4.02130300990083E-02 
1619	 4.04834339279184E-02 
1620	 4.07257569067172E-02 
1621	 4.03320899875276E-02 
1622	 4.00946951272618E-02 
1623	 4.03477957864299E-02 
1624	 4.01266616852046E-02 
1625	 0.039592205450522 
1626	 4.02871014167207E-02 
1627	 4.11712392986305E-02 
1628	 4.06799484647142E-02 
1629	 4.01270337642587E-02 
1630	 4.08352867285625E-02 
1631	 4.08173904646163E-02 
1632	 4.02451286722924E-02 
1633	 4.10649362922462E-02 
1634	 4.12007004891627E-02 
1635	 4.01731253484367E-02 
1636	 4.01071467839245E-02 
1637	 4.07727687470909E-02 
1638	 4.04837319943403E-02 
1639	 3.96832642697079E-02 
1640	 3.97663491217397E-02 
1641	 3.96982904945838E-02 
1642	 3.93931123873659E-02 
1643	 3.98287574321932E-02 
1644	 3.97312633080986E-02 
1645	 3.91786808366931E-02 
1646	 3.96047862686961E-02 
1647	 4.05036750165815E-02 
1648	 4.08334550030066E-02 
1649	 0.04035415872548 
1650	 0.039935491115113 
1651	 4.01335156149756E-02 
1652	 4.00782035025026E-02 
1653	 3.98106864870738E-02 
1654	 3.98111423630047E-02 
1655	 3.94164339053291E-02 
1656	 3.95001559755658E-02 
1657	 0.040425319810668 
1658	 4.05762279484831E-02 
1659	 4.01565678075529E-02 
1660	 4.04219360930311E-02 
1661	 4.11597687303159E-02 
1662	 4.10863833406787E-02 
1663	 4.06616885426668E-02 
1664	 4.09646598718028E-02 
1665	 4.09675871314324E-02 
1666	 4.07152450831525E-02 
1667	 4.15146068038062E-02 
1668	 4.11273772039558E-02 
1669	 0.040207816663582 
1670	 4.04886654662125E-02 
1671	 4.05134947054363E-02 
1672	 3.97740866901345E-02 
1673	 3.98198887530435E-02 
1674	 4.09033964883684E-02 
1675	 4.13209714617406E-02 
1676	 4.07186654518889E-02 
1677	 4.06190623644224E-02 
1678	 0.040615514752299 
1679	 4.01524964827418E-02 
1680	 4.03262073039032E-02 
1681	 4.03168242136572E-02 
1682	 3.91939370781618E-02 
1683	 3.90541872435133E-02 
1684	 3.99902807904096E-02 
1685	 4.02294881170995E-02 
1686	 3.98323346876409E-02 
1687	 3.92734829147921E-02 
1688	 3.90358937134384E-02 
1689	 3.92267215258533E-02 
1690	 3.97833624494316E-02 
1691	 3.96127799195062E-02 
1692	 0.03875095730203 
1693	 3.89715948415247E-02 
1694	 3.94873689681319E-02 
1695	 3.96370164628042E-02 
1696	 4.00359399805401E-02 
1697	 4.00405122399492E-02 
1698	 3.98331827320683E-02 
1699	 3.99422578556217E-02 
1700	 3.94042806877284E-02 
1701	 3.88711824429062E-02 
1702	 3.89848543128416E-02 
1703	 0.038594268047394 
1704	 3.83730806040208E-02 
1705	 3.83857878201584E-02 
1706	 3.76968519896561E-02 
1707	 3.78705909365624E-02 
1708	 3.94601971101855E-02 
1709	 4.01321880144986E-02 
1710	 0.039762235880883 
1711	 0.040364644726967 
1712	 4.02708424269113E-02 
1713	 3.99310163510001E-02 
1714	 4.03417285532163E-02 
1715	 3.98734003005257E-02 
1716	 3.97710731687983E-02 
1717	 4.03247786121971E-02 
1718	 3.96140285038829E-02 
1719	 3.94243330318884E-02 
1720	 4.02936645469213E-02 
1721	 3.95958781230231E-02 
1722	 3.87288962758872E-02 
1723	 3.91862540321983E-02 
1724	 3.84354055648449E-02 
1725	 3.84839705204646E-02 
1726	 3.96622559904719E-02 
1727	 3.81519224857112E-02 
1728	 3.70845729471018E-02 
1729	 3.83052109953482E-02 
1730	 3.88197665102144E-02 
1731	 3.89172525300431E-02 
1732	 3.91242857937382E-02 
1733	 3.87964290559967E-02 
1734	 3.87978050458917E-02 
1735	 3.92576203038602E-02 
1736	 3.90214308652875E-02 
1737	 3.86548236531893E-02 
1738	 3.90343720341328E-02 
1739	 3.91701139172063E-02 
1740	 3.85980183804647E-02 
1741	 3.78168376036678E-02 
1742	 3.66246393862786E-02 
1743	 3.54595183110897E-02 
1744	 3.62116708325355E-02 
1745	 3.85325359727413E-02 
1746	 3.85782083345814E-02 
1747	 3.84679809058193E-02 
1748	 3.87940012970675E-02 
1749	 0.038835717956408 
1750	 3.82171197495327E-02 
1751	 0.038011683622831 
1752	 0.038162466763815 
1753	 3.76589793402748E-02 
1754	 3.58880509554276E-02 
1755	 0.036355373495054 
1756	 3.92470058790224E-02 
1757	 3.86048354727176E-02 
1758	 3.78422367052383E-02 
1759	 3.73192829954149E-02 
1760	 3.51044897007206E-02 
1761	 3.52107152250422E-02 
1762	 3.68022980029009E-02 
1763	 3.53964943280675E-02 
1764	 3.53511128453252E-02 
1765	 3.69968774648697E-02 
1766	 3.64054030421065E-02 
1767	 3.54039822005236E-02 
1768	 3.57774299858359E-02 
1769	 3.63841430097767E-02 
1770	 3.56588778328915E-02 
1771	 3.56497504702156E-02 
1772	 3.53485014941922E-02 
1773	 3.07009322236754E-02 
1774	 2.87686424987657E-02 
1775	 3.00618564831669E-02 
1776	 2.92304666545838E-02 
1777	 3.17861061472368E-02 
1778	 3.15175989647007E-02 
1779	 2.54997129930827E-02 
1780	 2.46390091396257E-02 
1781	 2.75730812852458E-02 
1782	 2.61265386641371E-02 
1783	 2.24169360915926E-02 
1784	 2.51606662544742E-02 
1785	 2.96378206401544E-02 
1786	 3.08186615950822E-02 
1787	 3.87037321317455E-02 
1788	 0.039937934754142 
1789	 2.92124535743018E-02 
1790	 3.78717177361515E-02 
1791	 4.04407008135917E-02 
1792	 4.75285409484416E-02 
1793	 4.74720738948699E-02 
1794	 3.11355645273585E-02 
1795	 3.57669114996292E-02 
1796	 2.42934029437509E-02 
1797	 1.18665511068717E-02 
1798	 3.01164964638339E-02 
1799	 1.53359969920913E-02 
1800	 3.25911661946287E-02 
1801	 4.06882640468319E-02 
1802	 8.16009664327246E-03 
1803	 8.40608935549291E-03 
1804	 4.69463188593166E-02 
1805	 6.74080206117223E-02 
1806	 0.169203374953737 
1807	 0.213336326781195 
1808	-5.86134073564637E-02 
1809	-0.252605242946642 
1810	-0.308693884861196 
1811	-0.26412284362217 
1812	 6.72908803608178E-02 
1813	 0.18949272702682 
1814	-3.08651653378322 
1815	-1.46202619391054 
1816	 15.8133719531576 
1817	 1.32477873959643 
1818	-0.133680531778727 
1819	-1.17550276134475 
1820	-2.25107822269207 
1821	 0.605075007960122 
1822	 0.529780402752068 
1823	 8.36795779085889E-03 
1824	 0.116945611945808 
1825	 4.74665843402576E-03 
1826	-3.70274227393199E-02 
1827	 12.3213637965001 
1828	 2.2261866272727 
1829	-1.86945228027698 
1830	-1.40695382414298 
1831	 0.989600553338058 
1832	 6.20014359332922E-02 
1833	-2.484620762793 
1834	-3.25594041069436 
1835	-13.2662217870061 
1836	 73.4700418148419 
1837	-1.82271537817977 
1838	-14.0091791563894 
1839	 0.764153834393395 
1840	 0.419081081024753 
1841	 0.566470022391987 
1842	 0.491767629987707 
1843	 0.352794856821518 
1844	 0.791663292153141 
1845	 1.84940651345845 
1846	-1.69651700658673 
1847	-2.19826688985066 
1848	-1.29685350578383 
1849	-0.334483093174754 
1850	-0.386830669179265 
1851	-0.669660991851045 
1852	-1.42097301136938 
1853	-2.70703427961205 
1854	 2.1351945324217 
1855	 0.323660383417705 
1856	 0.193763217980957 
1857	 1.1664856368105 
1858	 1.61564116415827 
1859	 2.13196252231108 
1860	-0.108127519699567 
1861	 3.55857414530052 
1862	-0.254609532467218 
1863	-0.251355971888779 
1864	 8.19805697470219 
1865	 2.9728448898391 
1866	 1.15603895969752 
1867	 1.22447901268581 
1868	 3.73623228868642 
1869	-7.03467029978646 
1870	-0.424547376422152 
1871	-0.471294905867097 
1872	-1.26119179698363 
1873	-1.11598397321294 
1874	-0.733859998487839 
1875	-0.244084916780359 
1876	-8.62708166370613E-02 
1877	 6.2023730564859E-03 
1878	-0.012538649409807 
1879	-0.380408733105358 
1880	-0.538562450261534 
1881	-0.324116282895186 
1882	-0.468346541061568 
1883	-0.469164960133513 
1884	-9.86751636507688E-02 
1885	 0.204821925903726 
1886	 0.020701284814605 
1887	-1.67118163012481 
1888	-1.84505222750315 
1889	-2.02060603446149 
1890	-2.06465633494694 
1891	-1.3749262472114 
1892	-0.633477094898664 
1893	-0.175491473589327 
1894	 0.101845665195826 
1895	 0.1855011070391 
1896	-9.12233513703228E-02 
1897	 0.622378465247476 
1898	 5.01635578960305 
1899	 5.70669000364039 
1900	 2.22242951254646 
1901	 0.371835571921952 
1902	 0.052022134181149 
1903	-0.735105085236029 
1904	-0.757506155947924 
1905	-0.701045209505818 
1906	-0.857445486338613 
1907	-0.94321541974693 
1908	-1.26853043248743 
1909	-2.72268205001052 
1910	 3.43562264917185 
1911	-1.53160874163811 
1912	-1.08785071930516 
1913	-0.427606442459339 
1914	-0.894036052062079 
1915	-0.756154562318434 
1916	 0.782427067721428 
1917	 0.548757848322721 
1918	-0.565134969067318 
1919	-1.76040465907026 
1920	-0.734122587888939 
1921	-0.708299901527105 
1922	-0.555135946287851 
1923	-0.165902623910113 
1924	-7.17484986246946E-02 
1925	-0.110226962319252 
1926	-0.576384991379446 
1927	-2.38322142136723 
1928	 6.96089443087876 
1929	-4.99006995747114 
1930	-0.597673983877381 
1931	-0.266811400373505 
1932	 0.388256315717898 
1933	 1.74567211303541 
1934	 2.28404532555364 
1935	 5.55068028322632 
1936	 2.10856980936219 
1937	-0.499248241568673 
1938	-1.30475297914129 
1939	-2.1337390536271 
1940	 91.2774289504286 
1941	-2.22380736844488 
1942	-1.10222897941462 
1943	 2.68692478664162 
1944	 1.7066204726362 
1945	 0.512030727947354 
1946	 0.236517545075961 
1947	-0.115814449869252 
1948	-0.374527124176721 
1949	-0.305745441888916 
1950	-0.32768357534526 
1951	-0.23729872205531 
1952	-0.140243271655826 
1953	 7.98031973209098E-03 
1954	 1.57584156255212E-02 
1955	 6.11858908768089E-02 
1956	 0.106698783657986 
1957	 6.93568082046193E-02 
1958	 6.33535309345915E-02 
1959	 5.87135026584117E-02 
1960	 5.23324909233944E-02 
1961	 5.78429945866913E-02 
1962	 3.31014177044679E-02 
1963	 2.54994030679472E-02 
1964	 4.07375235502879E-02 
1965	 0.04840100778766 
1966	 4.76918096931772E-02 
1967	 5.38320593008805E-02 
1968	 0.049365593973709 
1969	 2.57656162430029E-02 
1970	 1.41636746057586E-02 
1971	 1.72890685163881E-02 
1972	 1.91396343160493E-02 
1973	 2.75117385031258E-02 
1974	 3.08672248928784E-02 
1975	 0.028268572225169 
1976	 3.01571744145099E-02 
1977	 3.17451357913318E-02 
1978	 3.03321936537802E-02 
1979	 3.05838620646336E-02 
1980	 3.18219849520404E-02 
1981	 3.02359666944321E-02 
1982	 2.77369053077887E-02 
1983	 3.44580032577277E-02 
1984	 3.28866055024664E-02 
1985	 2.83174757588335E-02 
1986	 3.12562397158287E-02 
1987	 2.70541101981966E-02 
1988	 2.99458232990334E-02 
1989	 3.86591946497373E-02 
1990	 4.01791343547663E-02 
1991	 3.67161429710556E-02 
1992	 3.05466878053434E-02 
1993	 2.90898475987162E-02 
1994	 0.02731861717303 
1995	 0.026403573387068 
1996	 2.76946948018878E-02 
1997	 2.65445821632011E-02 
1998	 2.29926241998003E-02 
1999	 2.54406618988854E-02 
2000	 2.54340641990176E-02 
2001	 0.03064912996774 
2002	 3.45240593200282E-02 
2003	 2.90343046493863E-02 
2004	 2.93021946519448E-02 
2005	 4.14689747792329E-02 
2006	 6.17165936560175E-02 
2007	 0.062159942084838 
2008	 5.77178160287711E-02 
2009	 5.32477472176654E-02 
2010	 3.03760845108414E-02 
2011	 2.01090715088472E-02 
2012	 1.29900816892582E-02 
2013	 2.10037044127529E-02 
2014	 3.23387636263508E-02 
2015	 4.22325511903031E-02 
2016	 4.54924098132701E-02 
2017	 0.046121152185391 
2018	 4.20730517765047E-02 
2019	 3.52113859638311E-02 
2020	 3.12707867434192E-02 
2021	 2.97513203836581E-02 
2022	 2.72844551648182E-02 
2023	 2.92481681862216E-02 
2024	 3.00628364339665E-02 
2025	 3.21004604547178E-02 
2026	 3.28620477236847E-02 
2027	 3.44463467442331E-02 
2028	 3.17684297058696E-02 
2029	 2.88063549310424E-02 
2030	 2.93965284674509E-02 
2031	 3.15117625887636E-02 
2032	 3.28697267599875E-02 
2033	 3.33138713005122E-02 
2034	 3.46142715044342E-02 
2035	 3.19461343885718E-02 
2036	 2.95059626768235E-02 
2037	 0.031291278896147 
2038	 3.22506971286621E-02 
2039	 3.18557571486439E-02 
2040	 3.02804669730036E-02 
2041	 0.030180852157144 
2042	 2.91593857069417E-02 
2043	 0.028177238576297 
2044	 2.70951361189789E-02 
2045	 3.04228458175423E-02 
2046	 3.05535701084681E-02 
2047	 3.07521767406238E-02 
2048	 3.26699212861765E-02 
2049	 3.15502468717508E-02 
2050	 3.05286500950864E-02 
2051	 3.03286257372558E-02 
2052	 3.05995566195328E-02 
2053	 3.12687963638467E-02 
2054	 3.19956205760504E-02 
2055	 3.43451705242113E-02 
2056	 3.51708684526698E-02 
2057	 3.57578650320796E-02 
2058	 3.65565415442329E-02 
2059	 3.61786338124879E-02 
2060	 3.55782725326617E-02 
2061	 3.63135577198533E-02 
2062	 3.53637534791801E-02 
2063	 2.86332028229908E-02 
2064	 2.49002925372487E-02 
2065	 2.74806877095329E-02 
2066	 2.92916384279366E-02 
2067	 2.91820286432764E-02 
2068	 3.07381747512321E-02 
2069	 3.19936036269575E-02 
2070	 2.81946712352308E-02 
2071	 3.01354497536668E-02 
2072	 3.58898530820734E-02 
2073	 3.60662559547841E-02 
2074	 3.16375677791945E-02 
2075	 3.15005324900697E-02 
2076	 3.13370535125352E-02 
2077	 3.09297785857926E-02 
2078	 3.16120853550721E-02 
2079	 3.14551904919939E-02 
2080	 3.11503194277462E-02 
2081	 2.98048108653057E-02 
2082	 2.70767741913332E-02 
2083	 2.80299833399653E-02 
2084	 2.82888333751193E-02 
2085	 2.59347636329674E-02 
2086	 2.56316746726821E-02 
2087	 2.77736246610345E-02 
2088	 3.12032593387277E-02 
2089	 3.53933474558194E-02 
2090	 3.81238474005922E-02 
2091	 0.038594229029961 
2092	 3.90464240822153E-02 
2093	 3.66543486376447E-02 
2094	 3.58072941579834E-02 
2095	 3.59042467972987E-02 
2096	 3.53003823834047E-02 
2097	 3.29099058156465E-02 
2098	 3.40433328978553E-02 
2099	 3.68903819655002E-02 
2100	 4.03227569805178E-02 
2101	 4.47438200343849E-02 
2102	 4.51399746609272E-02 
2103	 4.25085692828449E-02 
2104	 4.13720745041424E-02 
2105	 4.18315240382596E-02 
2106	 4.02816314638472E-02 
2107	 3.77201535877937E-02 
2108	 3.77881878501959E-02 
2109	 3.92428736461537E-02 
2110	 3.83266856500649E-02 
2111	 3.80063553926882E-02 
2112	 3.78431065631851E-02 
2113	 0.037241742821366 
2114	 3.41450507597041E-02 
2115	 3.41068648998219E-02 
2116	 3.65025964442163E-02 
2117	 3.71924544319294E-02 
2118	 3.79106157332107E-02 
2119	 3.76950127354564E-02 
2120	 3.74893367175718E-02 
2121	 3.55361651321505E-02 
2122	 3.29697721000408E-02 
2123	 3.23172503829771E-02 
2124	 3.30726414790682E-02 
2125	 3.38710262691746E-02 
2126	 3.24704743111429E-02 
2127	 3.13024074825001E-02 
2128	 2.99274445083668E-02 
2129	 2.89674614966814E-02 
2130	 0.030443641962924 
2131	 3.23477997166952E-02 
2132	 3.42092373765181E-02 
2133	 3.63608959291512E-02 
2134	 3.74550455134192E-02 
2135	 3.91585696672066E-02 
2136	 3.92114830602657E-02 
2137	 0.036363445498769 
2138	 3.57394129615338E-02 
2139	 3.53747897084809E-02 
2140	 3.50747535444736E-02 
2141	 3.65556473023738E-02 
2142	 3.74115518396883E-02 
2143	 3.75840523421778E-02 
2144	 3.84736775181155E-02 
2145	 3.86439970767051E-02 
2146	 3.81374486797273E-02 
2147	 3.77028353955647E-02 
2148	 3.75183907754242E-02 
2149	 3.83843431001727E-02 
2150	 3.67072687007146E-02 
2151	 3.72666897753617E-02 
2152	 3.86458102206351E-02 
2153	 3.93134704354891E-02 
2154	 4.13119014956087E-02 
2155	 3.95212837708238E-02 
2156	 3.72613501278687E-02 
2157	 3.62327707329302E-02 
2158	 0.035372805269264 
2159	 3.43041273197129E-02 
2160	 3.25755839994527E-02 
2161	 3.37883946939407E-02 
2162	 3.73037072430958E-02 
2163	 3.76790718365929E-02 
2164	 3.93397211507929E-02 
2165	 0.040383024945554 
2166	 3.91053374829701E-02 
2167	 3.70683827368688E-02 
2168	 3.51182002957503E-02 
2169	 3.29602658104191E-02 
2170	 2.68242409355972E-02 
2171	 2.48174145924676E-02 
2172	 2.78562317335175E-02 
2173	 3.21238517199659E-02 
2174	 0.038805716176584 
2175	 4.28322323863789E-02 
2176	 4.45640903395155E-02 
2177	 4.57882496367966E-02 
2178	 4.10723716621805E-02 
2179	 3.84478926424857E-02 
2180	 3.67401698709826E-02 
2181	 3.06587776361926E-02 
2182	 3.10999156207309E-02 
2183	 3.21347881507546E-02 
2184	 2.86016755043492E-02 
2185	 2.99105015766037E-02 
2186	 2.99785985823525E-02 
2187	 2.76108535752835E-02 
2188	 2.78776839013767E-02 
2189	 3.07782363637726E-02 
2190	 3.15648990462537E-02 
2191	 3.22057385260373E-02 
2192	 3.49795004624534E-02 
2193	 3.94768185825267E-02 
2194	 0.04145442171803 
2195	 4.35578113690864E-02 
2196	 4.50909301373094E-02 
2197	 4.48903440686619E-02 
2198	 4.32862286706912E-02 
2199	 4.17780460146873E-02 
2200	 0.038538026865635 
2201	 3.46298032945057E-02 
2202	 3.25577646159957E-02 
2203	 3.23638069833082E-02 
2204	 3.30260702463798E-02 
2205	 3.57831265008085E-02 
2206	 3.77445795990961E-02 
2207	 3.71458512310329E-02 
2208	 4.10007599308551E-02 
2209	 4.23259779563571E-02 
2210	 0.036599131918792 
2211	 3.55129768813494E-02 
2212	 3.34521019512094E-02 
2213	 2.50564579793448E-02 
2214	 2.53897234144346E-02 
2215	 3.27838745648383E-02 
2216	 3.49295276103729E-02 
2217	 3.46993198187563E-02 
2218	 3.39811260394861E-02 
2219	 3.40886227007926E-02 
2220	 2.98054365284146E-02 
2221	 2.83533282832598E-02 
2222	 3.06928573825568E-02 
2223	 3.31936646468931E-02 
2224	 3.43424874494905E-02 
2225	 3.50340334379719E-02 
2226	 3.96393843558337E-02 
2227	 3.93256426043853E-02 
2228	 3.50395967053708E-02 
2229	 3.24168072016517E-02 
2230	 0.025276848898737 
2231	 2.56350506169065E-02 
2232	 3.19508044495645E-02 
2233	 0.031627021242217 
2234	 3.15880625731211E-02 
2235	 0.03598063267655 
2236	 3.00327885230588E-02 
2237	 2.54308912155463E-02 
2238	 3.01752020444983E-02 
2239	 3.05706729906719E-02 
2240	 0.025985165756572 
2241	 3.01740741932362E-02 
2242	 3.51989091578547E-02 
2243	 3.47702024322895E-02 
2244	 0.038022569516152 
2245	 4.25336628356947E-02 
2246	 4.09032466203324E-02 
2247	 3.31410410192645E-02 
2248	 2.72304160944935E-02 
2249	 2.37286963455279E-02 
2250	 2.12969480714962E-02 
2251	 2.43901904154607E-02 
2252	 2.49714897343769E-02 
2253	 2.25398983189428E-02 
2254	 1.99302530018569E-02 
2255	 1.93650765424821E-02 
2256	 2.81998208997682E-02 
2257	 0.034668569267697 
2258	 3.07869333344952E-02 
2259	 0.026646247237161 
2260	 2.68598287099316E-02 
2261	 2.19145112308622E-02 
2262	 2.32106849963773E-02 
2263	 3.81111141724712E-02 
2264	 4.07226512508319E-02 
2265	 3.47619756340727E-02 
2266	 3.30569761747216E-02 
2267	 2.99608477097144E-02 
2268	 2.86277011673487E-02 
2269	 2.79355040547093E-02 
2270	 0.030292918259765 
2271	 3.78844165465308E-02 
2272	 3.77278879892748E-02 
2273	 0.034034397596671 
2274	 3.47270698793544E-02 
2275	 3.29729010372232E-02 
2276	 3.11259489163729E-02 
2277	 0.033745525016641 
2278	 3.47191653376665E-02 
2279	 3.00521968520757E-02 
2280	 2.94489730063043E-02 
2281	 3.46851415798566E-02 
2282	 3.32662724035577E-02 
2283	 3.23767297091153E-02 
2284	 3.30275495356951E-02 
2285	 2.51567168519274E-02 
2286	 0.028982176601991 
2287	 3.49794388484488E-02 
2288	 3.15714860660763E-02 
2289	 2.97726189079073E-02 
2290	 2.73058673028754E-02 
2291	 2.60723293424153E-02 
2292	 2.49440089901988E-02 
2293	 1.82625681820139E-02 
2294	 1.84933586786916E-02 
2295	 2.35091708444086E-02 
2296	 2.12899431462366E-02 
2297	 3.24850010661043E-02 
2298	 3.62998442531352E-02 
2299	 0.02330718292555 
2300	 2.52082721792551E-02 
2301	 2.21293667410463E-02 
2302	 2.40253435276335E-02 
2303	 3.43040261650889E-02 
2304	 3.46069366871584E-02 
2305	 3.14934246852301E-02 
2306	 2.77913477982855E-02 
2307	 3.01976617434095E-02 
2308	 2.96874383063965E-02 
2309	 0.034708564725454 
2310	 4.24501830049407E-02 
2311	 3.15792954005442E-02 
2312	 1.75070248926576E-02 
2313	 6.84016235809136E-03 
2314	 6.96407372700599E-03 
2315	 2.04590777992024E-02 
2316	 2.99294991719308E-02 
2317	 2.57559399254561E-02 
2318	 5.59718019132789E-03 
2319	-1.05583236930486E-02 
2320	-1.06821010797674E-02 
2321	 5.4949058405103E-03 
2322	 2.90497767721171E-02 
2323	 4.54775571372473E-02 
2324	 4.75816378756706E-02 
2325	 5.03876617209235E-02 
2326	 5.41990625220614E-02 
2327	 3.85058075741693E-02 
2328	 1.11466144715258E-02 
2329	-7.53237912263367E-03 
2330	-7.92440979532578E-03 
2331	 1.72603419330678E-02 
2332	 4.82695207415092E-02 
2333	 0.057262436049409 
2334	 5.45638110743854E-02 
2335	 3.79212411287138E-02 
2336	 2.88876358005586E-02 
2337	 2.31158028782985E-02 
2338	 6.58722512218854E-03 
2339	 6.15644829833783E-03 
2340	 5.12116264584371E-03 
2341	 0.020178605777716 
2342	 4.60761686030885E-02 
2343	 4.25624726634357E-02 
2344	 0.017836614892925 
2345	-1.07844150388656E-03 
2346	-1.54803674988328E-02 
2347	-4.46966750318566E-02 
2348	-5.27807955666199E-02 
2349	-3.20098912032471E-02 
2350	-1.85092134849712E-02 
2351	 5.43155872190418E-03 
2352	 4.65238474323672E-02 
2353	 5.90002812891191E-02 
2354	 3.84926125429265E-02 
2355	 3.42948692929961E-02 
2356	 4.88275253223713E-02 
2357	 2.90087311924779E-02 
2358	-1.26586326033514E-02 
2359	 2.67030397647781E-03 
2360	 0.041674536029484 
2361	 6.39916740031377E-02 
2362	 0.111089765341638 
2363	 0.145678022128254 
2364	 0.122016551562612 
2365	 5.07374050027038E-02 
2366	 2.67597876008544E-02 
2367	 3.86391964312516E-02 
2368	 6.32999996281873E-03 
2369	 4.71817713255245E-02 
2370	 0.102006260517293 
2371	 6.12188172418738E-02 
2372	 4.49196447409221E-02 
2373	 8.32898996703367E-02 
2374	 9.35557359232189E-02 
2375	 0.10014071245035 
2376	 0.165498851133873 
2377	 0.139188270941586 
2378	 0.117148442642433 
2379	 0.203790139878673 
2380	 0.179313246266603 
2381	 0.143029093129715 
2382	 9.34147927092863E-02 
2383	-6.58104414064369E-02 
2384	-0.152388254678524 
2385	-9.48318588696412E-02 
2386	-4.74624447730872E-02 
2387	-1.48391556183486E-02 
2388	 7.84876012450032E-02 
2389	 7.02222893885728E-02 
2390	 9.74813933016183E-03 
2391	 5.48164860182002E-02 
2392	 0.150756094813767 
2393	 0.268907372814966 
2394	 0.360963673420702 
2395	 0.310678567691588 
2396	 0.252833036952137 
2397	 0.286206747954305 
2398	 0.364153315175047 
2399	 0.365656348405589 
2400	 0.425360645757082 
2401	 0.425550946178899 
2402	 0.237885701301808 
2403	 0.203135415303837 
2404	 0.216175483853663 
2405	 0.140955610519259 
2406	 0.117301410141882 
2407	 6.88601069133484E-02 
2408	-6.02800740344578E-02 
2409	-0.094957035811996 
2410	 0.143246009380349 
2411	 0.258674917052396 
2412	 0.353430243487823 
2413	 0.70678881764723 
2414	 9.01238523004241E-02 
2415	-6.60944715974496E-02 
2416	 6.25697346014106E-02 
2417	 0.178415305532506 
2418	 0.392867539795231 
2419	 0.563369701606584 
2420	 0.911804367874694 
2421	 0.900616251615313 
2422	-0.448285807547925 
2423	-2.42841519473516 
2424	-0.883397505256526 
2425	 0.752576798841065 
2426	 3.37993856547944 
2427	 1.28363135251137 
2428	 0.613018589214767 
2429	-5.96795834925842E-02 
2430	-9.99771453066869E-02 
2431	 8.10529856619268E-02 
2432	-0.139709739907865 
2433	-0.317058546543483 
2434	 0.320114207483878 
2435	 0.677623121198593 
2436	 0.820489601192286 
2437	 194.642930290252 
2438	-0.479592311495337 
2439	 1.08547800869568 
2440	-11.4006179186223 
2441	 3.4086312745308 
2442	 0.323902035874836 
2443	 0.423237413451583 
2444	 0.199250614979006 
2445	 1.46628119640519 
2446	 8.40868393517603E-02 
2447	-0.481656337155696 
2448	-0.377395801799681 
2449	 0.179303099788393 
2450	 0.484742270389596 
2451	 0.94747949193815 
2452	 0.546482703421135 
2453	 0.737967199562418 
2454	 0.5966731768622 
2455	 0.172420090915147 
2456	 0.228298783475375 
2457	 9.40557088383833E-02 
2458	-0.499207259097216 
2459	-0.61359307263456 
2460	 0.500138870805852 
2461	 0.50658126969256 
2462	 0.550102488441298 
2463	 0.309900600357681 
2464	-0.104420579183857 
2465	 5.91008124079706E-02 
2466	 0.228781046102171 
2467	 0.336816682913343 
2468	 1.08824624475809 
2469	 0.925878206557651 
2470	 0.424915264651239 
2471	 8.86383186321627E-02 
2472	 0.583048805354877 
2473	-0.333785480670337 
2474	-1.47813995907862 
2475	-0.385686734722532 
2476	-0.322110293765621 
2477	-0.34619430199693 
2478	 0.857676966686425 
2479	 5.22158790296764E-02 
2480	 9.54117453308854E-02 
2481	-0.157937067336082 
2482	-0.432100821206828 
2483	-0.439785273481538 
2484	-0.267935694875547 
2485	 0.10500221105824 
2486	 0.35092827587508 
2487	 0.219669726462266 
2488	-0.793344857034509 
2489	-0.66850077137863 
2490	-0.729111664047302 
2491	-0.588933203747781 
2492	-0.288663744274592 
2493	-0.415191851581688 
2494	-0.596295184044521 
2495	-0.832363745039616 
2496	-0.14548142177991 
2497	 0.29377391999632 
2498	 2.03384481758395 
2499	 0.649475099123604 
2500	 0.714600305836074 
