Wavelength	rt0713west_far_cloud300008.asd
350	 7.61818949728477E-02 
351	 7.54790892211059E-02 
352	 7.57721011895674E-02 
353	 0.076197495340177 
354	 7.61245162381081E-02 
355	 7.64559776170692E-02 
356	 7.65701440837093E-02 
357	 7.68339349467463E-02 
358	 7.75092233303984E-02 
359	 7.70863816763169E-02 
360	 7.68846238102603E-02 
361	 7.73048157552052E-02 
362	 7.79492416451424E-02 
363	 0.077967557888219 
364	 7.78684332248741E-02 
365	 7.79681291757737E-02 
366	 7.80056575853513E-02 
367	 7.82410513542178E-02 
368	 7.84459270122096E-02 
369	 7.84453562619144E-02 
370	 7.86884392772134E-02 
371	 7.92079054628653E-02 
372	 7.95332955231772E-02 
373	 7.91368232829508E-02 
374	 0.079687875498462 
375	 0.080189048618643 
376	 8.03364552644296E-02 
377	 8.11445113534922E-02 
378	 8.11516927002156E-02 
379	 8.08408293472804E-02 
380	 8.08580547202522E-02 
381	 8.07117888959304E-02 
382	 8.14347601838062E-02 
383	 8.23390991080699E-02 
384	 8.22087132008395E-02 
385	 8.25338117186281E-02 
386	 8.28609259191036E-02 
387	 8.29406303577688E-02 
388	 8.29501652209801E-02 
389	 8.36801679567437E-02 
390	 8.41159020356844E-02 
391	 8.37720832577587E-02 
392	 8.42958614419247E-02 
393	 8.46435401686973E-02 
394	 8.47824562659225E-02 
395	 8.50572631097956E-02 
396	 8.56926465958448E-02 
397	 8.59410984961111E-02 
398	 8.57783458443066E-02 
399	 8.58278654319777E-02 
400	 8.63271401637734E-02 
401	 0.086734281776389 
402	 8.67529532245662E-02 
403	 8.68543468320251E-02 
404	 8.71190068982893E-02 
405	 8.73775127378392E-02 
406	 8.74413688817342E-02 
407	 8.76644385708309E-02 
408	 8.79129718012164E-02 
409	 8.80895559857893E-02 
410	 8.81765195514526E-02 
411	 8.84341550530762E-02 
412	 8.86591258730435E-02 
413	 8.87730546049208E-02 
414	 0.089221705237931 
415	 8.96269305422287E-02 
416	 8.98834664218153E-02 
417	 9.00293339153992E-02 
418	 9.01885884125039E-02 
419	 9.05329654295338E-02 
420	 9.09424650775525E-02 
421	 9.10129051974573E-02 
422	 9.14100189202805E-02 
423	 9.18628782991729E-02 
424	 9.21045348999529E-02 
425	 9.24423927925675E-02 
426	 9.28071840316856E-02 
427	 9.32056508411116E-02 
428	 9.36575305253259E-02 
429	 9.40581628086645E-02 
430	 9.44182041483116E-02 
431	 9.48397732581742E-02 
432	 9.55109081592961E-02 
433	 9.57102922074839E-02 
434	 9.58940875805978E-02 
435	 0.096478470657827 
436	 9.69633962038209E-02 
437	 9.73784733504614E-02 
438	 9.78045803318025E-02 
439	 9.83260766748049E-02 
440	 9.87527081375884E-02 
441	 9.91954143101564E-02 
442	 9.96552658598406E-02 
443	 9.99138479114932E-02 
444	 0.100428829812678 
445	 0.100931837215201 
446	 0.101141772449849 
447	 0.101557861592376 
448	 0.101941023635656 
449	 0.102265504868832 
450	 0.10265621598462 
451	 0.102883431479442 
452	 0.103183350124428 
453	 0.103644316009315 
454	 0.103920145307758 
455	 0.104127883686201 
456	 0.104398132404686 
457	 0.104796760401585 
458	 0.104984859477358 
459	 0.105172877313548 
460	 0.105434466233763 
461	 0.105674797852002 
462	 0.105874348947123 
463	 0.106014399427776 
464	 0.106121271897882 
465	 0.10632228794482 
466	 0.106612516575556 
467	 0.10696021116597 
468	 0.107291111144004 
469	 0.107370423996077 
470	 0.107562049900599 
471	 0.107942187180075 
472	 0.10812995230615 
473	 0.108466278900559 
474	 0.108764420483137 
475	 0.108859220756714 
476	 0.10915820429788 
477	 0.10940408408478 
478	 0.10962308009798 
479	 0.110014394920348 
480	 0.110343635037569 
481	 0.110675936289232 
482	 0.111059234617463 
483	 0.111421273912407 
484	 0.111774479733278 
485	 0.112147733288613 
486	 0.112565421434987 
487	 0.112984392163639 
488	 0.113387098869346 
489	 0.113804294051976 
490	 0.114305531483029 
491	 0.114754008259463 
492	 0.115211484856291 
493	 0.115719936844522 
494	 0.11615089413876 
495	 0.116719482653396 
496	 0.117316124873411 
497	 0.117722120118935 
498	 0.118300502533464 
499	 0.118979281425587 
500	 0.119644845512423 
501	 0.120194681527577 
502	 0.120740455507612 
503	 0.121302646140516 
504	 0.121881281143267 
505	 0.122491009283114 
506	 0.12320457139886 
507	 0.123967816698097 
508	 0.124633883905341 
509	 0.125258659989772 
510	 0.125943723519972 
511	 0.126718224007645 
512	 0.127438761505502 
513	 0.128137694640449 
514	 0.128913034921286 
515	 0.129841933307622 
516	 0.130646442635954 
517	 0.131466515237807 
518	 0.13234849752528 
519	 0.133180872953773 
520	 0.133943026901744 
521	 0.134750371127779 
522	 0.135683169429037 
523	 0.136584094453728 
524	 0.1373989966168 
525	 0.138199850665682 
526	 0.139124233034254 
527	 0.139889005169126 
528	 0.140672055668974 
529	 0.141550926653893 
530	 0.142276285407303 
531	 0.14300353282218 
532	 0.143798802924406 
533	 0.144660436078626 
534	 0.145391036501532 
535	 0.14612490293171 
536	 0.146907883448004 
537	 0.147656507332289 
538	 0.148372266412469 
539	 0.149165964992879 
540	 0.150074091228245 
541	 0.150806876490918 
542	 0.151544794387969 
543	 0.152321383733314 
544	 0.153079889347588 
545	 0.153829547447196 
546	 0.154605998969395 
547	 0.15539094761835 
548	 0.156047967957172 
549	 0.156797870049269 
550	 0.157568374286693 
551	 0.158229336804498 
552	 0.158963909839291 
553	 0.159696513366913 
554	 0.160367723564602 
555	 0.160952679032268 
556	 0.161652088597959 
557	 0.162318543959396 
558	 0.162822730287987 
559	 0.163410821891949 
560	 0.163979418246458 
561	 0.164498427377068 
562	 0.164980933422186 
563	 0.165360100925104 
564	 0.165694925144583 
565	 0.16605111863864 
566	 0.166490195069694 
567	 0.166770978017089 
568	 0.167035322033566 
569	 0.167464111185233 
570	 0.167560391707836 
571	 0.167771759239137 
572	 0.168149584024215 
573	 0.168271204481892 
574	 0.168504652783708 
575	 0.168752033273544 
576	 0.168886302720691 
577	 0.169041380252284 
578	 0.16917688811132 
579	 0.169241619934439 
580	 0.16919539140313 
581	 0.169171104749179 
582	 0.169127232014539 
583	 0.169000706708859 
584	 0.168709455361984 
585	 0.168628318894417 
586	 0.168544201547935 
587	 0.168121105166847 
588	 0.167757343933243 
589	 0.167550904122875 
590	 0.167421774151065 
591	 0.167122089229478 
592	 0.166787722364596 
593	 0.166417800963369 
594	 0.166007947961045 
595	 0.165609304756733 
596	 0.165036927522824 
597	 0.164353906800174 
598	 0.16375818307101 
599	 0.163214314325039 
600	 0.162679102699438 
601	 0.162166670163618 
602	 0.161781909613402 
603	 0.161664617944524 
604	 0.161597813308596 
605	 0.161367765783396 
606	 0.16145555006048 
607	 0.161402057340569 
608	 0.161190034599115 
609	 0.161284544625977 
610	 0.16131520957891 
611	 0.161217277653757 
612	 0.161048128098576 
613	 0.161013875067922 
614	 0.161079475281918 
615	 0.161111431312509 
616	 0.160957980164142 
617	 0.160890201992609 
618	 0.160801992361975 
619	 0.160688817176624 
620	 0.160793564131922 
621	 0.160699864900806 
622	 0.160536821298953 
623	 0.160538493758113 
624	 0.160499436072867 
625	 0.160469643663118 
626	 0.160407008363044 
627	 0.160193612968891 
628	 0.16017013217742 
629	 0.16018685940514 
630	 0.160103291631475 
631	 0.160090265553858 
632	 0.159892071109199 
633	 0.159670154212781 
634	 0.159696060589059 
635	 0.159424657541083 
636	 0.159075340796243 
637	 0.158797799690955 
638	 0.158531070904682 
639	 0.158277179306036 
640	 0.157948324160921 
641	 0.157515850867203 
642	 0.15728009171004 
643	 0.156942498775429 
644	 0.156468203122795 
645	 0.156048313282995 
646	 0.155620483936111 
647	 0.155291309459759 
648	 0.155127473275459 
649	 0.155079185704212 
650	 0.154611856450642 
651	 0.154137010067837 
652	 0.154233567494804 
653	 0.153777546585525 
654	 0.153310105236386 
655	 0.153049761904192 
656	 0.152646854743972 
657	 0.15207968166313 
658	 0.151619614276919 
659	 0.151393441800951 
660	 0.150984798666219 
661	 0.150578232217497 
662	 0.150258401392375 
663	 0.150039899554425 
664	 0.149804840316279 
665	 0.149534258763952 
666	 0.14927340705422 
667	 0.149161175405603 
668	 0.149117024129406 
669	 0.149023067217861 
670	 0.148825332101585 
671	 0.148862962791115 
672	 0.148786249700392 
673	 0.148599028070433 
674	 0.148646753694913 
675	 0.148716064548901 
676	 0.148808912542542 
677	 0.148963713364544 
678	 0.149224600750279 
679	 0.149448115163808 
680	 0.149664486018149 
681	 0.14997616828788 
682	 0.150343459029825 
683	 0.150805681650263 
684	 0.151385355204013 
685	 0.152141528292352 
686	 0.152644156974996 
687	 0.153188227216184 
688	 0.154042720555285 
689	 0.154639589220996 
690	 0.155162302931773 
691	 0.155636900632109 
692	 0.156008678382204 
693	 0.156426240185976 
694	 0.156853258175667 
695	 0.157256342193078 
696	 0.157716133828937 
697	 0.157913344402917 
698	 0.157874170475646 
699	 0.157740395262428 
700	 0.157692236059462 
701	 0.157590844020777 
702	 0.157395493328519 
703	 0.157139604022793 
704	 0.156620795151381 
705	 0.156010864735768 
706	 0.15541302720262 
707	 0.154609501329379 
708	 0.153706968719515 
709	 0.152682556933474 
710	 0.151468112932378 
711	 0.149978829298136 
712	 0.148425264078775 
713	 0.146842853440432 
714	 0.145017480840309 
715	 0.143110954052272 
716	 0.141044003625006 
717	 0.138860134879899 
718	 0.136269756576553 
719	 0.133953066893187 
720	 0.132150074358173 
721	 0.130357695045443 
722	 0.128521288795557 
723	 0.126433767085369 
724	 0.124158318757192 
725	 0.121419886940641 
726	 0.118781910057049 
727	 0.116304074119756 
728	 0.113870998676334 
729	 0.111193461193126 
730	 0.107990939670458 
731	 0.105017435257378 
732	 0.102952408466701 
733	 0.101088535801379 
734	 9.93337609827125E-02 
735	 9.78173705159681E-02 
736	 9.68509433273725E-02 
737	 9.58677842644852E-02 
738	 9.51196948297373E-02 
739	 9.48102798059362E-02 
740	 9.43421242051364E-02 
741	 0.094072950114808 
742	 9.39579938172288E-02 
743	 9.37653002611463E-02 
744	 9.35983683987592E-02 
745	 9.35430809056006E-02 
746	 9.35513884109493E-02 
747	 9.34010091490597E-02 
748	 9.32603126547719E-02 
749	 9.31715817404288E-02 
750	 9.31420703273129E-02 
751	 9.31869978572739E-02 
752	 9.31216558452539E-02 
753	 9.30037802569043E-02 
754	 9.30012619166901E-02 
755	 9.29418434569781E-02 
756	 9.30088141638913E-02 
757	 9.31916095432095E-02 
758	 9.31320115972807E-02 
759	 0.093100599023211 
760	 9.31308571169976E-02 
761	 9.31760873187213E-02 
762	 9.35810738097918E-02 
763	 9.33678883362256E-02 
764	 9.30249996071656E-02 
765	 9.32369219373354E-02 
766	 0.093525731739288 
767	 9.36178191739909E-02 
768	 9.35981892374581E-02 
769	 9.38439763899063E-02 
770	 0.093974010253168 
771	 9.41023096107787E-02 
772	 9.43538454223177E-02 
773	 9.46336955833188E-02 
774	 9.47440493386499E-02 
775	 9.48378332577969E-02 
776	 9.51533506573579E-02 
777	 9.53514569435395E-02 
778	 9.57796772255131E-02 
779	 9.62780603307495E-02 
780	 9.62121048909142E-02 
781	 9.66800522649761E-02 
782	 0.097228017106938 
783	 9.74843280067496E-02 
784	 9.79357101091594E-02 
785	 9.82710591957903E-02 
786	 9.86194082202343E-02 
787	 9.91804209670146E-02 
788	 9.96754971713243E-02 
789	 0.100123331425629 
790	 0.100452289772954 
791	 0.100588704580615 
792	 0.101183411736169 
793	 0.101873867720279 
794	 0.102395498728054 
795	 0.102849323947991 
796	 0.103246879113921 
797	 0.103687784520624 
798	 0.104216480382342 
799	 0.104544099771619 
800	 0.104947556359323 
801	 0.105351199480942 
802	 0.105516951448982 
803	 0.105557816327103 
804	 0.10584903961313 
805	 0.106255820638158 
806	 0.106125551263487 
807	 0.10609290416535 
808	 0.106199382446113 
809	 0.106277330566026 
810	 0.105910692276208 
811	 0.105609310625441 
812	 0.105193987824204 
813	 0.104344307498674 
814	 0.103912819505582 
815	 0.103328070603395 
816	 0.102726483848249 
817	 0.102690536655441 
818	 0.102072341484352 
819	 0.101323425772503 
820	 0.100629441977165 
821	 9.97083028128607E-02 
822	 9.82027674978169E-02 
823	 9.65133264087944E-02 
824	 9.51081711662054E-02 
825	 0.093969743279131 
826	 9.23312000261389E-02 
827	 9.03567730715223E-02 
828	 8.86226476827922E-02 
829	 8.66275989321711E-02 
830	 8.51758026256378E-02 
831	 8.41401884033447E-02 
832	 8.28204676681736E-02 
833	 8.18604670181502E-02 
834	 8.14160425485069E-02 
835	 8.11580345173826E-02 
836	 8.02895289837399E-02 
837	 7.96906001400192E-02 
838	 7.95804602450758E-02 
839	 7.97382873585637E-02 
840	 7.92383337533731E-02 
841	 0.07885400048925 
842	 7.85943229625619E-02 
843	 7.82805998356473E-02 
844	 7.82490710283612E-02 
845	 7.79689819799002E-02 
846	 7.75930690510709E-02 
847	 7.76516958572847E-02 
848	 7.74150868431298E-02 
849	 7.70208340883225E-02 
850	 7.67285378260143E-02 
851	 0.076772014762359 
852	 7.64522099203725E-02 
853	 7.59093466181854E-02 
854	 7.54763225058718E-02 
855	 7.54197908150929E-02 
856	 7.57130836481406E-02 
857	 7.57238675018057E-02 
858	 7.51158941866539E-02 
859	 7.51467477894569E-02 
860	 7.50372340904594E-02 
861	 7.46621764967743E-02 
862	 7.43062150539303E-02 
863	 7.45125306572829E-02 
864	 7.42573361289197E-02 
865	 0.073725051473837 
866	 7.41081284737647E-02 
867	 7.40439392942383E-02 
868	 7.37387554420157E-02 
869	 7.34281936227668E-02 
870	 7.30878731119659E-02 
871	 0.072558203436469 
872	 7.22763606642944E-02 
873	 7.24344454208276E-02 
874	 7.24306710836187E-02 
875	 7.20874434417788E-02 
876	 7.16123975923417E-02 
877	 0.071359896938733 
878	 7.16939936902586E-02 
879	 7.15534940369481E-02 
880	 7.10009296392608E-02 
881	 7.06343695263749E-02 
882	 7.05041482340021E-02 
883	 7.02205101940525E-02 
884	 6.96535683282025E-02 
885	 6.90156813409675E-02 
886	 6.93153426140548E-02 
887	 6.95815852855356E-02 
888	 0.069508463783603 
889	 6.97284182399252E-02 
890	 6.88423264293768E-02 
891	 6.84202969994291E-02 
892	 6.91647105531796E-02 
893	 6.90378912212292E-02 
894	 6.84702645799435E-02 
895	 6.78900920921324E-02 
896	 6.76241545413693E-02 
897	 6.73996685522802E-02 
898	 6.70686609113998E-02 
899	 6.70609211734067E-02 
900	 6.75531920401286E-02 
901	 6.73595139108581E-02 
902	 6.66853831079552E-02 
903	 6.64346936941641E-02 
904	 6.71588464225399E-02 
905	 6.65863062729216E-02 
906	 6.51779914544051E-02 
907	 6.43434248099128E-02 
908	 6.54886808762309E-02 
909	 6.44333922761245E-02 
910	 6.35047999973996E-02 
911	 6.40194080897646E-02 
912	 0.065386892466456 
913	 6.49569105950085E-02 
914	 6.43458642460378E-02 
915	 6.41792121529035E-02 
916	 6.33653326741139E-02 
917	 6.23423944311272E-02 
918	 6.26837098860758E-02 
919	 6.40764931464554E-02 
920	 6.38611339106998E-02 
921	 0.063050972738148 
922	 6.24247805178009E-02 
923	 6.21819996918434E-02 
924	 6.13387012629809E-02 
925	 6.13322071081204E-02 
926	 0.061316474383702 
927	 6.04622913355441E-02 
928	 6.13277931934305E-02 
929	 5.99571390266401E-02 
930	 5.77095347971846E-02 
931	 5.87990658896192E-02 
932	 5.76188094382809E-02 
933	 5.29129726006709E-02 
934	 5.22507727048262E-02 
935	 5.95742438675818E-02 
936	 5.20915255373086E-02 
937	 5.22887298586915E-02 
938	 5.77054169309774E-02 
939	 5.88853269586892E-02 
940	 5.16488207789291E-02 
941	 5.69516877614797E-02 
942	 6.59958119530334E-02 
943	 5.88770452750865E-02 
944	 4.72871919761101E-02 
945	 5.12774079905066E-02 
946	 6.11292578353065E-02 
947	 5.49340118145132E-02 
948	 5.59046900987557E-02 
949	 5.46486920577341E-02 
950	 5.06496989854471E-02 
951	 4.98642779523822E-02 
952	 5.58072250971387E-02 
953	 5.84135045762629E-02 
954	 5.40159257933242E-02 
955	 4.70340535997954E-02 
956	 5.59048213467314E-02 
957	 6.16419053330155E-02 
958	 5.91650280007678E-02 
959	 5.55358517673868E-02 
960	 0.053870745868762 
961	 5.72896532845725E-02 
962	 6.02586955305119E-02 
963	 5.53097836111745E-02 
964	 0.055902227412546 
965	 5.77898303178895E-02 
966	 5.93009619809797E-02 
967	 6.10153992844485E-02 
968	 5.71862527695844E-02 
969	 5.63003189694149E-02 
970	 5.91307523532771E-02 
971	 5.94763957181435E-02 
972	 5.95778965828145E-02 
973	 5.81117301898431E-02 
974	 5.60830707553637E-02 
975	 5.66722674672395E-02 
976	 5.97304733681161E-02 
977	 5.89766653261063E-02 
978	 5.50136018723469E-02 
979	 5.43918394904784E-02 
980	 5.89007673001155E-02 
981	 5.96475443929286E-02 
982	 5.67475416600862E-02 
983	 5.71899800889227E-02 
984	 5.66942255279529E-02 
985	 5.66214246185248E-02 
986	 5.70259479495649E-02 
987	 5.70026871062339E-02 
988	 0.059320018406285 
989	 0.059856408834507 
990	 5.89415554111506E-02 
991	 5.96797300376486E-02 
992	 5.66533904498816E-02 
993	 5.69259709808186E-02 
994	 5.99170309622508E-02 
995	 0.059518328705623 
996	 5.49226168226452E-02 
997	 5.69228762109366E-02 
998	 6.11733276838374E-02 
999	 5.72330547577412E-02 
1000	 5.94654509330422E-02 
1001	 5.66754866023835E-02 
1002	 5.70151026311263E-02 
1003	 5.71941825075461E-02 
1004	 5.78397700792745E-02 
1005	 5.78392343880968E-02 
1006	 5.74446460192897E-02 
1007	 5.71784622909746E-02 
1008	 5.63271518775956E-02 
1009	 5.58219373628974E-02 
1010	 5.61600926285829E-02 
1011	 5.62637030754999E-02 
1012	 0.056945789228582 
1013	 5.80585345918774E-02 
1014	 5.80849671588493E-02 
1015	 5.73808698626896E-02 
1016	 5.70179798768697E-02 
1017	 5.57779392067638E-02 
1018	 5.55089335149613E-02 
1019	 0.055898365971446 
1020	 5.62770066121192E-02 
1021	 5.72993194410489E-02 
1022	 5.75991593480079E-02 
1023	 5.82230656807048E-02 
1024	 5.84139116320176E-02 
1025	 5.76703202880605E-02 
1026	 5.77355851555957E-02 
1027	 5.76710541468564E-02 
1028	 5.74124772045476E-02 
1029	 5.75153276605414E-02 
1030	 5.81251489770399E-02 
1031	 0.058278602349076 
1032	 5.81148726903144E-02 
1033	 5.82425330146811E-02 
1034	 0.058555802773833 
1035	 5.85331219982175E-02 
1036	 5.85904188521932E-02 
1037	 5.86335625854854E-02 
1038	 5.83803309606449E-02 
1039	 5.80436985892935E-02 
1040	 5.82168563334409E-02 
1041	 5.84137008265789E-02 
1042	 5.87284504399752E-02 
1043	 5.94577737042706E-02 
1044	 5.94380145910591E-02 
1045	 0.059070683659975 
1046	 5.89570543041351E-02 
1047	 5.83192770276206E-02 
1048	 5.83260060429632E-02 
1049	 5.90882187206179E-02 
1050	 5.92987584703908E-02 
1051	 5.94714731579885E-02 
1052	 5.94958983463514E-02 
1053	 5.90202433585296E-02 
1054	 5.89504762520594E-02 
1055	 5.91581976435932E-02 
1056	 5.92340746598772E-02 
1057	 5.93307591120961E-02 
1058	 5.96834741718006E-02 
1059	 5.95861815486779E-02 
1060	 5.90662647915173E-02 
1061	 0.058989073127478 
1062	 0.058943510738914 
1063	 5.89169450980942E-02 
1064	 5.92461066393577E-02 
1065	 5.92185140877538E-02 
1066	 5.87286750455452E-02 
1067	 5.87174480269006E-02 
1068	 5.89584891483426E-02 
1069	 5.89855058768927E-02 
1070	 5.94411996317896E-02 
1071	 5.94048495568545E-02 
1072	 5.85516838472426E-02 
1073	 5.83287289586115E-02 
1074	 5.79275789657283E-02 
1075	 5.72750562607481E-02 
1076	 5.70674480811946E-02 
1077	 5.71266783945506E-02 
1078	 5.71548940856503E-02 
1079	 5.74517976989767E-02 
1080	 5.74928038072675E-02 
1081	 5.72949401606615E-02 
1082	 5.74994785065499E-02 
1083	 5.83161172294194E-02 
1084	 5.82962891800467E-02 
1085	 5.75535380173679E-02 
1086	 5.75171840587989E-02 
1087	 5.75388654820691E-02 
1088	 5.72515694055969E-02 
1089	 5.68785694012194E-02 
1090	 5.76584926057514E-02 
1091	 0.05771982383379 
1092	 5.68697073493948E-02 
1093	 5.67405126431199E-02 
1094	 5.75789926559633E-02 
1095	 5.75293970367941E-02 
1096	 5.68212354369671E-02 
1097	 0.056548406865066 
1098	 5.58638803061755E-02 
1099	 5.56134660761064E-02 
1100	 5.61629014788942E-02 
1101	 0.056374580090044 
1102	 0.056456523455177 
1103	 5.67392370309973E-02 
1104	 5.73553672196333E-02 
1105	 5.73188492299525E-02 
1106	 5.69669379477804E-02 
1107	 5.71132886032006E-02 
1108	 5.64346218157453E-02 
1109	 5.52601788751595E-02 
1110	 5.57131633529072E-02 
1111	 0.058812479843399 
1112	 5.87333820861827E-02 
1113	 5.67730732978549E-02 
1114	 5.73199312848693E-02 
1115	 5.67828638762573E-02 
1116	 5.67548124368648E-02 
1117	 6.32122160563815E-02 
1118	 6.56292374826825E-02 
1119	 5.85938795612254E-02 
1120	 5.61280560697529E-02 
1121	 5.32395107077126E-02 
1122	 6.00898390431037E-02 
1123	 5.70328580557607E-02 
1124	 0.057876252381818 
1125	 5.99505439076941E-02 
1126	 4.75946544867366E-02 
1127	 4.63508480849355E-02 
1128	 5.95322004438489E-02 
1129	 6.24575178404204E-02 
1130	 6.24837414074161E-02 
1131	 6.01456944014684E-02 
1132	 5.28696795811845E-02 
1133	 5.34101553363185E-02 
1134	 5.76470340728293E-02 
1135	 5.88814381443127E-02 
1136	 6.29552903037318E-02 
1137	 6.25717234141451E-02 
1138	 5.68872155730667E-02 
1139	 5.50458301209207E-02 
1140	 5.64928421239744E-02 
1141	 5.74925478953559E-02 
1142	 5.86731094559022E-02 
1143	 5.80511716245233E-02 
1144	 5.43720385902413E-02 
1145	 5.01443568541941E-02 
1146	 4.99642237546876E-02 
1147	 5.20664813178532E-02 
1148	 5.49129514353037E-02 
1149	 5.82009186336037E-02 
1150	 5.87166458835605E-02 
1151	 0.056008822672898 
1152	 5.59895446684899E-02 
1153	 5.66995711721914E-02 
1154	 5.77202979455111E-02 
1155	 6.00559180321136E-02 
1156	 5.99455895691448E-02 
1157	 5.95781019855949E-02 
1158	 5.78432059041318E-02 
1159	 5.57327403187837E-02 
1160	 5.62958255599061E-02 
1161	 5.72175770401414E-02 
1162	 5.74590480271168E-02 
1163	 5.84745967891099E-02 
1164	 5.90954724072832E-02 
1165	 5.85421302491466E-02 
1166	 5.73222267652299E-02 
1167	 5.69431034076336E-02 
1168	 5.78893412596573E-02 
1169	 5.83577436811855E-02 
1170	 0.058337749401969 
1171	 5.85691475105938E-02 
1172	 5.79436675324901E-02 
1173	 5.79106587879407E-02 
1174	 5.82985880281398E-02 
1175	 5.93188432966297E-02 
1176	 5.90249271555462E-02 
1177	 5.80153943834195E-02 
1178	 5.75439461864046E-02 
1179	 0.05820295801074 
1180	 5.91946330013066E-02 
1181	 5.98264151150639E-02 
1182	 5.98376861994869E-02 
1183	 5.90275806503426E-02 
1184	 5.82102532552913E-02 
1185	 5.85462822122103E-02 
1186	 5.92773653029897E-02 
1187	 5.89613521461171E-02 
1188	 5.87151847722604E-02 
1189	 5.90892983585912E-02 
1190	 5.84626333711971E-02 
1191	 5.76743888681977E-02 
1192	 5.78707397900204E-02 
1193	 5.88680807291685E-02 
1194	 5.88850515006381E-02 
1195	 5.85364778970145E-02 
1196	 5.90905343883983E-02 
1197	 0.058713369718976 
1198	 5.81763869550943E-02 
1199	 5.85425656297012E-02 
1200	 5.87350796572448E-02 
1201	 5.86839372321337E-02 
1202	 5.83782339039673E-02 
1203	 5.80656347397928E-02 
1204	 5.81901768781469E-02 
1205	 5.84716150237694E-02 
1206	 5.84655045495748E-02 
1207	 5.88682458952164E-02 
1208	 5.94621323222727E-02 
1209	 5.90259311631632E-02 
1210	 5.88345889815831E-02 
1211	 5.92354463848096E-02 
1212	 5.90571940114763E-02 
1213	 5.88277645259036E-02 
1214	 5.87314682358801E-02 
1215	 5.88112899954371E-02 
1216	 5.83131760639523E-02 
1217	 5.77006467660482E-02 
1218	 5.76705549138307E-02 
1219	 5.82646970355511E-02 
1220	 0.058590156271126 
1221	 5.85801169007095E-02 
1222	 5.87473480678046E-02 
1223	 5.82180451290489E-02 
1224	 5.77555200092758E-02 
1225	 5.81842453463626E-02 
1226	 5.85141843615808E-02 
1227	 5.84290937177761E-02 
1228	 5.81435908092215E-02 
1229	 5.81776570871577E-02 
1230	 5.79126889252021E-02 
1231	 5.74792436092358E-02 
1232	 5.78638535685988E-02 
1233	 5.80480811877171E-02 
1234	 0.057969753507181 
1235	 5.80358213459102E-02 
1236	 5.82978898631626E-02 
1237	 5.86171775657509E-02 
1238	 0.058957315163795 
1239	 5.91415176455656E-02 
1240	 5.92273263444405E-02 
1241	 5.90940750399976E-02 
1242	 5.84726797869332E-02 
1243	 5.80938133372479E-02 
1244	 5.81431396230361E-02 
1245	 5.79827921924862E-02 
1246	 5.77362936918753E-02 
1247	 5.78375088016761E-02 
1248	 0.05787283526002 
1249	 5.78084620098305E-02 
1250	 5.78202632556983E-02 
1251	 5.77229501291743E-02 
1252	 5.79793585343022E-02 
1253	 0.058163865997714 
1254	 5.78994419418344E-02 
1255	 5.81053585674161E-02 
1256	 5.84314978556534E-02 
1257	 5.90833314508594E-02 
1258	 5.90255317992484E-02 
1259	 5.85499755053311E-02 
1260	 0.058553887829305 
1261	 5.83923872902236E-02 
1262	 5.82954351675141E-02 
1263	 5.85248251548468E-02 
1264	 5.93059693296838E-02 
1265	 5.95572199552665E-02 
1266	 0.058865536076521 
1267	 5.90429626644147E-02 
1268	 5.93744177554863E-02 
1269	 5.91080022914856E-02 
1270	 5.88671332875132E-02 
1271	 5.88411208092737E-02 
1272	 0.05883863704217 
1273	 5.82985772828969E-02 
1274	 0.058234881514658 
1275	 5.87131882729469E-02 
1276	 5.83686845989875E-02 
1277	 5.78431587514459E-02 
1278	 5.79708164670191E-02 
1279	 5.83498075550248E-02 
1280	 5.84740721051996E-02 
1281	 0.05825630291221 
1282	 0.057827163094641 
1283	 5.79034288938523E-02 
1284	 5.78633534798401E-02 
1285	 0.05779248819631 
1286	 5.85040156187076E-02 
1287	 5.87232231817852E-02 
1288	 0.05787714791246 
1289	 5.77684942654044E-02 
1290	 0.05819525560987 
1291	 5.86259970080713E-02 
1292	 5.84738744885926E-02 
1293	 5.83238305027372E-02 
1294	 5.82181053701895E-02 
1295	 5.79000101072778E-02 
1296	 5.79217048068214E-02 
1297	 5.82842235537183E-02 
1298	 5.81504414086896E-02 
1299	 5.80117946554596E-02 
1300	 5.82787123680543E-02 
1301	 5.82592075203646E-02 
1302	 0.058062620425978 
1303	 5.78968279959566E-02 
1304	 5.75577426166324E-02 
1305	 5.75286647535751E-02 
1306	 5.77836373217423E-02 
1307	 5.89787126830153E-02 
1308	 5.91032122180138E-02 
1309	 5.84700221981947E-02 
1310	 5.84710022175844E-02 
1311	 5.84812377145497E-02 
1312	 5.84313540919535E-02 
1313	 5.91831022236186E-02 
1314	 5.92129058198784E-02 
1315	 5.77657045050103E-02 
1316	 0.057311743187962 
1317	 5.78722102688124E-02 
1318	 5.77432214451124E-02 
1319	 5.71407369173621E-02 
1320	 5.72761860224231E-02 
1321	 5.77661328457903E-02 
1322	 5.73385241879621E-02 
1323	 0.057416755998451 
1324	 5.82238977124484E-02 
1325	 5.88545963457836E-02 
1326	 5.85125475622457E-02 
1327	 5.66372773395896E-02 
1328	 5.67633302254134E-02 
1329	 5.83025117363726E-02 
1330	 5.75761349559143E-02 
1331	 5.59179872031062E-02 
1332	 5.66217647035229E-02 
1333	 0.058970821973155 
1334	 5.85753745897473E-02 
1335	 5.76964513442597E-02 
1336	 5.86555580760303E-02 
1337	 5.87602546118149E-02 
1338	 5.46370559188795E-02 
1339	 5.41577961811624E-02 
1340	 5.81475393687952E-02 
1341	 5.97941151822096E-02 
1342	 6.01096939080754E-02 
1343	 6.06591549125361E-02 
1344	 6.17262666998799E-02 
1345	 6.37971645785617E-02 
1346	 6.65108919228022E-02 
1347	 6.75123164604179E-02 
1348	 6.95855145482043E-02 
1349	 7.46177867760384E-02 
1350	 7.65379072210925E-02 
1351	 7.52028707297713E-02 
1352	 6.62971400482766E-02 
1353	 7.24738535909187E-02 
1354	 0.046550757473888 
1355	 0.146295142976557 
1356	 0.371847697832836 
1357	 0.600337335435208 
1358	 0.505472472706659 
1359	 0.101386931255774 
1360	 0.179942137601485 
1361	 0.196758822804486 
1362	 0.115149634249528 
1363	 0.482375004177544 
1364	 1.0514647152078 
1365	 0.358663527836155 
1366	-0.296985843544488 
1367	-0.358631150260075 
1368	-0.330829984765405 
1369	-0.328238783872067 
1370	-0.336302704764317 
1371	 0.144585118904409 
1372	 0.394729284122832 
1373	-0.224775773071462 
1374	-6.79005388234662E-02 
1375	 0.455185240740409 
1376	 0.47780228138103 
1377	 0.194135124676767 
1378	 0.242745939958035 
1379	 0.760532535025075 
1380	 0.476518792950881 
1381	-5.30556711644317E-02 
1382	 8.12108685394795E-03 
1383	 0.144033095896764 
1384	-0.409230114915024 
1385	-0.229512295975791 
1386	-0.229733156930496 
1387	-0.976188086602319 
1388	-1.28377889570609 
1389	-1.53446137591742 
1390	 1.10718755387635 
1391	 0.104754865412282 
1392	 0.556756674617006 
1393	-0.372654126492737 
1394	-0.374005705888 
1395	-0.420263957414319 
1396	-0.171720190419577 
1397	-0.198966498087046 
1398	 0.242733244360737 
1399	 0.345279785882845 
1400	 0.114997638028482 
1401	 3.36093863755338E-03 
1402	-0.225617265226227 
1403	-0.288356103568484 
1404	-0.370834343287671 
1405	-0.550692548279837 
1406	-1.42114609293209 
1407	-1.08450110165336 
1408	-0.619303987974739 
1409	-0.525337634298342 
1410	-0.24966545305474 
1411	-0.113266795718893 
1412	 4.76972927090217E-02 
1413	 7.30004544187774E-02 
1414	-3.74916239895213E-02 
1415	 2.49813536236537E-02 
1416	 0.32727756980884 
1417	 0.183607556716023 
1418	-0.114009648932755 
1419	-6.70360856441092E-02 
1420	-7.97348373794312E-02 
1421	-3.83723077419939E-02 
1422	 0.276998148512525 
1423	 0.297798200078153 
1424	 6.76829263388233E-02 
1425	 6.10668473590988E-02 
1426	 9.80590334923141E-02 
1427	 0.111368228889657 
1428	 0.211046118797859 
1429	 0.209105563203173 
1430	 0.117958352077159 
1431	 8.56004970025305E-02 
1432	 3.68613938372028E-02 
1433	 2.25910397405318E-02 
1434	 7.00728006237698E-02 
1435	 7.25371128070396E-02 
1436	 5.41561203603638E-02 
1437	 3.90399694660673E-02 
1438	 5.33371846342482E-02 
1439	 5.98748959839447E-02 
1440	 2.97599855979593E-02 
1441	 3.59877878361132E-02 
1442	 0.044704150182378 
1443	 3.32939679370677E-02 
1444	 4.79978110288405E-02 
1445	 6.49209573958219E-02 
1446	 6.24352421983398E-02 
1447	 4.66380000071579E-02 
1448	 3.50331904304468E-02 
1449	 3.43147936661529E-02 
1450	 3.96411411079685E-02 
1451	 4.47954381784964E-02 
1452	 4.92465033074573E-02 
1453	 5.58891371160731E-02 
1454	 5.99322015269845E-02 
1455	 5.92917809405756E-02 
1456	 0.061485530079009 
1457	 6.85424857429491E-02 
1458	 6.77945304300037E-02 
1459	 6.14299663185352E-02 
1460	 6.11242125657699E-02 
1461	 6.18200704282876E-02 
1462	 6.00571783527735E-02 
1463	 5.94143385201899E-02 
1464	 5.97090615326476E-02 
1465	 0.058019636136903 
1466	 5.57413499447264E-02 
1467	 5.25035990274504E-02 
1468	 5.60805905869372E-02 
1469	 6.43895598528852E-02 
1470	 6.46882657226293E-02 
1471	 6.99485683894454E-02 
1472	 6.89361134042708E-02 
1473	 5.41831303052202E-02 
1474	 0.049894219353579 
1475	 4.87323281154738E-02 
1476	 5.22244331332545E-02 
1477	 6.48538078990557E-02 
1478	 6.38137494915316E-02 
1479	 5.69364075015208E-02 
1480	 5.71307927145049E-02 
1481	 5.52713790374748E-02 
1482	 5.18283390444748E-02 
1483	 4.92133758581938E-02 
1484	 5.24742217486325E-02 
1485	 5.73648003383778E-02 
1486	 0.057251970675912 
1487	 5.89172144115926E-02 
1488	 6.10216792893436E-02 
1489	 5.88661282040652E-02 
1490	 5.84120642715166E-02 
1491	 6.13393277566673E-02 
1492	 6.27939782696495E-02 
1493	 6.27752239150086E-02 
1494	 6.29069834452964E-02 
1495	 6.36467740271625E-02 
1496	 6.39218649736269E-02 
1497	 6.35283455273156E-02 
1498	 6.28775841899953E-02 
1499	 6.17420002862592E-02 
1500	 6.19627896582039E-02 
1501	 6.37561883362081E-02 
1502	 6.30972888418702E-02 
1503	 6.04756981199253E-02 
1504	 6.04939839398068E-02 
1505	 6.09079663801158E-02 
1506	 6.04775472803314E-02 
1507	 6.14933058228436E-02 
1508	 6.29559626237151E-02 
1509	 6.24914325945966E-02 
1510	 6.19644691246123E-02 
1511	 6.24768544818052E-02 
1512	 6.23608279032935E-02 
1513	 6.15781099774601E-02 
1514	 6.16489325208708E-02 
1515	 6.21893380061011E-02 
1516	 6.24015608273994E-02 
1517	 6.24449049086759E-02 
1518	 6.25063403905792E-02 
1519	 6.27659001651445E-02 
1520	 6.26513125466597E-02 
1521	 6.22032298695906E-02 
1522	 6.21066471153689E-02 
1523	 0.06206172988212 
1524	 6.20040451637759E-02 
1525	 6.24375127487999E-02 
1526	 6.30043423820408E-02 
1527	 6.28285296340768E-02 
1528	 6.21364506769816E-02 
1529	 6.23883895787926E-02 
1530	 6.28215273451497E-02 
1531	 0.062438055447265 
1532	 6.24840362728444E-02 
1533	 6.22433628158343E-02 
1534	 6.15065525782116E-02 
1535	 6.12157598511343E-02 
1536	 0.06125800241067 
1537	 6.15313256992682E-02 
1538	 6.15050309539013E-02 
1539	 6.12239819651506E-02 
1540	 0.061614288869141 
1541	 6.24631643533354E-02 
1542	 0.062647327408745 
1543	 0.062172130604298 
1544	 6.21214827346387E-02 
1545	 6.22551779211439E-02 
1546	 6.16539005802651E-02 
1547	 6.15012817600397E-02 
1548	 6.18224837707566E-02 
1549	 6.17255294657706E-02 
1550	 6.19331799640777E-02 
1551	 6.19691980170778E-02 
1552	 6.20020151012544E-02 
1553	 6.24338449391535E-02 
1554	 6.20432958502237E-02 
1555	 6.14557450552958E-02 
1556	 6.14508698592946E-02 
1557	 6.13050852322647E-02 
1558	 6.08363361689886E-02 
1559	 6.06769379702028E-02 
1560	 6.08777955687299E-02 
1561	 6.07109464587133E-02 
1562	 0.060771329286975 
1563	 6.15594786017751E-02 
1564	 6.20354621957178E-02 
1565	 6.17636729131752E-02 
1566	 6.16382291379618E-02 
1567	 6.20553521176041E-02 
1568	 6.17156861304625E-02 
1569	 6.07202680272722E-02 
1570	 6.08321456021706E-02 
1571	 6.10611149084232E-02 
1572	 6.04552994342162E-02 
1573	 6.03202760641801E-02 
1574	 6.03116391814955E-02 
1575	 6.04142604323518E-02 
1576	 6.09379419642919E-02 
1577	 6.07872137334987E-02 
1578	 6.07119862639519E-02 
1579	 6.09700207616901E-02 
1580	 6.06816424755903E-02 
1581	 0.061174117560957 
1582	 6.18959950626915E-02 
1583	 6.09129067315781E-02 
1584	 6.06852212261443E-02 
1585	 6.16036210056134E-02 
1586	 6.11785541149238E-02 
1587	 6.09008819841091E-02 
1588	 6.10488626066858E-02 
1589	 6.08651807789924E-02 
1590	 6.12545301523793E-02 
1591	 6.15684380271657E-02 
1592	 6.15897961432995E-02 
1593	 6.18204907156443E-02 
1594	 6.16499143212958E-02 
1595	 0.061437848476143 
1596	 6.16892361056632E-02 
1597	 6.13885244648073E-02 
1598	 6.10665989898082E-02 
1599	 6.12460551243218E-02 
1600	 6.13181645214655E-02 
1601	 6.15470652580075E-02 
1602	 6.22286972517704E-02 
1603	 6.31141707745333E-02 
1604	 6.29273135876212E-02 
1605	 6.19230006844903E-02 
1606	 6.17034913865247E-02 
1607	 6.14723377930637E-02 
1608	 0.060884746748058 
1609	 6.08170012801322E-02 
1610	 6.10197748836751E-02 
1611	 6.13486925613837E-02 
1612	 0.061418608521295 
1613	 6.08864093333272E-02 
1614	 6.03391869271511E-02 
1615	 6.03614953392796E-02 
1616	 6.09288785833755E-02 
1617	 6.17925899037773E-02 
1618	 6.21173333653064E-02 
1619	 6.15196050366132E-02 
1620	 6.10667490081176E-02 
1621	 6.13553591371785E-02 
1622	 6.14771571182428E-02 
1623	 6.05160159247429E-02 
1624	 6.00373161715672E-02 
1625	 6.04644934718004E-02 
1626	 0.060437288591336 
1627	 6.06219829676532E-02 
1628	 6.10937486882819E-02 
1629	 6.10252182534698E-02 
1630	 6.13113822706984E-02 
1631	 6.21020719031854E-02 
1632	 6.17966547188351E-02 
1633	 0.060752733433786 
1634	 6.04004868495617E-02 
1635	 6.07087122949196E-02 
1636	 6.08115132959925E-02 
1637	 6.08311113673399E-02 
1638	 6.11278646877208E-02 
1639	 6.10336343702391E-02 
1640	 6.12984333774802E-02 
1641	 6.18990242491105E-02 
1642	 6.17158115672941E-02 
1643	 6.15903318688122E-02 
1644	 6.20545099731833E-02 
1645	 6.24159450808274E-02 
1646	 6.22796284305455E-02 
1647	 6.15641848314275E-02 
1648	 6.10029529407045E-02 
1649	 6.13109316237193E-02 
1650	 0.060935233685578 
1651	 6.04661099744406E-02 
1652	 6.09600007281474E-02 
1653	 6.04086337773379E-02 
1654	 0.060331163614216 
1655	 6.07480017886981E-02 
1656	 6.06238899173573E-02 
1657	 6.00683769551604E-02 
1658	 6.02232766595486E-02 
1659	 6.09234353885492E-02 
1660	 6.08444365147111E-02 
1661	 6.05468019776574E-02 
1662	 6.09058049803587E-02 
1663	 6.10221483215114E-02 
1664	 6.10413520870581E-02 
1665	 6.19141144883476E-02 
1666	 0.062060823117776 
1667	 6.14210462198159E-02 
1668	 6.11323519861339E-02 
1669	 6.06990889197703E-02 
1670	 6.05037337518992E-02 
1671	 6.02745962007464E-02 
1672	 6.05170150312521E-02 
1673	 0.061396637081348 
1674	 6.09784085526089E-02 
1675	 0.060217284982318 
1676	 6.10214391686609E-02 
1677	 0.061370862854407 
1678	 6.07384818956895E-02 
1679	 6.11009588959742E-02 
1680	 6.13720359065997E-02 
1681	 6.08409289234574E-02 
1682	 6.10292920606362E-02 
1683	 6.10769871045435E-02 
1684	 6.02291990126654E-02 
1685	 6.00627958768804E-02 
1686	 6.05772627403123E-02 
1687	 6.08121377410529E-02 
1688	 6.06518935505605E-02 
1689	 6.03084708382277E-02 
1690	 6.04764274302782E-02 
1691	 6.01908803003758E-02 
1692	 5.98766184640397E-02 
1693	 6.05265788850023E-02 
1694	 5.99211496287412E-02 
1695	 5.94935522902294E-02 
1696	 6.01946742457244E-02 
1697	 5.94278902130227E-02 
1698	 5.90009413098082E-02 
1699	 6.04451570609017E-02 
1700	 6.18882540737546E-02 
1701	 6.18438108341487E-02 
1702	 0.060984682611695 
1703	 6.08387572535665E-02 
1704	 5.99307935602198E-02 
1705	 5.89398854249356E-02 
1706	 6.02356215784374E-02 
1707	 6.05361380610194E-02 
1708	 0.059210701268397 
1709	 0.060106067487382 
1710	 6.08109048485229E-02 
1711	 6.01319945471626E-02 
1712	 6.07950943996938E-02 
1713	 5.92669708758247E-02 
1714	 5.94730940939018E-02 
1715	 6.09290128051764E-02 
1716	 6.11382947429322E-02 
1717	 6.11314902728024E-02 
1718	 6.08712319047426E-02 
1719	 5.95797097917287E-02 
1720	 5.91931654266263E-02 
1721	 6.09356002187603E-02 
1722	 6.18572274217019E-02 
1723	 0.061343866479482 
1724	 6.13353479077395E-02 
1725	 6.12676859575935E-02 
1726	 6.06855393278489E-02 
1727	 6.11401408216672E-02 
1728	 6.17128589444513E-02 
1729	 6.15091595885816E-02 
1730	 6.13373748712179E-02 
1731	 6.05120741923865E-02 
1732	 6.03001679942244E-02 
1733	 6.06213308186197E-02 
1734	 5.99752473907129E-02 
1735	 5.98934090638865E-02 
1736	 5.93473067341113E-02 
1737	 5.79314470667795E-02 
1738	 5.74020948612614E-02 
1739	 5.81955439367188E-02 
1740	 5.97499238883192E-02 
1741	 0.060150531675097 
1742	 5.93540782237004E-02 
1743	 5.83432390301866E-02 
1744	 5.78195481729613E-02 
1745	 0.057908480113716 
1746	 0.059030420779953 
1747	 5.98301144787321E-02 
1748	 5.87497885833212E-02 
1749	 5.85985030289813E-02 
1750	 6.02991793742878E-02 
1751	 6.05259255562288E-02 
1752	 6.07631230585396E-02 
1753	 6.06358993217023E-02 
1754	 5.87007802285233E-02 
1755	 5.79810110069996E-02 
1756	 0.056798708521093 
1757	 5.76560490784303E-02 
1758	 6.03650905124287E-02 
1759	 5.96438281884999E-02 
1760	 5.92833958218069E-02 
1761	 5.96010314387456E-02 
1762	 5.74046324763372E-02 
1763	 5.80303427991314E-02 
1764	 5.95308222762134E-02 
1765	 5.85916008528913E-02 
1766	 5.84411448880401E-02 
1767	 5.90327867900892E-02 
1768	 5.79361873891893E-02 
1769	 5.64780596520447E-02 
1770	 0.057807509340256 
1771	 5.77890157375938E-02 
1772	 5.68632602097789E-02 
1773	 5.75584290990158E-02 
1774	 5.55552930073707E-02 
1775	 5.27406655993016E-02 
1776	 5.25369526365576E-02 
1777	 5.37572488939221E-02 
1778	 5.45387473925869E-02 
1779	 5.87203315149352E-02 
1780	 5.97003553698665E-02 
1781	 0.057516966419789 
1782	 5.52944879245885E-02 
1783	 4.94765183912687E-02 
1784	 4.88179760825079E-02 
1785	 5.20177892476925E-02 
1786	 5.22549847947393E-02 
1787	 5.52830380387443E-02 
1788	 5.64417305966754E-02 
1789	 5.04701310523406E-02 
1790	 5.26056501703845E-02 
1791	 6.35533384608543E-02 
1792	 7.52595515619476E-02 
1793	 0.080386289518282 
1794	 0.070773355487941 
1795	 5.32835810060951E-02 
1796	 2.82065595082676E-02 
1797	 2.04843933013396E-02 
1798	 5.16765963200208E-02 
1799	 6.51803135273962E-02 
1800	 0.067053758353332 
1801	 7.06536396315119E-02 
1802	 2.38414807057955E-02 
1803	 8.38901588745074E-03 
1804	 5.61325411278941E-02 
1805	 5.38572878155121E-02 
1806	 1.05681200284434E-02 
1807	 1.98020201230959E-02 
1808	-3.39043126460634E-02 
1809	 4.08372305608676E-02 
1810	 0.506289077054023 
1811	 0.50747809542824 
1812	 4.77180527696245E-02 
1813	-0.018221514605455 
1814	-0.719055660089969 
1815	-1.05359898243775 
1816	 0.39783080313367 
1817	 0.535251957088707 
1818	 0.12015943190673 
1819	-0.142476777936685 
1820	-0.477671079344793 
1821	-7.00927321080784 
1822	 4.88391025035834 
1823	 0.363248118108022 
1824	-0.471809176311933 
1825	 11.8894443290113 
1826	 3.41597928779994 
1827	 2.41017792747553E-02 
1828	-0.301503766285631 
1829	-1.66836270059395 
1830	-0.623022406124979 
1831	-1.25329594044798 
1832	-1.15941341652475 
1833	 3.44603857837072 
1834	 2.35101194702832 
1835	 3.57162136068007 
1836	 2.13375691268892 
1837	 0.396802676007082 
1838	 0.369766263458381 
1839	 16.6835668833225 
1840	 1.34124527725868 
1841	-1.40197491660566 
1842	-12.0624453438774 
1843	-52.566222434598 
1844	 1.79200987422506 
1845	 1.58686784717394 
1846	-0.152275136682689 
1847	-0.529075046153142 
1848	 3.82924242428956 
1849	 1.98868183356374 
1850	 1.381161967391 
1851	 1.82447524374276 
1852	 5.54557374047402 
1853	-1.69076959724426 
1854	-0.207474746009701 
1855	-10.4268960611465 
1856	-13.6820007723446 
1857	-2.66025800607666 
1858	-1.98372679213873 
1859	-1.90968939362047 
1860	-2.09090701668829 
1861	-2.61096014982603 
1862	-3.38532275055695 
1863	 4.38289480903326 
1864	 0.927429396287258 
1865	 0.686261511285183 
1866	-0.112563893132644 
1867	 0.341542743320101 
1868	 0.546977642602997 
1869	 0.582432830672936 
1870	 7.28686715136912 
1871	 0.533154624393395 
1872	 0.846915151743023 
1873	 1.46207260971876 
1874	 1.8364610049997 
1875	 0.753437623652574 
1876	 0.795162547898644 
1877	 0.843506489173124 
1878	 0.87433563478744 
1879	 1.10928345401788 
1880	 1.33554262377773 
1881	 2.09350519994343 
1882	 6.93538438505113 
1883	 4.27992445953625 
1884	 6.2860609079326 
1885	 5.7501658891862 
1886	 3.76674780577923 
1887	 1.29711525527539 
1888	 0.653097679586145 
1889	 0.374273048039159 
1890	 0.200874305512871 
1891	 0.153265660646236 
1892	-3.1313382651202 
1893	 0.351324244326446 
1894	 1.20702299604216 
1895	 3.13247227053293 
1896	-2.23589708297931 
1897	-0.530404795967736 
1898	-0.279279055491288 
1899	-1.12511524282576 
1900	-9.17303144398218 
1901	-9.98599205193049 
1902	-3.58885143615232 
1903	-4.24756821470623 
1904	 1.08979141923333 
1905	-15.831565503376 
1906	 3.07672599317029 
1907	 1.82233335842466 
1908	-3.50009833153269 
1909	-1.47975810885256 
1910	-1.11783064186632 
1911	-0.690740147336728 
1912	-0.872749544223787 
1913	-1.01535471077561 
1914	-0.983951949806956 
1915	-1.42911919882906 
1916	-6.84203443316249 
1917	 7.58688392812435 
1918	 9.0184409887867 
1919	 2.75252710334827 
1920	 1.9544512088496 
1921	 51.7308928729275 
1922	 0.925525197190916 
1923	 0.308476129048069 
1924	 0.272403328591716 
1925	 0.509097059657027 
1926	 0.514314669606716 
1927	 0.424310728706012 
1928	 0.467762320656846 
1929	 3.15245518616698 
1930	 1.52563345031344 
1931	-0.15231615432876 
1932	 0.361333378940761 
1933	 0.162099239546703 
1934	-0.271648253800617 
1935	-1.88671018254615E-02 
1936	 0.211338000763885 
1937	-4.40130679188763E-02 
1938	-0.135561099835614 
1939	-0.137448064725785 
1940	 2.80045030504135E-03 
1941	-0.221684835202709 
1942	-0.240188228706164 
1943	-0.26957906153229 
1944	-0.550903794274134 
1945	-0.542376340471456 
1946	-0.223893924997914 
1947	-4.37869079531554E-02 
1948	-6.71446529039715E-03 
1949	 4.76744957638269E-02 
1950	-2.72167688116912E-02 
1951	-0.10091609315519 
1952	-6.10007379682501E-02 
1953	 0.134436131795001 
1954	 0.187173134434709 
1955	 0.129528196700763 
1956	 0.09922296915402 
1957	 9.65681709501649E-02 
1958	 9.99860637751487E-02 
1959	 8.67272232362543E-02 
1960	 0.096226825131995 
1961	 8.55225123200245E-02 
1962	 6.27415000406796E-02 
1963	 6.07804727597451E-02 
1964	 6.95977698884019E-02 
1965	 7.65192030068815E-02 
1966	 7.35249988743835E-02 
1967	 0.06886022748091 
1968	 6.65175828098072E-02 
1969	 6.54003687352988E-02 
1970	 6.02559989822009E-02 
1971	 5.72375254867168E-02 
1972	 5.86048525310642E-02 
1973	 6.10205364196347E-02 
1974	 0.065938493877001 
1975	 7.62889195242156E-02 
1976	 8.39996802986982E-02 
1977	 8.28621579845861E-02 
1978	 7.68891663994951E-02 
1979	 7.18838140543381E-02 
1980	 6.35410707018864E-02 
1981	 5.83135707359363E-02 
1982	 5.77073146917558E-02 
1983	 5.78789444511048E-02 
1984	 5.92293004635801E-02 
1985	 6.17977935294761E-02 
1986	 6.35845978260124E-02 
1987	 6.56253862056907E-02 
1988	 6.42333967147342E-02 
1989	 6.45312980193034E-02 
1990	 6.73430885409517E-02 
1991	 6.44430706503147E-02 
1992	 6.19593030078548E-02 
1993	 5.90883616067822E-02 
1994	 5.78883001795029E-02 
1995	 5.28604893281557E-02 
1996	 5.66852410833336E-02 
1997	 6.42078982175438E-02 
1998	 6.79574571175767E-02 
1999	 6.89406886422838E-02 
2000	 6.12822490850173E-02 
2001	 5.67657817846805E-02 
2002	 6.36864007778502E-02 
2003	 6.73449901699518E-02 
2004	 8.20497538749927E-02 
2005	 9.70724813550208E-02 
2006	 8.58453518060345E-02 
2007	 7.84242686553031E-02 
2008	 7.03821124170785E-02 
2009	 6.34764641521119E-02 
2010	 5.62380616264946E-02 
2011	 5.52171560313509E-02 
2012	 5.85376108480873E-02 
2013	 0.0573987941707 
2014	 6.00216905864957E-02 
2015	 6.10849186147809E-02 
2016	 6.91973680238937E-02 
2017	 7.86863814634496E-02 
2018	 7.93485724721987E-02 
2019	 7.70796257597957E-02 
2020	 6.73843333461544E-02 
2021	 6.11080811411651E-02 
2022	 6.43885860039966E-02 
2023	 6.28123931431005E-02 
2024	 0.061684507565879 
2025	 6.18516199317924E-02 
2026	 6.31615454939681E-02 
2027	 6.24166227353672E-02 
2028	 6.49201179441265E-02 
2029	 6.90343373510339E-02 
2030	 6.85034563732742E-02 
2031	 6.63336122300371E-02 
2032	 6.34221463474551E-02 
2033	 6.06885453193369E-02 
2034	 6.00665076785497E-02 
2035	 5.88307404450124E-02 
2036	 5.81559597809888E-02 
2037	 5.91212972696231E-02 
2038	 6.13622177417206E-02 
2039	 6.34627978218598E-02 
2040	 6.74104224814887E-02 
2041	 6.88997145363519E-02 
2042	 6.92767623661643E-02 
2043	 7.00227088287148E-02 
2044	 7.01486729295893E-02 
2045	 6.90103350627362E-02 
2046	 0.069094494297871 
2047	 6.81049766309784E-02 
2048	 6.46345185459866E-02 
2049	 6.32589865956034E-02 
2050	 6.43748668429925E-02 
2051	 6.59125324802376E-02 
2052	 6.67295575007083E-02 
2053	 6.69769621901973E-02 
2054	 6.55558463650701E-02 
2055	 6.18642238146927E-02 
2056	 6.08419415961264E-02 
2057	 6.12572426555652E-02 
2058	 6.28153323235668E-02 
2059	 6.69839185860102E-02 
2060	 6.87710975623046E-02 
2061	 7.12063371907345E-02 
2062	 0.070711770627522 
2063	 0.068823706874892 
2064	 7.10213009491596E-02 
2065	 6.97528145807903E-02 
2066	 6.79920398086893E-02 
2067	 7.13680914472608E-02 
2068	 7.14036156824826E-02 
2069	 7.08879766106236E-02 
2070	 7.09522738520473E-02 
2071	 6.89152850630187E-02 
2072	 6.74889586824167E-02 
2073	 6.56194328489021E-02 
2074	 0.064452985301742 
2075	 0.064662791264286 
2076	 6.43738008048816E-02 
2077	 6.37246934319949E-02 
2078	 6.44462740213797E-02 
2079	 6.49382046675252E-02 
2080	 6.51353185695393E-02 
2081	 6.45028796687463E-02 
2082	 0.063005266985827 
2083	 6.31674538472795E-02 
2084	 6.29239557866301E-02 
2085	 6.24626129909176E-02 
2086	 6.48328391873113E-02 
2087	 6.57191110317854E-02 
2088	 6.42770547855962E-02 
2089	 6.23772028462193E-02 
2090	 5.87247511159366E-02 
2091	 5.67381614254138E-02 
2092	 5.67852541052597E-02 
2093	 5.89697146586867E-02 
2094	 6.03253022525814E-02 
2095	 6.44234029345963E-02 
2096	 6.47484391351294E-02 
2097	 6.14813424756802E-02 
2098	 6.02452618744426E-02 
2099	 5.84621701793773E-02 
2100	 5.84496084387543E-02 
2101	 5.54005447105392E-02 
2102	 5.63937033216748E-02 
2103	 5.70400138734846E-02 
2104	 5.55410719177313E-02 
2105	 5.89863610155712E-02 
2106	 6.12761608004213E-02 
2107	 0.063062672499311 
2108	 6.47451154860038E-02 
2109	 6.41879321389262E-02 
2110	 6.45254867036811E-02 
2111	 6.41322921283785E-02 
2112	 6.45270592875578E-02 
2113	 6.46134700475641E-02 
2114	 0.065508416825308 
2115	 6.50939321562739E-02 
2116	 6.31293874014087E-02 
2117	 6.24897098423282E-02 
2118	 0.062482724612567 
2119	 6.20207554487473E-02 
2120	 0.06157541175394 
2121	 6.19565187254181E-02 
2122	 6.20498595302443E-02 
2123	 5.99759151603501E-02 
2124	 6.00102802715778E-02 
2125	 6.09532418346793E-02 
2126	 5.96439187459912E-02 
2127	 6.14363581520672E-02 
2128	 0.063782331591815 
2129	 6.18116199616302E-02 
2130	 6.02125664143967E-02 
2131	 5.91066527654861E-02 
2132	 5.75774670331944E-02 
2133	 5.68738876702188E-02 
2134	 5.76326848844484E-02 
2135	 6.13507798438513E-02 
2136	 6.26710386261611E-02 
2137	 6.43170206420488E-02 
2138	 6.50871813290664E-02 
2139	 6.32817782878113E-02 
2140	 6.27919618273415E-02 
2141	 6.27112856198199E-02 
2142	 6.30949229494633E-02 
2143	 6.39006984477794E-02 
2144	 6.57772821799278E-02 
2145	 6.65090589079723E-02 
2146	 0.065788787795843 
2147	 6.42943208016733E-02 
2148	 6.41031878806285E-02 
2149	 6.62291644306346E-02 
2150	 6.63821107162449E-02 
2151	 0.065705417682034 
2152	 6.61007935154883E-02 
2153	 6.53148911114114E-02 
2154	 0.065799111286694 
2155	 6.77412853118315E-02 
2156	 6.80927765983636E-02 
2157	 6.84638566019913E-02 
2158	 6.83842639556978E-02 
2159	 6.78067357214964E-02 
2160	 6.69637547942674E-02 
2161	 6.61553054753595E-02 
2162	 6.44334445207463E-02 
2163	 6.32038550970966E-02 
2164	 6.24763849096576E-02 
2165	 6.16589798203416E-02 
2166	 5.98011601270591E-02 
2167	 0.059474258563684 
2168	 6.08949488635062E-02 
2169	 0.060727732708926 
2170	 5.95494964849246E-02 
2171	 6.04194967811221E-02 
2172	 6.41270785329968E-02 
2173	 6.48297096967475E-02 
2174	 6.52579610012427E-02 
2175	 6.85007589787753E-02 
2176	 6.63184528272476E-02 
2177	 6.36288333009148E-02 
2178	 0.065523750494652 
2179	 6.72351872697533E-02 
2180	 6.60917621101315E-02 
2181	 6.69192329117621E-02 
2182	 6.78981082175336E-02 
2183	 6.69074566162135E-02 
2184	 6.79482988918132E-02 
2185	 0.067113584256744 
2186	 6.80681403711428E-02 
2187	 6.99247256586057E-02 
2188	 6.96748471975727E-02 
2189	 0.070133746580641 
2190	 7.02546387847552E-02 
2191	 6.68903953966792E-02 
2192	 6.61188717070339E-02 
2193	 6.79219251365954E-02 
2194	 6.80673138960367E-02 
2195	 6.86490482799181E-02 
2196	 6.74232159714688E-02 
2197	 6.37743071413587E-02 
2198	 6.16947227284018E-02 
2199	 0.059979474235173 
2200	 5.63600347944976E-02 
2201	 5.40797947398328E-02 
2202	 5.66878472001718E-02 
2203	 5.98526991157638E-02 
2204	 6.14466639166236E-02 
2205	 6.07869192300756E-02 
2206	 5.90824098380438E-02 
2207	 5.94640059844873E-02 
2208	 6.40767806124389E-02 
2209	 6.84936892634185E-02 
2210	 0.072834179376132 
2211	 7.01227328769068E-02 
2212	 6.37593143552986E-02 
2213	 6.75460854393356E-02 
2214	 7.06411179742142E-02 
2215	 7.16635652480406E-02 
2216	 7.39864807800274E-02 
2217	 7.35003589300959E-02 
2218	 0.06703820123015 
2219	 6.41957342492602E-02 
2220	 6.30445246395112E-02 
2221	 6.20776684699834E-02 
2222	 5.97748939692406E-02 
2223	 5.96752918770826E-02 
2224	 6.34933550880986E-02 
2225	 0.062891378768054 
2226	 0.060044688863644 
2227	 5.92495909308225E-02 
2228	 5.67002806176356E-02 
2229	 5.68535947824159E-02 
2230	 5.99461016026833E-02 
2231	 6.12736840069291E-02 
2232	 6.25488891772037E-02 
2233	 6.33386135892976E-02 
2234	 6.24887563019914E-02 
2235	 6.60817415721974E-02 
2236	 6.62478404929122E-02 
2237	 6.65995412829049E-02 
2238	 6.73381333991972E-02 
2239	 6.52817048423072E-02 
2240	 6.73327004824538E-02 
2241	 7.12160053864758E-02 
2242	 0.073556985517635 
2243	 7.62962283740158E-02 
2244	 0.077548906007525 
2245	 7.29500591426815E-02 
2246	 6.33082792907669E-02 
2247	 5.59162472581373E-02 
2248	 5.11073187683854E-02 
2249	 5.00138166823237E-02 
2250	 4.81449832243801E-02 
2251	 4.70202640437751E-02 
2252	 5.47505000946018E-02 
2253	 6.11840755630381E-02 
2254	 6.71522118252959E-02 
2255	 7.70898288675704E-02 
2256	 7.69078709976976E-02 
2257	 6.88753115437428E-02 
2258	 6.67579341057784E-02 
2259	 6.48418695379963E-02 
2260	 6.56822765513824E-02 
2261	 7.12389988340284E-02 
2262	 7.15373005265307E-02 
2263	 0.071547342622305 
2264	 7.40491054984961E-02 
2265	 7.54442097584039E-02 
2266	 7.37787438014741E-02 
2267	 6.97106094200486E-02 
2268	 0.07195675826962 
2269	 7.51607231400584E-02 
2270	 7.39171151676413E-02 
2271	 0.076586436430359 
2272	 7.83978238835794E-02 
2273	 7.58848852273241E-02 
2274	 7.36611554371766E-02 
2275	 7.27054791630434E-02 
2276	 7.50830372515814E-02 
2277	 7.69080656068618E-02 
2278	 7.64300518899778E-02 
2279	 8.27840149097314E-02 
2280	 8.01580138712095E-02 
2281	 6.72573979741373E-02 
2282	 5.61482838067561E-02 
2283	 5.15046544857464E-02 
2284	 5.97173368467764E-02 
2285	 7.39191833349094E-02 
2286	 7.36893021601578E-02 
2287	 7.01064486472964E-02 
2288	 6.76130412972384E-02 
2289	 6.10125797802932E-02 
2290	 6.26790849313065E-02 
2291	 7.02564737496033E-02 
2292	 7.16968527055764E-02 
2293	 6.59834168768577E-02 
2294	 7.06865448506859E-02 
2295	 0.07333262951465 
2296	 6.65416355659351E-02 
2297	 7.46689133336566E-02 
2298	 7.94514667731411E-02 
2299	 6.83028652098205E-02 
2300	 6.18922838745168E-02 
2301	 6.13030511908333E-02 
2302	 5.19461787441239E-02 
2303	 4.57299611535893E-02 
2304	 4.90762042687227E-02 
2305	 3.92772726341195E-02 
2306	 3.96000823975823E-02 
2307	 5.67947494435059E-02 
2308	 5.75816248079557E-02 
2309	 5.75985001445881E-02 
2310	 6.00116729752095E-02 
2311	 5.29384006536972E-02 
2312	 5.63587993892664E-02 
2313	 6.79723017852785E-02 
2314	 7.26755773951204E-02 
2315	 6.65462422004171E-02 
2316	 5.55232796015416E-02 
2317	 5.86747835620161E-02 
2318	 6.85703072287635E-02 
2319	 7.66990957095942E-02 
2320	 8.40366966070523E-02 
2321	 0.08297589626027 
2322	 7.16444742204289E-02 
2323	 5.74508715395684E-02 
2324	 4.92888083994783E-02 
2325	 4.99447662539702E-02 
2326	 5.21365858056193E-02 
2327	 0.045774817989455 
2328	 4.46782329077643E-02 
2329	 4.17471887173623E-02 
2330	 3.08899190879035E-02 
2331	 2.02173679531054E-02 
2332	 2.47833969975363E-02 
2333	 4.50747094860222E-02 
2334	 0.055237200943124 
2335	 7.76271356045041E-02 
2336	 9.72625733172571E-02 
2337	 9.21568853867022E-02 
2338	 9.86547541323952E-02 
2339	 0.104848879393239 
2340	 9.16162668411366E-02 
2341	 8.50131015661253E-02 
2342	 7.87931267984098E-02 
2343	 6.48314167280735E-02 
2344	 7.64468565599313E-02 
2345	 9.28432879533772E-02 
2346	 7.24578025792183E-02 
2347	 4.46066946790685E-02 
2348	 3.33471451997817E-02 
2349	 1.33360540921167E-02 
2350	 0.011622390264612 
2351	 3.49171207510576E-02 
2352	 3.13286403464411E-02 
2353	 3.01566793173627E-02 
2354	 4.15097460342389E-02 
2355	 4.55674503983167E-02 
2356	 0.058489633798248 
2357	 6.40832389823066E-02 
2358	 0.05829314739708 
2359	 5.80565670887852E-02 
2360	 4.21766347319039E-02 
2361	 2.27700988079035E-02 
2362	 8.10392139845145E-03 
2363	-1.98339573567985E-02 
2364	-8.22412133452074E-03 
2365	 1.61167686917422E-02 
2366	 2.57914850458151E-02 
2367	 7.37272182786448E-02 
2368	 0.118909209120438 
2369	 0.137881883893349 
2370	 0.137379529970938 
2371	 0.125958860578736 
2372	 0.114576765487493 
2373	 0.12367151898492 
2374	 0.146401925399365 
2375	 0.110688327351897 
2376	 6.05126485787056E-02 
2377	 6.61400909458998E-02 
2378	 0.148652019076782 
2379	 0.241808084167574 
2380	 0.264978020987393 
2381	 0.209515509971417 
2382	 8.77313445124326E-02 
2383	 3.84633788952415E-02 
2384	-8.18754302357643E-03 
2385	-7.44047971283175E-02 
2386	-0.123332364730938 
2387	-0.113487173726863 
2388	 3.17518827488191E-02 
2389	 4.49835503903503E-02 
2390	 2.26759151696615E-02 
2391	 5.83826239300441E-02 
2392	 5.50208377785068E-02 
2393	 7.54649401082185E-02 
2394	 8.27951160206096E-02 
2395	 5.42742515790646E-02 
2396	 1.27573068352316E-02 
2397	 0.020240430689061 
2398	 9.71955510882413E-02 
2399	 9.68487129484312E-02 
2400	 0.070823293787493 
2401	 7.03626110508731E-02 
2402	 9.79500724977716E-02 
2403	 0.100600897070754 
2404	 6.95050984031208E-02 
2405	 4.57711720952684E-02 
2406	-0.116090066089773 
2407	-0.176722382536661 
2408	-0.267529313365537 
2409	-0.505068361844518 
2410	-0.599696621512776 
2411	-0.753526835330305 
2412	-0.853300626549208 
2413	-0.709624204746357 
2414	-0.588553586792374 
2415	-0.48045466374268 
2416	-0.496045406442604 
2417	-0.612129371330537 
2418	-0.377040732418128 
2419	-3.05590696783623E-02 
2420	 0.232302669820403 
2421	 0.618160037656949 
2422	 0.494337825527292 
2423	 0.532384290122952 
2424	 1.13047072848776 
2425	 0.692382690550223 
2426	 0.747125940593488 
2427	 0.514762058183681 
2428	-0.170984236020396 
2429	-0.30545660752682 
2430	-0.481962701403144 
2431	-0.427240382305432 
2432	-0.371698099760029 
2433	-0.747510625008661 
2434	-1.00378526719559 
2435	-0.652422177142606 
2436	 6.82580314284321E-03 
2437	 0.435803977937952 
2438	 0.513430568039673 
2439	 0.47482081036624 
2440	 0.548899286554586 
2441	 2.84844946071534 
2442	-1.06354257870823 
2443	-0.613054827401899 
2444	-1.3160749822053 
2445	-3.73064400407558 
2446	 6.7209946541559 
2447	-0.678785031281409 
2448	-0.369452251076894 
2449	 0.34585356816333 
2450	 0.359154298319412 
2451	 6.03335237475175 
2452	 4.70621179901829 
2453	 1.86334706619915 
2454	-3.43817334877209 
2455	-2.27090718723187 
2456	-0.801560418486406 
2457	-1.12357868767303 
2458	-0.635583631473227 
2459	-9.14129860721841E-02 
2460	-0.366542346167227 
2461	-1.66710430887441 
2462	-5.31952746027164 
2463	-2.94594056751573 
2464	 0.686427685906171 
2465	 5.14174509959944E-02 
2466	 0.673862444763895 
2467	 3.09670656194672 
2468	-13.8316212163992 
2469	-11.4588245079676 
2470	 5.25917499276137 
2471	 2.63750483734067 
2472	 1.85023903334579 
2473	 0.835548476459597 
2474	 0.700327509128131 
2475	 0.11730327010471 
2476	-0.143583348775851 
2477	-0.320509331740795 
2478	 0.186760380941701 
2479	 0.685460211874673 
2480	 0.317616619672505 
2481	 1.11406203928727 
2482	 10.7981149829727 
2483	 2.65776055574868 
2484	-5.32623189036972 
2485	-1.14908081492268 
2486	-1.97808548378702 
2487	 16.7748874734307 
2488	 1.70525584674347 
2489	 0.524545756045591 
2490	 0.467544855655725 
2491	 0.662532081639684 
2492	 1.13542154749328 
2493	-31.3767996612187 
2494	 3.61844886217314 
2495	 1.77116867238841 
2496	-28.6985786830944 
2497	-845.343679551463 
2498	-1.3274768491652 
2499	-6.63977470696122 
2500	-1.38808014716688 
