Wavelength	rt0713west_close_sunny_100002.asd
350	 4.70871808433539E-02 
351	 4.69545593135162E-02 
352	 4.67175330721146E-02 
353	 4.69334163641484E-02 
354	 4.74464789120227E-02 
355	 4.64593977624951E-02 
356	 4.63645696265126E-02 
357	 4.66627572073327E-02 
358	 4.63059183132049E-02 
359	 4.60218269444464E-02 
360	 4.59033106081444E-02 
361	 0.045927201713655 
362	 4.59803959498714E-02 
363	 4.57893706368956E-02 
364	 4.57920942856273E-02 
365	 0.046040207343791 
366	 4.58867895063636E-02 
367	 4.57777446887825E-02 
368	 4.56517424730961E-02 
369	 4.54321228205188E-02 
370	 4.54125447653175E-02 
371	 4.57487929104122E-02 
372	 0.045934930655759 
373	 4.53064059192634E-02 
374	 4.53248184406971E-02 
375	 4.54389371750432E-02 
376	 0.045317976827995 
377	 4.52276048929606E-02 
378	 4.53973239017153E-02 
379	 4.56349275181566E-02 
380	 4.57864694757991E-02 
381	 4.62392507058547E-02 
382	 0.046059356280288 
383	 4.56436931037031E-02 
384	 4.58842088043883E-02 
385	 4.61926863839775E-02 
386	 4.61326190980011E-02 
387	 4.59063422501698E-02 
388	 0.04633959176732 
389	 4.63534125947856E-02 
390	 4.62673945153115E-02 
391	 4.64483963953508E-02 
392	 4.67381614570197E-02 
393	 4.67159016884073E-02 
394	 4.65542358264389E-02 
395	 4.65879306810902E-02 
396	 4.66544700533513E-02 
397	 4.68414739567732E-02 
398	 4.70392067804508E-02 
399	 4.69875736429429E-02 
400	 4.68751980501217E-02 
401	 4.69206338418022E-02 
402	 4.71387694874486E-02 
403	 4.70943406504294E-02 
404	 4.72157174607201E-02 
405	 4.73558240450156E-02 
406	 4.72551618257372E-02 
407	 4.72845088359237E-02 
408	 4.74240654947686E-02 
409	 4.75440519324348E-02 
410	 4.74609115560066E-02 
411	 4.76250732058541E-02 
412	 0.047851115289473 
413	 4.79420493400677E-02 
414	 4.79347488391696E-02 
415	 4.80642090415689E-02 
416	 4.82664561385625E-02 
417	 4.83844431220605E-02 
418	 4.85418628995034E-02 
419	 4.87298038038331E-02 
420	 0.048898993369436 
421	 4.89742486206147E-02 
422	 4.91381957808262E-02 
423	 4.93673836864374E-02 
424	 4.95999785583372E-02 
425	 4.97934793039558E-02 
426	 5.00515799944731E-02 
427	 5.03466610190667E-02 
428	 5.05952144515371E-02 
429	 5.08356226316011E-02 
430	 5.10289788377581E-02 
431	 5.12300287755733E-02 
432	 5.16032047394637E-02 
433	 5.18068588920826E-02 
434	 5.19732402171985E-02 
435	 5.22760592721489E-02 
436	 5.27066090419004E-02 
437	 5.30244144792213E-02 
438	 5.32570285153314E-02 
439	 5.35599801276854E-02 
440	 5.37745264485194E-02 
441	 5.40288478432766E-02 
442	 5.43452805093327E-02 
443	 5.45471862041552E-02 
444	 5.48209631755837E-02 
445	 5.51076798050419E-02 
446	 5.53311695654705E-02 
447	 5.56317451526263E-02 
448	 5.58573174630945E-02 
449	 5.60146965510159E-02 
450	 5.62260369863735E-02 
451	 5.64429068878798E-02 
452	 5.66157927710691E-02 
453	 5.67362002692674E-02 
454	 5.68709616306937E-02 
455	 5.70710456559614E-02 
456	 5.72734625566579E-02 
457	 5.73981710486188E-02 
458	 5.75310832696973E-02 
459	 5.76907357180744E-02 
460	 5.78398714548462E-02 
461	 5.78956021808903E-02 
462	 5.79810492909927E-02 
463	 5.81011273473809E-02 
464	 5.82381091261141E-02 
465	 5.83920224958735E-02 
466	 5.84862491764062E-02 
467	 5.85531751033292E-02 
468	 5.86751484225913E-02 
469	 5.88493968765848E-02 
470	 0.058961090159491 
471	 5.90074986334422E-02 
472	 5.91447794700594E-02 
473	 5.92886222703518E-02 
474	 5.94661425166756E-02 
475	 0.059692357883906 
476	 0.059843564340878 
477	 6.00076860028404E-02 
478	 6.02102111866677E-02 
479	 6.04258352667077E-02 
480	 6.05728665008281E-02 
481	 6.07971454104638E-02 
482	 0.061131481474767 
483	 6.13133792241748E-02 
484	 6.15580220976155E-02 
485	 6.18652132499243E-02 
486	 6.21590711718319E-02 
487	 0.062411721192773 
488	 6.26632375717125E-02 
489	 6.29418928720639E-02 
490	 6.32579251930552E-02 
491	 6.35580389423933E-02 
492	 6.38774992526102E-02 
493	 6.42339813163311E-02 
494	 6.45532954670666E-02 
495	 6.48795844538402E-02 
496	 6.52301351262633E-02 
497	 0.065604304726573 
498	 6.59708318939762E-02 
499	 6.62926421973715E-02 
500	 0.066592143374801 
501	 6.69816588467853E-02 
502	 0.067325369438654 
503	 6.77104366518401E-02 
504	 6.82162962398307E-02 
505	 6.86282415636759E-02 
506	 6.90413976747302E-02 
507	 0.0694908413955 
508	 6.99521233404205E-02 
509	 7.03332918982284E-02 
510	 7.07651190690922E-02 
511	 7.12993843947533E-02 
512	 0.071719377574525 
513	 7.21883288500164E-02 
514	 0.072729105775558 
515	 7.32967730372124E-02 
516	 7.38426535406464E-02 
517	 7.44196882844732E-02 
518	 7.49997855585985E-02 
519	 7.54505081858579E-02 
520	 0.076008075102291 
521	 7.65644756264266E-02 
522	 7.70173677314973E-02 
523	 7.75471291573897E-02 
524	 7.81461821574633E-02 
525	 7.87843532467349E-02 
526	 7.94144839827536E-02 
527	 7.99842229716407E-02 
528	 8.05111629229462E-02 
529	 8.10350291605467E-02 
530	 8.16139353651242E-02 
531	 8.22498728450121E-02 
532	 8.29067983239154E-02 
533	 8.35346257866574E-02 
534	 8.41333791367809E-02 
535	 8.47042117273609E-02 
536	 8.52805919692482E-02 
537	 0.085925582070785 
538	 8.65709611399706E-02 
539	 8.71913732015291E-02 
540	 8.77855283221798E-02 
541	 8.83885067285838E-02 
542	 8.90183415980854E-02 
543	 8.96560432478029E-02 
544	 9.02709092521788E-02 
545	 9.09541236444532E-02 
546	 9.15910046393467E-02 
547	 9.21501621187485E-02 
548	 9.28114730426917E-02 
549	 0.09346803114029 
550	 9.40820994640854E-02 
551	 9.46589076346747E-02 
552	 9.53020794400773E-02 
553	 9.59102525383431E-02 
554	 9.64717812486592E-02 
555	 0.097083779723401 
556	 9.76555025251922E-02 
557	 9.82301510823799E-02 
558	 9.88398965983022E-02 
559	 0.099400754324896 
560	 9.99333182413266E-02 
561	 0.100440805721052 
562	 0.100914799500879 
563	 0.101297902425095 
564	 0.101698043881186 
565	 0.102143851330252 
566	 0.102469950651544 
567	 0.102790795044162 
568	 0.103123327718342 
569	 0.103453449473535 
570	 0.103805829486449 
571	 0.104101283489923 
572	 0.104327641142797 
573	 0.104550134607064 
574	 0.104823862675162 
575	 0.105084472971272 
576	 0.105273788388354 
577	 0.10545758003607 
578	 0.105631044047102 
579	 0.105792717907244 
580	 0.105935967886028 
581	 0.106004542416288 
582	 0.105999201693721 
583	 0.10593704203507 
584	 0.105852336819121 
585	 0.105680709516412 
586	 0.105426685698186 
587	 0.105126987718385 
588	 0.104852076472711 
589	 0.104609085358819 
590	 0.104419455901018 
591	 0.104298120659078 
592	 0.104060375248578 
593	 0.103770831583195 
594	 0.103493521129923 
595	 0.103109816666913 
596	 0.102608999315554 
597	 0.102040200500475 
598	 0.101489942768729 
599	 0.100972081113075 
600	 0.100517846905062 
601	 0.100145231224106 
602	 9.98453740932234E-02 
603	 9.96793655196295E-02 
604	 9.95648023592884E-02 
605	 9.94220934684902E-02 
606	 9.94405658512688E-02 
607	 9.94507355566703E-02 
608	 9.94127048262245E-02 
609	 9.94356801668144E-02 
610	 9.95042437867362E-02 
611	 9.95068868997098E-02 
612	 9.94021289136001E-02 
613	 0.099412325711749 
614	 0.099403590203533 
615	 9.93888945299038E-02 
616	 9.94405336173887E-02 
617	 9.93936833016324E-02 
618	 9.93471605634366E-02 
619	 9.93516768806074E-02 
620	 9.93372993842765E-02 
621	 9.92901800446935E-02 
622	 9.92485663723268E-02 
623	 9.92396839574789E-02 
624	 9.91412614171601E-02 
625	 9.90292159777439E-02 
626	 9.89255984671845E-02 
627	 0.098799925774615 
628	 9.87693210631046E-02 
629	 9.87991319914458E-02 
630	 9.88271559639212E-02 
631	 9.88062215315408E-02 
632	 9.87896616680751E-02 
633	 9.87842190455925E-02 
634	 9.87727980946753E-02 
635	 0.098745862063528 
636	 9.86989804794496E-02 
637	 9.86167288531652E-02 
638	 9.84622663620739E-02 
639	 9.83833329101882E-02 
640	 9.83085001005757E-02 
641	 9.81387342898457E-02 
642	 9.79464151011814E-02 
643	 9.77495700402363E-02 
644	 0.097509256844991 
645	 9.71531463438073E-02 
646	 9.68370525965787E-02 
647	 9.66440704806204E-02 
648	 9.65633534455782E-02 
649	 9.64072210130961E-02 
650	 9.62586553146248E-02 
651	 9.60917651359536E-02 
652	 9.58577311055672E-02 
653	 9.55821370387556E-02 
654	 9.51701701006715E-02 
655	 9.46612859949243E-02 
656	 9.43502161125562E-02 
657	 9.40310746140521E-02 
658	 9.37074574462595E-02 
659	 0.093413347322766 
660	 9.31750870310214E-02 
661	 9.29109016648723E-02 
662	 9.26571166726283E-02 
663	 9.25180432256531E-02 
664	 9.24175354494722E-02 
665	 9.23212840145747E-02 
666	 9.22078500308897E-02 
667	 9.20695793087298E-02 
668	 9.19227574595963E-02 
669	 9.18353575299664E-02 
670	 9.18535973706789E-02 
671	 0.091842551524851 
672	 9.17732148201656E-02 
673	 9.17023556186402E-02 
674	 9.17491764257511E-02 
675	 9.17268653649962E-02 
676	 9.17355337600129E-02 
677	 9.18317378798814E-02 
678	 9.18158647140581E-02 
679	 0.091854594616205 
680	 0.091970997990828 
681	 9.21078938732945E-02 
682	 9.21405971312802E-02 
683	 9.22642375675042E-02 
684	 9.24460687032442E-02 
685	 9.23132072667095E-02 
686	 9.22393455037187E-02 
687	 9.22727411663401E-02 
688	 9.23371505808627E-02 
689	 9.23995756743743E-02 
690	 9.22928213722885E-02 
691	 9.20314341627899E-02 
692	 9.17479447568293E-02 
693	 9.15585795333145E-02 
694	 9.14680553024765E-02 
695	 0.091374897375613 
696	 9.10631947031978E-02 
697	 9.05996575184014E-02 
698	 8.99985664853481E-02 
699	 8.93396940718452E-02 
700	 0.088816897224045 
701	 8.83521583424305E-02 
702	 8.78245900426715E-02 
703	 8.70994596962439E-02 
704	 8.63111150464696E-02 
705	 8.55364163434415E-02 
706	 8.47740630350857E-02 
707	 8.38108552841305E-02 
708	 0.08279318509255 
709	 8.17026535260903E-02 
710	 8.04735151828262E-02 
711	 7.91127160706458E-02 
712	 7.76487929461613E-02 
713	 0.076064615241596 
714	 7.42476957952904E-02 
715	 7.23719329623867E-02 
716	 7.03139572271224E-02 
717	 6.81753189977347E-02 
718	 0.066246529204546 
719	 0.064664875038491 
720	 6.33492040340835E-02 
721	 6.18831882541738E-02 
722	 6.02974403139498E-02 
723	 5.83748083712295E-02 
724	 5.63536620706546E-02 
725	 5.44837383433172E-02 
726	 5.26227398992107E-02 
727	 5.06410386616147E-02 
728	 4.84975696281323E-02 
729	 0.046279085713077 
730	 4.41590041323671E-02 
731	 4.23363288160565E-02 
732	 4.07921712739664E-02 
733	 3.92677859344402E-02 
734	 3.79560403179491E-02 
735	 3.69456526046943E-02 
736	 3.61192263459305E-02 
737	 3.55309812074759E-02 
738	 3.51405606549722E-02 
739	 3.48745087869828E-02 
740	 3.45865180894912E-02 
741	 3.44348335881092E-02 
742	 3.44020922893421E-02 
743	 3.43701768909005E-02 
744	 3.42539953188154E-02 
745	 3.41513003748557E-02 
746	 3.41182606700485E-02 
747	 3.41266496833973E-02 
748	 3.40980846442534E-02 
749	 0.034033983720771 
750	 3.39678857957008E-02 
751	 3.39514775964741E-02 
752	 3.39512700156312E-02 
753	 3.39414541609829E-02 
754	 3.39105883962419E-02 
755	 0.033932094658718 
756	 3.38847871796197E-02 
757	 3.36885931440074E-02 
758	 3.32489197080544E-02 
759	 3.28321665544794E-02 
760	 3.26203461499535E-02 
761	 3.26567780168826E-02 
762	 0.032705714300332 
763	 3.29225495344189E-02 
764	 0.03326929375819 
765	 3.36366398017541E-02 
766	 3.38944032534468E-02 
767	 3.40983998168546E-02 
768	 3.42921786774979E-02 
769	 3.44937026965401E-02 
770	 0.034562239085082 
771	 3.47003147117284E-02 
772	 3.49967276088167E-02 
773	 3.50329755235408E-02 
774	 3.51663731621198E-02 
775	 3.54239123172054E-02 
776	 3.56790293382163E-02 
777	 3.58233371736185E-02 
778	 3.60114501980539E-02 
779	 3.62917808385936E-02 
780	 3.65793794411343E-02 
781	 3.67172415989023E-02 
782	 3.68765085241956E-02 
783	 0.03717939614444 
784	 3.75096138193616E-02 
785	 0.037741894790064 
786	 3.79159165063545E-02 
787	 3.81349260960505E-02 
788	 3.84290448857668E-02 
789	 3.87847350570292E-02 
790	 3.91858870860291E-02 
791	 0.039617791661728 
792	 4.00358060117429E-02 
793	 4.03521822777602E-02 
794	 4.06034012357119E-02 
795	 4.10176663917982E-02 
796	 4.13723002332738E-02 
797	 4.16329183264374E-02 
798	 4.18524137461137E-02 
799	 4.21288481447078E-02 
800	 4.24189804932389E-02 
801	 4.26732487398975E-02 
802	 4.28586769396544E-02 
803	 4.30548537042378E-02 
804	 4.32055746399371E-02 
805	 4.32985516238903E-02 
806	 4.33810418011577E-02 
807	 4.35121849392249E-02 
808	 0.043394297172338 
809	 4.29275259589608E-02 
810	 4.27000388800479E-02 
811	 4.25349646106227E-02 
812	 4.21927193052936E-02 
813	 4.14967310085634E-02 
814	 4.10202170089762E-02 
815	 4.06901478984015E-02 
816	 4.03415456941855E-02 
817	 3.98225791718022E-02 
818	 3.94228013504489E-02 
819	 3.91039911552102E-02 
820	 3.86319443700233E-02 
821	 3.75808092958709E-02 
822	 3.65677819943485E-02 
823	 3.56002984437145E-02 
824	 3.45904506276449E-02 
825	 3.35895047323276E-02 
826	 3.22125165558244E-02 
827	 0.030629484550151 
828	 2.93011499760118E-02 
829	 0.028127007642413 
830	 0.027164510489213 
831	 2.64074300325066E-02 
832	 2.57975584837106E-02 
833	 2.49683907968045E-02 
834	 2.44566556797036E-02 
835	 2.43203393149666E-02 
836	 0.023906331845952 
837	 2.35429743179239E-02 
838	 0.023270703100986 
839	 2.31078965588645E-02 
840	 2.32089933977598E-02 
841	 2.30544717592864E-02 
842	 2.27210834779949E-02 
843	 2.24834182664454E-02 
844	 2.23369596676443E-02 
845	 0.022161420859541 
846	 2.19598185261141E-02 
847	 2.18095094636115E-02 
848	 2.16041112602131E-02 
849	 2.13865179565093E-02 
850	 2.12296637569288E-02 
851	 0.021206608132865 
852	 2.11618392006497E-02 
853	 2.10315872606556E-02 
854	 2.08420425009353E-02 
855	 2.07467648631822E-02 
856	 0.020640079932707 
857	 2.05042165951324E-02 
858	 2.03752200274002E-02 
859	 2.04149631533535E-02 
860	 2.02217541919478E-02 
861	 1.99354874862947E-02 
862	 1.98839788176727E-02 
863	 1.96717331776345E-02 
864	 0.019519720563188 
865	 1.94230530611137E-02 
866	 1.91754009262005E-02 
867	 1.90792679722157E-02 
868	 1.90665080079144E-02 
869	 1.90122181459816E-02 
870	 1.88032951429572E-02 
871	 1.87089407090028E-02 
872	 1.85251051256585E-02 
873	 1.81785014719685E-02 
874	 1.81197604045673E-02 
875	 1.79419698484056E-02 
876	 1.76969365766321E-02 
877	 0.017535113559296 
878	 1.74148821733001E-02 
879	 1.72839662495815E-02 
880	 0.017102222372336 
881	 1.68547831292859E-02 
882	 1.65649022633342E-02 
883	 1.65159537590511E-02 
884	 1.65969852090917E-02 
885	 1.64542786420721E-02 
886	 1.64648590493605E-02 
887	 1.63353493764894E-02 
888	 1.59851364192855E-02 
889	 1.56602460573055E-02 
890	 1.55864584239627E-02 
891	 1.54196742403577E-02 
892	 1.50853007150863E-02 
893	 1.52313589707658E-02 
894	 1.48585632246621E-02 
895	 1.42122854990896E-02 
896	 1.38288864121012E-02 
897	 1.37665048041033E-02 
898	 1.37926688143484E-02 
899	 1.38233429403441E-02 
900	 1.38345832425781E-02 
901	 1.37550799938612E-02 
902	 1.38201601175375E-02 
903	 1.37927861852105E-02 
904	 1.34091068957092E-02 
905	 1.31840728822402E-02 
906	 0.013014138901096 
907	 1.29219769209355E-02 
908	 1.29497693659822E-02 
909	 1.25318687997986E-02 
910	 1.22770908860365E-02 
911	 1.24235227140856E-02 
912	 0.012700868226746 
913	 1.26464137466278E-02 
914	 1.24542288052889E-02 
915	 1.22381240781742E-02 
916	 0.011928727675299 
917	 1.18024407793407E-02 
918	 1.15399189947656E-02 
919	 1.11560423812144E-02 
920	 1.11697412086529E-02 
921	 1.14054601659962E-02 
922	 1.14636311818429E-02 
923	 1.12435847553106E-02 
924	 0.01137208609332 
925	 1.09613866576604E-02 
926	 1.05898418837703E-02 
927	 1.08130453041962E-02 
928	 1.00946581975393E-02 
929	 9.57229398827478E-03 
930	 1.00748680814759E-02 
931	 1.17724249402468E-02 
932	 1.12405408796707E-02 
933	 1.21076457258629E-02 
934	 1.21390194414348E-02 
935	 8.26013897873678E-03 
936	 7.24657459531546E-03 
937	 8.0272109923288E-03 
938	 8.28951142174806E-03 
939	 6.70461756225083E-03 
940	 5.8269844639215E-03 
941	 5.66066401502217E-03 
942	 6.38302531429473E-03 
943	 7.91410365761905E-03 
944	 8.55795160437846E-03 
945	 8.05125816409002E-03 
946	 7.71119183742797E-03 
947	 8.81425718223365E-03 
948	 7.78328423281204E-03 
949	 0.006171416300068 
950	 5.50008046547799E-03 
951	 6.60601018613458E-03 
952	 8.40026226467654E-03 
953	 9.38738014159283E-03 
954	 8.9231974852399E-03 
955	 7.3518945905915E-03 
956	 6.24487321439392E-03 
957	 7.7666264425522E-03 
958	 9.73245534469619E-03 
959	 8.26727183401925E-03 
960	 7.78028655345413E-03 
961	 7.1242721012966E-03 
962	 7.5891787547829E-03 
963	 1.09847824480973E-02 
964	 1.02105129605201E-02 
965	 9.24312243332205E-03 
966	 9.16660568272823E-03 
967	 8.58050506296873E-03 
968	 8.80147900724241E-03 
969	 8.85709043986312E-03 
970	 8.82849587789644E-03 
971	 9.50774389416571E-03 
972	 8.20972126424766E-03 
973	 8.50772391524852E-03 
974	 1.04204115578161E-02 
975	 1.02429100256571E-02 
976	 9.3070458945738E-03 
977	 8.64210525682099E-03 
978	 8.72401670346284E-03 
979	 9.38156055633987E-03 
980	 1.01645704166632E-02 
981	 9.52963081034529E-03 
982	 8.72537146289903E-03 
983	 1.03918542867073E-02 
984	 1.03340194200445E-02 
985	 1.01166427528804E-02 
986	 1.02217671072965E-02 
987	 1.00053491827446E-02 
988	 1.04576548455911E-02 
989	 0.010389954348822 
990	 9.98158665795306E-03 
991	 1.03016224056829E-02 
992	 1.00488755035198E-02 
993	 1.03986832026519E-02 
994	 1.09710140376944E-02 
995	 1.05368028029583E-02 
996	 1.03481861813905E-02 
997	 1.10683509436963E-02 
998	 1.16721727039263E-02 
999	 1.07590889747039E-02 
1000	 1.06496075980818E-02 
1001	 8.84792797016979E-03 
1002	 8.54204603639649E-03 
1003	 8.43512482684396E-03 
1004	 8.40460149582679E-03 
1005	 8.39136567226575E-03 
1006	 8.4935172717022E-03 
1007	 8.40669496239859E-03 
1008	 8.60070840080438E-03 
1009	 8.73503413894538E-03 
1010	 8.6000083041883E-03 
1011	 8.65010585955981E-03 
1012	 8.70974311005695E-03 
1013	 8.6158926851176E-03 
1014	 8.5678228588457E-03 
1015	 8.58266781626374E-03 
1016	 8.66719434208845E-03 
1017	 8.78387251546795E-03 
1018	 8.80731650556506E-03 
1019	 8.86903058376686E-03 
1020	 8.90617298856032E-03 
1021	 8.89005969032164E-03 
1022	 8.72515409871066E-03 
1023	 8.60864682980983E-03 
1024	 8.89526147472585E-03 
1025	 9.08923932957713E-03 
1026	 9.10677618720441E-03 
1027	 9.24004828437901E-03 
1028	 9.58203119070844E-03 
1029	 9.46040982147543E-03 
1030	 9.0645126541457E-03 
1031	 8.90613665883844E-03 
1032	 8.42913415564329E-03 
1033	 8.38768412169601E-03 
1034	 8.79597351073212E-03 
1035	 8.99078948537133E-03 
1036	 9.20707010388914E-03 
1037	 9.44967153009557E-03 
1038	 9.79700959451382E-03 
1039	 9.94048014189482E-03 
1040	 1.00032637515403E-02 
1041	 9.97657567113221E-03 
1042	 9.83179962311266E-03 
1043	 9.39216100106551E-03 
1044	 9.13237587990963E-03 
1045	 8.75916573060685E-03 
1046	 8.75625456805656E-03 
1047	 8.98752216936766E-03 
1048	 9.05662700885573E-03 
1049	 9.41933620963918E-03 
1050	 9.47860854904334E-03 
1051	 9.20213983451812E-03 
1052	 9.08514713573347E-03 
1053	 8.87193700710973E-03 
1054	 8.82835409589177E-03 
1055	 8.90807520607617E-03 
1056	 8.98730315866117E-03 
1057	 9.12155677068097E-03 
1058	 9.4691713620387E-03 
1059	 9.48729635240741E-03 
1060	 9.3519115878339E-03 
1061	 9.3015681256407E-03 
1062	 9.07136755138613E-03 
1063	 9.04153498622855E-03 
1064	 9.17871570090036E-03 
1065	 9.23336718593329E-03 
1066	 9.33389392746541E-03 
1067	 9.3764696609429E-03 
1068	 9.42702979519271E-03 
1069	 9.39661714111829E-03 
1070	 9.20455137170129E-03 
1071	 9.1531549321873E-03 
1072	 9.20854485940822E-03 
1073	 9.09567337946595E-03 
1074	 9.10920368873848E-03 
1075	 9.27724534917847E-03 
1076	 9.2816841216831E-03 
1077	 9.19223070398439E-03 
1078	 9.14920269140707E-03 
1079	 9.0496936949428E-03 
1080	 9.01927266249327E-03 
1081	 9.10265102544463E-03 
1082	 9.08084913532836E-03 
1083	 8.99059662019388E-03 
1084	 8.96443121405866E-03 
1085	 8.87437619894366E-03 
1086	 8.80219156273102E-03 
1087	 8.86315019075592E-03 
1088	 8.86285316949229E-03 
1089	 8.76223540086748E-03 
1090	 8.74138020548466E-03 
1091	 8.7341995641092E-03 
1092	 8.69848096002303E-03 
1093	 8.70157913950119E-03 
1094	 8.94694207047276E-03 
1095	 8.78966882540836E-03 
1096	 0.008270910765737 
1097	 8.10865525790749E-03 
1098	 7.70121798380482E-03 
1099	 7.63940722939773E-03 
1100	 8.43428212230089E-03 
1101	 8.48619710196845E-03 
1102	 8.03917424288932E-03 
1103	 7.90128917556713E-03 
1104	 7.59428019427891E-03 
1105	 7.16214661703251E-03 
1106	 6.99199098632656E-03 
1107	 7.29434642813943E-03 
1108	 7.32727661438885E-03 
1109	 6.9757042248134E-03 
1110	 7.12467019699501E-03 
1111	 7.89736778550106E-03 
1112	 7.85278975140185E-03 
1113	 7.7237381667953E-03 
1114	 7.45955122912847E-03 
1115	 5.70498568253337E-03 
1116	 5.00822077850694E-03 
1117	 5.65985447263592E-03 
1118	 5.12607231955925E-03 
1119	 4.17640321194612E-03 
1120	 3.45656484400651E-03 
1121	 1.58462456375425E-03 
1122	-5.6197064546724E-04 
1123	 7.09247850882826E-04 
1124	 3.93405373463973E-03 
1125	 6.61520977834232E-03 
1126	 7.11997965102725E-03 
1127	 3.51389165124002E-03 
1128	 4.13571951402968E-04 
1129	-1.52750224666891E-04 
1130	-6.63923668202266E-04 
1131	 8.14387591793994E-04 
1132	 4.5754954504964E-03 
1133	 5.90421465051967E-03 
1134	 7.91278762818817E-03 
1135	 7.89975928855306E-03 
1136	 5.82978051543088E-03 
1137	 6.09461577260023E-03 
1138	 0.006878361824173 
1139	 6.8378423830112E-03 
1140	 7.55013817468081E-03 
1141	 7.24386026995284E-03 
1142	 6.45660945498644E-03 
1143	 5.9132013068384E-03 
1144	 4.43764625164007E-03 
1145	 4.71692219041581E-03 
1146	 7.06506956678945E-03 
1147	 6.48361300380975E-03 
1148	 4.76112649076652E-03 
1149	 5.49782985783501E-03 
1150	 5.82729281715192E-03 
1151	 4.60131738409195E-03 
1152	 4.95615161311311E-03 
1153	 7.46748580283384E-03 
1154	 7.34899080496796E-03 
1155	 5.84204163346649E-03 
1156	 6.13542842684771E-03 
1157	 6.03912465010909E-03 
1158	 5.58995731276992E-03 
1159	 6.51946507825321E-03 
1160	 6.86308650291317E-03 
1161	 6.44730333585742E-03 
1162	 6.53954697249147E-03 
1163	 6.60771060580293E-03 
1164	 6.44003088331153E-03 
1165	 6.58929155494526E-03 
1166	 6.72819095821768E-03 
1167	 6.63791122497641E-03 
1168	 6.85219990755982E-03 
1169	 7.23765026203768E-03 
1170	 7.3237951631211E-03 
1171	 7.35188756899224E-03 
1172	 7.21622463602065E-03 
1173	 7.28024543834376E-03 
1174	 7.36068797625113E-03 
1175	 7.33570161919891E-03 
1176	 7.40050588167245E-03 
1177	 7.29250216543966E-03 
1178	 7.0479484916539E-03 
1179	 7.15028052859486E-03 
1180	 7.34357825757791E-03 
1181	 7.52142394460082E-03 
1182	 7.42132651926446E-03 
1183	 7.17686719275916E-03 
1184	 7.22045636617117E-03 
1185	 7.22209457419893E-03 
1186	 7.11778338666045E-03 
1187	 7.07434016246499E-03 
1188	 7.22778789011967E-03 
1189	 7.33058782948373E-03 
1190	 7.28617838895157E-03 
1191	 7.43624871016119E-03 
1192	 7.53007244941281E-03 
1193	 7.50173484764573E-03 
1194	 7.34095888155134E-03 
1195	 7.44214398141079E-03 
1196	 7.50779973251485E-03 
1197	 7.34320416628286E-03 
1198	 7.26086582073318E-03 
1199	 7.34321316161384E-03 
1200	 7.26112308350706E-03 
1201	 7.00293805687399E-03 
1202	 6.99913584780212E-03 
1203	 7.10640108277878E-03 
1204	 7.29390324365369E-03 
1205	 7.58351037732166E-03 
1206	 7.60567451628125E-03 
1207	 7.56307205311931E-03 
1208	 7.45646757957948E-03 
1209	 7.35056710770374E-03 
1210	 7.52262041043172E-03 
1211	 7.60297057140029E-03 
1212	 7.60894418386351E-03 
1213	 7.73178062441342E-03 
1214	 7.75645097460763E-03 
1215	 7.70264394189941E-03 
1216	 7.61484432276984E-03 
1217	 7.70814394231186E-03 
1218	 7.85917714382831E-03 
1219	 7.85119973157214E-03 
1220	 7.76943338535818E-03 
1221	 7.73787078284808E-03 
1222	 7.6983813534613E-03 
1223	 7.80567842596915E-03 
1224	 8.14417260848282E-03 
1225	 8.30334708275992E-03 
1226	 8.07201742750615E-03 
1227	 7.9766036494314E-03 
1228	 8.02339149674611E-03 
1229	 7.95998237986331E-03 
1230	 8.0369744287272E-03 
1231	 8.05342347520806E-03 
1232	 8.03255685090121E-03 
1233	 8.02880383103078E-03 
1234	 7.88685359636275E-03 
1235	 7.90641386314698E-03 
1236	 8.09623952961308E-03 
1237	 8.10305384863832E-03 
1238	 8.04806457950912E-03 
1239	 8.12422020398152E-03 
1240	 8.09817299797408E-03 
1241	 7.9356151607516E-03 
1242	 7.87048639598969E-03 
1243	 8.11382906887003E-03 
1244	 8.34797694490964E-03 
1245	 8.21599424051182E-03 
1246	 8.08039145086172E-03 
1247	 7.97357450888555E-03 
1248	 7.72417354241578E-03 
1249	 7.68724993456025E-03 
1250	 7.88899445995107E-03 
1251	 7.93795140776518E-03 
1252	 8.0158454748712E-03 
1253	 8.2939011877804E-03 
1254	 8.20069638656179E-03 
1255	 7.79143308456025E-03 
1256	 7.72929544529827E-03 
1257	 7.69771133471755E-03 
1258	 7.66717815973991E-03 
1259	 7.97231388752562E-03 
1260	 8.07306036394905E-03 
1261	 7.89314750589933E-03 
1262	 7.77497952561431E-03 
1263	 0.007599526110886 
1264	 7.71811079031572E-03 
1265	 7.71811766341645E-03 
1266	 7.58815000160208E-03 
1267	 7.71495917952139E-03 
1268	 7.82288072199292E-03 
1269	 7.69525518725357E-03 
1270	 7.68539500023339E-03 
1271	 7.7550628279343E-03 
1272	 7.70235212121608E-03 
1273	 7.62249720756535E-03 
1274	 7.71130115576646E-03 
1275	 7.94418801273582E-03 
1276	 7.89517773073789E-03 
1277	 7.74269526327974E-03 
1278	 7.85396079115444E-03 
1279	 7.84964076091718E-03 
1280	 7.76600455628519E-03 
1281	 7.69654526910635E-03 
1282	 7.70627043791191E-03 
1283	 7.71090582339629E-03 
1284	 7.63108834258415E-03 
1285	 7.61133529429844E-03 
1286	 7.81417381183745E-03 
1287	 7.84186812570004E-03 
1288	 7.56579782514821E-03 
1289	 7.54422137223042E-03 
1290	 7.67657084576871E-03 
1291	 7.78099093604027E-03 
1292	 7.61509797621321E-03 
1293	 7.50236567074585E-03 
1294	 7.48638546157278E-03 
1295	 7.40725297301083E-03 
1296	 7.34073641252544E-03 
1297	 7.40934062904705E-03 
1298	 7.43389566755568E-03 
1299	 7.24890478087821E-03 
1300	 7.0649666042156E-03 
1301	 7.0683672674116E-03 
1302	 7.32243988580378E-03 
1303	 7.45414928902934E-03 
1304	 7.05341658890181E-03 
1305	 7.04488411622981E-03 
1306	 7.17921200798566E-03 
1307	 6.97826545619144E-03 
1308	 6.82622308032107E-03 
1309	 7.43897361316627E-03 
1310	 7.47674902692724E-03 
1311	 6.61003181374974E-03 
1312	 6.53435419541071E-03 
1313	 7.13884695697218E-03 
1314	 7.07111638468017E-03 
1315	 6.70870752367801E-03 
1316	 6.68537042848947E-03 
1317	 6.52211123560826E-03 
1318	 6.30171055432537E-03 
1319	 6.37757644803416E-03 
1320	 6.45555332357758E-03 
1321	 6.47550455674074E-03 
1322	 6.11909890658702E-03 
1323	 6.18287628432383E-03 
1324	 6.60563411234466E-03 
1325	 6.46072644597062E-03 
1326	 0.006001792492904 
1327	 6.02432481276988E-03 
1328	 5.99733843502889E-03 
1329	 5.41900503608864E-03 
1330	 5.14349360209585E-03 
1331	 5.75358811224406E-03 
1332	 6.44421740285113E-03 
1333	 5.89490600023529E-03 
1334	 5.07469999914284E-03 
1335	 5.28182852685556E-03 
1336	 5.05155267966808E-03 
1337	 0.004432212617032 
1338	 5.01617736247213E-03 
1339	 5.45452905235305E-03 
1340	 4.30038185173311E-03 
1341	 3.78909176243569E-03 
1342	 5.11160953400684E-03 
1343	 5.78865831130088E-03 
1344	 5.07079354162549E-03 
1345	 4.81668584840082E-03 
1346	 6.70918426697857E-03 
1347	 6.92461285466563E-03 
1348	 2.03958884468622E-03 
1349	 5.41404858284456E-05 
1350	 1.76221108210554E-03 
1351	 1.05053633691452E-04 
1352	 3.26977120924032E-04 
1353	 6.20770443909088E-03 
1354	 2.67833278957072E-02 
1355	 1.50180450830964E-02 
1356	 1.83911362716515E-03 
1357	 3.65469863949575E-02 
1358	 9.11751093710273E-02 
1359	 0.104962769567345 
1360	 4.28290382461303E-02 
1361	-2.51221759152729E-02 
1362	-0.108708594064407 
1363	-0.198231355308092 
1364	-0.110733342848455 
1365	 0.039963515175306 
1366	-1.98384207184639E-02 
1367	-0.151250279212153 
1368	-0.103395661694691 
1369	 7.87519256312219E-02 
1370	 0.103128694722319 
1371	 0.1046671087001 
1372	 0.162145725454042 
1373	 0.277971179477691 
1374	 0.125206425598742 
1375	-9.90261340414713E-02 
1376	-0.118330442941467 
1377	-1.10039910074789 
1378	-0.904743653830443 
1379	 1.43601515393288E-02 
1380	 0.132311146365292 
1381	 0.385224568257456 
1382	 0.326520745956878 
1383	-0.129329260080798 
1384	-0.315041429309902 
1385	-0.550784009086253 
1386	-0.448368440573339 
1387	 0.367004181472239 
1388	 0.541135560217386 
1389	-5.31691822032572E-02 
1390	-0.134618546502918 
1391	-0.272874891288938 
1392	-0.465656871865074 
1393	-0.379319453195251 
1394	-0.19229549854039 
1395	 7.55615185761846E-02 
1396	-2.38014590121091E-02 
1397	-0.44027518181822 
1398	 8.17024492112685E-02 
1399	 0.330504658698281 
1400	-0.154672061552746 
1401	-0.53128003093003 
1402	-0.229683142043625 
1403	 0.137654247904802 
1404	 0.050451580923021 
1405	-3.30105710601122E-02 
1406	-0.027762921216128 
1407	 3.24408757414236E-02 
1408	-0.055662901075444 
1409	-0.137277829575508 
1410	-0.115713019468803 
1411	-0.101183225582122 
1412	-0.17734357695093 
1413	-0.193599569251291 
1414	-0.112141876960251 
1415	-0.080745720334019 
1416	-0.128906438246421 
1417	-0.102178068989676 
1418	-2.34137337910899E-02 
1419	 8.0942216416645E-03 
1420	 0.045753063504257 
1421	 2.80316813847668E-02 
1422	-3.03572447797617E-02 
1423	-2.27428143788241E-02 
1424	 7.26648388457306E-03 
1425	 1.37224114184508E-03 
1426	-0.014488850103049 
1427	-5.90686539870763E-04 
1428	 1.95795068160014E-02 
1429	 0.012633046474013 
1430	 1.62842744327386E-02 
1431	 2.24206930727694E-02 
1432	 1.08345736349625E-03 
1433	-1.03496669528357E-02 
1434	-3.02014069260567E-03 
1435	-6.34094289375744E-04 
1436	-6.82060451968911E-03 
1437	-0.011869328431407 
1438	-2.51935130741719E-03 
1439	 1.19197613680118E-02 
1440	 6.31488720499952E-03 
1441	-2.04499331719447E-03 
1442	-7.02088392305254E-03 
1443	-1.55628811976946E-02 
1444	-1.12685602846549E-02 
1445	-2.7011588018995E-03 
1446	-2.17621510665028E-04 
1447	 1.82803970235282E-03 
1448	 4.05831737070496E-03 
1449	 4.73355191808199E-03 
1450	 4.13057434804081E-03 
1451	 4.23981736880971E-03 
1452	 3.58282319474311E-03 
1453	 2.45615271513211E-03 
1454	 2.9715687487991E-03 
1455	 5.71734543957006E-03 
1456	 5.87711905422786E-03 
1457	 5.14334097568965E-03 
1458	 5.00694571440114E-03 
1459	 4.17721667917412E-03 
1460	 4.34756576969625E-03 
1461	 5.63379186287168E-03 
1462	 5.59059990484629E-03 
1463	 5.07668417540314E-03 
1464	 5.49013922273513E-03 
1465	 5.7930803233843E-03 
1466	 5.15814570941617E-03 
1467	 4.52207951566247E-03 
1468	 4.90168563040991E-03 
1469	 4.96865747350427E-03 
1470	 4.69802017577322E-03 
1471	 5.60837501791054E-03 
1472	 5.84321728268369E-03 
1473	 4.78246787252004E-03 
1474	 4.09429067013713E-03 
1475	 3.17598180786265E-03 
1476	 4.45980077748345E-03 
1477	 8.01831295463418E-03 
1478	 6.87265010089206E-03 
1479	 3.37679069915839E-03 
1480	 4.08175234553931E-03 
1481	 5.04231705733715E-03 
1482	 4.42378110059539E-03 
1483	 5.53860121553568E-03 
1484	 6.17215695496528E-03 
1485	 4.56734304533279E-03 
1486	 4.01726534462297E-03 
1487	 5.15730459320885E-03 
1488	 5.55275881959194E-03 
1489	 4.8118565930666E-03 
1490	 4.79340374477838E-03 
1491	 5.66520635854852E-03 
1492	 5.74757019945317E-03 
1493	 5.26003757418818E-03 
1494	 5.38762938399815E-03 
1495	 5.59388111083498E-03 
1496	 5.69055063824686E-03 
1497	 5.98957855622835E-03 
1498	 6.29548720305639E-03 
1499	 6.61266577162095E-03 
1500	 6.70676427782817E-03 
1501	 6.86111170466106E-03 
1502	 6.88441992742859E-03 
1503	 6.45167379673759E-03 
1504	 6.41058956807626E-03 
1505	 6.66959251423487E-03 
1506	 6.84472215280524E-03 
1507	 6.6992635567715E-03 
1508	 6.60437956050693E-03 
1509	 6.95028095886586E-03 
1510	 6.95573188355501E-03 
1511	 6.66594085844676E-03 
1512	 6.78275969086939E-03 
1513	 6.84181337601259E-03 
1514	 6.72655148503649E-03 
1515	 6.8620055366388E-03 
1516	 7.07230099774068E-03 
1517	 7.08036682120487E-03 
1518	 6.95073851512313E-03 
1519	 6.90537929634099E-03 
1520	 7.00609367196198E-03 
1521	 7.16489090468831E-03 
1522	 7.28690682798378E-03 
1523	 7.28804255745689E-03 
1524	 7.21473001403634E-03 
1525	 7.11374477884555E-03 
1526	 6.94737370171211E-03 
1527	 6.80595030418992E-03 
1528	 0.006891352291011 
1529	 7.21858254578665E-03 
1530	 7.27914040693242E-03 
1531	 7.06143952803576E-03 
1532	 7.27831393156618E-03 
1533	 7.50065046286143E-03 
1534	 7.18503789548723E-03 
1535	 7.0736669200549E-03 
1536	 7.31100782151266E-03 
1537	 7.34591283743949E-03 
1538	 7.25545910194199E-03 
1539	 7.31162037228815E-03 
1540	 7.3378460509285E-03 
1541	 7.16126111366644E-03 
1542	 7.24225675229314E-03 
1543	 7.52013914578911E-03 
1544	 7.44243128404339E-03 
1545	 7.35625589952504E-03 
1546	 7.37199299343698E-03 
1547	 7.3159546632027E-03 
1548	 7.40653206676592E-03 
1549	 7.45456208314173E-03 
1550	 7.4314782927784E-03 
1551	 7.45955917236568E-03 
1552	 7.47237451387681E-03 
1553	 7.53958295632289E-03 
1554	 7.5718849418147E-03 
1555	 7.57612799038819E-03 
1556	 7.56272257554236E-03 
1557	 7.44497707318267E-03 
1558	 7.40657935768571E-03 
1559	 7.44420867468321E-03 
1560	 7.42256640170088E-03 
1561	 7.27755229671354E-03 
1562	 7.16055962056635E-03 
1563	 7.28787819583767E-03 
1564	 7.34195229436753E-03 
1565	 7.38987578591967E-03 
1566	 7.58984398238976E-03 
1567	 7.64304807858147E-03 
1568	 7.50364718202758E-03 
1569	 7.38701620804162E-03 
1570	 7.48405792500296E-03 
1571	 7.44963585500395E-03 
1572	 0.007333881526735 
1573	 7.51247082181826E-03 
1574	 7.54428856902484E-03 
1575	 7.20248030001747E-03 
1576	 6.98678022202387E-03 
1577	 7.23012647395196E-03 
1578	 7.43756551048917E-03 
1579	 7.35140189280102E-03 
1580	 0.007339065475124 
1581	 7.36388103685103E-03 
1582	 7.30187303157753E-03 
1583	 7.27238434884683E-03 
1584	 7.46148887675843E-03 
1585	 7.61714688474422E-03 
1586	 7.48206596452627E-03 
1587	 7.52743172680841E-03 
1588	 7.70592723326601E-03 
1589	 7.46034583913027E-03 
1590	 7.08210568583036E-03 
1591	 7.08176011438803E-03 
1592	 7.14840186365632E-03 
1593	 7.06340983447514E-03 
1594	 7.26675643137327E-03 
1595	 7.6111983943361E-03 
1596	 7.63681852248595E-03 
1597	 7.52322026857596E-03 
1598	 7.3857367207003E-03 
1599	 7.10290421597381E-03 
1600	 6.91603451026051E-03 
1601	 7.09349083419041E-03 
1602	 7.30878101880283E-03 
1603	 7.31701667341209E-03 
1604	 7.2919449397282E-03 
1605	 7.24390120973676E-03 
1606	 7.17139880929697E-03 
1607	 7.02523730774402E-03 
1608	 6.95867695110658E-03 
1609	 7.11512243063737E-03 
1610	 7.16746589603707E-03 
1611	 7.12785998873304E-03 
1612	 7.12561547901441E-03 
1613	 7.14061170739798E-03 
1614	 7.24284278616248E-03 
1615	 7.42055938364765E-03 
1616	 7.49303838840381E-03 
1617	 0.007275272004044 
1618	 7.17625192236043E-03 
1619	 7.30478231536525E-03 
1620	 7.20418826390765E-03 
1621	 7.23817371230728E-03 
1622	 7.3848882038312E-03 
1623	 7.24619211401368E-03 
1624	 7.28955177254381E-03 
1625	 7.41392290517188E-03 
1626	 7.4726423862528E-03 
1627	 7.67641449205315E-03 
1628	 7.63463279662735E-03 
1629	 7.52477297366853E-03 
1630	 7.51524029681384E-03 
1631	 7.27593672258873E-03 
1632	 7.25224816652264E-03 
1633	 7.4405799509633E-03 
1634	 7.35229515074288E-03 
1635	 7.1724383874535E-03 
1636	 7.16793516826895E-03 
1637	 7.23892888748599E-03 
1638	 7.08801780059029E-03 
1639	 7.02982583798778E-03 
1640	 7.19609048470556E-03 
1641	 7.27474500131008E-03 
1642	 7.35491684842638E-03 
1643	 7.31020924134811E-03 
1644	 7.31702257782022E-03 
1645	 7.54536213652778E-03 
1646	 7.55842485013926E-03 
1647	 7.41883065337968E-03 
1648	 7.36980511215841E-03 
1649	 7.16951554968178E-03 
1650	 6.9328422309083E-03 
1651	 7.22113332540925E-03 
1652	 7.44307743087941E-03 
1653	 6.83554572353414E-03 
1654	 6.8734503497738E-03 
1655	 7.22458606707146E-03 
1656	 7.2032336555757E-03 
1657	 7.28543210587045E-03 
1658	 7.34577134428712E-03 
1659	 7.11745278580674E-03 
1660	 7.01348587091481E-03 
1661	 7.05337307345724E-03 
1662	 7.14764503768994E-03 
1663	 7.35057607736548E-03 
1664	 7.27704994505637E-03 
1665	 7.09031133892293E-03 
1666	 7.13519648540334E-03 
1667	 7.06029358459073E-03 
1668	 6.99205872924026E-03 
1669	 7.08714174964131E-03 
1670	 7.14251538660335E-03 
1671	 6.96922762729745E-03 
1672	 6.90099560472938E-03 
1673	 7.07512303971928E-03 
1674	 7.17020533717952E-03 
1675	 7.1217341111339E-03 
1676	 7.07501924718948E-03 
1677	 7.07550594208667E-03 
1678	 7.04733606804061E-03 
1679	 7.00420979030075E-03 
1680	 7.10177305483721E-03 
1681	 7.25564413133034E-03 
1682	 7.23847395271445E-03 
1683	 7.25670893545903E-03 
1684	 7.46575401743799E-03 
1685	 7.1889527297393E-03 
1686	 6.66763393894427E-03 
1687	 6.79952818574969E-03 
1688	 7.03475769428528E-03 
1689	 7.12013798573839E-03 
1690	 7.5321500692812E-03 
1691	 7.78023189948748E-03 
1692	 7.30770072034967E-03 
1693	 6.97555856452054E-03 
1694	 7.38538881594327E-03 
1695	 7.5420637808924E-03 
1696	 7.27525205548003E-03 
1697	 7.40228885144451E-03 
1698	 7.50736332421954E-03 
1699	 7.24654321072618E-03 
1700	 7.06498111796888E-03 
1701	 6.93381184833909E-03 
1702	 6.85061480179234E-03 
1703	 6.79599542491123E-03 
1704	 6.85623780945608E-03 
1705	 7.0388013335254E-03 
1706	 6.90575138727399E-03 
1707	 7.05311284434523E-03 
1708	 7.50186109260216E-03 
1709	 7.51674310358821E-03 
1710	 7.51326383539263E-03 
1711	 7.12389606710264E-03 
1712	 6.55851704739801E-03 
1713	 7.48312240140184E-03 
1714	 7.43414487707769E-03 
1715	 6.64311194875293E-03 
1716	 6.74776836254648E-03 
1717	 6.89600731648267E-03 
1718	 6.87704586379851E-03 
1719	 0.006852818148794 
1720	 6.79676565250682E-03 
1721	 6.20001596619098E-03 
1722	 6.02663829393494E-03 
1723	 7.02353006541585E-03 
1724	 7.33933918554518E-03 
1725	 6.84897933362835E-03 
1726	 6.74066519912832E-03 
1727	 6.48775917130458E-03 
1728	 6.31162576329393E-03 
1729	 6.61053237556155E-03 
1730	 6.78503182049446E-03 
1731	 6.50538332008348E-03 
1732	 6.21080732634862E-03 
1733	 6.59362270690156E-03 
1734	 7.02200512261741E-03 
1735	 6.82779152691727E-03 
1736	 6.36558530345011E-03 
1737	 6.3165635316018E-03 
1738	 6.73674205263746E-03 
1739	 6.81941677731178E-03 
1740	 6.59841305277123E-03 
1741	 6.21057974856633E-03 
1742	 6.0477789037643E-03 
1743	 6.18900016691011E-03 
1744	 6.39443422209083E-03 
1745	 6.75289803853692E-03 
1746	 5.99804805924268E-03 
1747	 5.84762407822996E-03 
1748	 6.80632621851442E-03 
1749	 7.00266400207726E-03 
1750	 6.44746830912441E-03 
1751	 6.43190019169143E-03 
1752	 6.51842714828052E-03 
1753	 6.48686073118975E-03 
1754	 6.77169678770964E-03 
1755	 6.94103595680708E-03 
1756	 7.18664713475379E-03 
1757	 6.45441335123487E-03 
1758	 5.81092496232972E-03 
1759	 5.91513558899017E-03 
1760	 5.52322312969372E-03 
1761	 5.86591209781806E-03 
1762	 6.64189125955556E-03 
1763	 6.09371860624153E-03 
1764	 6.01837348424382E-03 
1765	 6.84971157790566E-03 
1766	 6.99408678129289E-03 
1767	 6.53530826166868E-03 
1768	 6.0550468221496E-03 
1769	 5.39449264129165E-03 
1770	 4.9174881918452E-03 
1771	 6.0124149129294E-03 
1772	 6.87635916802989E-03 
1773	 5.50201729465568E-03 
1774	 4.75102859682543E-03 
1775	 3.2306751676427E-03 
1776	 2.81997539260212E-03 
1777	 5.10400765577726E-03 
1778	 5.2331042070812E-03 
1779	 4.28977496697588E-03 
1780	 4.48759276175479E-03 
1781	 3.82025238932392E-03 
1782	 3.93967888152451E-03 
1783	 6.12098312175935E-03 
1784	 5.41597503264035E-03 
1785	 2.26482416145448E-03 
1786	 2.05298160715317E-03 
1787	 1.57764317064626E-03 
1788	 2.87289676911959E-03 
1789	 8.83074136132078E-03 
1790	 6.42797474069479E-03 
1791	 6.06042984137466E-03 
1792	 5.00845819019803E-03 
1793	 2.15881818481836E-03 
1794	 7.17255017843345E-03 
1795	 0.012608555500706 
1796	 1.42909733194978E-02 
1797	 1.41985198311269E-02 
1798	 1.82174139862855E-03 
1799	-9.24994250586797E-03 
1800	-7.7591758177534E-03 
1801	-8.88501495313722E-03 
1802	 7.62664293728322E-03 
1803	 0.012584886981603 
1804	-8.98801491905686E-03 
1805	-7.78946733048411E-03 
1806	 2.19172251014282E-02 
1807	 3.73127197139885E-02 
1808	 6.62141002013818E-02 
1809	 0.071937234328618 
1810	-0.024249663260193 
1811	-1.85123657725083E-02 
1812	 0.112906623632618 
1813	 0.181421535350567 
1814	 0.409750712457098 
1815	 0.438510500265926 
1816	 2.47995664653049E-02 
1817	-3.83580807954327E-02 
1818	-0.28014723439967 
1819	-0.119241261658912 
1820	-8.63947451534627E-02 
1821	-3.93641157407803E-02 
1822	 7.41774206362803E-02 
1823	 0.554837457077825 
1824	 0.828412310675026 
1825	 1.19026335341826 
1826	 1.16909427722909 
1827	 0.315782354743608 
1828	 5.45386376485599E-03 
1829	-0.340163126905113 
1830	-0.458798658445537 
1831	 5.47388915480737 
1832	-91.5723212285635 
1833	-0.633132938582888 
1834	-0.276654059638715 
1835	-1.03563272276213 
1836	-2.3482761430358 
1837	 0.61697866677937 
1838	 0.41880631797657 
1839	-6.73690114918228E-02 
1840	-4.70972080373006E-02 
1841	 9.06862177080245E-02 
1842	-2.73593903626473E-02 
1843	 9.58801923657217E-02 
1844	 4.01226856216105E-02 
1845	 7.55412286347545E-02 
1846	 0.248119549325863 
1847	 0.289585420328344 
1848	 0.546857769442146 
1849	 0.245652960478092 
1850	-4.72986099143594E-02 
1851	-5.32053832881763E-02 
1852	-0.124565638023747 
1853	 6.40671936458142E-02 
1854	 0.156496293592116 
1855	 0.300806194148221 
1856	 0.508102044703751 
1857	-4.29430737024636 
1858	-3.0526213745129 
1859	 1.86255390752439 
1860	 1.1658587167985 
1861	 1.15411715275287 
1862	 1.41950637497205 
1863	 1.90545070262062 
1864	 23.3175191457906 
1865	-3.68115707312884 
1866	 1.28733442614242 
1867	 0.761483411618393 
1868	 4.67892006621341 
1869	 13.530087469041 
1870	 3.85885020717262 
1871	 4.91245698844349 
1872	-1.4451241374145 
1873	-5.49302092346247 
1874	-0.216075517055333 
1875	 0.385329783033201 
1876	 0.328736923148003 
1877	 0.151190025612462 
1878	 0.271715828467961 
1879	-1.58943675936107 
1880	-0.638305941367649 
1881	-0.73775493162553 
1882	-0.79080030054799 
1883	-2.35275846960258 
1884	-3.25316879219674 
1885	-0.832023952690048 
1886	-0.832738475231386 
1887	 0.221442998620156 
1888	-0.192490168326878 
1889	 0.21796403180025 
1890	 2.5445140692724 
1891	 2.51440591714459 
1892	 6.60471990324438 
1893	 2.226503969765 
1894	 0.470628699401427 
1895	 0.318480402578946 
1896	 0.978704117725182 
1897	 16.328158470053 
1898	-3.79057191984816 
1899	 65.6280646775108 
1900	 6.5557832334963 
1901	 0.786428228606917 
1902	 0.253965403970685 
1903	-7.70225555307428E-02 
1904	-0.821974316896443 
1905	-1.47257917012913 
1906	-0.771335507312702 
1907	-0.390835722371778 
1908	 3.08304182855785E-02 
1909	 0.703493872903508 
1910	 6.96764306734547 
1911	-1.77793133869926 
1912	-1.39832768799179 
1913	-1.8741211013166 
1914	 2.00790782351876 
1915	 1.17013915945705 
1916	 0.812695019669656 
1917	 0.427393824978539 
1918	 0.153248052385515 
1919	-0.207181665280717 
1920	-0.543326968858025 
1921	-0.278383957174334 
1922	-0.206477457213894 
1923	-0.147480572599675 
1924	 0.15254077987897 
1925	 0.512093375094856 
1926	 1.44007769206176 
1927	 8.72023497533034 
1928	-3.14682235962859 
1929	-0.878536155654297 
1930	-0.146224922879898 
1931	 3.77704435917462E-02 
1932	 1.08186272902655 
1933	 1.05861764594406 
1934	 0.246764499195715 
1935	-7.95877967366018E-02 
1936	-0.399399902795053 
1937	-0.58885498045489 
1938	-0.53091047395408 
1939	-0.43231592549555 
1940	-0.251872014447145 
1941	-9.16038154810664E-02 
1942	-0.038146464924439 
1943	-6.74925666240509E-02 
1944	-4.38367107635557E-02 
1945	-2.66560765543078E-02 
1946	-4.39767045633065E-02 
1947	-8.03500884679765E-02 
1948	-7.24011110635211E-02 
1949	-6.86156481903798E-02 
1950	-8.98006560554484E-02 
1951	-5.93652076632865E-02 
1952	-3.03818371732169E-02 
1953	 5.30086840327003E-03 
1954	 1.09638861702899E-02 
1955	 1.25715117807281E-02 
1956	 9.60020058376642E-03 
1957	-6.77333892941651E-03 
1958	-2.84265165116182E-02 
1959	-2.64899959394075E-02 
1960	-1.46739225361081E-02 
1961	-1.38356259889412E-02 
1962	-6.0881355944246E-03 
1963	 3.5088583348815E-03 
1964	 2.43751568203063E-03 
1965	 1.46742005782052E-03 
1966	 2.4421336772041E-03 
1967	 3.62899953788579E-03 
1968	 2.46406454204711E-03 
1969	 4.00938612477483E-03 
1970	 6.20827362044221E-03 
1971	 4.74445582957254E-03 
1972	 3.33643325064794E-03 
1973	 3.13280803107854E-03 
1974	 2.73994886261599E-03 
1975	 2.63607989129926E-03 
1976	 3.67798245314114E-03 
1977	 4.77754204382252E-03 
1978	 4.87315935314803E-03 
1979	 4.72356844356912E-03 
1980	 4.93967871666715E-03 
1981	 4.97846200815863E-03 
1982	 3.66359570327625E-03 
1983	 2.72552337183404E-03 
1984	 3.23515946890203E-03 
1985	 2.51466607997255E-03 
1986	 2.90992098081487E-03 
1987	 4.6284373960686E-03 
1988	 4.79330649582455E-03 
1989	 4.6971769465621E-03 
1990	 4.34333468523262E-03 
1991	 3.34657125379486E-03 
1992	 2.61563203890494E-03 
1993	 2.87640128742617E-03 
1994	 2.85410486825425E-03 
1995	 2.76989875462737E-03 
1996	 2.60474822042942E-03 
1997	 2.76674707049906E-03 
1998	 2.86933553648424E-03 
1999	 4.87796760112359E-03 
2000	 3.99523968820751E-03 
2001	 1.51995290373466E-03 
2002	 2.79460800886049E-03 
2003	 3.59720972940776E-03 
2004	 5.46142144071791E-03 
2005	 7.57232942330585E-03 
2006	 4.42555882885986E-03 
2007	-4.46998576426398E-04 
2008	-1.69304879603918E-03 
2009	-1.06023473681302E-03 
2010	 4.99758313045333E-03 
2011	 6.10606124998289E-03 
2012	 6.26960762490666E-03 
2013	 6.91969325059887E-03 
2014	 5.52448362402359E-03 
2015	 5.08634337139306E-03 
2016	 7.87166214205678E-03 
2017	 6.79051762488182E-03 
2018	 4.46652029710831E-03 
2019	 4.72346500248757E-03 
2020	 3.92299718735118E-03 
2021	 2.48424851008582E-03 
2022	 2.11394022015416E-03 
2023	 2.33490530595107E-03 
2024	 2.3213362658213E-03 
2025	 2.27474878457229E-03 
2026	 2.85329054091386E-03 
2027	 3.98118254977032E-03 
2028	 4.04789441105922E-03 
2029	 4.1981709984007E-03 
2030	 4.97552652811689E-03 
2031	 5.18515337502621E-03 
2032	 4.67659532095244E-03 
2033	 4.65090505039013E-03 
2034	 5.00137559093214E-03 
2035	 4.98776494800768E-03 
2036	 4.99634593175997E-03 
2037	 4.89614962209789E-03 
2038	 4.71827952304965E-03 
2039	 4.55455177132167E-03 
2040	 0.004195139632068 
2041	 4.15214633277071E-03 
2042	 4.1982661631643E-03 
2043	 4.36216319280018E-03 
2044	 4.76059025392661E-03 
2045	 5.28385811707166E-03 
2046	 5.34032584505521E-03 
2047	 4.87674262419219E-03 
2048	 4.59445636236174E-03 
2049	 4.71228274791161E-03 
2050	 4.15740202086844E-03 
2051	 4.25688825875782E-03 
2052	 4.49699681794277E-03 
2053	 3.83711353640059E-03 
2054	 3.79901809940838E-03 
2055	 3.46903659483082E-03 
2056	 3.1900013409229E-03 
2057	 2.16432387389091E-03 
2058	 2.04596189993034E-03 
2059	 2.96926964016153E-03 
2060	 3.31190366370971E-03 
2061	 3.52004017095268E-03 
2062	 3.74364502028094E-03 
2063	 4.72409779064726E-03 
2064	 4.7196405279597E-03 
2065	 4.78127851965063E-03 
2066	 5.34135021225033E-03 
2067	 4.77958764028056E-03 
2068	 3.92867749700335E-03 
2069	 3.6235663360299E-03 
2070	 3.49281589196652E-03 
2071	 3.63838300935982E-03 
2072	 4.21950854187034E-03 
2073	 4.44763900781063E-03 
2074	 4.8166832263374E-03 
2075	 4.99154969995151E-03 
2076	 4.54278466556335E-03 
2077	 4.66965026562819E-03 
2078	 5.48324773531778E-03 
2079	 5.66117076437523E-03 
2080	 5.75228923608322E-03 
2081	 5.77898071654742E-03 
2082	 4.91843885883349E-03 
2083	 4.40168365926284E-03 
2084	 4.74333447390217E-03 
2085	 4.87691513872862E-03 
2086	 5.53504069161561E-03 
2087	 0.006303595044001 
2088	 5.51130599356912E-03 
2089	 4.92117438066522E-03 
2090	 4.86773616900933E-03 
2091	 4.54223223052624E-03 
2092	 4.8520474076941E-03 
2093	 6.39758186940302E-03 
2094	 6.49975000667107E-03 
2095	 6.08956788617394E-03 
2096	 5.90080056459056E-03 
2097	 4.81852644895472E-03 
2098	 4.48077740611812E-03 
2099	 4.79767212988152E-03 
2100	 4.98533579151756E-03 
2101	 4.79263811318757E-03 
2102	 4.82822482751445E-03 
2103	 4.37370940546196E-03 
2104	 4.31179811814562E-03 
2105	 4.4502638478758E-03 
2106	 3.8098438359106E-03 
2107	 3.85815409095384E-03 
2108	 4.55882359906562E-03 
2109	 4.79358458806067E-03 
2110	 4.96835596037275E-03 
2111	 5.32858509467621E-03 
2112	 5.40176465325628E-03 
2113	 5.4507557320363E-03 
2114	 5.57198930835414E-03 
2115	 5.60464461050872E-03 
2116	 5.49660201627157E-03 
2117	 5.31581675950112E-03 
2118	 4.8483877297528E-03 
2119	 4.75725307540703E-03 
2120	 5.08219345884604E-03 
2121	 4.70436229198157E-03 
2122	 4.17387261169849E-03 
2123	 4.75564052214577E-03 
2124	 5.0818305024794E-03 
2125	 5.01228948761293E-03 
2126	 5.43015887465752E-03 
2127	 6.14321409038353E-03 
2128	 6.32012162292747E-03 
2129	 6.25129840574985E-03 
2130	 6.69209945923357E-03 
2131	 6.0243020006521E-03 
2132	 5.00801872207537E-03 
2133	 4.87907630022968E-03 
2134	 4.72786051370023E-03 
2135	 4.65027423842756E-03 
2136	 4.57728474550628E-03 
2137	 4.73343682708789E-03 
2138	 5.01697054439837E-03 
2139	 5.66817453915128E-03 
2140	 5.4350309596657E-03 
2141	 4.65929483851542E-03 
2142	 4.2126131033072E-03 
2143	 3.06394707754241E-03 
2144	 2.68519120408462E-03 
2145	 3.02370769280265E-03 
2146	 3.35258933146751E-03 
2147	 3.37594607522048E-03 
2148	 3.3254745141225E-03 
2149	 3.15292027395254E-03 
2150	 3.9951519375455E-03 
2151	 5.14659661229587E-03 
2152	 5.14695421945341E-03 
2153	 5.0036650241433E-03 
2154	 5.16933593785613E-03 
2155	 5.28702572318366E-03 
2156	 5.02805912461237E-03 
2157	 5.06510921834567E-03 
2158	 5.48660657348588E-03 
2159	 5.38489802304274E-03 
2160	 0.005361253917437 
2161	 4.95567202136562E-03 
2162	 3.51718205631044E-03 
2163	 3.29566119340369E-03 
2164	 3.21906311908691E-03 
2165	 3.73093848563967E-03 
2166	 6.28256412671022E-03 
2167	 6.6994381570537E-03 
2168	 5.36079315272183E-03 
2169	 5.43444222873745E-03 
2170	 5.42799996195042E-03 
2171	 5.43647075895427E-03 
2172	 5.4771607934889E-03 
2173	 5.72899899238408E-03 
2174	 5.30238852509873E-03 
2175	 4.72671109777437E-03 
2176	 5.44093000722957E-03 
2177	 5.82332927758539E-03 
2178	 5.72857149782613E-03 
2179	 5.95577620833643E-03 
2180	 6.11734544016542E-03 
2181	 6.74910206511096E-03 
2182	 7.55227523194453E-03 
2183	 7.50105310479962E-03 
2184	 6.25082315276324E-03 
2185	 5.34968230388681E-03 
2186	 4.41226144169091E-03 
2187	 1.93307276128468E-03 
2188	 1.52805002799305E-03 
2189	 2.96167588953147E-03 
2190	 3.26634627531248E-03 
2191	 4.10541099233898E-03 
2192	 4.60470044966684E-03 
2193	 3.79545307552062E-03 
2194	 4.57213858485525E-03 
2195	 7.53161804191697E-03 
2196	 8.02924310237671E-03 
2197	 7.74115375235569E-03 
2198	 7.73064747059295E-03 
2199	 6.48606897257615E-03 
2200	 4.85331833439693E-03 
2201	 3.87485649421863E-03 
2202	 2.88839915992139E-03 
2203	 2.05468029365451E-03 
2204	 1.40183864343215E-03 
2205	 1.86431790255659E-03 
2206	 3.48598365679288E-03 
2207	 4.82232406501841E-03 
2208	 3.98706480660337E-03 
2209	 3.85667444056898E-03 
2210	 4.69938754821793E-03 
2211	 4.09939294219801E-03 
2212	 5.31045227587628E-03 
2213	 6.54790896051239E-03 
2214	 5.6868171470269E-03 
2215	 5.85640679697349E-03 
2216	 5.72541597625849E-03 
2217	 5.79350029230907E-03 
2218	 6.46248206819715E-03 
2219	 6.72777672232972E-03 
2220	 6.98265923811537E-03 
2221	 6.55541971453854E-03 
2222	 5.11468858803938E-03 
2223	 4.28514441480922E-03 
2224	 2.96721907183702E-03 
2225	 2.83154798199887E-03 
2226	 3.71271887614149E-03 
2227	 4.38890972820675E-03 
2228	 6.04169929873836E-03 
2229	 6.1841378866732E-03 
2230	 5.91468323507137E-03 
2231	 5.47627900854649E-03 
2232	 3.35842429751029E-03 
2233	 3.22008282317423E-03 
2234	 4.55460298543541E-03 
2235	 4.12633796200936E-03 
2236	 4.91468994441085E-03 
2237	 4.86671869351858E-03 
2238	 3.48849180996748E-03 
2239	 3.58373548768151E-03 
2240	 4.31278554784165E-03 
2241	 4.3547861771057E-03 
2242	 4.75787647500351E-03 
2243	 5.14288057155878E-03 
2244	 5.21692340385182E-03 
2245	 4.54689374919056E-03 
2246	 3.45321392423378E-03 
2247	 3.86864800917116E-03 
2248	 4.41174155030066E-03 
2249	 4.70005280165538E-03 
2250	 5.80724086724074E-03 
2251	 5.36029269091247E-03 
2252	 3.90364665687123E-03 
2253	 5.25832088398173E-03 
2254	 7.95654212151707E-03 
2255	 8.47587117874376E-03 
2256	 7.99372750755035E-03 
2257	 6.97212671826333E-03 
2258	 5.6984682600059E-03 
2259	 4.95683262037186E-03 
2260	 3.7326809438093E-03 
2261	 3.10063873168399E-03 
2262	 2.68963245065383E-03 
2263	 1.12879672619789E-03 
2264	 8.49405037497183E-04 
2265	 2.2717360623097E-03 
2266	 2.61635817500549E-03 
2267	 2.6307193513861E-03 
2268	 2.68705679523706E-03 
2269	 3.3004274683567E-03 
2270	 3.39162386425926E-03 
2271	 2.54639228277455E-03 
2272	 1.89970315689626E-03 
2273	 1.27381986605488E-03 
2274	 4.03382335845556E-04 
2275	-1.50487093089289E-03 
2276	-8.39685787922671E-04 
2277	 1.45148389693995E-03 
2278	 2.4091732922281E-03 
2279	 5.03536096988823E-03 
2280	 5.90513727720355E-03 
2281	 5.73390016989703E-03 
2282	 4.01199443821381E-03 
2283	 7.67117292551428E-04 
2284	-7.69520763072953E-04 
2285	-2.00730371871352E-03 
2286	 3.24082170481713E-05 
2287	 5.16316071422598E-03 
2288	 5.67755288074057E-03 
2289	 1.78231815278008E-03 
2290	-3.33915838534586E-04 
2291	 1.41915018552036E-04 
2292	-1.27112001470961E-03 
2293	-2.4572573077265E-03 
2294	-1.99087358055543E-04 
2295	 1.93196501712873E-03 
2296	 3.76165463961812E-03 
2297	 7.33559636077459E-03 
2298	 8.65618021672016E-03 
2299	 4.77843128840844E-03 
2300	 2.49007216510733E-03 
2301	 6.1320850605111E-03 
2302	 7.78424824419097E-03 
2303	 6.27759214800127E-03 
2304	 7.03864325987393E-03 
2305	 8.81424480328149E-03 
2306	 7.66781275869885E-03 
2307	 5.20476368125918E-03 
2308	 5.37984113396207E-03 
2309	 2.68553681175503E-03 
2310	 1.15235234986678E-04 
2311	 1.43325044650253E-03 
2312	-1.20880580066752E-03 
2313	-4.81488020590005E-03 
2314	-3.87965820297012E-03 
2315	-2.04516166828802E-03 
2316	-2.07132124909353E-03 
2317	 3.65160314406469E-04 
2318	 3.05242640064762E-03 
2319	 1.70857972157788E-03 
2320	-8.62448261973669E-05 
2321	-1.88097968229275E-03 
2322	-1.32333661751783E-03 
2323	-1.09121022281859E-03 
2324	-2.13601088647894E-03 
2325	 3.97738072195665E-05 
2326	-4.20990143005312E-03 
2327	-9.62054517188271E-03 
2328	-8.15378017666383E-03 
2329	-8.07929585237351E-03 
2330	-6.02778866398085E-03 
2331	-1.81433992971525E-03 
2332	-7.2749202415478E-05 
2333	 1.42802958085321E-03 
2334	 9.33274615555768E-04 
2335	-4.1229179375168E-03 
2336	-6.56063639621456E-03 
2337	-4.09210122676278E-03 
2338	-1.36737438039438E-03 
2339	-6.40556930556897E-04 
2340	 2.36911867183652E-03 
2341	 5.28355061122252E-03 
2342	 1.5246533061248E-04 
2343	 2.19907180364117E-03 
2344	 6.26328986944615E-03 
2345	-3.68035433434722E-03 
2346	-7.39815223582989E-03 
2347	-1.21458687178802E-03 
2348	-2.40648220417493E-03 
2349	-1.73858812182475E-03 
2350	 6.58375566536023E-03 
2351	 3.75870860838753E-03 
2352	-4.65303205815114E-03 
2353	-6.84497784219466E-03 
2354	-1.21681282799889E-02 
2355	-1.15831995126071E-02 
2356	-1.04885888240184E-02 
2357	-1.96002150932158E-02 
2358	-0.020840425090744 
2359	-1.59404561165088E-02 
2360	-1.50672824209061E-02 
2361	-0.018360255603628 
2362	-1.53003616226148E-02 
2363	-8.47114024157619E-03 
2364	-9.90203196880628E-03 
2365	 4.54774670056807E-03 
2366	 2.49892354938915E-02 
2367	 7.7737930258282E-03 
2368	-1.86603718977261E-02 
2369	-3.03694810260563E-02 
2370	-4.67739188595084E-02 
2371	-4.91873825743092E-02 
2372	-2.80654141184648E-02 
2373	-1.81046772343407E-02 
2374	-2.72736881949502E-02 
2375	-3.07793855246536E-02 
2376	-3.01625380965499E-02 
2377	-5.04288400448411E-02 
2378	-0.067815685245761 
2379	-5.05639235666694E-02 
2380	-4.19635483503132E-02 
2381	-4.54430837826825E-02 
2382	-2.57214192856234E-02 
2383	-3.39034805764906E-02 
2384	-6.72204047175975E-02 
2385	-5.42873964024544E-02 
2386	-2.99619306196562E-02 
2387	-2.19664757079803E-02 
2388	-4.51726125286317E-03 
2389	 4.79576427688052E-04 
2390	-2.08741826905846E-02 
2391	-4.88352371624879E-02 
2392	-6.10067360819108E-02 
2393	-4.26812724985475E-02 
2394	-1.71246548824982E-02 
2395	-5.30942616481448E-03 
2396	-1.97725664849509E-04 
2397	-2.10151234397515E-02 
2398	-4.97576164738735E-02 
2399	-5.25969527297512E-02 
2400	-4.78042376145527E-02 
2401	-0.035603223744415 
2402	-0.030695229285629 
2403	-4.83160370482221E-02 
2404	-5.74037242711106E-02 
2405	-8.37093965053981E-02 
2406	-0.124538490183522 
2407	-0.108724929554374 
2408	-8.64912482636173E-02 
2409	-0.101919716062709 
2410	-7.55065191997953E-02 
2411	-5.36823235410463E-02 
2412	-0.100279564296685 
2413	-0.130312286478252 
2414	-0.135473647295767 
2415	-0.238349300600981 
2416	-0.332688678652717 
2417	-0.342185574098674 
2418	-0.401821552517319 
2419	-0.339082857897567 
2420	-0.197988350536401 
2421	-0.198408616855042 
2422	-0.18726553677585 
2423	-0.153521186542053 
2424	-0.118914229611427 
2425	-9.48873951663652E-02 
2426	-0.130180439033998 
2427	-0.174383968055346 
2428	-0.185553238217033 
2429	-0.176902056080842 
2430	-0.16089311547667 
2431	-0.161067853200834 
2432	-0.246302757288572 
2433	-0.34554705553448 
2434	-0.307248772803932 
2435	-0.228420097081019 
2436	-0.138439033379415 
2437	-0.022463108854019 
2438	 1.99250376782434E-02 
2439	-6.00419215299837E-02 
2440	-0.239112889166707 
2441	-0.373303924491998 
2442	-0.478227537445862 
2443	-0.54689659334621 
2444	-0.265438780863847 
2445	-0.268990432493243 
2446	-0.559987656768773 
2447	-0.808058687473579 
2448	-1.04048588047902 
2449	-1.07790205462703 
2450	-1.00185876711547 
2451	-1.02862007505664 
2452	-0.711886475341216 
2453	-0.556985459485818 
2454	-0.714081685770259 
2455	-0.674088094576093 
2456	-0.530874052035457 
2457	-0.54767061492621 
2458	-0.723121608854582 
2459	-0.422717602534725 
2460	-0.441645837452774 
2461	-0.560437999830957 
2462	-0.170775663833906 
2463	-0.214675110592688 
2464	-0.440829590689023 
2465	 0.169470723872729 
2466	-0.495803014235252 
2467	-13.9120651698871 
2468	-1.85499969147266 
2469	-1.34503073240645 
2470	-2.51784647963912 
2471	 86.8676906960235 
2472	 1.6432718655389 
2473	 3.6031866440203 
2474	 3.25970443213633 
2475	 4.52377001609046 
2476	 2.78370753747358 
2477	 1.27471594004954 
2478	 2.84599390628596 
2479	 20.2755600966314 
2480	 5.93258906631566 
2481	-21.1422150203317 
2482	 1.46293877564256 
2483	 3.62481763663491E-02 
2484	 0.858395316063671 
2485	 60.1680525247331 
2486	 45.6795014843317 
2487	-4.08376542475424 
2488	-8.33423571780262 
2489	 5.52386519591882 
2490	 0.604151852531123 
2491	 8.05369433503318E-02 
2492	 1.07558866965812 
2493	 0.993694529471378 
2494	 1.81693683027616 
2495	 0.562191333127488 
2496	 2.39441383922961E-02 
2497	 0.382320711580403 
2498	 0.69792825678873 
2499	 0.571297985327236 
2500	 1.20133374757836 
