Wavelength	rt0713west_far_sunny200001.asd
350	 4.71548413674779E-02 
351	 4.66496296830272E-02 
352	 4.62443410351415E-02 
353	 4.59970980063944E-02 
354	 4.58290062144002E-02 
355	 4.56128800145244E-02 
356	 0.045868749706528 
357	 4.61220282178953E-02 
358	 4.58460812095772E-02 
359	 0.045656067229695 
360	 4.53681913815628E-02 
361	 4.51943032338167E-02 
362	 4.55072528941485E-02 
363	 4.53747602094107E-02 
364	 4.53884906242149E-02 
365	 4.56718503881131E-02 
366	 4.53770921785664E-02 
367	 4.50179975910522E-02 
368	 4.48287512548279E-02 
369	 4.49053654651815E-02 
370	 4.51931397338551E-02 
371	 4.50863053230509E-02 
372	 4.48095070811232E-02 
373	 4.49776723167627E-02 
374	 4.49428511948608E-02 
375	 4.48547778229457E-02 
376	 4.48870246425137E-02 
377	 4.51224070814894E-02 
378	 4.49586232228231E-02 
379	 0.044923230073904 
380	 4.53213240171564E-02 
381	 4.48743844726003E-02 
382	 4.49988464293772E-02 
383	 0.045502012645535 
384	 0.045548705816334 
385	 4.58168888447032E-02 
386	 4.58801553948536E-02 
387	 4.57168930668856E-02 
388	 4.58166485828653E-02 
389	 4.58980014943789E-02 
390	 4.60116728558471E-02 
391	 4.61890351098036E-02 
392	 0.046245783176298 
393	 4.65566119885398E-02 
394	 4.68087235636817E-02 
395	 4.66136679909451E-02 
396	 4.65372610824447E-02 
397	 4.65217541530733E-02 
398	 4.65710567986539E-02 
399	 4.67618281290617E-02 
400	 0.046889349022174 
401	 4.68947492467777E-02 
402	 4.68551609110459E-02 
403	 4.70778943684465E-02 
404	 4.73993970411698E-02 
405	 4.76118283769575E-02 
406	 4.75695080143234E-02 
407	 4.75551785781969E-02 
408	 4.76207908080116E-02 
409	 4.77424619539952E-02 
410	 4.78443855116339E-02 
411	 4.80158195694389E-02 
412	 0.048167822330185 
413	 4.82556156167762E-02 
414	 4.84067150366508E-02 
415	 4.85989170182123E-02 
416	 4.87533050151842E-02 
417	 4.88140236234568E-02 
418	 4.90027347253577E-02 
419	 4.92996072719669E-02 
420	 4.95809022539544E-02 
421	 0.049648389892745 
422	 4.97983379693001E-02 
423	 5.00151358610913E-02 
424	 5.02629666533235E-02 
425	 5.06683691265929E-02 
426	 5.09428860714549E-02 
427	 5.11425659075724E-02 
428	 5.14701654160671E-02 
429	 5.18436963463752E-02 
430	 5.22328768516453E-02 
431	 5.25846024063315E-02 
432	 5.28220822791474E-02 
433	 5.30909570981592E-02 
434	 5.34506696137826E-02 
435	 5.38742928070718E-02 
436	 5.41508613562829E-02 
437	 5.44679593483665E-02 
438	 5.48363765440804E-02 
439	 5.51658489284187E-02 
440	 0.055405191598841 
441	 5.57661018117528E-02 
442	 0.056243180670964 
443	 5.64754493689061E-02 
444	 5.67610873157352E-02 
445	 5.70935169169083E-02 
446	 5.74036083853534E-02 
447	 5.77269956610426E-02 
448	 5.79990832538508E-02 
449	 0.058219353719061 
450	 5.84403641981523E-02 
451	 5.87095793370745E-02 
452	 5.89868034095565E-02 
453	 5.92427415217454E-02 
454	 5.95024584325355E-02 
455	 5.96965587377914E-02 
456	 5.98316356580999E-02 
457	 5.99601992373486E-02 
458	 6.02005496192517E-02 
459	 6.04179255025039E-02 
460	 6.05861988945367E-02 
461	 6.07946369037972E-02 
462	 6.09166479571956E-02 
463	 0.061046446195066 
464	 6.12523343695587E-02 
465	 6.14080848932544E-02 
466	 6.15999482012102E-02 
467	 6.17984709803568E-02 
468	 6.19353860105347E-02 
469	 0.062088913226011 
470	 6.22865729964336E-02 
471	 6.24972489551542E-02 
472	 6.26201335602292E-02 
473	 6.27574586262526E-02 
474	 6.29673326614056E-02 
475	 6.32566724359899E-02 
476	 6.35094113516765E-02 
477	 6.37403012996824E-02 
478	 6.39867975517868E-02 
479	 0.064285076708306 
480	 6.44554618571597E-02 
481	 0.064676642991631 
482	 6.50442195326648E-02 
483	 6.53932142687316E-02 
484	 6.57342236468826E-02 
485	 6.60740283431188E-02 
486	 6.64202371761701E-02 
487	 6.67540532743892E-02 
488	 6.70859371912161E-02 
489	 6.73929792709633E-02 
490	 6.76308592162263E-02 
491	 0.068043491230952 
492	 6.85227677858873E-02 
493	 6.89470060452873E-02 
494	 6.93668466338329E-02 
495	 6.97618143879709E-02 
496	 7.02013786002935E-02 
497	 7.07622631233737E-02 
498	 0.07118411824811 
499	 7.15583844692886E-02 
500	 7.19659302641381E-02 
501	 7.24122760737487E-02 
502	 7.28284234435512E-02 
503	 0.073272733245614 
504	 7.38003655471852E-02 
505	 7.42920674471125E-02 
506	 7.48281361032062E-02 
507	 7.53699340664507E-02 
508	 7.57969938110162E-02 
509	 7.62815784544632E-02 
510	 7.68506044756139E-02 
511	 7.74708465698523E-02 
512	 7.80388215395137E-02 
513	 7.85960207885908E-02 
514	 7.91563280596713E-02 
515	 7.97251496216366E-02 
516	 8.03331371869778E-02 
517	 8.09999037267391E-02 
518	 8.16804152025525E-02 
519	 8.22608440350355E-02 
520	 8.29424905415831E-02 
521	 0.083612900580771 
522	 8.41825363515275E-02 
523	 8.48933796162127E-02 
524	 8.55117371648778E-02 
525	 8.60756486603902E-02 
526	 8.68007292900954E-02 
527	 8.75239643026205E-02 
528	 8.82057392751464E-02 
529	 8.88529876013081E-02 
530	 8.95297799569486E-02 
531	 9.01882664126918E-02 
532	 9.08610107961636E-02 
533	 9.15793045327028E-02 
534	 9.21918365092632E-02 
535	 9.28600013608417E-02 
536	 9.36087814260882E-02 
537	 9.42863144036688E-02 
538	 9.49785512496417E-02 
539	 0.095649137944383 
540	 9.62804870653495E-02 
541	 9.70046358619846E-02 
542	 9.77428305365715E-02 
543	 9.84403735123485E-02 
544	 9.90747953714726E-02 
545	 9.97413180579458E-02 
546	 0.10044447311727 
547	 0.101152479422087 
548	 0.101788224814053 
549	 0.1024555712135 
550	 0.103145904231303 
551	 0.103820981756109 
552	 0.104518096353062 
553	 0.105182626761067 
554	 0.105820980261422 
555	 0.10650684382777 
556	 0.10715814750769 
557	 0.107778827303464 
558	 0.108384163104379 
559	 0.108979856393938 
560	 0.109524304927777 
561	 0.110057547997303 
562	 0.110656240678275 
563	 0.111176361159978 
564	 0.11163153570064 
565	 0.112049106062121 
566	 0.112440327208926 
567	 0.112817626373944 
568	 0.113178962126331 
569	 0.113524548522745 
570	 0.113920670627873 
571	 0.114232100335206 
572	 0.114450351141188 
573	 0.114711268549678 
574	 0.114973059218671 
575	 0.11520536970932 
576	 0.115383979881829 
577	 0.115511921334877 
578	 0.115569714359229 
579	 0.115609325508805 
580	 0.115705214404281 
581	 0.115697317222274 
582	 0.115617610696671 
583	 0.115503350137309 
584	 0.115357996807089 
585	 0.115148710697165 
586	 0.114819778913276 
587	 0.114351952625947 
588	 0.11400451457112 
589	 0.113683293897753 
590	 0.113357276004401 
591	 0.113061925698795 
592	 0.112703600152057 
593	 0.112262026557461 
594	 0.111734594607028 
595	 0.111087922810916 
596	 0.110347463971201 
597	 0.109556615947396 
598	 0.108763684231359 
599	 0.107892448174132 
600	 0.107157104412011 
601	 0.106648912799547 
602	 0.106189830441312 
603	 0.105896606405199 
604	 0.105725105869828 
605	 0.105593492567875 
606	 0.105491508637533 
607	 0.105443094801983 
608	 0.105433518444535 
609	 0.105409093536733 
610	 0.105443202707266 
611	 0.105437496747954 
612	 0.10533329725771 
613	 0.105288264495029 
614	 0.105237459855165 
615	 0.105213474468802 
616	 0.105271797930459 
617	 0.105179581144565 
618	 0.1051170573804 
619	 0.105140500414844 
620	 0.105034916583294 
621	 0.104930471459337 
622	 0.104907681584531 
623	 0.104976911542231 
624	 0.104896806997168 
625	 0.104786354186533 
626	 0.104684181190409 
627	 0.104548544870708 
628	 0.104590299266481 
629	 0.104641193695348 
630	 0.10455901999489 
631	 0.104459870597513 
632	 0.10439529165888 
633	 0.104346334587107 
634	 0.104264057789873 
635	 0.104204929029111 
636	 0.104107128923157 
637	 0.103953455060614 
638	 0.103802168100829 
639	 0.103636587354634 
640	 0.103479981620572 
641	 0.103339338335223 
642	 0.103114730284916 
643	 0.102863233272588 
644	 0.10257297870725 
645	 0.102189398592683 
646	 0.101930961171551 
647	 0.101741019693278 
648	 0.101535880628026 
649	 0.10129976455804 
650	 0.100997253238977 
651	 0.100669261342962 
652	 0.100372067016949 
653	 9.99672452906749E-02 
654	 9.94396997991662E-02 
655	 9.88170435930993E-02 
656	 9.82560657691954E-02 
657	 9.77343531983103E-02 
658	 9.72718784565941E-02 
659	 9.68642414593433E-02 
660	 9.64563991750631E-02 
661	 9.61418944239286E-02 
662	 0.095891838055524 
663	 9.56110311888163E-02 
664	 9.53208579394099E-02 
665	 9.50847978729728E-02 
666	 9.49262833080336E-02 
667	 9.47995243917867E-02 
668	 9.46396568684544E-02 
669	 9.44696352393171E-02 
670	 9.43417448185694E-02 
671	 9.42672635123401E-02 
672	 9.42476940652438E-02 
673	 9.42315406874834E-02 
674	 9.41312599127973E-02 
675	 9.41092982016789E-02 
676	 9.41015683397983E-02 
677	 9.40750186040319E-02 
678	 9.42005963112472E-02 
679	 9.42724927251028E-02 
680	 0.094311514757104 
681	 0.094424802498012 
682	 9.45318888203334E-02 
683	 0.094605105953623 
684	 9.46722743314564E-02 
685	 9.48412528664017E-02 
686	 9.47722781096298E-02 
687	 9.47019440134833E-02 
688	 9.48780337402455E-02 
689	 9.49016079365618E-02 
690	 0.094818085327192 
691	 9.46030094005248E-02 
692	 0.094206149847431 
693	 9.38313301254197E-02 
694	 9.35461007928185E-02 
695	 9.33263482705129E-02 
696	 0.093048341322512 
697	 9.24329681519728E-02 
698	 9.15596118274298E-02 
699	 9.06900199829216E-02 
700	 8.99783973100625E-02 
701	 8.93406556758686E-02 
702	 8.86407455375255E-02 
703	 8.77162904241337E-02 
704	 8.66516384853317E-02 
705	 0.085603241502781 
706	 8.46200883901255E-02 
707	 8.34136525667894E-02 
708	 8.21414460450243E-02 
709	 8.07745154855643E-02 
710	 7.92426980066116E-02 
711	 7.76242314791614E-02 
712	 7.58898482589758E-02 
713	 7.40251327269415E-02 
714	 7.19870619141304E-02 
715	 6.99967260351922E-02 
716	 6.77705504007938E-02 
717	 0.065262957923684 
718	 6.30230203786954E-02 
719	 6.10539679080211E-02 
720	 0.059510680168763 
721	 5.80987638622053E-02 
722	 5.63107070570779E-02 
723	 5.41797744520095E-02 
724	 5.20752227813323E-02 
725	 5.00437045892286E-02 
726	 4.82265896253806E-02 
727	 0.046279386189638 
728	 4.40010375103048E-02 
729	 4.18004459870412E-02 
730	 3.96580968308955E-02 
731	 3.78401613177985E-02 
732	 3.64693983692347E-02 
733	 3.52266066435921E-02 
734	 3.40433382550152E-02 
735	 0.032970464872083 
736	 0.032165260736645 
737	 0.031721858573086 
738	 3.14462092105981E-02 
739	 3.11639693545077E-02 
740	 3.09543243509812E-02 
741	 3.08224038904174E-02 
742	 3.07336776477179E-02 
743	 3.06374609470912E-02 
744	 0.030556325607557 
745	 3.05149784577616E-02 
746	 3.04978389786045E-02 
747	 0.030435703731089 
748	 3.03924778753608E-02 
749	 3.03317161399796E-02 
750	 3.02356262514204E-02 
751	 3.02212334352215E-02 
752	 3.02695182751714E-02 
753	 3.02900782152909E-02 
754	 3.01903938379095E-02 
755	 3.02048675481619E-02 
756	 3.01593681329607E-02 
757	 2.99839478022835E-02 
758	 2.97682101448196E-02 
759	 0.029536220387636 
760	 2.93000706921444E-02 
761	 2.91763891946303E-02 
762	 2.92028268970778E-02 
763	 2.93856175885317E-02 
764	 2.96534402873923E-02 
765	 2.99284784248952E-02 
766	 3.02105128112349E-02 
767	 3.03720549410332E-02 
768	 3.04284414324595E-02 
769	 3.05181817331408E-02 
770	 3.06580796887026E-02 
771	 3.08276836035571E-02 
772	 3.09997774008671E-02 
773	 3.11627983239792E-02 
774	 3.13301804408895E-02 
775	 3.14852737525965E-02 
776	 3.16130145448733E-02 
777	 3.17721110749319E-02 
778	 3.19540457750314E-02 
779	 3.21642680979571E-02 
780	 3.24229362393513E-02 
781	 3.26491494990501E-02 
782	 3.28572077195497E-02 
783	 3.30673434244962E-02 
784	 3.32691029595294E-02 
785	 0.033478994292987 
786	 3.37183845453427E-02 
787	 3.39923968608687E-02 
788	 3.42196582794759E-02 
789	 3.45047518911032E-02 
790	 3.48499266934223E-02 
791	 0.035181990391289 
792	 3.56228731447739E-02 
793	 3.59766004273729E-02 
794	 3.61931834536559E-02 
795	 3.65118779982627E-02 
796	 3.67717859048124E-02 
797	 3.70528095981174E-02 
798	 3.74237275924655E-02 
799	 3.76501109584146E-02 
800	 3.79003289875098E-02 
801	 3.81604279927501E-02 
802	 3.83352675687195E-02 
803	 3.85369332404359E-02 
804	 3.87473751998286E-02 
805	 3.89023746796165E-02 
806	 3.89094606696295E-02 
807	 3.88592322209189E-02 
808	 3.87259459992536E-02 
809	 3.85176012032888E-02 
810	 3.83966851148155E-02 
811	 3.81509754251235E-02 
812	 3.77304254632018E-02 
813	 3.72089198416308E-02 
814	 3.69107460038108E-02 
815	 3.64794175243266E-02 
816	 3.59430341948368E-02 
817	 3.56289720551297E-02 
818	 0.03528908433106 
819	 3.49965829144668E-02 
820	 3.46271861910029E-02 
821	 3.37817298981853E-02 
822	 3.27162464707132E-02 
823	 3.16612732829813E-02 
824	 0.030767692719351 
825	 2.99772811231689E-02 
826	 0.028938719346842 
827	 0.027678864302422 
828	 2.64945265540386E-02 
829	 2.56091256448158E-02 
830	 2.47215644435057E-02 
831	 2.38745992835242E-02 
832	 2.33570913242217E-02 
833	 2.27823604481739E-02 
834	 2.24456436491217E-02 
835	 2.23612684285926E-02 
836	 2.21105327234937E-02 
837	 2.18959747003211E-02 
838	 2.17904833608141E-02 
839	 2.17544298628499E-02 
840	 2.15223294685033E-02 
841	 2.13693299071966E-02 
842	 2.12789551958457E-02 
843	 2.11649134664378E-02 
844	 0.02117014610748 
845	 2.10446864859118E-02 
846	 2.08346539600081E-02 
847	 2.07632314550013E-02 
848	 2.05844585621381E-02 
849	 2.05318882193171E-02 
850	 2.05780331581477E-02 
851	 2.03287588543404E-02 
852	 0.020174642213963 
853	 2.00653822082778E-02 
854	 1.99451451739132E-02 
855	 1.99421396264767E-02 
856	 1.98868421401493E-02 
857	 1.97286702836362E-02 
858	 1.95208958905683E-02 
859	 1.95461494194876E-02 
860	 1.95072496458559E-02 
861	 1.94398787156215E-02 
862	 1.94853985799451E-02 
863	 1.93024471863685E-02 
864	 1.90691883275793E-02 
865	 1.89304170669415E-02 
866	 1.89328512010946E-02 
867	 1.88562243207227E-02 
868	 1.87853726729518E-02 
869	 1.87376736397383E-02 
870	 1.85941777436059E-02 
871	 1.85508802182446E-02 
872	 1.84156115923932E-02 
873	 1.81227928775135E-02 
874	 1.80675843181388E-02 
875	 1.80418518269547E-02 
876	 1.79975144020174E-02 
877	 1.79197745767638E-02 
878	 0.017744635369951 
879	 1.75094337592108E-02 
880	 1.73706125518475E-02 
881	 1.74387343761531E-02 
882	 1.72845665356401E-02 
883	 1.72368170001376E-02 
884	 1.73231914753956E-02 
885	 1.73159557169348E-02 
886	 1.71651720194695E-02 
887	 1.69377598038892E-02 
888	 1.66969588246661E-02 
889	 1.64921513570268E-02 
890	 1.66529784703578E-02 
891	 1.65106174244562E-02 
892	 1.58449032666725E-02 
893	 1.56442830853154E-02 
894	 1.56146841279428E-02 
895	 1.54012927131841E-02 
896	 1.49049124996629E-02 
897	 1.49748789132299E-02 
898	 1.48845880278045E-02 
899	 1.46980269213165E-02 
900	 1.46718795924818E-02 
901	 0.014610941485089 
902	 1.48932174768968E-02 
903	 1.49952373616049E-02 
904	 1.44172217219681E-02 
905	 1.45013879168189E-02 
906	 1.43532658780341E-02 
907	 1.40997070380044E-02 
908	 1.44241987548917E-02 
909	 1.37538470993616E-02 
910	 1.32666755986648E-02 
911	 1.35120107485238E-02 
912	 1.40634624737116E-02 
913	 1.37972201555589E-02 
914	 1.33330995003817E-02 
915	 1.32618133723537E-02 
916	 1.36915693374914E-02 
917	 0.013479948747943 
918	 1.33817506849885E-02 
919	 1.35848533806613E-02 
920	 1.32458939810107E-02 
921	 0.013392574032498 
922	 1.34456021677036E-02 
923	 0.013013117922758 
924	 0.012757038983907 
925	 1.19515274608956E-02 
926	 1.15490990065003E-02 
927	 1.22707581989011E-02 
928	 1.16654610623739E-02 
929	 1.08244080317802E-02 
930	 1.06201519968519E-02 
931	 1.13640307964611E-02 
932	 9.0827995902941E-03 
933	 9.79837754566701E-03 
934	 1.00382801288106E-02 
935	 5.09319007472767E-03 
936	 8.08280867989445E-03 
937	 8.64053290931922E-03 
938	 6.34367201875626E-03 
939	 4.76117690886536E-03 
940	 9.58625438615662E-03 
941	 9.55568834825086E-03 
942	 7.02813263773283E-03 
943	 9.68403670332466E-03 
944	 1.09378092084703E-02 
945	 1.17791061755493E-02 
946	 1.09788582200925E-02 
947	 7.61986888244803E-03 
948	 9.87477403201218E-03 
949	 1.06840182904264E-02 
950	 9.2939830374618E-03 
951	 9.17810327812484E-03 
952	 1.01123091239497E-02 
953	 8.54413455197972E-03 
954	 6.41699188202949E-03 
955	 8.41071956835139E-03 
956	 1.13196340540971E-02 
957	 1.12004908424275E-02 
958	 9.77343102463376E-03 
959	 0.01130182193607 
960	 9.74860409062351E-03 
961	 1.06654452927683E-02 
962	 1.27320385189863E-02 
963	 1.07510126216718E-02 
964	 9.77866251709966E-03 
965	 9.60204587134214E-03 
966	 9.96225002158472E-03 
967	 1.06833779110239E-02 
968	 9.95117080963134E-03 
969	 9.1936231507156E-03 
970	 9.44243440821463E-03 
971	 1.07844018809102E-02 
972	 1.07865238602983E-02 
973	 1.07220901717796E-02 
974	 1.11301608533654E-02 
975	 1.13821505463829E-02 
976	 1.10392209026384E-02 
977	 1.13286649486005E-02 
978	 1.16975375277898E-02 
979	 1.04991301050411E-02 
980	 1.06651344578606E-02 
981	 1.12388109803957E-02 
982	 1.15282349121991E-02 
983	 1.14518535922944E-02 
984	 1.10894981564685E-02 
985	 0.010994911161108 
986	 1.10903644144149E-02 
987	 1.09882270041458E-02 
988	 1.21329074054492E-02 
989	 1.26013592273995E-02 
990	 1.16730198083108E-02 
991	 1.02452955052023E-02 
992	 0.011266356902845 
993	 1.27735418738876E-02 
994	 1.34461431395042E-02 
995	 1.29316596172331E-02 
996	 1.10497245125272E-02 
997	 1.17544277627629E-02 
998	 1.34428429301448E-02 
999	 1.21915828396439E-02 
1000	 1.27222821173594E-02 
1001	 1.17769849818139E-02 
1002	 1.21293470168248E-02 
1003	 1.21804460583699E-02 
1004	 1.22869210658589E-02 
1005	 1.23237383446005E-02 
1006	 1.20835398879845E-02 
1007	 1.19217484734011E-02 
1008	 1.19286311665013E-02 
1009	 1.19413103094146E-02 
1010	 1.18983449171593E-02 
1011	 1.17968468007477E-02 
1012	 1.18873934880165E-02 
1013	 1.20499224431391E-02 
1014	 0.012133878451231 
1015	 1.22164300696474E-02 
1016	 1.23756920560007E-02 
1017	 1.26398457114775E-02 
1018	 1.26515113029552E-02 
1019	 1.26407696445523E-02 
1020	 1.26102836953609E-02 
1021	 1.23229230740411E-02 
1022	 1.20711509563518E-02 
1023	 0.012176524813731 
1024	 0.012360771700539 
1025	 1.26375311333427E-02 
1026	 1.29619077793971E-02 
1027	 1.30269106757215E-02 
1028	 1.30457500016292E-02 
1029	 1.29104833325714E-02 
1030	 1.23226421870776E-02 
1031	 1.22844366561751E-02 
1032	 1.25624469373247E-02 
1033	 1.24922624525888E-02 
1034	 1.25378030155172E-02 
1035	 1.25149689031553E-02 
1036	 1.20591244879953E-02 
1037	 1.19981797039316E-02 
1038	 1.23942202529554E-02 
1039	 1.24305807204655E-02 
1040	 1.25075954701828E-02 
1041	 1.24576731859526E-02 
1042	 1.24039997132933E-02 
1043	 1.21467153649753E-02 
1044	 1.21161548946705E-02 
1045	 0.012235559401337 
1046	 1.21950512764613E-02 
1047	 1.20626426696556E-02 
1048	 1.21090563421517E-02 
1049	 1.22207399242295E-02 
1050	 1.22597220991076E-02 
1051	 1.24797525367765E-02 
1052	 1.24980490339447E-02 
1053	 1.21739711404409E-02 
1054	 1.21167085273941E-02 
1055	 1.21650669558287E-02 
1056	 1.21954278202507E-02 
1057	 1.22757092141835E-02 
1058	 0.012524634309204 
1059	 1.26095599695549E-02 
1060	 1.26334467451122E-02 
1061	 1.26364380605256E-02 
1062	 1.25455941915968E-02 
1063	 1.25883481463985E-02 
1064	 1.27329237646437E-02 
1065	 1.27128195192193E-02 
1066	 1.27445885370355E-02 
1067	 1.26626071414455E-02 
1068	 1.22071035593317E-02 
1069	 1.20892314414164E-02 
1070	 1.21283647727558E-02 
1071	 1.21750474521804E-02 
1072	 1.23497675099514E-02 
1073	 1.27068769651935E-02 
1074	 1.27106030118421E-02 
1075	 1.25202764823444E-02 
1076	 1.25092470196818E-02 
1077	 1.24364556206734E-02 
1078	 1.23316180954167E-02 
1079	 1.22891553561709E-02 
1080	 1.22697882215933E-02 
1081	 1.21122328496154E-02 
1082	 1.20952692439737E-02 
1083	 1.23386783290015E-02 
1084	 0.012365104536536 
1085	 1.21904542407169E-02 
1086	 1.22125516360608E-02 
1087	 1.22978304301542E-02 
1088	 1.23391127602983E-02 
1089	 0.012698793953412 
1090	 1.26997981632206E-02 
1091	 1.24726108468052E-02 
1092	 0.011905570447477 
1093	 1.16130857661328E-02 
1094	 1.09655969710385E-02 
1095	 1.09624408339738E-02 
1096	 1.17092264367913E-02 
1097	 1.17071053405573E-02 
1098	 1.15948858941485E-02 
1099	 1.14743216500833E-02 
1100	 1.06689077673493E-02 
1101	 1.04610597453252E-02 
1102	 1.09047950772808E-02 
1103	 1.10721728083572E-02 
1104	 1.16468575906173E-02 
1105	 1.14047933432681E-02 
1106	 1.07509924172159E-02 
1107	 1.05637585016125E-02 
1108	 1.01938552018497E-02 
1109	 1.03211741385127E-02 
1110	 0.010456525844546 
1111	 1.12915283542966E-02 
1112	 1.13164469384186E-02 
1113	 1.07314515581618E-02 
1114	 1.05865915762615E-02 
1115	 1.00366873198097E-02 
1116	 1.04258433958567E-02 
1117	 1.26416589431391E-02 
1118	 1.34257513598508E-02 
1119	 1.40696434026216E-02 
1120	 1.40749443598529E-02 
1121	 9.00749158785494E-03 
1122	 1.03325550155088E-02 
1123	 1.20212332523537E-02 
1124	 9.56716849618703E-03 
1125	 1.36752869838763E-02 
1126	 1.27250033139479E-02 
1127	 7.16363587641925E-03 
1128	 1.27325514128948E-02 
1129	 1.30304789133798E-02 
1130	 9.25859445026589E-03 
1131	 9.12515591175952E-03 
1132	 1.22716629236067E-02 
1133	 1.14790852379142E-02 
1134	 9.13357647145027E-03 
1135	 9.6244975096626E-03 
1136	 9.66330789997685E-03 
1137	 9.49496987152184E-03 
1138	 1.06445579343403E-02 
1139	 1.20979364336174E-02 
1140	 1.07113586126073E-02 
1141	 9.01086782783795E-03 
1142	 8.17743076035448E-03 
1143	 7.86752298493029E-03 
1144	 8.92679866684075E-03 
1145	 1.04983259260499E-02 
1146	 1.04408860734018E-02 
1147	 9.91989569906491E-03 
1148	 9.7059308272552E-03 
1149	 9.73989388279811E-03 
1150	 9.72166751348242E-03 
1151	 0.010309874592784 
1152	 9.98698216300626E-03 
1153	 9.14095785583469E-03 
1154	 8.68550580073304E-03 
1155	 7.71086161150713E-03 
1156	 8.23133371276684E-03 
1157	 9.2318277704013E-03 
1158	 9.16330704136308E-03 
1159	 9.25042444884726E-03 
1160	 9.76016377719769E-03 
1161	 9.75974922862513E-03 
1162	 9.82751133572655E-03 
1163	 1.01519059168529E-02 
1164	 1.01445582456137E-02 
1165	 9.84214971424882E-03 
1166	 9.94747099220488E-03 
1167	 1.03670053069001E-02 
1168	 1.02918089349299E-02 
1169	 1.02440925662855E-02 
1170	 0.010494862949684 
1171	 1.05714657633423E-02 
1172	 1.04616893316895E-02 
1173	 0.010464689681775 
1174	 1.05983114852538E-02 
1175	 0.010511167006461 
1176	 1.03564736955318E-02 
1177	 1.04582560441337E-02 
1178	 1.04398965649246E-02 
1179	 1.03634745866983E-02 
1180	 1.05733518190426E-02 
1181	 1.05465600790274E-02 
1182	 1.02207392092764E-02 
1183	 1.01408369991692E-02 
1184	 1.00956192665818E-02 
1185	 1.01007489986899E-02 
1186	 1.04982328843401E-02 
1187	 1.05736436493107E-02 
1188	 1.01843027278919E-02 
1189	 1.00703163157752E-02 
1190	 1.01697657206159E-02 
1191	 0.010291307292884 
1192	 0.010401434665 
1193	 1.07329763478019E-02 
1194	 1.07616180272275E-02 
1195	 1.05257612607025E-02 
1196	 1.05485818499309E-02 
1197	 1.05728933713087E-02 
1198	 1.04119825703063E-02 
1199	 1.04201972973007E-02 
1200	 1.04013545674267E-02 
1201	 1.02348903143263E-02 
1202	 1.03290678080504E-02 
1203	 0.010673531059021 
1204	 0.010688536098743 
1205	 1.04337873922027E-02 
1206	 1.05136107775315E-02 
1207	 1.06422460962088E-02 
1208	 1.04794063924189E-02 
1209	 1.05448115502166E-02 
1210	 1.07803459581752E-02 
1211	 1.05584916435774E-02 
1212	 1.04112496073391E-02 
1213	 1.08139784743574E-02 
1214	 1.08835748941577E-02 
1215	 1.07268497169565E-02 
1216	 1.04873404843616E-02 
1217	 1.07619513394495E-02 
1218	 1.06925921422997E-02 
1219	 0.010553537462091 
1220	 1.09608386041768E-02 
1221	 1.10277745255206E-02 
1222	 1.06745341702852E-02 
1223	 1.07058079225639E-02 
1224	 1.08702090938094E-02 
1225	 1.07969885600042E-02 
1226	 1.08232992233905E-02 
1227	 1.09726937067149E-02 
1228	 1.08329551131973E-02 
1229	 1.07077420526556E-02 
1230	 1.10944825714232E-02 
1231	 1.13149021410076E-02 
1232	 1.10365134243602E-02 
1233	 1.09415598746996E-02 
1234	 1.09857272144342E-02 
1235	 1.09208417347531E-02 
1236	 0.01087583280329 
1237	 1.09745683551754E-02 
1238	 1.11932103218202E-02 
1239	 1.10124441275998E-02 
1240	 1.10435360508797E-02 
1241	 1.13039231125837E-02 
1242	 1.12575447889394E-02 
1243	 1.11231525725005E-02 
1244	 1.10859191366967E-02 
1245	 1.10184618621904E-02 
1246	 1.10247374747933E-02 
1247	 1.10437611364881E-02 
1248	 1.09952672497284E-02 
1249	 1.09835716362868E-02 
1250	 1.10079059721963E-02 
1251	 1.10454702149229E-02 
1252	 1.10753975235291E-02 
1253	 1.10493546114893E-02 
1254	 1.09541526139449E-02 
1255	 1.09242102912404E-02 
1256	 1.08756509288269E-02 
1257	 0.010783822604553 
1258	 1.07838945492002E-02 
1259	 1.09138272423243E-02 
1260	 1.08837339403526E-02 
1261	 1.07495160157014E-02 
1262	 1.07833634839066E-02 
1263	 1.08300960077524E-02 
1264	 1.08610142975973E-02 
1265	 1.08396725514519E-02 
1266	 1.08347166784125E-02 
1267	 1.07047824888036E-02 
1268	 1.05928040995609E-02 
1269	 1.06000562158131E-02 
1270	 1.06363446578222E-02 
1271	 1.07959222315643E-02 
1272	 1.07988288099201E-02 
1273	 1.07079755073265E-02 
1274	 1.08454311025303E-02 
1275	 1.08814378302029E-02 
1276	 1.08691239003269E-02 
1277	 1.10363312388009E-02 
1278	 1.11216008485443E-02 
1279	 0.011047197889414 
1280	 1.09413115572034E-02 
1281	 1.09541490914864E-02 
1282	 1.10614514331522E-02 
1283	 1.10025466377607E-02 
1284	 1.08585733413572E-02 
1285	 0.010904147025337 
1286	 1.09560980812797E-02 
1287	 1.09081457906641E-02 
1288	 0.011053547295668 
1289	 1.10491190694077E-02 
1290	 1.07664203948783E-02 
1291	 1.05877708625413E-02 
1292	 1.05978731044235E-02 
1293	 1.07509925375391E-02 
1294	 1.08515340553295E-02 
1295	 1.08203458339381E-02 
1296	 1.09564204509118E-02 
1297	 1.09018192074154E-02 
1298	 1.06391063159547E-02 
1299	 1.04750183425591E-02 
1300	 1.03475977754268E-02 
1301	 1.04141647424235E-02 
1302	 1.05393809444213E-02 
1303	 1.05510180965939E-02 
1304	 1.04628727183355E-02 
1305	 1.02100085149794E-02 
1306	 1.00905279759893E-02 
1307	 1.00616504239584E-02 
1308	 1.01292084111115E-02 
1309	 1.03760116286332E-02 
1310	 1.03770116913547E-02 
1311	 1.02921321352776E-02 
1312	 1.03313781883972E-02 
1313	 0.01026588452596 
1314	 1.01097253556032E-02 
1315	 1.00845907874548E-02 
1316	 1.00883078909822E-02 
1317	 9.90512601026657E-03 
1318	 9.76977218380611E-03 
1319	 9.66401534377042E-03 
1320	 9.74438517265606E-03 
1321	 1.00651506228507E-02 
1322	 1.00626691646198E-02 
1323	 9.5642846317003E-03 
1324	 9.3761222856688E-03 
1325	 8.91350558155539E-03 
1326	 8.73793904900365E-03 
1327	 0.010142750798079 
1328	 1.09828245316756E-02 
1329	 1.04672096331667E-02 
1330	 1.01806662536078E-02 
1331	 9.36937830045134E-03 
1332	 8.81530168155321E-03 
1333	 9.37408916772435E-03 
1334	 9.51312387967495E-03 
1335	 9.68457357542036E-03 
1336	 1.01232996081086E-02 
1337	 9.88452677647915E-03 
1338	 8.55594792693528E-03 
1339	 8.74811031283902E-03 
1340	 9.83157316646648E-03 
1341	 9.81695772342093E-03 
1342	 1.00502118766502E-02 
1343	 1.08584766546776E-02 
1344	 1.10402183398003E-02 
1345	 1.09089049164797E-02 
1346	 1.26595471593311E-02 
1347	 0.013773806387345 
1348	 1.02620847213897E-02 
1349	 9.98884129929343E-03 
1350	 0.018114603836839 
1351	 2.16497220855062E-02 
1352	 1.78243592489728E-02 
1353	 2.19202274395652E-02 
1354	 0.025763508049802 
1355	 2.75579755096603E-02 
1356	 5.42734723518205E-02 
1357	 0.101277274284878 
1358	 0.111930616922504 
1359	 0.12924536901589 
1360	 0.148091729633702 
1361	 0.160978396675155 
1362	 0.237592977201213 
1363	 0.274011156248845 
1364	 0.225126534128909 
1365	 0.207529720941291 
1366	 0.302313337635063 
1367	 0.387440072854543 
1368	 0.370302355339099 
1369	 0.4997086512693 
1370	 0.636346781461757 
1371	 0.251656752050927 
1372	 0.210458500834898 
1373	 0.594190052821009 
1374	 0.601717261967782 
1375	 0.191455080283765 
1376	 0.272696843280433 
1377	 0.712344235795268 
1378	 0.719101860721166 
1379	 0.479669810440499 
1380	 0.534946932357742 
1381	 0.381440559597928 
1382	 0.291054916651664 
1383	 0.56374982598358 
1384	 0.636264137365014 
1385	 0.449447732342128 
1386	 0.448333310587173 
1387	 0.622527414446362 
1388	 0.669738703875541 
1389	 0.853618974864316 
1390	 0.855356701533614 
1391	 0.387489506923812 
1392	 0.464369296683192 
1393	 0.491221194684631 
1394	 0.450209178151026 
1395	 0.723675487651994 
1396	 0.71870317290245 
1397	 0.420521526153329 
1398	 0.338961449186458 
1399	 0.489960224659738 
1400	 0.457945928565095 
1401	 0.386556511951951 
1402	 0.358258763149739 
1403	 0.292277295925159 
1404	 0.318039534819581 
1405	 0.245839974877739 
1406	 0.381082800572272 
1407	 0.366309197613291 
1408	 0.128479037515391 
1409	 9.29933299486811E-02 
1410	 0.196816213496725 
1411	 0.18549216443379 
1412	 0.123187598176962 
1413	 0.11672297733851 
1414	 0.119240906402977 
1415	 0.129268785556163 
1416	 0.182163337038244 
1417	 0.158185297501297 
1418	 9.90931169759394E-02 
1419	 8.01154634835323E-02 
1420	 5.03210377158191E-02 
1421	 4.21574355530399E-02 
1422	 7.28671972348821E-02 
1423	 5.74786145648349E-02 
1424	 6.4588720471986E-03 
1425	 0.009839424399776 
1426	 3.48616231448056E-02 
1427	 3.25927971728656E-02 
1428	 4.38892286439106E-02 
1429	 4.09435359500256E-02 
1430	 1.37760126805082E-03 
1431	-5.33254313426686E-03 
1432	 1.27553161022021E-02 
1433	 1.48466597038248E-02 
1434	 1.39260714839051E-02 
1435	 0.020090780016105 
1436	 0.033559578082826 
1437	 2.78072345481002E-02 
1438	 2.16540707481655E-02 
1439	 1.77560006683169E-02 
1440	 6.42990089903992E-03 
1441	 5.61064814886089E-03 
1442	 0.01198524194877 
1443	 0.019865359346809 
1444	 2.43217744113586E-02 
1445	 1.91366456802869E-02 
1446	 0.011705720962042 
1447	 1.12176380846262E-02 
1448	 1.17425234941431E-02 
1449	 8.63786980280908E-03 
1450	 1.05156477568211E-02 
1451	 1.29826739962755E-02 
1452	 1.10324523053622E-02 
1453	 1.00944802579069E-02 
1454	 9.95060122479556E-03 
1455	 9.10064302496719E-03 
1456	 8.97438263134832E-03 
1457	 1.03223105610528E-02 
1458	 1.02591323093468E-02 
1459	 9.14764265601775E-03 
1460	 8.94310937758937E-03 
1461	 8.81514533820751E-03 
1462	 9.05360960099551E-03 
1463	 1.00190709571242E-02 
1464	 9.92354368616138E-03 
1465	 9.43054885608467E-03 
1466	 9.06761141997544E-03 
1467	 8.18488395391418E-03 
1468	 7.99779609092305E-03 
1469	 7.9025163011647E-03 
1470	 8.35976616857697E-03 
1471	 9.71370515245442E-03 
1472	 9.80578042180447E-03 
1473	 1.02164348919699E-02 
1474	 9.43576455037534E-03 
1475	 6.37467314458748E-03 
1476	 6.51918476714146E-03 
1477	 8.47089128190004E-03 
1478	 8.62152417529517E-03 
1479	 9.09637329368997E-03 
1480	 9.18256074064187E-03 
1481	 7.75569287747727E-03 
1482	 7.72434564509284E-03 
1483	 9.33542700495673E-03 
1484	 9.13322404419524E-03 
1485	 7.41262393435967E-03 
1486	 7.82093661081754E-03 
1487	 8.98593242906754E-03 
1488	 9.10000187203887E-03 
1489	 9.78207734050366E-03 
1490	 1.00522420795302E-02 
1491	 9.40798074026231E-03 
1492	 9.09373597261736E-03 
1493	 9.05149203019195E-03 
1494	 9.10430077869746E-03 
1495	 9.14787698143462E-03 
1496	 9.07782928321122E-03 
1497	 9.01752445470328E-03 
1498	 9.12778456483655E-03 
1499	 9.21456890491095E-03 
1500	 9.22459568609902E-03 
1501	 9.50682698394838E-03 
1502	 9.56074897489609E-03 
1503	 9.05031243008396E-03 
1504	 9.06511085098504E-03 
1505	 9.44273354015415E-03 
1506	 9.76773254524539E-03 
1507	 9.66766791345327E-03 
1508	 9.69139777471331E-03 
1509	 9.80651227193597E-03 
1510	 9.77467036353944E-03 
1511	 1.01616057789473E-02 
1512	 1.03713305482249E-02 
1513	 1.00002815780159E-02 
1514	 9.88632391017399E-03 
1515	 9.92487884088147E-03 
1516	 9.95640057114881E-03 
1517	 1.02106822606221E-02 
1518	 1.02400443964881E-02 
1519	 1.01069842030217E-02 
1520	 1.02122216188589E-02 
1521	 1.02449901374829E-02 
1522	 1.01910910030446E-02 
1523	 1.01029979169751E-02 
1524	 1.00673746177841E-02 
1525	 1.02467911455613E-02 
1526	 0.010309573602988 
1527	 1.01827011428053E-02 
1528	 1.00799469165748E-02 
1529	 1.01566761437115E-02 
1530	 1.04175939068145E-02 
1531	 1.07408208032072E-02 
1532	 0.010768073631928 
1533	 0.010458384892522 
1534	 1.03653366174065E-02 
1535	 1.04738906766037E-02 
1536	 1.05033643688131E-02 
1537	 1.04216892843758E-02 
1538	 1.03154205969308E-02 
1539	 1.03269989276123E-02 
1540	 1.03476908948251E-02 
1541	 1.04603613477791E-02 
1542	 1.06410119909333E-02 
1543	 1.05974448006659E-02 
1544	 1.05687905665807E-02 
1545	 1.06941905028607E-02 
1546	 1.07138580810786E-02 
1547	 1.06488657136489E-02 
1548	 1.06927977600981E-02 
1549	 1.08023981687208E-02 
1550	 1.07793182515708E-02 
1551	 1.07333303572993E-02 
1552	 1.07787045513088E-02 
1553	 1.07331726199793E-02 
1554	 1.06971106004411E-02 
1555	 0.010781244139577 
1556	 1.07249712606322E-02 
1557	 1.07319444801634E-02 
1558	 0.010953139774313 
1559	 1.09377946870417E-02 
1560	 1.07916500791466E-02 
1561	 1.07482946585322E-02 
1562	 1.06796414432316E-02 
1563	 1.07658586925299E-02 
1564	 1.09665686279346E-02 
1565	 1.10491842693719E-02 
1566	 1.10012459949489E-02 
1567	 1.07611731633108E-02 
1568	 1.07777244583881E-02 
1569	 1.10021070787252E-02 
1570	 0.010797401729594 
1571	 1.06848495261945E-02 
1572	 1.07924629614997E-02 
1573	 1.07500983254392E-02 
1574	 1.08459066109892E-02 
1575	 1.08741963331082E-02 
1576	 1.07998085958151E-02 
1577	 1.08436752161344E-02 
1578	 1.08749684579052E-02 
1579	 1.09511275326853E-02 
1580	 1.09683576676866E-02 
1581	 1.08742245282265E-02 
1582	 1.08649790416555E-02 
1583	 1.09905889376556E-02 
1584	 0.011043718356555 
1585	 1.09654557286109E-02 
1586	 0.01094975935314 
1587	 1.08810244473958E-02 
1588	 1.08428205093783E-02 
1589	 1.10514482966877E-02 
1590	 1.10285234419397E-02 
1591	 1.08308712287212E-02 
1592	 1.09456662394154E-02 
1593	 1.09017425972404E-02 
1594	 1.07532291231211E-02 
1595	 1.08112576561563E-02 
1596	 1.06565639233229E-02 
1597	 0.010604497256802 
1598	 1.06938430383307E-02 
1599	 1.05551574059807E-02 
1600	 0.010741558947703 
1601	 1.09354728100349E-02 
1602	 1.06725776525432E-02 
1603	 1.07403423077947E-02 
1604	 1.09223403931855E-02 
1605	 1.06451582392985E-02 
1606	 1.06784196645406E-02 
1607	 1.10909496211432E-02 
1608	 1.09716112524705E-02 
1609	 1.07600959172177E-02 
1610	 0.010993077709696 
1611	 1.10628630564707E-02 
1612	 1.08586253007318E-02 
1613	 1.07764754925671E-02 
1614	 1.08198443203779E-02 
1615	 1.06806666552774E-02 
1616	 1.06202943418545E-02 
1617	 1.09264709544854E-02 
1618	 1.10096304576947E-02 
1619	 1.07173137582556E-02 
1620	 1.07238223434471E-02 
1621	 1.09142412098515E-02 
1622	 1.07960642918823E-02 
1623	 1.08103324899182E-02 
1624	 1.09791974782869E-02 
1625	 1.08840259847237E-02 
1626	 1.08508367537239E-02 
1627	 1.10290356285408E-02 
1628	 1.11076727854199E-02 
1629	 1.10175994694695E-02 
1630	 1.09518666156952E-02 
1631	 1.09862777828934E-02 
1632	 1.09380378035043E-02 
1633	 1.08925382392986E-02 
1634	 1.10025491224493E-02 
1635	 1.11185584279137E-02 
1636	 1.11894531690957E-02 
1637	 1.11442050214924E-02 
1638	 1.10811553074309E-02 
1639	 1.10996850827543E-02 
1640	 1.10778209131031E-02 
1641	 1.10831473559681E-02 
1642	 1.10266426349745E-02 
1643	 1.08032965324669E-02 
1644	 1.06393387908725E-02 
1645	 1.07292859702545E-02 
1646	 1.08928822760703E-02 
1647	 1.09473911405955E-02 
1648	 1.10938029161303E-02 
1649	 1.11785205419092E-02 
1650	 1.10460423020878E-02 
1651	 1.10245661300391E-02 
1652	 1.09387526022391E-02 
1653	 1.07148011726169E-02 
1654	 1.07231269965311E-02 
1655	 1.09408365443051E-02 
1656	 1.09112654251555E-02 
1657	 1.07583448263493E-02 
1658	 0.010884274353142 
1659	 1.10661603639446E-02 
1660	 1.10069465921285E-02 
1661	 1.10513359246216E-02 
1662	 0.011102206342736 
1663	 1.09869140693201E-02 
1664	 1.09986564372835E-02 
1665	 0.011124552063349 
1666	 0.01116427989844 
1667	 1.11438590784689E-02 
1668	 1.06898572072425E-02 
1669	 1.06316465953163E-02 
1670	 1.07547096050953E-02 
1671	 1.06604114609867E-02 
1672	 1.07991966056452E-02 
1673	 0.010830789356073 
1674	 1.03707343151982E-02 
1675	 1.02193869538142E-02 
1676	 1.07524663336237E-02 
1677	 1.09067795194963E-02 
1678	 1.06542757922049E-02 
1679	 1.08610213593907E-02 
1680	 1.09799276772986E-02 
1681	 1.05767169534077E-02 
1682	 1.05887421636849E-02 
1683	 1.09884379145328E-02 
1684	 1.06389035365315E-02 
1685	 1.03929070583768E-02 
1686	 1.10506031671503E-02 
1687	 1.11458752444926E-02 
1688	 1.05737951802419E-02 
1689	 1.07293644158081E-02 
1690	 1.11643760284368E-02 
1691	 1.10698015818272E-02 
1692	 1.11443856958062E-02 
1693	 1.12589635517631E-02 
1694	 1.07288891324149E-02 
1695	 1.05691343233986E-02 
1696	 1.11243189890986E-02 
1697	 1.12851500648151E-02 
1698	 1.12682480828675E-02 
1699	 1.12075259140562E-02 
1700	 1.07580391258622E-02 
1701	 1.07564901921796E-02 
1702	 1.10625319966101E-02 
1703	 1.06457000642355E-02 
1704	 1.02234623605289E-02 
1705	 1.03989986049875E-02 
1706	 1.04994642946015E-02 
1707	 1.06933763203183E-02 
1708	 1.09609391374028E-02 
1709	 1.08195225144327E-02 
1710	 1.05051170456465E-02 
1711	 1.04912859451822E-02 
1712	 1.09765560766434E-02 
1713	 1.10222686412864E-02 
1714	 1.09723756847779E-02 
1715	 1.05632099853356E-02 
1716	 1.07589993610461E-02 
1717	 1.12989197001313E-02 
1718	 1.13447294450219E-02 
1719	 1.10390112826795E-02 
1720	 1.07973569648759E-02 
1721	 1.05933769380673E-02 
1722	 1.07516398548426E-02 
1723	 1.12618077675449E-02 
1724	 1.08134347904793E-02 
1725	 9.89262456456914E-03 
1726	 9.96085671468037E-03 
1727	 1.03483625918548E-02 
1728	 1.05308607456352E-02 
1729	 1.08441018760111E-02 
1730	 1.07741622732375E-02 
1731	 1.00853181930885E-02 
1732	 9.94509090050663E-03 
1733	 1.07528087297444E-02 
1734	 1.07193883918485E-02 
1735	 9.89866077826271E-03 
1736	 9.73809703516793E-03 
1737	 9.11902488231064E-03 
1738	 8.91903183775015E-03 
1739	 1.02087361150009E-02 
1740	 1.07812292472479E-02 
1741	 1.03496923084616E-02 
1742	 1.00493196386597E-02 
1743	 9.87360377505713E-03 
1744	 9.80675739497162E-03 
1745	 1.03512162918032E-02 
1746	 1.09111103116336E-02 
1747	 1.09673832348065E-02 
1748	 1.04975905843236E-02 
1749	 1.03662493431925E-02 
1750	 1.03924852493124E-02 
1751	 1.03512155325589E-02 
1752	 1.03814264079342E-02 
1753	 1.03231219840032E-02 
1754	 9.97588010467778E-03 
1755	 9.85654964513037E-03 
1756	 9.88116335242267E-03 
1757	 1.00627027884174E-02 
1758	 1.03506605880125E-02 
1759	 1.01860299136223E-02 
1760	 1.01425375839824E-02 
1761	 1.00159087622385E-02 
1762	 9.63783414844043E-03 
1763	 9.92077256445029E-03 
1764	 1.02674116615263E-02 
1765	 1.02570264144104E-02 
1766	 1.03123784585095E-02 
1767	 9.87927301203314E-03 
1768	 9.17455070672093E-03 
1769	 9.46176585170285E-03 
1770	 1.00245571903258E-02 
1771	 1.08357684212301E-02 
1772	 1.15320441969165E-02 
1773	 1.06342707001747E-02 
1774	 1.00441149256944E-02 
1775	 9.85600975400886E-03 
1776	 9.71248356802709E-03 
1777	 1.06227952391747E-02 
1778	 1.10074329227028E-02 
1779	 1.12684407797458E-02 
1780	 1.08772103138934E-02 
1781	 9.28334546819604E-03 
1782	 0.009145551331922 
1783	 9.18497953248722E-03 
1784	 9.3406131613041E-03 
1785	 1.12327227262574E-02 
1786	 1.19345057529474E-02 
1787	 0.011728814806854 
1788	 1.11229470012068E-02 
1789	 9.66875929001966E-03 
1790	 9.53440841991061E-03 
1791	 8.94921481951708E-03 
1792	 8.74989162213833E-03 
1793	 1.27586468936624E-02 
1794	 1.81840406004756E-02 
1795	 1.74165591108651E-02 
1796	 1.35482451542975E-02 
1797	 1.25181660585154E-02 
1798	 7.97011376005888E-03 
1799	 9.77693668565366E-03 
1800	 0.019748695236097 
1801	 2.16416667745348E-02 
1802	 2.14144235975781E-03 
1803	-1.72901178359479E-03 
1804	 9.19963113868587E-03 
1805	 1.65286348971464E-02 
1806	 5.40146291705226E-02 
1807	 8.24095793920472E-02 
1808	 8.01381956149469E-02 
1809	 9.89281001806467E-02 
1810	 0.160860335461491 
1811	 0.131811714663452 
1812	-6.06177170639254E-02 
1813	-8.88346772309026E-02 
1814	-0.159012058296189 
1815	-6.36306987627332E-02 
1816	 0.58085448412868 
1817	 0.564967271254072 
1818	 0.641605385765673 
1819	 0.343768580965697 
1820	-0.134975633888596 
1821	-1.09962867647071E-02 
1822	 4.35308429271297E-02 
1823	 0.285719681041621 
1824	 0.338145486708212 
1825	 0.275445829312126 
1826	 0.298944081752469 
1827	 0.306340187246254 
1828	 0.611319828793853 
1829	-1.25882381463922 
1830	-1.87354363182559 
1831	 0.981307752957711 
1832	 1.00900331429713 
1833	 2.70907213755545 
1834	 6.39392459837573 
1835	-3.83406212543631 
1836	-6.62667836454722 
1837	 1.48493309722797 
1838	 1.976356800817 
1839	 19.6771882147755 
1840	-4.11697964069243 
1841	-1.52703266357657 
1842	-0.606104573712866 
1843	-0.460728186107608 
1844	-0.958997444134701 
1845	-1.44655784044567 
1846	-2.10250944372199 
1847	-2.66725819018353 
1848	-8.02643726043666 
1849	 0.916723623616413 
1850	 1.71901689596942 
1851	 4.01302456194599 
1852	 1.5886717845129 
1853	 7.09255127744749 
1854	-7.97636463750437 
1855	-2.33509968913479 
1856	-1.3517756700464 
1857	 5.74271561026456E-02 
1858	 0.206378988780576 
1859	 0.539751642537988 
1860	 0.624995073894931 
1861	-2.73445279882099 
1862	-2.56024968995494 
1863	-3.26762118088218 
1864	-3.97716993282362 
1865	-2.99204662633834 
1866	-2.51214641494242 
1867	-3.5999815699782 
1868	-1.78697248965368 
1869	-1.19677529836407 
1870	-0.798914366599209 
1871	-1.51368262227896 
1872	-1.64517313324539 
1873	-1.61309825449697 
1874	-28.0150560650827 
1875	 15.5840786813376 
1876	 16.6461904023155 
1877	-5.57752480574208 
1878	-3.34918830896908 
1879	-0.999705285486945 
1880	-1.31477903900512 
1881	-29.3612125161114 
1882	 72.2870068671162 
1883	 8.63245919364088 
1884	-270.380389099493 
1885	-1.01692992703561 
1886	-0.643271823470129 
1887	-79.9023067056877 
1888	 259.647047939067 
1889	-16.3930604314147 
1890	-4.56221741622357 
1891	-3.27682198444643 
1892	-0.867548694184987 
1893	 0.42324760094548 
1894	 1.10952465753144 
1895	 1.8259129678609 
1896	 0.541261920058385 
1897	 9.62309960945093E-02 
1898	 0.142265104238214 
1899	-1.58644964448478 
1900	-6.1653466296062 
1901	 2.13690616512105 
1902	 3.11159230112995 
1903	-2.76185698664303 
1904	-0.752153873476811 
1905	-0.154578727253805 
1906	-0.231927338255104 
1907	-0.473738722598253 
1908	-0.910788676509962 
1909	 0.356610254572915 
1910	 0.0572886392802 
1911	-0.414078639603603 
1912	-0.478880781119027 
1913	-0.691365690008991 
1914	-31.0811936226171 
1915	 2.05153120283187 
1916	 0.79203450828732 
1917	 1.05532639726844 
1918	 1.17223655177365 
1919	 0.964679604222696 
1920	-2.5331476161103 
1921	-6.0233979059578 
1922	-0.103276895081286 
1923	 6.71784711308054E-02 
1924	-0.198402858980066 
1925	 0.874353737404863 
1926	 1.16893855587645 
1927	 0.914631905423877 
1928	 0.994972103370045 
1929	 6.3298692007457 
1930	-0.830237831791167 
1931	-0.444240382819237 
1932	-0.51909089700334 
1933	-0.375271971230504 
1934	-0.568864014459645 
1935	-0.108483821363077 
1936	 0.136306677708497 
1937	-5.03896516562612E-03 
1938	 1.88865408560963E-02 
1939	 4.68319510130019E-02 
1940	 5.82593362450272E-02 
1941	-1.22469408305221E-02 
1942	 6.99768400716097E-02 
1943	 0.102875306333011 
1944	 3.35759071259028E-03 
1945	-3.71338974976809E-02 
1946	-4.20717651402946E-02 
1947	-2.68205201043815E-02 
1948	 1.55128009608464E-02 
1949	 3.62490988557472E-02 
1950	 1.54359236986429E-02 
1951	 1.09681254604378E-03 
1952	-4.1394836876864E-03 
1953	-2.97678504428982E-03 
1954	-4.49391871522521E-03 
1955	-4.60598484384461E-03 
1956	 2.77263045041161E-03 
1957	 1.85093358408671E-03 
1958	 1.56372685757709E-03 
1959	 8.71765020045137E-03 
1960	 3.17197671128215E-03 
1961	-4.24618500059697E-03 
1962	-6.57027553333375E-03 
1963	-4.70610312120992E-03 
1964	 7.64995884091027E-04 
1965	 2.69220583520932E-03 
1966	 3.35756120593027E-03 
1967	 4.40777361619556E-03 
1968	 5.80699509578105E-03 
1969	 4.06009234772654E-03 
1970	 4.50050870765055E-03 
1971	 6.48285476087329E-03 
1972	 4.93465873647081E-03 
1973	 5.00452577742285E-03 
1974	 6.12695601419916E-03 
1975	 5.11629787691649E-03 
1976	 4.12074928964406E-03 
1977	 4.24104973898594E-03 
1978	 3.77115587680869E-03 
1979	 3.5640387664438E-03 
1980	 3.65587086741649E-03 
1981	 5.57602752925108E-03 
1982	 5.74764073147952E-03 
1983	 4.24255459715243E-03 
1984	 4.83233104459775E-03 
1985	 6.42339622122578E-03 
1986	 6.38388696593203E-03 
1987	 6.49705117678283E-03 
1988	 6.25316289951622E-03 
1989	 5.13825230849407E-03 
1990	 5.18949197994793E-03 
1991	 5.72047023942974E-03 
1992	 6.16389531424078E-03 
1993	 5.56577553130317E-03 
1994	 5.12748544956685E-03 
1995	 3.9383720042346E-03 
1996	 3.9968032551382E-03 
1997	 4.08664557599738E-03 
1998	 4.05024067510398E-03 
1999	 4.11814868278225E-03 
2000	 4.85003827898948E-03 
2001	 5.35777062912305E-03 
2002	 5.31555261416297E-03 
2003	 5.95632526201702E-03 
2004	 5.38055969623828E-03 
2005	 4.40975630288672E-03 
2006	 3.87712654150275E-03 
2007	 2.60280513187019E-03 
2008	 2.07424901198351E-03 
2009	 2.8312116947999E-03 
2010	 5.32521055615528E-03 
2011	 7.1491945813743E-03 
2012	 1.00159922558078E-02 
2013	 1.13080062271458E-02 
2014	 1.25025294488388E-02 
2015	 1.11650402479352E-02 
2016	 8.34399932844402E-03 
2017	 6.80980429821822E-03 
2018	 6.02917195258574E-03 
2019	 5.40006077810778E-03 
2020	 5.25685703867149E-03 
2021	 5.78656065359891E-03 
2022	 6.97236788940542E-03 
2023	 0.008057316734034 
2024	 7.8098770784887E-03 
2025	 7.03864350234706E-03 
2026	 6.92111977381993E-03 
2027	 6.27087750410781E-03 
2028	 5.58011994430292E-03 
2029	 5.85303365680631E-03 
2030	 6.00380489049585E-03 
2031	 6.25981037779271E-03 
2032	 7.02481006982154E-03 
2033	 7.70682986311814E-03 
2034	 8.38290797929675E-03 
2035	 8.2904548501905E-03 
2036	 7.78723382760138E-03 
2037	 7.82114847237067E-03 
2038	 8.09919030449509E-03 
2039	 8.12118857072664E-03 
2040	 8.15685433977655E-03 
2041	 8.01599037986951E-03 
2042	 7.54702405990789E-03 
2043	 7.55672296513876E-03 
2044	 7.84274663219477E-03 
2045	 8.25603627636151E-03 
2046	 8.17919751473375E-03 
2047	 7.09053501180472E-03 
2048	 6.42957979717751E-03 
2049	 6.02782215872394E-03 
2050	 5.80392496677674E-03 
2051	 6.23466838083972E-03 
2052	 5.93172885617461E-03 
2053	 5.8917402150053E-03 
2054	 7.53437170754607E-03 
2055	 8.19499471324751E-03 
2056	 8.4387853379777E-03 
2057	 8.92041505821458E-03 
2058	 8.90928710126043E-03 
2059	 7.22099822816197E-03 
2060	 7.03347703585067E-03 
2061	 7.77615473723096E-03 
2062	 7.97430228289271E-03 
2063	 7.87648259864256E-03 
2064	 8.09505947626328E-03 
2065	 8.17200785056531E-03 
2066	 7.40836143518361E-03 
2067	 7.18499303026635E-03 
2068	 7.76653820226116E-03 
2069	 8.21381136232266E-03 
2070	 8.21631174159333E-03 
2071	 7.76650588800752E-03 
2072	 7.78570720642465E-03 
2073	 7.93998049867287E-03 
2074	 8.44802823424184E-03 
2075	 8.28527222066211E-03 
2076	 7.44677390900861E-03 
2077	 7.50697422428297E-03 
2078	 7.58836241790395E-03 
2079	 8.05335259346087E-03 
2080	 9.50350929670803E-03 
2081	 1.07244561003434E-02 
2082	 1.04852698975937E-02 
2083	 9.7060266422844E-03 
2084	 9.05872995295999E-03 
2085	 8.57704465166759E-03 
2086	 8.61269999506901E-03 
2087	 8.11228587366044E-03 
2088	 7.40480568734133E-03 
2089	 0.007818190523333 
2090	 8.3352652355476E-03 
2091	 7.96689318384825E-03 
2092	 8.15444124200581E-03 
2093	 8.82181345495775E-03 
2094	 8.74310314094634E-03 
2095	 8.36248129005016E-03 
2096	 8.41516704756499E-03 
2097	 8.00064518551193E-03 
2098	 7.80453546879364E-03 
2099	 7.8937954844626E-03 
2100	 0.008315048829957 
2101	 8.30654389442425E-03 
2102	 8.08876755990665E-03 
2103	 7.85581058281384E-03 
2104	 8.02940935426797E-03 
2105	 8.22008111411121E-03 
2106	 7.84401752466479E-03 
2107	 7.70217339591729E-03 
2108	 7.96079945383875E-03 
2109	 8.30548820498961E-03 
2110	 8.59801440271318E-03 
2111	 8.61084614691324E-03 
2112	 8.47195517446258E-03 
2113	 8.34412574617602E-03 
2114	 7.96843293817762E-03 
2115	 8.10262329743291E-03 
2116	 8.31527365056706E-03 
2117	 8.57155015516521E-03 
2118	 9.6237860191161E-03 
2119	 9.55019182580494E-03 
2120	 8.64269805839497E-03 
2121	 8.71427650593721E-03 
2122	 7.99562941909131E-03 
2123	 6.66882404714608E-03 
2124	 6.67975797735532E-03 
2125	 7.11023554572477E-03 
2126	 7.4493766167709E-03 
2127	 7.61125015356214E-03 
2128	 8.31574996828911E-03 
2129	 8.45460416503844E-03 
2130	 7.51460561261494E-03 
2131	 8.19809160404731E-03 
2132	 9.16915932729135E-03 
2133	 9.36976560101764E-03 
2134	 9.31382456675143E-03 
2135	 9.45199673087515E-03 
2136	 8.99076467166589E-03 
2137	 7.0344383744661E-03 
2138	 6.80053095153057E-03 
2139	 7.9343302047567E-03 
2140	 8.12715347930374E-03 
2141	 8.0181980239858E-03 
2142	 8.54937352518487E-03 
2143	 9.24799294645516E-03 
2144	 9.42590329245258E-03 
2145	 1.01711912471932E-02 
2146	 1.04687220465426E-02 
2147	 9.50428424527313E-03 
2148	 8.65547373163483E-03 
2149	 8.16903860330297E-03 
2150	 8.28222262396358E-03 
2151	 7.52304850971992E-03 
2152	 6.90605419670918E-03 
2153	 7.14153629786707E-03 
2154	 6.81899365553965E-03 
2155	 7.02637818532692E-03 
2156	 7.75862371334949E-03 
2157	 8.14411068130978E-03 
2158	 8.15841936965639E-03 
2159	 8.29012004056473E-03 
2160	 8.56471080025195E-03 
2161	 8.59037929520737E-03 
2162	 0.008894337783948 
2163	 8.49900272674496E-03 
2164	 7.0790106653926E-03 
2165	 6.70432198868128E-03 
2166	 5.71042364509395E-03 
2167	 5.62752637654923E-03 
2168	 7.61910452668773E-03 
2169	 8.30260075707141E-03 
2170	 8.56617483873422E-03 
2171	 9.11838527300151E-03 
2172	 8.37642593711731E-03 
2173	 7.52435882386364E-03 
2174	 7.74153472578048E-03 
2175	 7.21141749988008E-03 
2176	 6.90621771976662E-03 
2177	 7.47942739914521E-03 
2178	 8.29208802830236E-03 
2179	 9.43603244601693E-03 
2180	 1.03603846242728E-02 
2181	 1.05575809155057E-02 
2182	 9.43513655167946E-03 
2183	 8.41457302917465E-03 
2184	 9.46229891793232E-03 
2185	 1.00021015005213E-02 
2186	 1.00236887480084E-02 
2187	 1.03381863055649E-02 
2188	 1.06042613559953E-02 
2189	 1.00528784701989E-02 
2190	 9.66238145082173E-03 
2191	 9.83016305684895E-03 
2192	 9.64369893259438E-03 
2193	 8.35127244062362E-03 
2194	 7.83268537963955E-03 
2195	 8.41820579107726E-03 
2196	 8.24093444785779E-03 
2197	 7.33577907902916E-03 
2198	 7.40029064209308E-03 
2199	 8.36825534528769E-03 
2200	 7.7983102820856E-03 
2201	 8.22652432020377E-03 
2202	 7.52797813740242E-03 
2203	 4.91454625145076E-03 
2204	 4.51237078368819E-03 
2205	 4.97331256572221E-03 
2206	 4.83758809803856E-03 
2207	 6.32994722396962E-03 
2208	 8.13319082588695E-03 
2209	 9.64184124054724E-03 
2210	 1.09534755893309E-02 
2211	 1.04903359631934E-02 
2212	 9.23478667798356E-03 
2213	 7.83494462195694E-03 
2214	 7.01846417443084E-03 
2215	 6.98649280702679E-03 
2216	 7.38849414982195E-03 
2217	 8.0523766268742E-03 
2218	 8.7511181162433E-03 
2219	 8.71822053679379E-03 
2220	 9.44828568372309E-03 
2221	 9.19295395132246E-03 
2222	 7.31892272667764E-03 
2223	 6.7372086759694E-03 
2224	 6.08973027739273E-03 
2225	 6.31597088261362E-03 
2226	 7.62993133315375E-03 
2227	 8.36140814857842E-03 
2228	 1.03894885205782E-02 
2229	 1.01742822603161E-02 
2230	 7.14953438447684E-03 
2231	 6.40937164746929E-03 
2232	 5.83986813957788E-03 
2233	 6.13173456035735E-03 
2234	 8.83828483687719E-03 
2235	 9.87164429005979E-03 
2236	 9.10743027359423E-03 
2237	 7.07417605676816E-03 
2238	 4.34520017690576E-03 
2239	 4.94624903253827E-03 
2240	 6.72661710488115E-03 
2241	 7.1777580024871E-03 
2242	 9.79499509196882E-03 
2243	 1.10800887720212E-02 
2244	 0.009247228376171 
2245	 8.66380005022795E-03 
2246	 8.13479879648698E-03 
2247	 7.43336912682889E-03 
2248	 8.17718570753049E-03 
2249	 8.36882979879769E-03 
2250	 7.32439612161193E-03 
2251	 5.73970490767854E-03 
2252	 4.52501353382295E-03 
2253	 4.45099107570762E-03 
2254	 4.63032911925248E-03 
2255	 3.37729479360562E-03 
2256	 2.47003504615883E-03 
2257	 4.21667469200932E-03 
2258	 5.3673458756124E-03 
2259	 5.62932655498553E-03 
2260	 5.8045319286476E-03 
2261	 5.40094162748812E-03 
2262	 4.67122223712024E-03 
2263	 2.51384185656887E-03 
2264	 3.55631448733442E-03 
2265	 6.74219860763796E-03 
2266	 8.07500558379327E-03 
2267	 1.08657611717983E-02 
2268	 1.15171989355786E-02 
2269	 9.8133173908504E-03 
2270	 8.92817906600657E-03 
2271	 7.53850680152734E-03 
2272	 7.17802451160908E-03 
2273	 6.90460840768516E-03 
2274	 6.45217002238792E-03 
2275	 6.69915430500695E-03 
2276	 6.84540872827223E-03 
2277	 6.90344863631562E-03 
2278	 6.66036172336509E-03 
2279	 7.09343495772604E-03 
2280	 6.52414507476669E-03 
2281	 5.07505243789446E-03 
2282	 3.43125970878707E-03 
2283	 4.99480696833151E-04 
2284	-2.08825229926536E-03 
2285	-5.2947145065259E-04 
2286	 2.77137372912764E-04 
2287	 2.1038591734876E-03 
2288	 3.84680825931631E-03 
2289	 1.11952645813128E-03 
2290	 1.78376390257768E-03 
2291	 3.69899224965614E-03 
2292	 3.1081604062599E-03 
2293	 4.61977663433615E-03 
2294	 1.94146224155096E-03 
2295	-1.46254986115155E-03 
2296	 7.5247943963957E-04 
2297	 2.61190870693324E-03 
2298	 4.45636262470586E-03 
2299	 4.85206614248016E-03 
2300	 5.60372675168827E-03 
2301	 8.07682690817391E-03 
2302	 9.20474057059124E-03 
2303	 1.09952445967836E-02 
2304	 1.04064758254596E-02 
2305	 6.9584222676241E-03 
2306	 4.99714236885406E-03 
2307	 4.47580425322028E-03 
2308	 4.77973362708376E-03 
2309	 6.48260817855908E-03 
2310	 7.05506959012128E-03 
2311	 5.2404148623168E-03 
2312	 3.97659854536177E-03 
2313	 3.66233467633031E-03 
2314	 4.97751743922446E-03 
2315	 6.38334036414377E-03 
2316	 4.91842428113245E-03 
2317	 2.60912613358866E-03 
2318	-1.33590125661019E-03 
2319	-2.93110117935281E-03 
2320	 3.84986926154121E-03 
2321	 7.96926586112669E-03 
2322	 5.57235051104079E-03 
2323	 4.03857081311773E-03 
2324	 2.08072801299326E-03 
2325	 1.69680742440855E-03 
2326	 3.79185698083972E-03 
2327	 6.89910148305578E-03 
2328	 7.33321925257603E-03 
2329	 3.32452891734926E-03 
2330	 3.34326629250745E-03 
2331	 0.005015398242716 
2332	 3.06522514162114E-03 
2333	 4.10283889126848E-04 
2334	 5.80101324299963E-04 
2335	 4.61083250702436E-03 
2336	 2.18158323358028E-03 
2337	-3.27248162660216E-03 
2338	-2.61884329663097E-03 
2339	-4.35574839157272E-03 
2340	-6.6684530807483E-03 
2341	-2.62746162407255E-03 
2342	-5.28517906678723E-03 
2343	-1.28103628734623E-02 
2344	-1.04124491984247E-02 
2345	-6.41920832160489E-03 
2346	-1.38301677897229E-03 
2347	-1.14644459770229E-03 
2348	-5.66089353711324E-03 
2349	-5.84304943001753E-03 
2350	-8.60014293146642E-03 
2351	-9.86131740766716E-03 
2352	-1.03978180394198E-02 
2353	-1.51531297402243E-02 
2354	-2.26219782720136E-02 
2355	-2.25768614292639E-02 
2356	-1.16029995293956E-02 
2357	-9.41479509880281E-04 
2358	 4.38858912380351E-03 
2359	 1.84749121712697E-03 
2360	 2.13784105017832E-03 
2361	 1.75264811173204E-03 
2362	-4.31014195594481E-04 
2363	 2.81592318440785E-03 
2364	-0.0118692911273 
2365	-2.42931678599659E-02 
2366	-2.32246040923044E-02 
2367	-3.00702021567332E-02 
2368	-2.86691240232066E-02 
2369	-3.08180620008269E-02 
2370	-0.042842548038463 
2371	-3.19148055719588E-02 
2372	-1.04633679884106E-02 
2373	-4.29207331146228E-04 
2374	 3.60138515465143E-03 
2375	-2.29667306479591E-03 
2376	-4.03172177781262E-03 
2377	-5.88933358797125E-03 
2378	-1.45226409432726E-02 
2379	-5.62153733666091E-03 
2380	 5.55920064656198E-03 
2381	-4.04949656461359E-03 
2382	-1.82460161203734E-02 
2383	-3.42915302700776E-02 
2384	-5.46425621181383E-02 
2385	-0.064929955498255 
2386	-0.055171910311116 
2387	-4.17680842878007E-02 
2388	-5.24146368283891E-02 
2389	-7.29250085085533E-02 
2390	-7.83305250108538E-02 
2391	-4.79872092810846E-02 
2392	-1.32341159692314E-02 
2393	-2.50297964872775E-03 
2394	 2.08546938011806E-02 
2395	 1.27568352270749E-02 
2396	-3.01621966452692E-02 
2397	-4.77877880323982E-02 
2398	-4.50878763454391E-02 
2399	-4.62671507393655E-02 
2400	-2.47665776764812E-02 
2401	 2.32161538869097E-02 
2402	 3.84482108918148E-02 
2403	 4.92507044739764E-02 
2404	 5.92087065469112E-02 
2405	 2.63694282862355E-02 
2406	-2.27316205275722E-03 
2407	-2.27930810776102E-03 
2408	-2.10008174933699E-02 
2409	-8.22930702104807E-02 
2410	-0.122654953134722 
2411	-0.140979053887139 
2412	-0.177949210413428 
2413	-0.150636825205931 
2414	-0.142268296658771 
2415	-0.2221795362868 
2416	-0.19281482739814 
2417	-0.14824593691883 
2418	-0.158289173647785 
2419	-0.182035356015314 
2420	-0.248668289598132 
2421	-0.310198540461396 
2422	-0.273472993613781 
2423	-0.186330096596132 
2424	-0.142309095234731 
2425	-0.173425069053706 
2426	-0.161490910764095 
2427	-0.130339290323893 
2428	-8.38157996204348E-02 
2429	 2.45253319545857E-02 
2430	 2.05468153441159E-02 
2431	-1.66213409814372E-02 
2432	-1.43361289847111E-02 
2433	-7.12351974592899E-02 
2434	-6.04530219068456E-02 
2435	-0.047802783223782 
2436	-0.156119710962582 
2437	-0.256849853106335 
2438	-0.283807034185876 
2439	-0.246416086388532 
2440	-0.191857160990185 
2441	-0.09996305034226 
2442	-5.43305016785743E-02 
2443	-0.204736748292637 
2444	-0.23025077355946 
2445	-0.224362792478624 
2446	-0.268031386171849 
2447	-0.296881039451578 
2448	-0.37509226573258 
2449	-0.398740584874095 
2450	-0.436000813211857 
2451	-0.458381400546747 
2452	-0.382401324621828 
2453	-0.454670779868567 
2454	-0.384802481582044 
2455	-0.276209714857151 
2456	-0.296377747526525 
2457	-0.223477500121036 
2458	-0.363134031207011 
2459	-0.533362894887894 
2460	-0.301608097804115 
2461	-0.197107381347347 
2462	-6.79390810648698E-02 
2463	-2.78916825818794E-02 
2464	-0.322452250861113 
2465	-0.389420204790179 
2466	-0.412164070958249 
2467	-1.17550827559612 
2468	-0.961836481902449 
2469	-0.840702839697548 
2470	-0.756356544033644 
2471	-0.366348555165415 
2472	-0.39305688500901 
2473	-0.773720559587095 
2474	-1.77129282016576 
2475	-2.72407939852857 
2476	-4.18386909069059 
2477	 0.92913368624689 
2478	 0.104713700454333 
2479	 9.54913529208111E-02 
2480	 0.36314202192828 
2481	 1.13778349578877 
2482	 1.22194687459116 
2483	 0.78015912446303 
2484	 1.64567326760759 
2485	 1.29113205898417 
2486	 0.999022827056129 
2487	 1.65764791575015 
2488	 0.463361058884294 
2489	-4.57585860965947E-03 
2490	-0.146779180477563 
2491	-6.17206440195285E-02 
2492	-0.985367238145921 
2493	-6.95546477201566 
2494	-2.45971315961549 
2495	-1.91355516039325 
2496	 1.11582276975086 
2497	-0.573291714456494 
2498	 1.33201260641129 
2499	 0.427636003207287 
2500	 1.11590847929639 
