Wavelength	rt0713east_close00007.asd
350	 6.62175689797154E-02 
351	 6.56540901829862E-02 
352	 6.54785113857339E-02 
353	 0.065738532906729 
354	 6.60320784965263E-02 
355	 6.52734520357228E-02 
356	 6.45341829338972E-02 
357	 6.46041037778684E-02 
358	 6.55948452056632E-02 
359	 0.065434454750634 
360	 6.52325913673913E-02 
361	 6.50207059494284E-02 
362	 6.42288637153182E-02 
363	 6.48544174304344E-02 
364	 6.52108113888517E-02 
365	 6.47016610442207E-02 
366	 6.50417886649449E-02 
367	 6.50487197450789E-02 
368	 6.47341501316221E-02 
369	 6.45057241499653E-02 
370	 6.50465134303784E-02 
371	 6.53325171349197E-02 
372	 6.52740580483225E-02 
373	 6.52918688749258E-02 
374	 6.48077880538602E-02 
375	 6.47402901697837E-02 
376	 6.53306967016322E-02 
377	 6.57116447988827E-02 
378	 6.59035344385552E-02 
379	 6.57186455701625E-02 
380	 6.51968960006472E-02 
381	 6.50339218540082E-02 
382	 6.54611480009059E-02 
383	 0.06588396703045 
384	 6.55633251769729E-02 
385	 6.57446715310519E-02 
386	 6.65794947750774E-02 
387	 6.71675234442214E-02 
388	 6.57646333567678E-02 
389	 6.58014088425026E-02 
390	 6.64332012239189E-02 
391	 6.66421960703524E-02 
392	 6.73043388665675E-02 
393	 6.71598596465373E-02 
394	 6.68494914883202E-02 
395	 0.067331661242444 
396	 6.72314911935985E-02 
397	 6.70933300383939E-02 
398	 6.72576110322869E-02 
399	 6.77408386153386E-02 
400	 6.75637338387654E-02 
401	 6.75700264553651E-02 
402	 0.0681409120078 
403	 6.80032357744803E-02 
404	 6.79049173064898E-02 
405	 6.79681935172344E-02 
406	 6.80960696055819E-02 
407	 6.83308254414212E-02 
408	 6.84351525513614E-02 
409	 6.84298333534185E-02 
410	 6.85861100481903E-02 
411	 0.068776817478396 
412	 0.068893448242186 
413	 6.89141662615893E-02 
414	 6.89809990111614E-02 
415	 6.92921663367825E-02 
416	 6.96094104229963E-02 
417	 6.96255600479222E-02 
418	 6.98169780536825E-02 
419	 7.00481564636943E-02 
420	 7.02410361747013E-02 
421	 7.04295920412193E-02 
422	 7.07346577038101E-02 
423	 0.070963471794278 
424	 7.10491327741906E-02 
425	 7.14697907029245E-02 
426	 7.18045259360646E-02 
427	 0.072097179536277 
428	 7.25537020289407E-02 
429	 7.28150650447994E-02 
430	 0.07310103255068 
431	 7.34372640604847E-02 
432	 0.073567178025855 
433	 7.39395390053696E-02 
434	 7.43919510879593E-02 
435	 7.47351384729466E-02 
436	 7.51364446213171E-02 
437	 0.075455183235408 
438	 7.57117657621584E-02 
439	 7.60164697465696E-02 
440	 7.64261160549433E-02 
441	 0.076804840924176 
442	 7.71101493277374E-02 
443	 7.74690745429208E-02 
444	 0.077788213816026 
445	 7.80916558306671E-02 
446	 7.84050246914333E-02 
447	 7.86163981387586E-02 
448	 7.89846658882931E-02 
449	 7.94007393619102E-02 
450	 7.95312960773464E-02 
451	 7.98982928749131E-02 
452	 8.02410609538523E-02 
453	 0.080382087379038 
454	 8.05161862917048E-02 
455	 8.09549896089313E-02 
456	 8.13325267092904E-02 
457	 8.12510606181095E-02 
458	 8.16240497804672E-02 
459	 8.18722864521245E-02 
460	 8.18890005135014E-02 
461	 8.21044292532643E-02 
462	 8.24149901633832E-02 
463	 0.082679042055302 
464	 8.28215755184789E-02 
465	 8.29672802642388E-02 
466	 8.32102671429234E-02 
467	 8.34526868224195E-02 
468	 8.35595780974237E-02 
469	 8.39424659462495E-02 
470	 8.42060185701599E-02 
471	 8.42587648007014E-02 
472	 8.45062006783281E-02 
473	 8.47181109922929E-02 
474	 8.49843359374907E-02 
475	 0.085354180433637 
476	 8.54377504119107E-02 
477	 8.56274493172256E-02 
478	 8.59927688129273E-02 
479	 8.63600883902713E-02 
480	 8.65773070855458E-02 
481	 8.68243335006134E-02 
482	 0.087175396310991 
483	 8.73793010070662E-02 
484	 8.77657215095094E-02 
485	 8.81661996167554E-02 
486	 8.83560261221836E-02 
487	 8.88646218686781E-02 
488	 0.089312852173845 
489	 0.089602725736207 
490	 8.99507603805409E-02 
491	 9.02998188270233E-02 
492	 9.06456460638744E-02 
493	 9.09951532471637E-02 
494	 9.13727070906819E-02 
495	 9.17669810753141E-02 
496	 9.21606343879525E-02 
497	 9.25345328058461E-02 
498	 0.092851353112938 
499	 9.33323171035065E-02 
500	 9.39661690868789E-02 
501	 9.43541907957286E-02 
502	 0.094710781823319 
503	 9.50893981109068E-02 
504	 9.55166315059858E-02 
505	 9.60905071047587E-02 
506	 9.66180834731385E-02 
507	 9.70831140481997E-02 
508	 9.76079043303765E-02 
509	 0.098081332736447 
510	 9.85414535027298E-02 
511	 9.90355656095934E-02 
512	 9.95895818218547E-02 
513	 0.100106396999266 
514	 0.100593328887342 
515	 0.101111119280237 
516	 0.101756787807324 
517	 0.102342183572266 
518	 0.10280739593831 
519	 0.103283005057114 
520	 0.10387701859936 
521	 0.10451558030062 
522	 0.105107682106291 
523	 0.105660734848375 
524	 0.106179376391672 
525	 0.106737541733159 
526	 0.107429834919363 
527	 0.107949099208707 
528	 0.108507100267893 
529	 0.109203472479161 
530	 0.109767615537616 
531	 0.1104219953111 
532	 0.111120227155954 
533	 0.111724206346625 
534	 0.112168585382333 
535	 0.112787046687986 
536	 0.113581196772797 
537	 0.114155189069297 
538	 0.114663946823158 
539	 0.115307414644948 
540	 0.116120592534001 
541	 0.116545489798505 
542	 0.117111016358784 
543	 0.117842330304536 
544	 0.118454348924735 
545	 0.11896197477551 
546	 0.119619666393119 
547	 0.120439503791951 
548	 0.120892076142951 
549	 0.121552917688086 
550	 0.122263519722888 
551	 0.122735349401294 
552	 0.123523174536072 
553	 0.124203980799669 
554	 0.124672391125678 
555	 0.12523632460662 
556	 0.125873428820646 
557	 0.126482898286181 
558	 0.127018948078712 
559	 0.127755043432408 
560	 0.128232936801407 
561	 0.128569671286492 
562	 0.129195046173206 
563	 0.129678495771328 
564	 0.130157116843084 
565	 0.130676261614455 
566	 0.130950563354383 
567	 0.131289550134384 
568	 0.131689442369091 
569	 0.132051457884442 
570	 0.132452160947952 
571	 0.13286078111025 
572	 0.133247729656136 
573	 0.133590238908387 
574	 0.133855587758834 
575	 0.134093128538148 
576	 0.134362755141215 
577	 0.134706513300586 
578	 0.134964657706729 
579	 0.135181414341628 
580	 0.135513717180921 
581	 0.135879540224248 
582	 0.136145656281229 
583	 0.136244590906356 
584	 0.136226247859693 
585	 0.136184100925059 
586	 0.136047496109713 
587	 0.135737990330361 
588	 0.135542458481971 
589	 0.135468838436991 
590	 0.135511023997171 
591	 0.135657011705465 
592	 0.135688722839077 
593	 0.135562769899881 
594	 0.135352549963109 
595	 0.135359334616256 
596	 0.135226760664096 
597	 0.135009637123582 
598	 0.134959363194096 
599	 0.134781959968675 
600	 0.13463019874369 
601	 0.134585843726877 
602	 0.134521529765533 
603	 0.134441371786652 
604	 0.13436781674945 
605	 0.13434460777096 
606	 0.134465022057716 
607	 0.134602014791277 
608	 0.134663198312132 
609	 0.13461154187469 
610	 0.13455191190675 
611	 0.134631918155512 
612	 0.134862810096816 
613	 0.134845680615622 
614	 0.134865039986763 
615	 0.134928198435861 
616	 0.134918611772863 
617	 0.135105117121287 
618	 0.135181203419331 
619	 0.135095715116346 
620	 0.135310697746121 
621	 0.135368431446846 
622	 0.135296252620468 
623	 0.135284284563788 
624	 0.135513514511347 
625	 0.135529256287678 
626	 0.135309732496665 
627	 0.135266131104542 
628	 0.135440665873409 
629	 0.135632883263765 
630	 0.135689007582008 
631	 0.135714996443769 
632	 0.135709324978406 
633	 0.135723684188437 
634	 0.135817224785308 
635	 0.135925008345833 
636	 0.136008641277554 
637	 0.136077186861034 
638	 0.136205559183125 
639	 0.136251596614072 
640	 0.136211457688217 
641	 0.136141091617028 
642	 0.136159501687607 
643	 0.136009810455536 
644	 0.135755862851732 
645	 0.135695672371605 
646	 0.135229662635299 
647	 0.134896104465378 
648	 0.13505122488277 
649	 0.135146579378427 
650	 0.135063127555307 
651	 0.134882955492742 
652	 0.134759734156384 
653	 0.134573266282367 
654	 0.134186353704428 
655	 0.133658292327109 
656	 0.133385759412839 
657	 0.133297496920678 
658	 0.133138767786796 
659	 0.132764582488785 
660	 0.132419781549724 
661	 0.13226257663755 
662	 0.132151890680146 
663	 0.131802749274144 
664	 0.131541451409847 
665	 0.131444650873869 
666	 0.131434843277894 
667	 0.131224159559365 
668	 0.131032278202688 
669	 0.130959478739924 
670	 0.131022768427575 
671	 0.131031264043069 
672	 0.131048373438056 
673	 0.1310939437841 
674	 0.13114186271735 
675	 0.131332988744976 
676	 0.131391812861511 
677	 0.131248336465001 
678	 0.131548962254918 
679	 0.131888061663173 
680	 0.132129182952429 
681	 0.132284982727481 
682	 0.132548556093617 
683	 0.132694787482127 
684	 0.132641099065767 
685	 0.132530768430624 
686	 0.132621254392323 
687	 0.132726606863485 
688	 0.132659814069352 
689	 0.132843187785175 
690	 0.132939536421379 
691	 0.132768354177992 
692	 0.132297401915773 
693	 0.132198875022867 
694	 0.132271984219493 
695	 0.13233871000792 
696	 0.132556510979508 
697	 0.13225865352889 
698	 0.131618287284191 
699	 0.131079363116707 
700	 0.130692655149428 
701	 0.130583413918163 
702	 0.130521865183773 
703	 0.130063688607455 
704	 0.129629499299244 
705	 0.129161454942031 
706	 0.128579167650234 
707	 0.12783891373633 
708	 0.127330847272133 
709	 0.126820375658026 
710	 0.125928283341574 
711	 0.124910408688595 
712	 0.123897184616728 
713	 0.122763388677003 
714	 0.121085630933227 
715	 0.119151317506526 
716	 0.117048924432728 
717	 0.115110241488442 
718	 0.113378366452831 
719	 0.112450468889509 
720	 0.111906677246688 
721	 0.110931058511119 
722	 0.109106882310495 
723	 0.106995808699458 
724	 0.105303281539813 
725	 0.103969222774537 
726	 0.102475818443644 
727	 0.100649158794383 
728	 9.85436931653796E-02 
729	 9.64599007043439E-02 
730	 9.45643214271174E-02 
731	 9.29737625206761E-02 
732	 9.15748868975412E-02 
733	 9.01952678579325E-02 
734	 8.88344147470685E-02 
735	 8.75990960987818E-02 
736	 8.67036564068642E-02 
737	 8.61996055199298E-02 
738	 8.58275360012223E-02 
739	 0.085417769914109 
740	 8.52600248016456E-02 
741	 8.52516728895746E-02 
742	 8.52714782463741E-02 
743	 8.51972628199212E-02 
744	 8.49730768841252E-02 
745	 8.48540677311889E-02 
746	 8.49407077286204E-02 
747	 8.50864836599787E-02 
748	 8.50118037663568E-02 
749	 8.49283525154802E-02 
750	 8.50268424162006E-02 
751	 0.084984349308277 
752	 0.084798487107979 
753	 8.46264921340143E-02 
754	 0.084671923907098 
755	 8.47290713615483E-02 
756	 8.47546494637843E-02 
757	 8.46361250398056E-02 
758	 0.083974411453538 
759	 8.33549482941954E-02 
760	 8.28399620710391E-02 
761	 0.082524427934558 
762	 8.29094107224604E-02 
763	 8.37163902184978E-02 
764	 0.084268186032565 
765	 8.42659405442859E-02 
766	 8.49757167119484E-02 
767	 8.54271269467216E-02 
768	 8.54947455731053E-02 
769	 8.58303039911035E-02 
770	 8.60684673211077E-02 
771	 0.086165647996946 
772	 8.62112841357893E-02 
773	 8.64790630638884E-02 
774	 8.68046210666515E-02 
775	 8.70568199006142E-02 
776	 8.71708477084305E-02 
777	 8.73434576548267E-02 
778	 8.76629480936866E-02 
779	 8.80795968419826E-02 
780	 8.84236049538068E-02 
781	 8.87884397912937E-02 
782	 8.90383795969742E-02 
783	 8.91773549939366E-02 
784	 8.96288101509935E-02 
785	 8.99124425262717E-02 
786	 9.00311887241569E-02 
787	 0.090184395232714 
788	 9.05523208457263E-02 
789	 9.10295563313194E-02 
790	 9.14843255087595E-02 
791	 9.18464911859241E-02 
792	 9.27333820718406E-02 
793	 9.31602160274518E-02 
794	 9.29251786626346E-02 
795	 9.34140628813256E-02 
796	 9.38714934438586E-02 
797	 9.43047885569164E-02 
798	 9.48261772885913E-02 
799	 9.51659867464965E-02 
800	 9.51372032111815E-02 
801	 9.51776549417542E-02 
802	 9.58619593741224E-02 
803	 9.59597707912589E-02 
804	 9.61664103851126E-02 
805	 9.66330459672179E-02 
806	 9.67582060031194E-02 
807	 0.096498094521072 
808	 9.61782094190654E-02 
809	 9.59759220321162E-02 
810	 9.54266261526376E-02 
811	 9.48724214500471E-02 
812	 9.42753339798256E-02 
813	 9.34897613282871E-02 
814	 9.26668482606869E-02 
815	 0.092302922315986 
816	 9.21427539642816E-02 
817	 9.14578934772807E-02 
818	 9.12247171804916E-02 
819	 9.10463334094584E-02 
820	 0.09058753932652 
821	 8.97281965608919E-02 
822	 0.088481032159618 
823	 8.69472363397524E-02 
824	 8.54630223526235E-02 
825	 8.46848084589975E-02 
826	 8.31034468135326E-02 
827	 8.10514019336774E-02 
828	 7.95550925294742E-02 
829	 7.79619584190163E-02 
830	 7.61722069419789E-02 
831	 7.46460274877887E-02 
832	 7.41039337823922E-02 
833	 7.35120538460803E-02 
834	 7.27643935041605E-02 
835	 7.19155670046409E-02 
836	 7.10731814345775E-02 
837	 7.07823636598023E-02 
838	 7.07522326384793E-02 
839	 7.06220314019445E-02 
840	 7.03716682802597E-02 
841	 7.00243433500283E-02 
842	 6.96403736303477E-02 
843	 6.93067210398732E-02 
844	 6.91691417799515E-02 
845	 6.87441309387649E-02 
846	 6.83547206580628E-02 
847	 6.86783328258912E-02 
848	 6.82362221532184E-02 
849	 6.74693397458112E-02 
850	 0.067038548000682 
851	 6.74686553000133E-02 
852	 6.70897881896247E-02 
853	 6.65061548601074E-02 
854	 6.63644471734408E-02 
855	 6.62806508491711E-02 
856	 6.61433593801262E-02 
857	 6.58886859534325E-02 
858	 6.56078409345926E-02 
859	 6.59122060875365E-02 
860	 6.54394101258425E-02 
861	 6.46951925850875E-02 
862	 6.48267914820971E-02 
863	 6.44416533559561E-02 
864	 0.064272424061917 
865	 6.42327339803285E-02 
866	 6.35711478006945E-02 
867	 0.064064520302044 
868	 6.38267161826249E-02 
869	 6.25623675511784E-02 
870	 6.25672965082993E-02 
871	 6.27756370686628E-02 
872	 6.26405156574891E-02 
873	 6.20297866024683E-02 
874	 6.15140811785864E-02 
875	 6.09075479329861E-02 
876	 0.060569482581749 
877	 6.06806419094788E-02 
878	 6.02787720824875E-02 
879	 5.98074248778588E-02 
880	 5.95655035339908E-02 
881	 5.95890116098756E-02 
882	 5.90283822183948E-02 
883	 5.83137189204509E-02 
884	 5.78657904240366E-02 
885	 5.79028985073978E-02 
886	 5.76137649231695E-02 
887	 5.72599978659131E-02 
888	 5.69481171568346E-02 
889	 0.056462296798098 
890	 5.55160583957475E-02 
891	 5.54870606104048E-02 
892	 5.63615783225502E-02 
893	 0.054860639125231 
894	 5.38082584556314E-02 
895	 5.32730393073337E-02 
896	 5.27055987914104E-02 
897	 5.23822652858948E-02 
898	 5.21488500440517E-02 
899	 0.051839388068813 
900	 5.14436736119353E-02 
901	 5.13529028260174E-02 
902	 5.17130504172626E-02 
903	 5.18851581250857E-02 
904	 5.11516875611715E-02 
905	 4.96715600944278E-02 
906	 4.96634328078072E-02 
907	 5.06371485707681E-02 
908	 5.01740646054262E-02 
909	 4.92569489394139E-02 
910	 4.89480148468188E-02 
911	 4.91083465152014E-02 
912	 4.86441736877311E-02 
913	 4.87230713799598E-02 
914	 4.79797867511526E-02 
915	 4.66164788385822E-02 
916	 4.66108609158384E-02 
917	 4.56407967798513E-02 
918	 0.044826921099334 
919	 4.47076045261124E-02 
920	 4.44785170794437E-02 
921	 0.04424650723973 
922	 4.38130740223423E-02 
923	 4.31497673788565E-02 
924	 4.26854795469319E-02 
925	 4.26121950058603E-02 
926	 4.21460828299659E-02 
927	 4.06238897932457E-02 
928	 3.94021018881057E-02 
929	 0.038572928006934 
930	 3.70848244258009E-02 
931	 3.45111061030497E-02 
932	 4.11004966537493E-02 
933	 3.75807196506818E-02 
934	 2.92031373099286E-02 
935	 3.25045721800857E-02 
936	 3.46416441798835E-02 
937	 0.040973438881951 
938	 4.32392353159925E-02 
939	 3.51284779718861E-02 
940	 0.029385355394565 
941	 2.91106229859556E-02 
942	 3.16889054519452E-02 
943	 3.21586368405851E-02 
944	 3.20135566612394E-02 
945	 3.40050662334743E-02 
946	 3.49845609947216E-02 
947	 3.07210121291587E-02 
948	 0.030566003071028 
949	 2.95755803227624E-02 
950	 2.84932701641644E-02 
951	 3.07030113053324E-02 
952	 3.01203324148895E-02 
953	 3.19936758351675E-02 
954	 0.032102341196608 
955	 2.37049768501404E-02 
956	 2.77746663168894E-02 
957	 2.89501598710806E-02 
958	 2.69786057816427E-02 
959	 3.12920505287267E-02 
960	 3.05025753163393E-02 
961	 2.96255767027267E-02 
962	 2.99896877214956E-02 
963	 2.96602675397807E-02 
964	 3.01462469932988E-02 
965	 0.029909160414721 
966	 3.09169756600989E-02 
967	 3.57823301829259E-02 
968	 3.25414722615452E-02 
969	 3.17765894377186E-02 
970	 3.43807662562739E-02 
971	 3.25954146023646E-02 
972	 3.19805940855913E-02 
973	 3.07026098686663E-02 
974	 0.030104410562391 
975	 3.38468143979402E-02 
976	 3.26580199606082E-02 
977	 3.18423248835779E-02 
978	 3.26600611233305E-02 
979	 3.17001601214118E-02 
980	 2.91455505473566E-02 
981	 3.14552430610042E-02 
982	 0.035156662953128 
983	 0.031412882930637 
984	 3.44318818189892E-02 
985	 3.42634275453846E-02 
986	 3.08550893363802E-02 
987	 3.21148206838145E-02 
988	 3.19705162578758E-02 
989	 3.39721773930173E-02 
990	 3.53579639919688E-02 
991	 3.05710418443889E-02 
992	 3.05322245556397E-02 
993	 3.32285255389828E-02 
994	 3.43108420015946E-02 
995	 3.05582947951644E-02 
996	 2.88412146033878E-02 
997	 3.34800079296507E-02 
998	 3.73287256308492E-02 
999	 3.10361489643191E-02 
1000	 3.12365098723979E-02 
1001	 2.96928418860335E-02 
1002	 3.01425067608535E-02 
1003	 3.04424678438095E-02 
1004	 3.14749454296711E-02 
1005	 3.15620002666558E-02 
1006	 3.12029506906139E-02 
1007	 0.030554035931396 
1008	 2.97020653511318E-02 
1009	 2.91477817529596E-02 
1010	 2.92736761959213E-02 
1011	 0.029498701476148 
1012	 2.96051184694655E-02 
1013	 2.94957630162938E-02 
1014	 2.94948875168564E-02 
1015	 2.93296184162048E-02 
1016	 2.93805720465784E-02 
1017	 2.94669187686756E-02 
1018	 2.98940697070795E-02 
1019	 3.09001398133071E-02 
1020	 0.031133932290094 
1021	 3.12445939480706E-02 
1022	 3.12774894217556E-02 
1023	 3.07462732831428E-02 
1024	 3.07276139249734E-02 
1025	 3.11922042956974E-02 
1026	 3.14569285460252E-02 
1027	 3.14674741468179E-02 
1028	 3.10318553040851E-02 
1029	 3.11991472001987E-02 
1030	 3.15122711625015E-02 
1031	 3.16594917197284E-02 
1032	 3.22577735568463E-02 
1033	 3.24406795490426E-02 
1034	 3.19345715861097E-02 
1035	 3.21705368936496E-02 
1036	 3.27873171047703E-02 
1037	 3.31680255191794E-02 
1038	 3.42586851744133E-02 
1039	 3.44425803903901E-02 
1040	 3.38606467096642E-02 
1041	 3.31685780869892E-02 
1042	 3.28532385543398E-02 
1043	 3.20259444149646E-02 
1044	 3.22220253845421E-02 
1045	 3.32973454305316E-02 
1046	 3.39046037839342E-02 
1047	 3.49326059248587E-02 
1048	 3.53247942442654E-02 
1049	 3.54768451041607E-02 
1050	 3.54474434575707E-02 
1051	 3.47200959865911E-02 
1052	 3.45632478947608E-02 
1053	 3.45434190082951E-02 
1054	 0.034524574735233 
1055	 3.49667891518094E-02 
1056	 3.51300886157678E-02 
1057	 3.51660771248958E-02 
1058	 0.034904131273395 
1059	 3.50055085035355E-02 
1060	 3.52498037625006E-02 
1061	 3.52295330376518E-02 
1062	 0.035317181639836 
1063	 3.52080274500132E-02 
1064	 3.45850543235336E-02 
1065	 3.44674363688297E-02 
1066	 3.44530158155473E-02 
1067	 0.034667698887373 
1068	 3.53293380515494E-02 
1069	 3.57390416844915E-02 
1070	 3.66896962645036E-02 
1071	 3.68430334647141E-02 
1072	 3.62962714220813E-02 
1073	 3.57404281104849E-02 
1074	 0.035538214240629 
1075	 3.49324117522581E-02 
1076	 3.48666928578044E-02 
1077	 3.56523623190722E-02 
1078	 3.56354786442156E-02 
1079	 3.53169440106312E-02 
1080	 3.50387590093794E-02 
1081	 3.42103164372918E-02 
1082	 3.41106591789989E-02 
1083	 3.46925712602029E-02 
1084	 3.46530638937237E-02 
1085	 3.44995902829961E-02 
1086	 3.45475323287252E-02 
1087	 3.45602180577235E-02 
1088	 0.034220771311603 
1089	 3.37592093714836E-02 
1090	 3.35174242609868E-02 
1091	 0.033405425105588 
1092	 3.27441487515382E-02 
1093	 3.27344662274523E-02 
1094	 3.38566457525493E-02 
1095	 3.39504885118284E-02 
1096	 0.033568755810149 
1097	 3.33213192130401E-02 
1098	 3.25121670041242E-02 
1099	 3.22974097035819E-02 
1100	 3.25134011560302E-02 
1101	 3.24546689070203E-02 
1102	 3.27321428151384E-02 
1103	 3.25754614605303E-02 
1104	 3.16240291698266E-02 
1105	 3.16578023987268E-02 
1106	 3.05986024132794E-02 
1107	 2.94972072588319E-02 
1108	 2.99200523999723E-02 
1109	 2.97710720592624E-02 
1110	 3.02147987954911E-02 
1111	 0.033140131213355 
1112	 3.30862786811557E-02 
1113	 3.03663914600865E-02 
1114	 2.94519503810962E-02 
1115	 0.026569056029747 
1116	 2.49094047086703E-02 
1117	 2.67767482231352E-02 
1118	 2.69381498085564E-02 
1119	 0.027239912938776 
1120	 0.026441172493052 
1121	 2.62685218206732E-02 
1122	 1.65799265364636E-02 
1123	 1.76093307422555E-02 
1124	 2.99352911618532E-02 
1125	 2.93542002007429E-02 
1126	 3.00133706628365E-02 
1127	 2.17665592168672E-02 
1128	 7.83066744406825E-03 
1129	 8.86215051035623E-03 
1130	 2.52831431754792E-02 
1131	 2.72325152328035E-02 
1132	 2.59436831444316E-02 
1133	 2.46450492323781E-02 
1134	 1.94645674177716E-02 
1135	 1.98100705814625E-02 
1136	 2.45415649411191E-02 
1137	 2.52302579174363E-02 
1138	 2.57473427535569E-02 
1139	 2.28203055192812E-02 
1140	 2.35295525096916E-02 
1141	 0.027762910476953 
1142	 2.65828470240798E-02 
1143	 0.023879709001444 
1144	 2.34548014118775E-02 
1145	 2.29764711475582E-02 
1146	 2.29644330825331E-02 
1147	 2.38672037363358E-02 
1148	 2.39810151464054E-02 
1149	 2.39561184021973E-02 
1150	 2.35472899418211E-02 
1151	 2.54061181663816E-02 
1152	 2.61679228017546E-02 
1153	 2.50142159810331E-02 
1154	 2.36794827237484E-02 
1155	 2.20674204716479E-02 
1156	 2.33598132902722E-02 
1157	 2.26687394695585E-02 
1158	 2.28500232141701E-02 
1159	 2.55405843132222E-02 
1160	 2.59727105167791E-02 
1161	 2.47290720929346E-02 
1162	 2.40739026906594E-02 
1163	 2.36989143422205E-02 
1164	 0.023450015073501 
1165	 2.40879238963977E-02 
1166	 2.51761746556397E-02 
1167	 2.52605808006623E-02 
1168	 2.52386818544679E-02 
1169	 2.53745968812268E-02 
1170	 2.52497728539878E-02 
1171	 2.55338410082356E-02 
1172	 2.62403663039075E-02 
1173	 2.63984932692473E-02 
1174	 2.64229848828308E-02 
1175	 2.68123555253533E-02 
1176	 2.70372800958411E-02 
1177	 2.64053265823603E-02 
1178	 2.64114900890776E-02 
1179	 2.65566534254643E-02 
1180	 2.53233879157103E-02 
1181	 0.025180201633163 
1182	 2.59035996002466E-02 
1183	 0.025493196153464 
1184	 2.60520245630977E-02 
1185	 2.67269385698226E-02 
1186	 2.59523708729147E-02 
1187	 2.56837866222031E-02 
1188	 2.59799502964621E-02 
1189	 2.60043271825806E-02 
1190	 2.61512652266795E-02 
1191	 2.61607926807905E-02 
1192	 2.60851368641003E-02 
1193	 2.55407807494382E-02 
1194	 2.56219269715355E-02 
1195	 2.62999456111677E-02 
1196	 2.65465766674175E-02 
1197	 0.026843281593137 
1198	 2.68414881995264E-02 
1199	 2.59182861645306E-02 
1200	 2.57878998536875E-02 
1201	 2.65498803602371E-02 
1202	 2.65980085753268E-02 
1203	 2.65947740517598E-02 
1204	 0.026713420541419 
1205	 2.67524597560938E-02 
1206	 2.70541738476749E-02 
1207	 2.68968830049817E-02 
1208	 2.62097718547377E-02 
1209	 2.60932321661676E-02 
1210	 2.62378195844064E-02 
1211	 2.58914367886288E-02 
1212	 2.60439783847012E-02 
1213	 2.64387594760454E-02 
1214	 2.65239332136225E-02 
1215	 2.60850025411119E-02 
1216	 0.026241522923151 
1217	 2.66891987198975E-02 
1218	 2.65475939268048E-02 
1219	 2.62578311825985E-02 
1220	 2.65678169601093E-02 
1221	 2.69593004799534E-02 
1222	 2.67910390077456E-02 
1223	 2.66395417366599E-02 
1224	 2.66898283208342E-02 
1225	 2.63573451505322E-02 
1226	 2.60680854800499E-02 
1227	 2.62194379264409E-02 
1228	 2.62410698317235E-02 
1229	 2.64120878475554E-02 
1230	 2.69806809900049E-02 
1231	 2.70855517424472E-02 
1232	 2.69613242242209E-02 
1233	 2.68054322717177E-02 
1234	 2.64186094324451E-02 
1235	 2.63589981663279E-02 
1236	 2.67189953602487E-02 
1237	 2.67668731350528E-02 
1238	 0.026802389698432 
1239	 2.67833008902293E-02 
1240	 2.67213079186002E-02 
1241	 2.66218937561404E-02 
1242	 2.64768970629637E-02 
1243	 2.66027271834819E-02 
1244	 2.68112500342204E-02 
1245	 2.65145598931738E-02 
1246	 2.66555097633143E-02 
1247	 2.76406880447093E-02 
1248	 2.77343489545927E-02 
1249	 0.027309121534152 
1250	 2.73831054670289E-02 
1251	 2.67682074506101E-02 
1252	 2.62085462842413E-02 
1253	 2.67484244896563E-02 
1254	 2.70960938591421E-02 
1255	 2.68463204364834E-02 
1256	 2.67410348347495E-02 
1257	 0.026689938949382 
1258	 2.67439565842223E-02 
1259	 2.66482711170872E-02 
1260	 2.66332282516042E-02 
1261	 0.026945441779091 
1262	 2.70259409244058E-02 
1263	 2.69667128583506E-02 
1264	 2.68871209787511E-02 
1265	 2.64433081812885E-02 
1266	 2.59731984018881E-02 
1267	 2.55580021744749E-02 
1268	 2.56959097706412E-02 
1269	 0.026664318635538 
1270	 2.69265988436863E-02 
1271	 2.69093158761519E-02 
1272	 2.70996618489473E-02 
1273	 2.63785975303632E-02 
1274	 2.59708762306766E-02 
1275	 2.65332086307143E-02 
1276	 2.65960888305715E-02 
1277	 2.64980736654235E-02 
1278	 2.69649361810548E-02 
1279	 2.69766248060168E-02 
1280	 2.63889768429939E-02 
1281	 2.62416503676965E-02 
1282	 2.65236412461811E-02 
1283	 2.66805569088019E-02 
1284	 2.69316816609828E-02 
1285	 2.70028093749066E-02 
1286	 0.027115319973103 
1287	 2.69711452058675E-02 
1288	 2.60428696868189E-02 
1289	 2.61016314581022E-02 
1290	 2.66779728204989E-02 
1291	 2.74543880778087E-02 
1292	 2.76316762712183E-02 
1293	 2.72755891019853E-02 
1294	 2.72417765023903E-02 
1295	 2.67736743200806E-02 
1296	 2.62471191556877E-02 
1297	 2.67700560006193E-02 
1298	 2.68809497533716E-02 
1299	 2.62214122806251E-02 
1300	 0.025892159083234 
1301	 2.61800664648502E-02 
1302	 2.64363467274559E-02 
1303	 2.61537999960165E-02 
1304	 2.60906242864142E-02 
1305	 2.61196941558116E-02 
1306	 2.62132388865105E-02 
1307	 2.60257059988963E-02 
1308	 2.55617852242812E-02 
1309	 0.025173224849505 
1310	 2.50415667755293E-02 
1311	 2.42217214053589E-02 
1312	 0.023841300589721 
1313	 2.44961476256824E-02 
1314	 0.024702530168632 
1315	 2.46152715399004E-02 
1316	 2.42502683203011E-02 
1317	 2.34308017124519E-02 
1318	 2.35279803076605E-02 
1319	 2.41000775248236E-02 
1320	 0.02394718262218 
1321	 0.024283804306327 
1322	 2.43402291612558E-02 
1323	 2.33933895124691E-02 
1324	 2.31710181104789E-02 
1325	 2.37551989638517E-02 
1326	 2.40512330847579E-02 
1327	 2.31680116688337E-02 
1328	 2.26405469381199E-02 
1329	 2.37722243465335E-02 
1330	 2.39789988876407E-02 
1331	 2.49277255962274E-02 
1332	 2.60847462305612E-02 
1333	 2.30508651534978E-02 
1334	 2.05894961903654E-02 
1335	 2.06900878048905E-02 
1336	 2.25120310080478E-02 
1337	 2.27493651559124E-02 
1338	 0.025504805198745 
1339	 2.63268961263555E-02 
1340	 0.024309250659791 
1341	 2.33605666278743E-02 
1342	 2.19790663948009E-02 
1343	 2.23553093957892E-02 
1344	 2.34781186195056E-02 
1345	 2.35242529578898E-02 
1346	 2.87387258290491E-02 
1347	 3.21184234578003E-02 
1348	 2.90378218671094E-02 
1349	 2.71367983255766E-02 
1350	 2.01752008729759E-02 
1351	 1.71588218874094E-02 
1352	 2.63465298222316E-02 
1353	 3.22003268586834E-02 
1354	 6.61804700939171E-02 
1355	 6.77213298173649E-02 
1356	 8.52958839540359E-02 
1357	 0.175548979997911 
1358	 0.120434883828024 
1359	 5.10910730271579E-02 
1360	 4.59592465330336E-02 
1361	 4.87885132687684E-02 
1362	 0.483280348901011 
1363	 0.724706152383786 
1364	 0.454178785849607 
1365	 0.488521623301877 
1366	 1.15697268526598 
1367	 0.702852075446607 
1368	 0.46439855079988 
1369	 0.228026052056114 
1370	 0.341530764909274 
1371	 0.253628760501987 
1372	 0.112917457100895 
1373	 0.234802108532687 
1374	 0.302075363639894 
1375	-4.41227283478869E-02 
1376	-0.123664743433831 
1377	 0.423335510589228 
1378	 0.432369075199714 
1379	 1.96993820882003E-02 
1380	-7.08206009254921E-02 
1381	 0.373971067919186 
1382	 9.97420512970229E-02 
1383	-1.0779177168867 
1384	-2.09208675552349 
1385	-1.25345461385859 
1386	-0.954795609915505 
1387	-0.643812650319823 
1388	-0.622601520284814 
1389	-1.57262368872481 
1390	-1.29072280430538 
1391	-1.39685803216564 
1392	 1.17306738982476 
1393	-0.506473761218158 
1394	-0.362619524503097 
1395	 1.22424905516323 
1396	 0.667459007444617 
1397	 1.36516315125467 
1398	 1.13504107073906 
1399	 0.78816251784825 
1400	 0.746031883229155 
1401	 0.691640440756118 
1402	-0.28983146146937 
1403	-0.715057124213286 
1404	 1.07617223477419 
1405	 1.20160973637188 
1406	 0.372601987111064 
1407	 0.223579313680021 
1408	-0.104822027808691 
1409	-6.68363968506044E-02 
1410	 0.159867055183591 
1411	 0.231168662015644 
1412	 0.527661773573351 
1413	 0.829239339548677 
1414	 1.26955471008433 
1415	 0.892493187155269 
1416	 0.246427722877337 
1417	 0.183844625645423 
1418	 0.121406512792628 
1419	 4.88029873610045E-02 
1420	 7.65676736521504E-02 
1421	 8.25476153984573E-02 
1422	 4.44663824214801E-02 
1423	 4.16153396191402E-02 
1424	 0.100791403523098 
1425	 0.103854472066994 
1426	 5.84347286594761E-02 
1427	 3.04459146011802E-02 
1428	 1.22128893018056E-02 
1429	 8.94103464601477E-03 
1430	 6.55804344086421E-03 
1431	-6.42315790581255E-03 
1432	-3.21737604700569E-02 
1433	-3.07783396451665E-02 
1434	-1.55116328110268E-02 
1435	-4.34973488623106E-03 
1436	 2.42988280535829E-02 
1437	 6.15619530765531E-02 
1438	 5.33179033257271E-02 
1439	 3.90853957772901E-02 
1440	 5.83860620558658E-02 
1441	 0.060674446628181 
1442	 0.066215828164039 
1443	 5.91539051246285E-02 
1444	 3.75499459921421E-02 
1445	 4.74507255983279E-02 
1446	 6.19682686051911E-02 
1447	 0.04523753388129 
1448	 2.30197131575963E-02 
1449	 2.37666602138086E-02 
1450	 2.93916743176667E-02 
1451	 2.04621641058666E-02 
1452	 1.85311625761354E-02 
1453	 2.36267067343439E-02 
1454	 2.09489971394446E-02 
1455	 1.22159582885717E-02 
1456	 1.29015421950274E-02 
1457	 1.55087444468082E-02 
1458	 1.77361598582853E-02 
1459	 2.38273080152146E-02 
1460	 2.45113010168004E-02 
1461	 2.30181962778437E-02 
1462	 2.28856906281686E-02 
1463	 0.020630251726251 
1464	 1.99414405916927E-02 
1465	 2.18081785790888E-02 
1466	 2.22659930308328E-02 
1467	 0.017954765010214 
1468	 0.021327300112045 
1469	 3.56891353556118E-02 
1470	 3.41658095964942E-02 
1471	 2.64274240514708E-02 
1472	 2.46991257490954E-02 
1473	 1.25951868037025E-02 
1474	 0.012512350490679 
1475	 2.84654767563012E-02 
1476	 0.029618113799816 
1477	 2.23510902128578E-02 
1478	 2.40585160778494E-02 
1479	 2.69347108719446E-02 
1480	 2.50004746321206E-02 
1481	 2.73185517937385E-02 
1482	 2.66100381093058E-02 
1483	 1.76716752765142E-02 
1484	 1.62571982811082E-02 
1485	 1.97120245027261E-02 
1486	 2.07518204873616E-02 
1487	 0.022211424761616 
1488	 2.28780877921907E-02 
1489	 2.27661118747146E-02 
1490	 2.29229507301653E-02 
1491	 0.023074771360145 
1492	 0.023074732192415 
1493	 2.29889268470725E-02 
1494	 2.30455132735322E-02 
1495	 2.33765595084742E-02 
1496	 0.023209669827536 
1497	 2.27914993412994E-02 
1498	 2.25897449790901E-02 
1499	 2.17051358894769E-02 
1500	 0.021832651194593 
1501	 0.023361952346647 
1502	 2.33833618528606E-02 
1503	 2.22854489814692E-02 
1504	 2.25000880314865E-02 
1505	 2.26738429843492E-02 
1506	 2.34421838206239E-02 
1507	 2.34963489106204E-02 
1508	 2.30850474871951E-02 
1509	 2.29785550629887E-02 
1510	 2.25273072913938E-02 
1511	 2.27743911999884E-02 
1512	 0.023646901281327 
1513	 2.37756696007909E-02 
1514	 2.34092052345264E-02 
1515	 2.33381956202222E-02 
1516	 2.36693699825386E-02 
1517	 2.32328550830114E-02 
1518	 0.022564717423903 
1519	 2.29224011316495E-02 
1520	 2.29167287614395E-02 
1521	 2.30058375974968E-02 
1522	 2.35544320734993E-02 
1523	 2.32020426065088E-02 
1524	 2.30280229191207E-02 
1525	 2.35621894576267E-02 
1526	 2.35500483094356E-02 
1527	 2.27772070112718E-02 
1528	 2.25588451937506E-02 
1529	 2.32316068893586E-02 
1530	 2.30858503889629E-02 
1531	 2.26260565135057E-02 
1532	 2.32322162838199E-02 
1533	 2.38015872444564E-02 
1534	 2.37900646586901E-02 
1535	 2.40732554012698E-02 
1536	 2.44917922645125E-02 
1537	 2.43476964760777E-02 
1538	 0.024004213006005 
1539	 2.38018500245438E-02 
1540	 2.42479641867371E-02 
1541	 2.46693773507278E-02 
1542	 2.41581785801695E-02 
1543	 2.39054587359763E-02 
1544	 2.37749673783265E-02 
1545	 2.36234089387148E-02 
1546	 2.42071144729685E-02 
1547	 2.48611816757076E-02 
1548	 2.50133674239639E-02 
1549	 2.44363720443779E-02 
1550	 2.36878460230232E-02 
1551	 2.37456512035795E-02 
1552	 2.41320069295325E-02 
1553	 2.39899301581776E-02 
1554	 0.023749132959522 
1555	 0.024002259483843 
1556	 2.39574842851055E-02 
1557	 2.36951547624364E-02 
1558	 2.42381876643568E-02 
1559	 0.024161651283581 
1560	 2.32367230204388E-02 
1561	 2.35140157381712E-02 
1562	 2.42120705345288E-02 
1563	 2.42589241430511E-02 
1564	 2.39286802071486E-02 
1565	 2.39083268964037E-02 
1566	 2.41236429371017E-02 
1567	 2.35016389400283E-02 
1568	 2.32993570049366E-02 
1569	 2.39489703740123E-02 
1570	 2.38100595026161E-02 
1571	 2.31585929141629E-02 
1572	 2.32737692334474E-02 
1573	 2.35160778774371E-02 
1574	 2.28769088287212E-02 
1575	 2.27629204968415E-02 
1576	 2.36864484539713E-02 
1577	 2.37265172687161E-02 
1578	 2.29839687162538E-02 
1579	 2.33055126729693E-02 
1580	 2.40063721548438E-02 
1581	 2.40849428176271E-02 
1582	 2.40700662557687E-02 
1583	 2.37389457210783E-02 
1584	 2.33394528338387E-02 
1585	 2.33241929711828E-02 
1586	 2.34607877716739E-02 
1587	 2.37467989894813E-02 
1588	 2.41763884245792E-02 
1589	 2.40476314440941E-02 
1590	 2.35936511312244E-02 
1591	 2.37110276017118E-02 
1592	 2.34179097927863E-02 
1593	 2.25635063474043E-02 
1594	 0.022760992578476 
1595	 2.39955012147092E-02 
1596	 2.43348644340903E-02 
1597	 0.024053729140288 
1598	 2.40886069880351E-02 
1599	 2.36889062916273E-02 
1600	 2.38635830101643E-02 
1601	 2.45155589988851E-02 
1602	 2.42165617977342E-02 
1603	 2.39022348907031E-02 
1604	 2.35731605798489E-02 
1605	 2.25803896753193E-02 
1606	 2.29512634466224E-02 
1607	 2.42288164907492E-02 
1608	 0.023798844382965 
1609	 2.36344338502892E-02 
1610	 2.45518564082085E-02 
1611	 2.43183927871654E-02 
1612	 0.024050250078962 
1613	 2.45730542282399E-02 
1614	 0.024526852600393 
1615	 2.36376054317606E-02 
1616	 2.27468472518802E-02 
1617	 2.29350532070088E-02 
1618	 2.35937564685739E-02 
1619	 0.023952024987561 
1620	 2.39385875016997E-02 
1621	 2.34320703371152E-02 
1622	 2.32391850607289E-02 
1623	 2.33205889681839E-02 
1624	 0.023643869882291 
1625	 2.40721330641719E-02 
1626	 2.36190152712055E-02 
1627	 2.34364210291365E-02 
1628	 2.38228101335467E-02 
1629	 0.023621973577913 
1630	 2.33992289017533E-02 
1631	 2.32788928377382E-02 
1632	 2.31455034629879E-02 
1633	 2.33375922950651E-02 
1634	 2.34509827394658E-02 
1635	 2.32562595062532E-02 
1636	 2.29548103748938E-02 
1637	 0.022912655205566 
1638	 2.30824279679357E-02 
1639	 2.32175684335246E-02 
1640	 2.33527002959771E-02 
1641	 2.31437452497298E-02 
1642	 2.31785825536598E-02 
1643	 2.30230353743048E-02 
1644	 0.022701909255107 
1645	 0.023621512661021 
1646	 2.38058746359457E-02 
1647	 2.32217014776834E-02 
1648	 2.37898947324216E-02 
1649	 2.34781643009864E-02 
1650	 2.27958786534888E-02 
1651	 0.023653222329329 
1652	 2.40341571966621E-02 
1653	 2.39568522615374E-02 
1654	 2.38016482141149E-02 
1655	 2.35094737041341E-02 
1656	 2.35415385070158E-02 
1657	 2.33506199006227E-02 
1658	 2.31965829128214E-02 
1659	 2.33695618718164E-02 
1660	 2.34172259576574E-02 
1661	 0.023219681656935 
1662	 2.31888170514764E-02 
1663	 2.36341757239004E-02 
1664	 2.37398652247702E-02 
1665	 2.32871103054941E-02 
1666	 2.33659984043429E-02 
1667	 2.37468020765243E-02 
1668	 0.022893436433937 
1669	 2.33083463284016E-02 
1670	 2.35345637584098E-02 
1671	 2.29229108335558E-02 
1672	 2.32935715595054E-02 
1673	 2.36911785255924E-02 
1674	 2.29551174572661E-02 
1675	 2.26759995508894E-02 
1676	 2.31714871571766E-02 
1677	 2.33985332442132E-02 
1678	 2.33673873935997E-02 
1679	 2.34364606369148E-02 
1680	 2.34782155593927E-02 
1681	 2.30472239194821E-02 
1682	 2.31985645249017E-02 
1683	 2.40716902497137E-02 
1684	 2.40067339950923E-02 
1685	 2.33915766861527E-02 
1686	 2.30777983132176E-02 
1687	 0.02323903603714 
1688	 2.39056811268471E-02 
1689	 2.40094022418116E-02 
1690	 2.42098923097535E-02 
1691	 2.42503557466421E-02 
1692	 2.32506129451424E-02 
1693	 2.32858908440811E-02 
1694	 2.37445003016376E-02 
1695	 2.37273737202826E-02 
1696	 0.023924896634718 
1697	 2.39098023013743E-02 
1698	 2.36267656146366E-02 
1699	 2.30218781346666E-02 
1700	 2.25678204290465E-02 
1701	 2.29040188712093E-02 
1702	 2.38346236302417E-02 
1703	 2.43664877288241E-02 
1704	 2.41566536236422E-02 
1705	 0.023656854484537 
1706	 2.30056683722378E-02 
1707	 2.32412146993504E-02 
1708	 2.42132819532896E-02 
1709	 2.43424503542427E-02 
1710	 2.38105859318335E-02 
1711	 2.31284930403806E-02 
1712	 2.28462375230596E-02 
1713	 2.40714590450292E-02 
1714	 2.45885834000078E-02 
1715	 0.025342294596361 
1716	 2.59502141210221E-02 
1717	 2.59198142549473E-02 
1718	 2.52331997629413E-02 
1719	 2.42519332301545E-02 
1720	 2.45651085588097E-02 
1721	 2.50627921332011E-02 
1722	 2.37858427932671E-02 
1723	 2.37502311883648E-02 
1724	 2.44440727299845E-02 
1725	 2.27058276475688E-02 
1726	 2.17325270827541E-02 
1727	 2.26867622425539E-02 
1728	 2.24088177224352E-02 
1729	 2.22481946045449E-02 
1730	 2.36704010220246E-02 
1731	 2.35354511925464E-02 
1732	 2.21368441141989E-02 
1733	 2.17734570014415E-02 
1734	 2.20017563274526E-02 
1735	 2.21627838372935E-02 
1736	 2.24056396807905E-02 
1737	 2.36397745174081E-02 
1738	 2.51837777341562E-02 
1739	 2.54712489356598E-02 
1740	 2.46576013101456E-02 
1741	 2.34170160983414E-02 
1742	 2.30527764231646E-02 
1743	 2.38247358950022E-02 
1744	 2.48046672395819E-02 
1745	 2.51824062534662E-02 
1746	 2.22735423660121E-02 
1747	 2.18539472212394E-02 
1748	 2.30238197722925E-02 
1749	 0.023338681073167 
1750	 2.50775447439819E-02 
1751	 2.53876872072965E-02 
1752	 2.41214395288561E-02 
1753	 2.35430714514356E-02 
1754	 2.21363643607131E-02 
1755	 2.19617938733337E-02 
1756	 0.022917559055686 
1757	 2.36982121418532E-02 
1758	 2.43240257689461E-02 
1759	 2.43166429446147E-02 
1760	 2.37256277222484E-02 
1761	 2.30630123489162E-02 
1762	 2.27258781019925E-02 
1763	 2.27037732336116E-02 
1764	 2.25329808319196E-02 
1765	 2.37178725104952E-02 
1766	 2.61224192184831E-02 
1767	 2.68661231091372E-02 
1768	 2.57504492267363E-02 
1769	 2.31919544250563E-02 
1770	 2.19609014214393E-02 
1771	 2.30279168687514E-02 
1772	 2.44859046851083E-02 
1773	 2.51041483569481E-02 
1774	 2.16823354870425E-02 
1775	 1.62947262798378E-02 
1776	 1.78351568812963E-02 
1777	 3.13222864092094E-02 
1778	 3.35375812572099E-02 
1779	 3.18310623134914E-02 
1780	 2.97480657436912E-02 
1781	 1.38172484905661E-02 
1782	 9.69501617653352E-03 
1783	 1.57010321139289E-02 
1784	 1.95533765129536E-02 
1785	 2.83638849460933E-02 
1786	 3.24984644305494E-02 
1787	 3.85637476569357E-02 
1788	 3.60937224316706E-02 
1789	 2.19256380138933E-02 
1790	 1.99132607508223E-02 
1791	 1.10944428614334E-02 
1792	 9.46631387891841E-03 
1793	 0.022831579902996 
1794	 3.54234587868867E-02 
1795	 5.19528400082163E-02 
1796	 6.61305284668404E-02 
1797	 6.07348337314629E-02 
1798	 2.91956188115536E-02 
1799	 1.13984208349687E-02 
1800	 3.33167132043562E-02 
1801	 4.13509603652654E-02 
1802	 6.61644812665479E-02 
1803	 7.70503675346752E-02 
1804	 4.76897146961103E-02 
1805	 4.31397158585515E-02 
1806	 0.049482452855017 
1807	 0.105084544995081 
1808	 0.380370550724349 
1809	 0.462559842804795 
1810	 0.299087240991707 
1811	 0.173795432549486 
1812	-0.282368738125649 
1813	-0.276595709729328 
1814	-1.35910832710199 
1815	-1.27754572577141 
1816	 214.437510615765 
1817	 3.33850602173783 
1818	 0.966062424981377 
1819	 2.43715675825655 
1820	 7.58125618011793 
1821	-0.601143510279078 
1822	-0.284108409861851 
1823	 0.46198259653229 
1824	-7.43103508954486E-02 
1825	-0.291244129320581 
1826	-0.260003860171368 
1827	 1.32423920539626 
1828	 0.383900652658377 
1829	-0.540410070666993 
1830	-0.581953055894557 
1831	-0.872651532111846 
1832	-0.457761546963959 
1833	-7.47341650140455E-03 
1834	 0.163267234005601 
1835	 9.44002250861157 
1836	-128.708912310456 
1837	-4.78740778057826 
1838	-22.6146851114982 
1839	 1.91465740083942 
1840	 1.1664606376151 
1841	 0.906001946600827 
1842	 0.625278593206411 
1843	 0.448038394483658 
1844	 0.502792206898907 
1845	-1.92926812420369 
1846	-2.69963573909263 
1847	-2.61056056095448 
1848	-1.6928554872686 
1849	-1.01418372366463 
1850	-0.578289727784695 
1851	 0.402528725051868 
1852	 1.99858041855269 
1853	 10.145933178811 
1854	-14.3973401249538 
1855	-3.99821857990649 
1856	-2.83193359259158 
1857	-3.22046036148151 
1858	-3.35363048910597 
1859	-1.85156928576448 
1860	-0.534327781310713 
1861	-13.8132011659615 
1862	 2.55377132840924 
1863	 5.68127521078083 
1864	-16.585222044761 
1865	-3.22183742343868 
1866	-0.318030429075139 
1867	-0.184607930220418 
1868	 0.350737289729053 
1869	-1.46199302267662 
1870	 0.169300177236006 
1871	-2.34017881298562E-02 
1872	-0.395446841010954 
1873	-0.23397605537705 
1874	-0.137050318187874 
1875	-3.99387427741555E-02 
1876	 0.102194931252787 
1877	 0.441400421061235 
1878	 0.496692222327792 
1879	 0.58647293533965 
1880	 0.723701833842938 
1881	 0.322617893014446 
1882	 0.336670020622286 
1883	 1.09576507789356 
1884	 1.62716694726368 
1885	 4.31169398863703 
1886	-0.327160643782441 
1887	-0.728684916954345 
1888	-2.37577645763404 
1889	-2.47775481449534 
1890	 0.73984786883446 
1891	 1.72890003577492 
1892	 6.12535709513908 
1893	 3.57223898869862 
1894	 1.96282025739808 
1895	 1.26637382464676 
1896	 0.98245370007688 
1897	 1.1538940871754 
1898	 0.418387671885295 
1899	-1.07966652044518 
1900	 0.472086313181602 
1901	 0.940326053981908 
1902	 1.10927503661717 
1903	 2.20948763584371 
1904	 1.75374032174479 
1905	 1.01424048859186 
1906	 0.570903758126378 
1907	 0.544809872333633 
1908	 1.21824883275752 
1909	 4.19359138847271 
1910	-12.3837454881205 
1911	 4.82949842666015 
1912	 4.92790486482689 
1913	 4.53876097789348 
1914	 5.10491729772624 
1915	 3.68849302105669 
1916	 3.14307414035867 
1917	 0.420042339214926 
1918	-0.150107227044142 
1919	-0.888082637382821 
1920	-0.757357614521328 
1921	-0.237325010063946 
1922	-0.26215332748399 
1923	-6.22372343009734E-02 
1924	 0.271328997255662 
1925	 0.494218270876388 
1926	 1.13881797388817 
1927	 4.43505346319981 
1928	-8.78069540995579 
1929	 3.36845704252267 
1930	 0.141212503101478 
1931	-9.52949990358887E-03 
1932	 3.14394064005146E-02 
1933	 0.395675386841635 
1934	 3.34892230016048 
1935	 8.71463311437393 
1936	 2.65380661179596 
1937	 0.512901363838186 
1938	 0.456425196626579 
1939	 0.101841727498642 
1940	 3.1352464273724 
1941	-0.348912034040659 
1942	-2.09229996575113 
1943	 9.17548906780285 
1944	 4.94224631102851 
1945	 1.61240924755684 
1946	 0.214978425557874 
1947	-1.10936982412448E-02 
1948	-0.04655713938738 
1949	 5.05682963480753E-02 
1950	 0.100235637908373 
1951	-2.11639989820598E-03 
1952	 9.25745307557848E-03 
1953	 3.80933729148182E-02 
1954	 0.142020488745378 
1955	 0.11649113981804 
1956	 7.14786383149872E-02 
1957	 9.50449850572159E-02 
1958	 3.33159847944877E-02 
1959	 2.72295352189095E-02 
1960	 3.23220443323428E-02 
1961	-8.27634564847321E-03 
1962	-1.95248125333898E-02 
1963	-2.99783459956263E-02 
1964	-2.11928587969302E-02 
1965	 7.94842329948377E-03 
1966	 1.22552477477191E-02 
1967	 6.08664005131923E-03 
1968	 5.05942959973155E-04 
1969	 3.64647710401783E-03 
1970	-6.66141591488126E-04 
1971	-4.3922613715461E-03 
1972	 3.13647036033244E-03 
1973	 1.07410635444205E-02 
1974	 1.07230740396674E-02 
1975	 1.49283692536969E-02 
1976	 1.77928949029019E-02 
1977	 8.64475401073404E-03 
1978	 6.68662812352378E-03 
1979	 8.82598820182359E-03 
1980	 1.34650706711645E-02 
1981	 1.62437196889743E-02 
1982	 2.54897820756427E-02 
1983	 2.60363513310664E-02 
1984	 2.09888926825781E-02 
1985	 2.13150229856409E-02 
1986	 0.020048482603929 
1987	 2.06002218062869E-02 
1988	 2.34942665084727E-02 
1989	 2.32871398312042E-02 
1990	 2.06506362562612E-02 
1991	 1.86178486389412E-02 
1992	 1.57173597665708E-02 
1993	 1.48285584357713E-02 
1994	 1.63963573064551E-02 
1995	 2.23490437282313E-02 
1996	 2.48116284442444E-02 
1997	 2.63966833142502E-02 
1998	 2.77290636816842E-02 
1999	 2.50055248969207E-02 
2000	 2.59456080550646E-02 
2001	 2.97068557036657E-02 
2002	 3.11351385731016E-02 
2003	 2.63213367345845E-02 
2004	 2.17138322753987E-02 
2005	 0.014680952845016 
2006	 6.31875266191085E-04 
2007	-4.73637162093949E-03 
2008	-1.94455702964631E-03 
2009	-5.01633821829401E-03 
2010	-9.04692421653391E-03 
2011	-5.67873991555591E-03 
2012	-4.70437610438987E-04 
2013	-2.25342536908483E-03 
2014	 9.74832675589295E-03 
2015	 2.41373644442879E-02 
2016	 2.37848694761088E-02 
2017	 2.26867707171066E-02 
2018	 1.76447359241836E-02 
2019	 1.03281576273944E-02 
2020	 4.62661536208133E-03 
2021	 4.08466331446652E-03 
2022	 6.46468524079668E-03 
2023	 5.78372920715025E-03 
2024	 7.2733042913602E-03 
2025	 1.14609976635352E-02 
2026	 1.46026351308715E-02 
2027	 1.79842523501524E-02 
2028	 1.90945509238136E-02 
2029	 1.82622226904659E-02 
2030	 0.019278689503306 
2031	 2.01996029751092E-02 
2032	 0.020226753094338 
2033	 2.26384137372885E-02 
2034	 2.26926187549313E-02 
2035	 0.018594668700264 
2036	 1.75265059177206E-02 
2037	 1.84705472027357E-02 
2038	 1.91623400682337E-02 
2039	 2.05018367276933E-02 
2040	 2.40767023845619E-02 
2041	 0.025188798828561 
2042	 2.46557961309283E-02 
2043	 2.43834492077965E-02 
2044	 2.28607651754341E-02 
2045	 2.25234532003278E-02 
2046	 0.022469642491778 
2047	 2.58130409792349E-02 
2048	 2.87428088115136E-02 
2049	 2.82208426104203E-02 
2050	 2.52311882767671E-02 
2051	 0.021837088815385 
2052	 2.17310841777072E-02 
2053	 2.14403863966716E-02 
2054	 2.44688154507321E-02 
2055	 2.95370254311051E-02 
2056	 2.84890214229174E-02 
2057	 1.98428246365649E-02 
2058	 1.81916413856275E-02 
2059	 1.65661077257815E-02 
2060	 1.56711974224949E-02 
2061	 1.78916444810407E-02 
2062	 2.13902774187586E-02 
2063	 2.16143854405371E-02 
2064	 0.020688569289917 
2065	 2.32904225321323E-02 
2066	 2.36620008521491E-02 
2067	 2.34832648607919E-02 
2068	 2.41175970598837E-02 
2069	 2.41306522018329E-02 
2070	 2.46928284180132E-02 
2071	 2.34526603799393E-02 
2072	 2.23660286986445E-02 
2073	 2.16546586950731E-02 
2074	 2.00754249134232E-02 
2075	 1.94106772140614E-02 
2076	 0.020182192212876 
2077	 1.90207840693961E-02 
2078	 1.59250256097416E-02 
2079	 0.014510969069712 
2080	 1.36560081495562E-02 
2081	 1.27466180405607E-02 
2082	 1.10476012685038E-02 
2083	 1.32010382437151E-02 
2084	 1.51879880956017E-02 
2085	 1.77027912024181E-02 
2086	 1.94899651584224E-02 
2087	 1.91617358898095E-02 
2088	 0.019702259484797 
2089	 2.02497204127626E-02 
2090	 2.26982483004755E-02 
2091	 2.38996227804561E-02 
2092	 2.44120361063197E-02 
2093	 0.024237664876439 
2094	 2.23117079268618E-02 
2095	 1.81161891866068E-02 
2096	 1.66367907609078E-02 
2097	 1.45188092980445E-02 
2098	 1.38437542207031E-02 
2099	 1.56596301846173E-02 
2100	 1.62540662455981E-02 
2101	 1.63419298022684E-02 
2102	 1.59915034434846E-02 
2103	 1.67432414509324E-02 
2104	 1.84285569833212E-02 
2105	 2.09292639109014E-02 
2106	 2.24069704295539E-02 
2107	 2.15418284327692E-02 
2108	 2.19872995105962E-02 
2109	 2.18705988086927E-02 
2110	 2.23455889352344E-02 
2111	 2.39393167489838E-02 
2112	 0.023296460341119 
2113	 2.26657262617449E-02 
2114	 2.05155980045458E-02 
2115	 2.01910032535169E-02 
2116	 2.01283305407234E-02 
2117	 2.08821502916258E-02 
2118	 2.43124026627592E-02 
2119	 2.46313735198131E-02 
2120	 2.33361199597553E-02 
2121	 2.20788834585544E-02 
2122	 2.21072910585511E-02 
2123	 2.24681743312565E-02 
2124	 2.23466417624119E-02 
2125	 2.36735226262661E-02 
2126	 2.31736818832172E-02 
2127	 2.31917597299157E-02 
2128	 2.35939219369303E-02 
2129	 2.24155863087038E-02 
2130	 0.021350463572893 
2131	 1.95093053580113E-02 
2132	 1.81774633125626E-02 
2133	 1.86709090700053E-02 
2134	 0.019517984134226 
2135	 2.13642846102227E-02 
2136	 2.26550836243675E-02 
2137	 2.45894947320855E-02 
2138	 2.56849049084467E-02 
2139	 2.73775484382492E-02 
2140	 0.026783213914734 
2141	 2.27975677932752E-02 
2142	 2.25200550039516E-02 
2143	 0.02253112843979 
2144	 2.34876732410109E-02 
2145	 2.65399621865115E-02 
2146	 2.77736912092231E-02 
2147	 2.68061014239527E-02 
2148	 2.36620362622041E-02 
2149	 2.15015694284736E-02 
2150	 2.36436375944875E-02 
2151	 2.41450775680152E-02 
2152	 2.31518041483187E-02 
2153	 1.99061165315896E-02 
2154	 0.014993460928851 
2155	 1.22582929624236E-02 
2156	 1.12210791038924E-02 
2157	 1.24784305034082E-02 
2158	 1.76698154294179E-02 
2159	 2.03424403945217E-02 
2160	 2.47691603573497E-02 
2161	 2.59515618997141E-02 
2162	 2.48788259084462E-02 
2163	 2.41246076941624E-02 
2164	 2.12077811768851E-02 
2165	 2.02989058920626E-02 
2166	 2.08031250351529E-02 
2167	 2.04101781705221E-02 
2168	 2.02214999474036E-02 
2169	 1.99596846831769E-02 
2170	 2.06402546445929E-02 
2171	 1.59848131647494E-02 
2172	 0.01518768687448 
2173	 1.75941278424302E-02 
2174	 1.87017549931259E-02 
2175	 1.98544657919308E-02 
2176	 0.017650486825458 
2177	 1.33175010257285E-02 
2178	 1.00225535588891E-02 
2179	 0.009019780133676 
2180	 1.14237915999915E-02 
2181	 1.29703480520243E-02 
2182	 1.38908159759891E-02 
2183	 1.53883087411318E-02 
2184	 1.63887722122592E-02 
2185	 1.79128113310263E-02 
2186	 1.87455326622653E-02 
2187	 0.019213657978509 
2188	 2.01670978257814E-02 
2189	 2.11740971490521E-02 
2190	 2.17219193922549E-02 
2191	 2.27620143442512E-02 
2192	 2.08693585489857E-02 
2193	 1.70438006765239E-02 
2194	 1.52425437471254E-02 
2195	 1.08360595732524E-02 
2196	 9.43700182863751E-03 
2197	 1.14717471415692E-02 
2198	 9.68501719635622E-03 
2199	 4.81688046235001E-03 
2200	 7.17965932965724E-03 
2201	 6.55452116343249E-03 
2202	 7.37469018202246E-03 
2203	 9.67043357393915E-03 
2204	 1.19773526524223E-02 
2205	 1.22330469055318E-02 
2206	 1.26249562749913E-02 
2207	 1.20509982143282E-02 
2208	 8.49436395214168E-03 
2209	 9.82124956708543E-03 
2210	 1.46626155841141E-02 
2211	 1.56230801994548E-02 
2212	 0.020044639281503 
2213	 2.45504079120849E-02 
2214	 1.96392337443868E-02 
2215	 1.68222617322537E-02 
2216	 1.73684183903266E-02 
2217	 0.016208379471529 
2218	 1.21054255983024E-02 
2219	 1.10401990102172E-02 
2220	 1.20306609339335E-02 
2221	 1.12476628023421E-02 
2222	 1.08482779725226E-02 
2223	 1.12133634258925E-02 
2224	 1.12448820722023E-02 
2225	 1.25313070067793E-02 
2226	 1.54826095687859E-02 
2227	 1.45504272299351E-02 
2228	 1.18842348267946E-02 
2229	 1.23503463579552E-02 
2230	 1.18162324339161E-02 
2231	 1.05282747151288E-02 
2232	 1.28061382509937E-02 
2233	 0.012358337843086 
2234	 7.67859984360797E-03 
2235	 4.48995431742201E-03 
2236	 7.4801722650775E-03 
2237	 6.61449144901639E-03 
2238	 3.13440953841764E-03 
2239	 7.61876357900951E-03 
2240	 1.12745281502047E-02 
2241	 0.009879332203653 
2242	 1.44847118689704E-02 
2243	 1.95786796069464E-02 
2244	 1.42343639273154E-02 
2245	 1.00508207936818E-02 
2246	 6.82620159582464E-03 
2247	 1.70390096838389E-03 
2248	 1.21032679113898E-02 
2249	 2.40774420849282E-02 
2250	 2.52449127771506E-02 
2251	 2.41400423712563E-02 
2252	 1.89586651497347E-02 
2253	 1.50715619682543E-02 
2254	 1.90361742264385E-02 
2255	 2.31026803199186E-02 
2256	 1.51482620882741E-02 
2257	 1.00466539323412E-02 
2258	 8.09068068679105E-03 
2259	 4.62095576626183E-04 
2260	-6.87564237934928E-04 
2261	 9.04160818003149E-03 
2262	 8.3671915521451E-03 
2263	 1.82218283064508E-03 
2264	 2.64592850880465E-03 
2265	 5.5835386032434E-03 
2266	 5.63494987928125E-03 
2267	 8.62547530051133E-03 
2268	 8.90163239408071E-03 
2269	 2.18308940242441E-03 
2270	 4.48298155376935E-04 
2271	 3.61947077087382E-03 
2272	 2.75489558957739E-03 
2273	 3.67709618570072E-04 
2274	 1.66303253881898E-03 
2275	 5.44866599613015E-03 
2276	 3.89430335032544E-03 
2277	-3.45291851297079E-03 
2278	-3.47352291526027E-03 
2279	 4.23242935609518E-04 
2280	-2.00183107518068E-04 
2281	 5.77925877802871E-04 
2282	 7.63591252072442E-03 
2283	 2.78806885948951E-03 
2284	-1.10252926228009E-02 
2285	-1.19021043089329E-02 
2286	-1.14506707665767E-02 
2287	-2.21557652997387E-03 
2288	 9.58852416096273E-03 
2289	 8.94977726174997E-03 
2290	 8.71794038930029E-03 
2291	 1.04237647250158E-02 
2292	 8.19577369721874E-03 
2293	 0.011608708297625 
2294	 1.97233619086849E-02 
2295	 1.80596672254711E-02 
2296	 0.017009350699899 
2297	 1.49359420617382E-02 
2298	 8.51695265671136E-03 
2299	 2.45420550547389E-03 
2300	-5.6537329720701E-03 
2301	-4.95430941402324E-03 
2302	 6.56207791070506E-03 
2303	 1.01421043090471E-02 
2304	 1.00674631378983E-02 
2305	 9.56063916664986E-03 
2306	-4.16892996150946E-03 
2307	-9.75507353045933E-03 
2308	-1.07920697268511E-02 
2309	-2.00272933229829E-02 
2310	-1.46033656172956E-02 
2311	-4.91978456233556E-03 
2312	 6.45998933602678E-04 
2313	 2.48215983363516E-03 
2314	 4.53699340721266E-03 
2315	 1.83928547767933E-02 
2316	 1.84280888285246E-02 
2317	 2.49115762514142E-02 
2318	 3.00999451189595E-02 
2319	 6.34810255666998E-03 
2320	 7.91402154445355E-03 
2321	 1.75586783138813E-02 
2322	 2.83089440245371E-02 
2323	 4.52529264295013E-02 
2324	 3.55020320699062E-02 
2325	 2.51368815747896E-02 
2326	 1.57408595308866E-02 
2327	 1.68922738769739E-02 
2328	 1.93696488635171E-02 
2329	 2.10411109032023E-02 
2330	 3.09222884316767E-02 
2331	 1.59411766138028E-02 
2332	 1.03261352714447E-02 
2333	-1.20363950753322E-03 
2334	-0.021888764518028 
2335	-0.010831422521304 
2336	 5.27628733515951E-03 
2337	 2.57393141312546E-02 
2338	 3.77951399664775E-02 
2339	 1.81750119827115E-02 
2340	-7.64620687978061E-03 
2341	-2.22134508321042E-02 
2342	-3.26442646311354E-02 
2343	-3.38695953607004E-02 
2344	-2.02001503362599E-02 
2345	-2.59286654309786E-02 
2346	-4.83975582625752E-02 
2347	-3.64280925752949E-02 
2348	-2.39952111316536E-02 
2349	-2.98198719180462E-02 
2350	 6.38959303710388E-03 
2351	 3.61094594703995E-02 
2352	 3.50930116007857E-02 
2353	 4.19931418726985E-02 
2354	 2.82806011360684E-02 
2355	-2.35811495532815E-03 
2356	-1.99811429943924E-02 
2357	-3.25629485842543E-02 
2358	-4.55168920131247E-02 
2359	-4.60735180523852E-02 
2360	-4.62434931220615E-02 
2361	-7.45015446549613E-02 
2362	-9.91559280559301E-02 
2363	-8.51519058344342E-02 
2364	-8.57382960857791E-02 
2365	-0.102429327957 
2366	-0.089968765004338 
2367	-9.89414934696398E-02 
2368	-0.118546083701101 
2369	-9.87297066225097E-02 
2370	-6.95691254182023E-02 
2371	-5.52350860439479E-02 
2372	-5.87927763602295E-02 
2373	-1.62294925159257E-02 
2374	 2.38409145123267E-02 
2375	-1.47186598394097E-02 
2376	 1.18468732882202E-02 
2377	 1.34972357864217E-02 
2378	-9.81471901958288E-02 
2379	-0.163011229762183 
2380	-0.237756089120387 
2381	-0.243406417554862 
2382	-0.209912682198338 
2383	-0.179415435422735 
2384	-0.13040377068552 
2385	-0.218335658330126 
2386	-0.327358942834728 
2387	-0.287068254774399 
2388	-0.247990144438421 
2389	-0.151617448368363 
2390	-6.12091296595984E-02 
2391	 3.28565847287425E-03 
2392	 8.76776075297557E-02 
2393	 0.113174602323228 
2394	 0.101264549654873 
2395	 1.41365722059311E-02 
2396	-0.184515354199097 
2397	-0.257346577197641 
2398	-0.309834883896489 
2399	-0.334572272329875 
2400	-0.3178898588149 
2401	-0.446484346800132 
2402	-0.395912033572282 
2403	-0.210926430060403 
2404	-8.50730112504032E-02 
2405	-3.23735703527022E-02 
2406	-0.14427483530409 
2407	-0.29336855730321 
2408	-0.427254781679815 
2409	-0.466487638645036 
2410	-0.490882113336236 
2411	-0.635714739431969 
2412	-0.842489747792588 
2413	-1.4540449277305 
2414	-0.94101465033556 
2415	-0.520751267727531 
2416	-0.669467701669945 
2417	-0.423987004540651 
2418	-0.338527062430348 
2419	-0.451510635800098 
2420	-0.3118340715944 
2421	-0.886053017946712 
2422	-1.34236978424682 
2423	-2.79947083370489 
2424	-3.26809551156492 
2425	-1.83202661823191 
2426	-2.38186761639269 
2427	-0.804229804804759 
2428	-0.44989056580723 
2429	-0.231176300044396 
2430	-0.530902962295852 
2431	-0.739149090460115 
2432	-0.789737258476114 
2433	-1.03486090347289 
2434	-0.193471850793082 
2435	 0.170042017627314 
2436	-0.829015870493207 
2437	-217.301949815677 
2438	 1.42588917330534 
2439	 3.24258235218817 
2440	 7.83315216303784 
2441	 25.6140831461318 
2442	 0.956403673280006 
2443	 1.40477879150221 
2444	-8.21049714667766 
2445	-0.659206524075456 
2446	-0.382403208763389 
2447	 0.546024596765882 
2448	 0.881242239664786 
2449	 0.835956053486224 
2450	 0.999572201539432 
2451	 1.17775730445579 
2452	 1.17587993378512 
2453	 1.13635494169581 
2454	 0.726545795243591 
2455	 0.346888982730531 
2456	 0.137309106153851 
2457	 0.147457301434604 
2458	 0.147705268155488 
2459	-0.668007811866537 
2460	-1.81295580959913 
2461	-0.667784466071123 
2462	 0.432888072254958 
2463	 1.03257167924772 
2464	 1.3873748728651 
2465	 1.12951253866643 
2466	 0.635624499868979 
2467	-0.112619855762023 
2468	-0.386407377192949 
2469	 8.19725905828008 
2470	-9.33167485898984 
2471	-15.5030803332697 
2472	-7.81811104074702 
2473	-0.517398148174976 
2474	 2.38968832522554 
2475	 0.489899279669806 
2476	-4.73360326842945E-02 
2477	-0.889339144981174 
2478	-4.71316928728703 
2479	 1.02408501529301 
2480	 0.180571924286487 
2481	-0.312918883458454 
2482	-0.372230299038008 
2483	-0.315487350771066 
2484	-0.539786537475368 
2485	-0.371455597542374 
2486	-2.03525306446338E-02 
2487	-0.432735670514407 
2488	 0.396703618381627 
2489	 0.7090303439464 
2490	 0.158356040968703 
2491	-9.27621551225033E-02 
2492	-4.90133420882288E-02 
2493	-0.166076355418834 
2494	 0.122006735666033 
2495	 1.61236204267346 
2496	-7.24399552404527 
2497	-1.89851704705064 
2498	-4.93054931104108 
2499	-2.74141955082826 
2500	-1.73674633370024 
