Wavelength	rt0713west_close_sunny_100006.asd
350	 7.22271321748627E-02 
351	 7.17128193093205E-02 
352	 7.11359324432832E-02 
353	 7.11588171127334E-02 
354	 7.16781001053878E-02 
355	 7.10977466427799E-02 
356	 7.07956912661336E-02 
357	 7.07869732747832E-02 
358	 7.06911361825005E-02 
359	 7.03791958913502E-02 
360	 7.01010373440791E-02 
361	 6.98954093349618E-02 
362	 6.96645780737976E-02 
363	 6.95946225822289E-02 
364	 6.95765520691414E-02 
365	 0.069492959424278 
366	 6.92601071825569E-02 
367	 6.93733616027245E-02 
368	 6.94077932927306E-02 
369	 6.89619499956498E-02 
370	 6.85213650509936E-02 
371	 0.068703661772127 
372	 0.068963954388093 
373	 6.83161280294433E-02 
374	 6.83491179200213E-02 
375	 6.85573612073954E-02 
376	 6.85212416179834E-02 
377	 6.82570877816729E-02 
378	 0.068257085482117 
379	 6.82201002895786E-02 
380	 6.79700652517079E-02 
381	 6.83567327779308E-02 
382	 6.85328166880945E-02 
383	 6.84135363903025E-02 
384	 0.068310913153235 
385	 6.83973914344843E-02 
386	 6.83614897731651E-02 
387	 6.82937601461283E-02 
388	 6.87217227981311E-02 
389	 0.068595153942635 
390	 6.83116490883504E-02 
391	 6.83559124409881E-02 
392	 0.068730555492819 
393	 6.90305849719498E-02 
394	 6.90069000083923E-02 
395	 6.86585489308219E-02 
396	 6.87031770039071E-02 
397	 0.068882225299473 
398	 6.89344955513754E-02 
399	 6.86886320376903E-02 
400	 6.85201057795044E-02 
401	 6.85471312992698E-02 
402	 6.87303260467834E-02 
403	 6.88139923368514E-02 
404	 6.89163087459898E-02 
405	 6.89476593213903E-02 
406	 6.88153876486772E-02 
407	 6.88029907854755E-02 
408	 6.89573967067126E-02 
409	 6.91168920825701E-02 
410	 6.89693600159913E-02 
411	 6.89456731991949E-02 
412	 0.069099216132713 
413	 6.93153940373779E-02 
414	 6.92470673651533E-02 
415	 6.93180568495168E-02 
416	 6.94769776520494E-02 
417	 6.95251366724418E-02 
418	 6.96462309150968E-02 
419	 6.98047064366678E-02 
420	 6.99189324241092E-02 
421	 6.98878335887278E-02 
422	 7.01290527258625E-02 
423	 0.070409200074683 
424	 7.05137109993095E-02 
425	 7.06635532594731E-02 
426	 7.08809566152559E-02 
427	 7.11750868342103E-02 
428	 7.15156660427327E-02 
429	 7.17287890100381E-02 
430	 7.18793464341927E-02 
431	 7.20689744459867E-02 
432	 7.24064091483962E-02 
433	 7.26438907483939E-02 
434	 7.28474063484051E-02 
435	 7.31196916076346E-02 
436	 7.34618355695164E-02 
437	 7.37485866386505E-02 
438	 7.39868407114112E-02 
439	 7.42473163603694E-02 
440	 0.074450316502858 
441	 7.46960596789863E-02 
442	 7.50093473311838E-02 
443	 7.52818226230628E-02 
444	 7.54959355971461E-02 
445	 7.56907884279489E-02 
446	 7.59197225730232E-02 
447	 7.62241918061125E-02 
448	 7.64701967579168E-02 
449	 7.66407789198524E-02 
450	 7.68146413196796E-02 
451	 7.70688041257162E-02 
452	 7.72644040992916E-02 
453	 7.73555561281331E-02 
454	 7.75474891598661E-02 
455	 7.77415005696004E-02 
456	 7.78818544350529E-02 
457	 7.79561331388445E-02 
458	 7.81038873167044E-02 
459	 7.82638833813719E-02 
460	 7.83928149010417E-02 
461	 7.84772803449261E-02 
462	 7.85218434991167E-02 
463	 7.86176965002088E-02 
464	 0.078803998385971 
465	 7.89458574770613E-02 
466	 7.90226827857543E-02 
467	 7.90690254509506E-02 
468	 7.91484265668341E-02 
469	 7.92647649911108E-02 
470	 7.93667000779281E-02 
471	 7.94596828650294E-02 
472	 7.96306824589764E-02 
473	 7.97504383675047E-02 
474	 0.079879880277878 
475	 8.00787654691649E-02 
476	 8.02115507402739E-02 
477	 8.04043788581399E-02 
478	 0.080633813058027 
479	 8.07907063268861E-02 
480	 8.10380153096107E-02 
481	 8.13157236759154E-02 
482	 0.08156135318427 
483	 8.17607846309614E-02 
484	 8.20327392069055E-02 
485	 8.23246229795398E-02 
486	 8.25489734149625E-02 
487	 8.28015635671547E-02 
488	 8.31413845627958E-02 
489	 8.34955104924869E-02 
490	 0.083686250688518 
491	 8.39865324922871E-02 
492	 8.43544717746038E-02 
493	 8.47072043562645E-02 
494	 8.50309270835496E-02 
495	 8.53933857089745E-02 
496	 0.08574457360688 
497	 8.60031265866529E-02 
498	 8.63633381588327E-02 
499	 8.67253210662376E-02 
500	 8.70405003337782E-02 
501	 8.73872117861788E-02 
502	 8.76936914264499E-02 
503	 0.088028768490234 
504	 8.84612769395582E-02 
505	 8.88918670112634E-02 
506	 8.93733913468083E-02 
507	 8.98594310235852E-02 
508	 9.02360201260794E-02 
509	 9.06291177038659E-02 
510	 9.11160432558237E-02 
511	 9.16835905599326E-02 
512	 9.21378030989339E-02 
513	 9.26027886626654E-02 
514	 9.31111053942192E-02 
515	 9.36538683504648E-02 
516	 9.42288808478325E-02 
517	 9.47800497930726E-02 
518	 9.52987117749111E-02 
519	 9.58411044069203E-02 
520	 9.63534412755925E-02 
521	 9.68343097145871E-02 
522	 9.73159322922927E-02 
523	 9.78882662934381E-02 
524	 0.098481749544437 
525	 9.90550081596942E-02 
526	 9.96016971975642E-02 
527	 0.100241242503451 
528	 0.100833184614494 
529	 0.101325120078659 
530	 0.101905449759687 
531	 0.102527314136192 
532	 0.103169182955249 
533	 0.103807719309834 
534	 0.10440975312336 
535	 0.105008841751084 
536	 0.105607838328215 
537	 0.106166399979218 
538	 0.106738899525914 
539	 0.107326706892385 
540	 0.10792295249156 
541	 0.108543080233124 
542	 0.109157589552163 
543	 0.109758277033712 
544	 0.110360414458253 
545	 0.111044634588169 
546	 0.111715397416879 
547	 0.112317033131537 
548	 0.112909510964348 
549	 0.113531092997268 
550	 0.11418142994301 
551	 0.114834025617773 
552	 0.115417059553947 
553	 0.115984624563334 
554	 0.116582576002052 
555	 0.117232838988956 
556	 0.117828243621859 
557	 0.118380430355469 
558	 0.118921054675 
559	 0.119459979126239 
560	 0.119989323599845 
561	 0.120484355695663 
562	 0.120918281130807 
563	 0.121324247209781 
564	 0.121722495668699 
565	 0.122090251348408 
566	 0.122317981406971 
567	 0.122600252214876 
568	 0.122911805959202 
569	 0.123171767927968 
570	 0.123499277960588 
571	 0.123823232193901 
572	 0.1240754439937 
573	 0.124208995405685 
574	 0.124435324496523 
575	 0.124725093516124 
576	 0.124985328622297 
577	 0.125124018626982 
578	 0.125273728139494 
579	 0.125437059477163 
580	 0.125533921908765 
581	 0.125551033839978 
582	 0.125479997528775 
583	 0.125326255911177 
584	 0.125123187214657 
585	 0.12473933757281 
586	 0.124214405955213 
587	 0.123646512462571 
588	 0.1230670064528 
589	 0.12261213260649 
590	 0.122359491475228 
591	 0.122265652021482 
592	 0.121904839856598 
593	 0.121461990340181 
594	 0.121129231102792 
595	 0.120684036978332 
596	 0.12009718811061 
597	 0.119434501234042 
598	 0.118815871483557 
599	 0.118211265522267 
600	 0.117663921313312 
601	 0.117215293842203 
602	 0.11689282682546 
603	 0.1166260706917 
604	 0.116440073685141 
605	 0.116372017209399 
606	 0.11635092324741 
607	 0.116310862195482 
608	 0.116247799308479 
609	 0.11622092992415 
610	 0.116230471170083 
611	 0.116201651174904 
612	 0.116111209386955 
613	 0.116141407229155 
614	 0.116108198302934 
615	 0.116040600813455 
616	 0.116065637509173 
617	 0.116023495968322 
618	 0.115939467005583 
619	 0.11585147527605 
620	 0.115783962265076 
621	 0.1157389047025 
622	 0.115712664989569 
623	 0.115675332593397 
624	 0.115503745303571 
625	 0.11525572848021 
626	 0.1150145649139 
627	 0.11487636672753 
628	 0.114830387960298 
629	 0.114875637308736 
630	 0.114952135515872 
631	 0.114837868131378 
632	 0.114825306377924 
633	 0.114882604215085 
634	 0.114840411998329 
635	 0.114796345846868 
636	 0.114716593378892 
637	 0.114592899347956 
638	 0.114466136514728 
639	 0.114347432140704 
640	 0.114226620848912 
641	 0.114077842797164 
642	 0.113854447251005 
643	 0.113535304601408 
644	 0.113116089319112 
645	 0.11261589048309 
646	 0.112145576690482 
647	 0.11182572072696 
648	 0.111702579548962 
649	 0.111682899290633 
650	 0.111485899398761 
651	 0.111226343566781 
652	 0.111105045717817 
653	 0.110672478884951 
654	 0.110130783940792 
655	 0.109627171927555 
656	 0.109231827042693 
657	 0.108832780546541 
658	 0.108465466722818 
659	 0.108168519112783 
660	 0.107941724691282 
661	 0.107679695585038 
662	 0.107393635966265 
663	 0.10717562882883 
664	 0.10706310747304 
665	 0.106948630459938 
666	 0.10677964879311 
667	 0.106635477218737 
668	 0.106521673241851 
669	 0.106429952701214 
670	 0.106338602378502 
671	 0.10618961161694 
672	 0.106125409058562 
673	 0.106142188871413 
674	 0.10609731841062 
675	 0.106034336349452 
676	 0.106015780582542 
677	 0.106044059333787 
678	 0.105948020035223 
679	 0.105920179309774 
680	 0.105980980926009 
681	 0.106057270956169 
682	 0.106040852417844 
683	 0.106047327603037 
684	 0.10602628216221 
685	 0.105658342795983 
686	 0.105259983978028 
687	 0.105084926196905 
688	 0.105179052329183 
689	 0.105125134213612 
690	 0.10480153997499 
691	 0.104242418423194 
692	 0.103599472203404 
693	 0.103142421299865 
694	 0.102976213496366 
695	 0.102943947593624 
696	 0.102600481820417 
697	 0.101876120246451 
698	 0.100904085025179 
699	 9.99629237050115E-02 
700	 9.91785042888511E-02 
701	 0.098561749473227 
702	 9.80046877840213E-02 
703	 9.73007383286748E-02 
704	 9.63111894967381E-02 
705	 9.52877948085742E-02 
706	 9.43789307856566E-02 
707	 9.32982473576964E-02 
708	 9.21281984933663E-02 
709	 0.090849879929865 
710	 8.94303368350464E-02 
711	 8.79287503600487E-02 
712	 8.62641726849603E-02 
713	 0.084387301540133 
714	 8.22259763672052E-02 
715	 0.079618261494926 
716	 7.67192672051644E-02 
717	 7.41204269178537E-02 
718	 7.19578279566504E-02 
719	 7.05757666988566E-02 
720	 6.95805480008934E-02 
721	 6.82251650354819E-02 
722	 6.63438134929826E-02 
723	 6.40813907537329E-02 
724	 6.19385846655766E-02 
725	 6.00737043286229E-02 
726	 5.82812688569487E-02 
727	 5.63668082781035E-02 
728	 5.42670510998051E-02 
729	 5.21157076429713E-02 
730	 5.02902388927631E-02 
731	 4.89674839110662E-02 
732	 4.79711138784361E-02 
733	 4.67546961699084E-02 
734	 4.55500965189193E-02 
735	 4.45608574329149E-02 
736	 4.38747321880641E-02 
737	 4.35342836997654E-02 
738	 4.33553966941056E-02 
739	 4.31821647418282E-02 
740	 4.30881046017454E-02 
741	 4.30857848131365E-02 
742	 4.31127735031701E-02 
743	 4.30807798776599E-02 
744	 4.30433740658872E-02 
745	 4.29656103853435E-02 
746	 4.28655507314101E-02 
747	 0.042839297707252 
748	 4.28549081859537E-02 
749	 4.28308142002234E-02 
750	 4.27290294453761E-02 
751	 4.26873842760522E-02 
752	 4.27053528038738E-02 
753	 4.27191406905679E-02 
754	 0.042646274495294 
755	 4.25861601465829E-02 
756	 4.24428834833083E-02 
757	 4.21231683768865E-02 
758	 4.14092866679468E-02 
759	 4.03804490408254E-02 
760	 0.039416253923977 
761	 3.93269056870996E-02 
762	 3.94476195350657E-02 
763	 3.99009605690467E-02 
764	 4.06321840862209E-02 
765	 4.14690308498658E-02 
766	 4.19527483727499E-02 
767	 4.22733732376412E-02 
768	 0.042564393788687 
769	 0.042880935809817 
770	 4.30583769102179E-02 
771	 4.31847732486106E-02 
772	 4.33456875352883E-02 
773	 4.34696525115892E-02 
774	 4.36073310767635E-02 
775	 4.37715178226533E-02 
776	 4.39507469198267E-02 
777	 0.044081365391217 
778	 4.42848565863229E-02 
779	 4.45457522429428E-02 
780	 4.47088530775892E-02 
781	 4.48798275858132E-02 
782	 4.50059105816119E-02 
783	 4.50795795545993E-02 
784	 4.52598793311881E-02 
785	 4.54233391439445E-02 
786	 4.55476967049292E-02 
787	 4.56466480975786E-02 
788	 4.57007589224129E-02 
789	 4.59405812374707E-02 
790	 4.63744548828724E-02 
791	 4.68224047973754E-02 
792	 4.73045530911191E-02 
793	 4.76102880552338E-02 
794	 4.77237443596174E-02 
795	 4.79659417853501E-02 
796	 4.82169423287067E-02 
797	 4.84303224225687E-02 
798	 4.86158822794999E-02 
799	 4.88868494301324E-02 
800	 4.91421227414904E-02 
801	 4.93200793789855E-02 
802	 0.049437590931895 
803	 4.98340421117475E-02 
804	 5.01031034772015E-02 
805	 5.01332882830781E-02 
806	 5.01950983579515E-02 
807	 5.02226674323832E-02 
808	 4.99617955945335E-02 
809	 4.93469705283412E-02 
810	 4.88895284463802E-02 
811	 4.84608124715674E-02 
812	 4.78695717675835E-02 
813	 4.69779791767967E-02 
814	 4.62688872575298E-02 
815	 4.57751283674015E-02 
816	 4.54728728354986E-02 
817	 4.52830813168264E-02 
818	 4.51963522251032E-02 
819	 4.50245064671787E-02 
820	 4.45719924340018E-02 
821	 0.043614891435538 
822	 4.27005664901201E-02 
823	 4.19595134207308E-02 
824	 4.12710207379085E-02 
825	 4.02475595109291E-02 
826	 3.90192896914357E-02 
827	 3.77016204466087E-02 
828	 3.65141523690341E-02 
829	 3.55323124480532E-02 
830	 3.47394749434352E-02 
831	 3.41572346935772E-02 
832	 3.38198092473998E-02 
833	 3.33298911105438E-02 
834	 0.032960788477539 
835	 3.28267767903891E-02 
836	 3.27409668093037E-02 
837	 3.25875587425979E-02 
838	 3.24271917784633E-02 
839	 3.23577521450725E-02 
840	 3.24780371821781E-02 
841	 0.0324757801959 
842	 3.23038167487657E-02 
843	 3.20767839623073E-02 
844	 0.032095766776405 
845	 3.20388865406698E-02 
846	 0.031870118033008 
847	 3.17450221156447E-02 
848	 3.14835861363804E-02 
849	 3.13228271570371E-02 
850	 3.13159468133295E-02 
851	 3.12348603210727E-02 
852	 3.13044644627039E-02 
853	 3.11958724482013E-02 
854	 3.08307525120563E-02 
855	 3.08732152655881E-02 
856	 3.07656781956559E-02 
857	 3.06387885750538E-02 
858	 3.07103578270744E-02 
859	 3.08464573023435E-02 
860	 0.030644572593179 
861	 3.03490009924204E-02 
862	 3.04059577214021E-02 
863	 3.02587228460752E-02 
864	 3.01204376758314E-02 
865	 3.00558996768951E-02 
866	 2.99473808754228E-02 
867	 2.97284726906183E-02 
868	 2.95980481200499E-02 
869	 2.96182832278933E-02 
870	 2.96304185872034E-02 
871	 2.94359332022709E-02 
872	 2.92349893003124E-02 
873	 2.91688151745279E-02 
874	 2.90303576099326E-02 
875	 2.90301215433499E-02 
876	 2.89465996651385E-02 
877	 2.86235604137558E-02 
878	 2.86390441551654E-02 
879	 2.84165887654598E-02 
880	 2.80966301418579E-02 
881	 2.80539155870889E-02 
882	 2.78318530696248E-02 
883	 2.77814733113489E-02 
884	 2.77909183653749E-02 
885	 2.74738894070998E-02 
886	 2.75007846384784E-02 
887	 2.73168056660001E-02 
888	 2.68676557746163E-02 
889	 2.67608233798762E-02 
890	 2.63988277280246E-02 
891	 2.60325322533379E-02 
892	 2.58170503942447E-02 
893	 0.025441403345931 
894	 2.48028113458099E-02 
895	 2.40361335624667E-02 
896	 2.34172648030121E-02 
897	 2.32676364726566E-02 
898	 0.023521352681794 
899	 2.36513516726207E-02 
900	 2.32782625460049E-02 
901	 2.29300739757726E-02 
902	 2.31430400301896E-02 
903	 2.33634312499264E-02 
904	 2.29351539429707E-02 
905	 2.28615593631417E-02 
906	 2.28114234122329E-02 
907	 0.022657570659249 
908	 2.24036235806492E-02 
909	 2.16238905624406E-02 
910	 2.14203436960485E-02 
911	 2.17522389187879E-02 
912	 2.15319061592971E-02 
913	 2.13608703361442E-02 
914	 2.13933978427347E-02 
915	 2.14506678496495E-02 
916	 2.11325437076233E-02 
917	 2.11555534819847E-02 
918	 2.09521324507201E-02 
919	 2.08079123887231E-02 
920	 2.21878033644244E-02 
921	 2.21721306748301E-02 
922	 2.15086814003089E-02 
923	 2.11425625926226E-02 
924	 2.08865776876767E-02 
925	 2.04379566181873E-02 
926	 0.020240840554248 
927	 2.05552607749282E-02 
928	 1.99156519085682E-02 
929	 1.83867429213829E-02 
930	 1.77196587654966E-02 
931	 1.99953434061475E-02 
932	 1.91468699577184E-02 
933	 0.018152419632627 
934	 1.66787989516808E-02 
935	 1.36733664687687E-02 
936	 1.27492919787728E-02 
937	 1.46867546283211E-02 
938	 1.54731780205252E-02 
939	 0.012653000286241 
940	 1.35080771471277E-02 
941	 1.45772314464045E-02 
942	 1.60206025508444E-02 
943	 0.018853457345447 
944	 1.82501051466031E-02 
945	 0.014576401171843 
946	 1.28400220888776E-02 
947	 1.73782798571269E-02 
948	 1.70035632423967E-02 
949	 1.68245303463634E-02 
950	 1.60742875725146E-02 
951	 1.20040855841872E-02 
952	 1.62967966853416E-02 
953	 1.82774813030513E-02 
954	 1.63132974126638E-02 
955	 1.54621025094209E-02 
956	 1.31555656521224E-02 
957	 1.46419604186367E-02 
958	 1.79505666107791E-02 
959	 1.72568150865119E-02 
960	 1.71770277581985E-02 
961	 1.66258417730336E-02 
962	 1.70731645569096E-02 
963	 2.05121131134544E-02 
964	 1.96074687024798E-02 
965	 1.87526401432443E-02 
966	 1.91248605189904E-02 
967	 1.90071744811084E-02 
968	 1.81978317374847E-02 
969	 1.86853788412379E-02 
970	 2.00182375625841E-02 
971	 1.98893263255776E-02 
972	 0.019584038660189 
973	 1.96338854206225E-02 
974	 1.96521214539293E-02 
975	 1.87787688583975E-02 
976	 1.92591551317403E-02 
977	 1.98541562435669E-02 
978	 2.00878497578459E-02 
979	 2.04262773430555E-02 
980	 2.00431433697291E-02 
981	 1.94378797104079E-02 
982	 1.96579333502169E-02 
983	 2.14455067887528E-02 
984	 2.13713825533983E-02 
985	 2.13606620914466E-02 
986	 0.022340746079032 
987	 2.35644333407434E-02 
988	 2.16439386984022E-02 
989	 2.09650775839932E-02 
990	 2.19633095221704E-02 
991	 2.19244221636363E-02 
992	 0.022616489348908 
993	 2.20181299364015E-02 
994	 2.10757596671189E-02 
995	 2.21933329903709E-02 
996	 0.022316221779671 
997	 2.27875819135887E-02 
998	 2.31073785864389E-02 
999	 2.21691434309446E-02 
1000	 2.29579284923325E-02 
1001	 2.01529222774526E-02 
1002	 2.01367895973356E-02 
1003	 2.01223952676291E-02 
1004	 2.03469010430864E-02 
1005	 0.020336077395574 
1006	 2.01681449111586E-02 
1007	 2.01180341783592E-02 
1008	 2.03071810845253E-02 
1009	 2.03732684418458E-02 
1010	 2.05880700387872E-02 
1011	 2.09074555274872E-02 
1012	 0.02090739076439 
1013	 2.07136056350797E-02 
1014	 2.06864809059657E-02 
1015	 0.020736620820799 
1016	 2.07270112833767E-02 
1017	 2.07098285048561E-02 
1018	 2.08167133356349E-02 
1019	 2.09777479812728E-02 
1020	 2.10582037850495E-02 
1021	 2.12692267719489E-02 
1022	 2.11905593076089E-02 
1023	 2.12968626186396E-02 
1024	 2.13402217772239E-02 
1025	 2.14801411956242E-02 
1026	 2.17953700064812E-02 
1027	 2.18125263402465E-02 
1028	 2.17020469430055E-02 
1029	 0.021585396781529 
1030	 2.12044356094352E-02 
1031	 2.11209886530284E-02 
1032	 2.11332117282862E-02 
1033	 2.11814628458592E-02 
1034	 2.14389693466184E-02 
1035	 2.15474719911017E-02 
1036	 2.16387853254061E-02 
1037	 2.17122551038689E-02 
1038	 2.18068763801647E-02 
1039	 2.17028156455293E-02 
1040	 2.18110583737593E-02 
1041	 2.17273861633118E-02 
1042	 2.17716985965064E-02 
1043	 2.19749666192255E-02 
1044	 2.18696377931927E-02 
1045	 2.15454541864844E-02 
1046	 2.14714772925328E-02 
1047	 2.12296074296462E-02 
1048	 2.12251671961122E-02 
1049	 2.16664739501936E-02 
1050	 2.17511012422682E-02 
1051	 2.16534779873105E-02 
1052	 2.16742439734085E-02 
1053	 2.16192897801396E-02 
1054	 0.021606973984542 
1055	 2.18491274372219E-02 
1056	 2.18176350847927E-02 
1057	 0.021660030999971 
1058	 2.12504204316465E-02 
1059	 2.11976844581775E-02 
1060	 0.021052137685815 
1061	 2.11670854326529E-02 
1062	 2.18377615326067E-02 
1063	 2.19025251710913E-02 
1064	 2.17836980861696E-02 
1065	 2.16176509625435E-02 
1066	 2.09949585434546E-02 
1067	 2.07514304207303E-02 
1068	 2.05954889973095E-02 
1069	 2.05686243308268E-02 
1070	 2.09120297680832E-02 
1071	 2.10048960150492E-02 
1072	 0.021163392474485 
1073	 2.10919190354984E-02 
1074	 2.10296996030553E-02 
1075	 2.06790637836956E-02 
1076	 2.07265015675564E-02 
1077	 2.10443237936902E-02 
1078	 2.10654330130096E-02 
1079	 2.11582044676219E-02 
1080	 0.021112602369866 
1081	 0.020779822493329 
1082	 2.05754501052499E-02 
1083	 0.020410807186274 
1084	 2.02746983866196E-02 
1085	 2.00186313619725E-02 
1086	 1.99126979155253E-02 
1087	 0.02011884468411 
1088	 2.00954419135299E-02 
1089	 0.02001306746445 
1090	 1.99078801821004E-02 
1091	 1.97573077954768E-02 
1092	 1.93346409292979E-02 
1093	 1.92147092375006E-02 
1094	 1.93675194912919E-02 
1095	 1.92583814419671E-02 
1096	 1.90689930745307E-02 
1097	 1.89679705378543E-02 
1098	 1.87544944310895E-02 
1099	 1.85485901147725E-02 
1100	 1.86404720994954E-02 
1101	 1.84316339755138E-02 
1102	 1.77381121038205E-02 
1103	 1.73671583285251E-02 
1104	 1.71244175784714E-02 
1105	 1.66554527022951E-02 
1106	 1.66050592198398E-02 
1107	 1.67107049459387E-02 
1108	 1.65635719471789E-02 
1109	 1.65101748431409E-02 
1110	 1.60134152469545E-02 
1111	 1.45742588656543E-02 
1112	 1.43587924890648E-02 
1113	 1.48803204632414E-02 
1114	 1.46119036865291E-02 
1115	 1.50032828082042E-02 
1116	 1.50871659417703E-02 
1117	 0.013412730342468 
1118	 1.23475543227784E-02 
1119	 1.34495435045292E-02 
1120	 1.30314212939417E-02 
1121	 9.96334268714729E-03 
1122	 7.79308303206682E-03 
1123	 0.010619776655152 
1124	 7.83523350993974E-03 
1125	 7.56361157064467E-03 
1126	 1.00119481335649E-02 
1127	 7.43296007598088E-03 
1128	 7.90657395170317E-03 
1129	 9.29331730219177E-03 
1130	 1.36640358800025E-02 
1131	 1.27353916265433E-02 
1132	 8.5236028698764E-03 
1133	 9.27782620979894E-03 
1134	 1.16177257734152E-02 
1135	 1.17791641241387E-02 
1136	 0.013799132503448 
1137	 1.40179109391897E-02 
1138	 1.19193665972338E-02 
1139	 8.91490219185804E-03 
1140	 1.05536063307183E-02 
1141	 1.27167791483735E-02 
1142	 0.012322987750926 
1143	 1.28435697996032E-02 
1144	 1.24173072724371E-02 
1145	 1.07323116512545E-02 
1146	 0.01101867791824 
1147	 1.14083510498697E-02 
1148	 0.01165535140475 
1149	 1.19654332522424E-02 
1150	 1.15222151217647E-02 
1151	 1.02477324519129E-02 
1152	 1.11776407067546E-02 
1153	 1.22598739733427E-02 
1154	 1.27891556900321E-02 
1155	 1.41350699306854E-02 
1156	 1.50582389624881E-02 
1157	 1.44822998512134E-02 
1158	 1.44489684394386E-02 
1159	 0.014473587921881 
1160	 1.47579635513491E-02 
1161	 1.57075177231255E-02 
1162	 1.61788666490839E-02 
1163	 1.64333819537596E-02 
1164	 1.66169931121713E-02 
1165	 1.62264302012993E-02 
1166	 1.60906552176985E-02 
1167	 1.65870064762927E-02 
1168	 1.71436904009741E-02 
1169	 1.76008467034367E-02 
1170	 1.78154502893323E-02 
1171	 1.78921790683479E-02 
1172	 1.76567606452676E-02 
1173	 1.76238481262981E-02 
1174	 1.75230597166617E-02 
1175	 1.75301878340118E-02 
1176	 1.79087461666375E-02 
1177	 1.81726828546449E-02 
1178	 1.79911959082068E-02 
1179	 1.80048811941566E-02 
1180	 1.81114753143268E-02 
1181	 1.80746563640336E-02 
1182	 1.82136621412096E-02 
1183	 1.82427051384201E-02 
1184	 1.79047174166771E-02 
1185	 1.77436024810372E-02 
1186	 1.78596977004739E-02 
1187	 1.79581957500477E-02 
1188	 1.81622867115756E-02 
1189	 1.83092811642583E-02 
1190	 1.82446802112402E-02 
1191	 1.83322879029344E-02 
1192	 1.84300892428111E-02 
1193	 1.86308132138815E-02 
1194	 1.85030213036729E-02 
1195	 1.84512014479628E-02 
1196	 1.86057555828063E-02 
1197	 1.84913362614194E-02 
1198	 1.83667657000673E-02 
1199	 0.018562621862277 
1200	 1.87251362041957E-02 
1201	 1.86171352347356E-02 
1202	 1.85484692725414E-02 
1203	 1.86871769094118E-02 
1204	 1.87996433900699E-02 
1205	 1.89023339542709E-02 
1206	 1.90512387683126E-02 
1207	 0.01909503184138 
1208	 1.90270703132409E-02 
1209	 1.89755080656522E-02 
1210	 1.90415085482407E-02 
1211	 1.91008805689727E-02 
1212	 1.90081033541043E-02 
1213	 1.90332620211612E-02 
1214	 1.90859041019895E-02 
1215	 1.93036985786115E-02 
1216	 1.92971812295803E-02 
1217	 1.92854495906343E-02 
1218	 1.94566793653381E-02 
1219	 1.95197820940026E-02 
1220	 0.019605129321119 
1221	 1.97271170785921E-02 
1222	 1.95806277026293E-02 
1223	 1.95355197059665E-02 
1224	 1.97833895053354E-02 
1225	 1.99221699549107E-02 
1226	 1.99717064208249E-02 
1227	 2.00489164452681E-02 
1228	 2.00839259530666E-02 
1229	 2.02294193850687E-02 
1230	 2.04187313678696E-02 
1231	 2.04060920879224E-02 
1232	 2.02268643532031E-02 
1233	 2.01752011159177E-02 
1234	 2.02414285846439E-02 
1235	 2.02231664267447E-02 
1236	 0.020301831716232 
1237	 2.04050218146559E-02 
1238	 2.05200697616059E-02 
1239	 2.03098444185298E-02 
1240	 0.020318156660055 
1241	 2.06042063967519E-02 
1242	 2.06811582228516E-02 
1243	 0.020646519895131 
1244	 0.020782145618634 
1245	 2.07250356668813E-02 
1246	 2.04012129851697E-02 
1247	 2.03463467170355E-02 
1248	 2.05836092991504E-02 
1249	 2.05609784064721E-02 
1250	 2.04006358512135E-02 
1251	 2.05293107596964E-02 
1252	 2.04508318602875E-02 
1253	 2.00143510177972E-02 
1254	 1.98967773538897E-02 
1255	 2.01292255410306E-02 
1256	 0.020128702271228 
1257	 2.00647016169178E-02 
1258	 2.00103228448948E-02 
1259	 1.98471372961318E-02 
1260	 1.97906947602673E-02 
1261	 1.98805561635468E-02 
1262	 1.97901983531171E-02 
1263	 1.96851184729755E-02 
1264	 1.95267973499736E-02 
1265	 1.93370523951375E-02 
1266	 1.92869315743053E-02 
1267	 0.01937941126007 
1268	 1.93374443943591E-02 
1269	 1.92032035173007E-02 
1270	 1.92400681481478E-02 
1271	 0.019436499121675 
1272	 1.95718763908685E-02 
1273	 1.94662221670324E-02 
1274	 1.93763407070152E-02 
1275	 1.94404590292523E-02 
1276	 1.95307652279806E-02 
1277	 1.97657658196284E-02 
1278	 1.99587050732553E-02 
1279	 1.99541701016842E-02 
1280	 1.99589431725367E-02 
1281	 1.99948590618881E-02 
1282	 2.00013488906599E-02 
1283	 1.99835748519355E-02 
1284	 1.99891159148717E-02 
1285	 1.99652283995123E-02 
1286	 1.98630835071629E-02 
1287	 1.97682965223773E-02 
1288	 1.97581496105086E-02 
1289	 0.019647297476739 
1290	 1.93800178045066E-02 
1291	 1.92387936147459E-02 
1292	 1.92251730866184E-02 
1293	 1.91432946380353E-02 
1294	 1.91010422105258E-02 
1295	 0.01900678540826 
1296	 1.87507810461218E-02 
1297	 1.85118619446888E-02 
1298	 0.018394077501606 
1299	 1.84802838808284E-02 
1300	 1.84599276971582E-02 
1301	 1.82458084124587E-02 
1302	 1.83245858584708E-02 
1303	 1.81951105201795E-02 
1304	 1.78643130901938E-02 
1305	 1.79288057093533E-02 
1306	 1.77951477016743E-02 
1307	 1.74023555547315E-02 
1308	 1.72078519482784E-02 
1309	 1.70926428283008E-02 
1310	 1.69825500206939E-02 
1311	 1.70575053744262E-02 
1312	 1.68532725610688E-02 
1313	 0.016515930338025 
1314	 1.62526644496095E-02 
1315	 1.56105105671326E-02 
1316	 1.54911037904033E-02 
1317	 1.60899400109301E-02 
1318	 1.59774706866768E-02 
1319	 1.55005266852694E-02 
1320	 1.54277410714981E-02 
1321	 1.50786795418154E-02 
1322	 1.49979963408154E-02 
1323	 1.53668947654522E-02 
1324	 1.54531471499837E-02 
1325	 1.51490660899266E-02 
1326	 1.43515105458632E-02 
1327	 1.37131202555326E-02 
1328	 1.38375420312087E-02 
1329	 1.36655107431686E-02 
1330	 1.35223413669959E-02 
1331	 0.013705814163665 
1332	 1.32873420446015E-02 
1333	 1.31467808332625E-02 
1334	 1.31338649819262E-02 
1335	 1.28061875328536E-02 
1336	 1.23144375720667E-02 
1337	 1.23323195270597E-02 
1338	 1.23045703401037E-02 
1339	 0.012306415396909 
1340	 1.32822725933951E-02 
1341	 0.013108873974212 
1342	 1.11419732022233E-02 
1343	 0.010748209534595 
1344	 1.13716483457842E-02 
1345	 1.09568483431088E-02 
1346	 1.09762530700801E-02 
1347	 1.17503169938667E-02 
1348	 1.17697861761635E-02 
1349	 1.04953746237679E-02 
1350	 7.64421955874989E-03 
1351	 1.01203073049224E-02 
1352	 2.35947028483087E-02 
1353	 2.76902603854551E-02 
1354	 2.47016374554584E-02 
1355	 4.11536981655314E-02 
1356	 5.29420610385413E-02 
1357	 2.63912630793108E-02 
1358	 4.46737754267092E-02 
1359	 0.121698418748223 
1360	 5.78598439125267E-02 
1361	 9.70449127294735E-03 
1362	 0.142623571724414 
1363	 0.177271592058544 
1364	 7.40594901656945E-02 
1365	-8.43383948154114E-03 
1366	 8.31007685558544E-02 
1367	 0.250527529631456 
1368	 0.232061640131928 
1369	 0.242983267825374 
1370	 0.262816261276063 
1371	-2.00103636094097E-02 
1372	-5.45343036404212E-02 
1373	-2.34954018008022E-02 
1374	 0.162067141696819 
1375	 0.572058636566426 
1376	 0.637932788014917 
1377	 1.39634713318732 
1378	 1.09787656415848 
1379	 0.249812200995211 
1380	 6.00434279118937E-02 
1381	-0.44151255757329 
1382	-0.320443825258935 
1383	 0.374381403510211 
1384	 0.608173821592144 
1385	 0.844796086713567 
1386	 0.877073277291884 
1387	 0.30154715745176 
1388	 0.182567670792679 
1389	 0.620063068784551 
1390	 0.727921857896955 
1391	 0.834697186077316 
1392	 1.05166327897852 
1393	 1.10471714924079 
1394	 1.01245929181756 
1395	 0.393388184775254 
1396	 0.30917463344024 
1397	 0.52016980830085 
1398	 0.152484126193237 
1399	 0.216564603365961 
1400	 0.312468413598526 
1401	 0.106752266985513 
1402	 0.151190034426507 
1403	 0.28550696189698 
1404	 0.405859618443425 
1405	 0.401896323411724 
1406	 0.324740443582829 
1407	 0.161785393315905 
1408	-0.129243799629738 
1409	-0.132630019179889 
1410	-5.0405649069098E-03 
1411	 2.03751951900073E-02 
1412	 7.31134943667989E-02 
1413	 0.132206874879404 
1414	 0.190834415449201 
1415	 0.151755608414869 
1416	 0.12194859825828 
1417	 0.101404429921725 
1418	 1.03343921541045E-02 
1419	 5.63396060258354E-03 
1420	 6.25609077333066E-02 
1421	 6.04447789290751E-02 
1422	 4.68810095297439E-02 
1423	 3.62565865665064E-02 
1424	 8.78390924792574E-03 
1425	 1.03338457236129E-02 
1426	 3.24824547621047E-02 
1427	 2.79849036515091E-02 
1428	 1.67916385580104E-02 
1429	 1.34270191355897E-02 
1430	-1.31171007860865E-03 
1431	-5.55398433851327E-03 
1432	 7.23565747277014E-03 
1433	 0.009937146165048 
1434	 8.50498471812547E-03 
1435	 3.96574269428328E-03 
1436	-1.49293293612272E-02 
1437	-0.014704880104884 
1438	-4.07572062659543E-03 
1439	 2.88151676482225E-03 
1440	 1.21942474698119E-02 
1441	 7.48717531791517E-03 
1442	-6.77282706049175E-03 
1443	-7.37683498601156E-03 
1444	 4.39547970777525E-03 
1445	 6.76879959801365E-03 
1446	 4.04804162167487E-03 
1447	 8.42002037345877E-03 
1448	 1.04816753974524E-02 
1449	 7.63972665907041E-03 
1450	 6.61116709740024E-03 
1451	 6.56350586357852E-03 
1452	 5.25073062011648E-03 
1453	 6.5531364540395E-03 
1454	 7.80468327476915E-03 
1455	 0.011536552568726 
1456	 1.23678225748264E-02 
1457	 1.21059846584793E-02 
1458	 1.20846129638142E-02 
1459	 0.012158347549904 
1460	 1.18507714114513E-02 
1461	 1.05353898211204E-02 
1462	 1.01810248313183E-02 
1463	 0.010679739289223 
1464	 1.01726654139655E-02 
1465	 8.76408674833148E-03 
1466	 8.49744878596182E-03 
1467	 8.41381245627296E-03 
1468	 8.2870499816675E-03 
1469	 9.22915100105996E-03 
1470	 1.00787887005405E-02 
1471	 1.11484832001687E-02 
1472	 1.00600154924608E-02 
1473	 7.0858334372971E-03 
1474	 7.74192330552213E-03 
1475	 9.41985329324037E-03 
1476	 9.19348719221309E-03 
1477	 9.66891720528709E-03 
1478	 1.06658276835946E-02 
1479	 0.010755881594861 
1480	 1.05229461771345E-02 
1481	 1.07849122526773E-02 
1482	 1.18148333537374E-02 
1483	 1.27336962928127E-02 
1484	 1.23656862230111E-02 
1485	 1.19431387878431E-02 
1486	 1.27701603672983E-02 
1487	 1.33585948697833E-02 
1488	 1.31890237820447E-02 
1489	 1.34700196478526E-02 
1490	 1.40141352989377E-02 
1491	 1.38875058574503E-02 
1492	 1.38061597995432E-02 
1493	 1.42769799447739E-02 
1494	 0.014763711457014 
1495	 1.49303616406947E-02 
1496	 0.015091154403996 
1497	 1.55838408037342E-02 
1498	 0.015930828184025 
1499	 1.61231880895911E-02 
1500	 1.61121431979682E-02 
1501	 1.58683673446181E-02 
1502	 0.016028105111258 
1503	 1.63258944957069E-02 
1504	 1.64198294373505E-02 
1505	 1.67801528630689E-02 
1506	 1.69375514851836E-02 
1507	 1.68763606487739E-02 
1508	 1.67514034740581E-02 
1509	 1.66244652232343E-02 
1510	 1.70071571443297E-02 
1511	 0.017706761332117 
1512	 1.78365830866702E-02 
1513	 1.76352237730266E-02 
1514	 1.78167347538275E-02 
1515	 1.80932672983939E-02 
1516	 1.79388585921756E-02 
1517	 0.017919799126742 
1518	 1.82909259159453E-02 
1519	 1.82844878673351E-02 
1520	 1.80009570064015E-02 
1521	 1.80294426637911E-02 
1522	 1.81814757697444E-02 
1523	 1.82647544367617E-02 
1524	 1.83189172016813E-02 
1525	 1.84544932885966E-02 
1526	 1.85881077956517E-02 
1527	 1.84652963178547E-02 
1528	 1.84321941094859E-02 
1529	 1.87141063400689E-02 
1530	 1.88642460820995E-02 
1531	 1.88149730757645E-02 
1532	 1.89418645449325E-02 
1533	 1.89313296967209E-02 
1534	 1.88132802880122E-02 
1535	 1.91907210025648E-02 
1536	 1.94379416567947E-02 
1537	 1.92220854999319E-02 
1538	 1.92095426508502E-02 
1539	 1.92341662407544E-02 
1540	 1.91792636450925E-02 
1541	 1.92961670560077E-02 
1542	 1.93413655088221E-02 
1543	 0.019336787792673 
1544	 1.93445396199632E-02 
1545	 1.93240217722674E-02 
1546	 1.94776320336801E-02 
1547	 1.95659555034567E-02 
1548	 1.94249648067492E-02 
1549	 1.94553817447355E-02 
1550	 1.95632630147121E-02 
1551	 1.95519479634498E-02 
1552	 1.96299984067286E-02 
1553	 1.97914800930794E-02 
1554	 1.98872800579339E-02 
1555	 1.98561203026646E-02 
1556	 1.97487251196303E-02 
1557	 1.96623353789157E-02 
1558	 1.97145486928791E-02 
1559	 1.97492674500511E-02 
1560	 0.019806519843701 
1561	 2.00161747262163E-02 
1562	 1.99446359038449E-02 
1563	 1.97614581695756E-02 
1564	 1.98339658690836E-02 
1565	 1.98498436141214E-02 
1566	 1.97714670087359E-02 
1567	 1.96693232096548E-02 
1568	 1.95463464742007E-02 
1569	 1.96353620050605E-02 
1570	 1.97167298275936E-02 
1571	 1.97381613613955E-02 
1572	 1.97646919794971E-02 
1573	 1.94609820265453E-02 
1574	 0.019441678304581 
1575	 1.97540990211845E-02 
1576	 1.96319934997705E-02 
1577	 1.95193852642457E-02 
1578	 0.019713732365289 
1579	 1.98425399152563E-02 
1580	 1.99158985972345E-02 
1581	 2.00969683557719E-02 
1582	 2.00702575234651E-02 
1583	 1.98618159171071E-02 
1584	 0.020006862978734 
1585	 2.01747164868088E-02 
1586	 2.01332894603853E-02 
1587	 2.00955415937375E-02 
1588	 1.99446625607127E-02 
1589	 1.97626954232984E-02 
1590	 1.97291792497468E-02 
1591	 1.97857694144945E-02 
1592	 1.97848324153964E-02 
1593	 1.98187568058394E-02 
1594	 1.98113951279919E-02 
1595	 1.98410499452108E-02 
1596	 2.00278632632655E-02 
1597	 2.00017970970644E-02 
1598	 1.98747781070304E-02 
1599	 1.98233296540965E-02 
1600	 1.96613750039464E-02 
1601	 1.96360422629867E-02 
1602	 1.97903676292954E-02 
1603	 1.96848171318539E-02 
1604	 1.95590144441638E-02 
1605	 1.97461757006672E-02 
1606	 1.98853555438116E-02 
1607	 1.97816204243938E-02 
1608	 1.98151668217383E-02 
1609	 1.98746331356851E-02 
1610	 1.97454186773102E-02 
1611	 1.97907044681159E-02 
1612	 1.98106004697049E-02 
1613	 1.98091830281933E-02 
1614	 1.99799046025171E-02 
1615	 0.020013245521673 
1616	 2.00450179686718E-02 
1617	 2.01544103012735E-02 
1618	 0.020055678754096 
1619	 1.99427141558013E-02 
1620	 1.99737661009497E-02 
1621	 2.00556202561067E-02 
1622	 2.01038621773749E-02 
1623	 2.00725073681408E-02 
1624	 0.020258543951558 
1625	 2.02921573586655E-02 
1626	 2.00908079648932E-02 
1627	 2.01811423496494E-02 
1628	 2.01382650816064E-02 
1629	 2.00279307908947E-02 
1630	 2.00564044138914E-02 
1631	 1.99769100647305E-02 
1632	 2.01168085445849E-02 
1633	 2.02125727366362E-02 
1634	 2.00657530764186E-02 
1635	 2.01739770627359E-02 
1636	 0.020204527526603 
1637	 2.00597448396862E-02 
1638	 2.01722137634262E-02 
1639	 2.01934166414649E-02 
1640	 2.00210758301918E-02 
1641	 2.00172591408418E-02 
1642	 2.00816573406703E-02 
1643	 2.01335468208672E-02 
1644	 2.01316508559372E-02 
1645	 2.00421323197391E-02 
1646	 1.99642530068172E-02 
1647	 1.99293844037953E-02 
1648	 2.00509425927099E-02 
1649	 0.020058484905472 
1650	 1.97957203972519E-02 
1651	 1.95864803518866E-02 
1652	 1.95148101473141E-02 
1653	 1.96465527154007E-02 
1654	 1.97759648780978E-02 
1655	 1.99343995002861E-02 
1656	 1.99540129974497E-02 
1657	 1.98598331327963E-02 
1658	 1.99597842963718E-02 
1659	 2.02458087898039E-02 
1660	 0.020225284724022 
1661	 2.01161724248682E-02 
1662	 2.00757596143119E-02 
1663	 1.97783333126356E-02 
1664	 0.01973380641204 
1665	 1.99067006915498E-02 
1666	 0.019899480429031 
1667	 1.99764976661808E-02 
1668	 1.98057791609175E-02 
1669	 1.97444366652975E-02 
1670	 0.020136898495319 
1671	 2.02727868724345E-02 
1672	 1.99789282901298E-02 
1673	 1.97985390527505E-02 
1674	 1.99224736022674E-02 
1675	 1.98008715705949E-02 
1676	 1.97348241689975E-02 
1677	 2.01407516044945E-02 
1678	 2.02310954198292E-02 
1679	 1.99572407700985E-02 
1680	 2.00692061597847E-02 
1681	 2.01051356560487E-02 
1682	 0.019549856173486 
1683	 1.94873255630776E-02 
1684	 1.98129168136077E-02 
1685	 1.97476739516094E-02 
1686	 1.98265767046945E-02 
1687	 1.98139328639621E-02 
1688	 0.019448784504248 
1689	 1.93449707558971E-02 
1690	 1.97566968647182E-02 
1691	 2.00075825069933E-02 
1692	 1.98461776835747E-02 
1693	 0.019886188953906 
1694	 1.97976395161212E-02 
1695	 1.95270743380599E-02 
1696	 1.98013227456212E-02 
1697	 1.99738365472663E-02 
1698	 1.94887531131272E-02 
1699	 1.91826705406208E-02 
1700	 1.91323463155985E-02 
1701	 1.92167104018394E-02 
1702	 1.94350813231303E-02 
1703	 1.97959960444191E-02 
1704	 2.01946257342693E-02 
1705	 0.019784542529933 
1706	 1.94505437463339E-02 
1707	 1.96314312546005E-02 
1708	 1.92683816366818E-02 
1709	 0.019084525244323 
1710	 1.94990348191631E-02 
1711	 1.96649768756048E-02 
1712	 1.94446069691783E-02 
1713	 1.91301990379326E-02 
1714	 1.91693111053716E-02 
1715	 1.93781844484135E-02 
1716	 1.94178200182362E-02 
1717	 1.92864992066495E-02 
1718	 1.92826609576145E-02 
1719	 1.91247498904157E-02 
1720	 1.86521424920322E-02 
1721	 1.88848095834565E-02 
1722	 1.91219126069798E-02 
1723	 1.86282694379764E-02 
1724	 1.86492409591137E-02 
1725	 1.90118460337684E-02 
1726	 1.88249493918854E-02 
1727	 0.018672557793322 
1728	 1.88097255726392E-02 
1729	 1.86539507275312E-02 
1730	 1.87664502164321E-02 
1731	 1.94578137578089E-02 
1732	 1.94117174580039E-02 
1733	 0.018769701277504 
1734	 1.84417565279981E-02 
1735	 1.77449018894943E-02 
1736	 1.75202125855787E-02 
1737	 0.01840701230034 
1738	 0.018147002636555 
1739	 1.73821392836893E-02 
1740	 1.76672646232692E-02 
1741	 1.74183209341138E-02 
1742	 1.70812370120829E-02 
1743	 1.78567712554125E-02 
1744	 1.85000383425581E-02 
1745	 1.82312651359318E-02 
1746	 1.71357467799604E-02 
1747	 1.69533627342364E-02 
1748	 1.68063184023343E-02 
1749	 1.67886931414165E-02 
1750	 0.017722847000839 
1751	 0.0180718803309 
1752	 1.77310258266765E-02 
1753	 1.75009916362999E-02 
1754	 1.74730527510242E-02 
1755	 0.017242486791743 
1756	 1.65450043091715E-02 
1757	 1.67826591583771E-02 
1758	 1.69836340861405E-02 
1759	 1.63429074251221E-02 
1760	 1.59869042157271E-02 
1761	 1.60005550011377E-02 
1762	 1.58724246262933E-02 
1763	 1.64871204161157E-02 
1764	 1.71527255461223E-02 
1765	 1.68572469937434E-02 
1766	 0.015975999219491 
1767	 1.58576588893572E-02 
1768	 1.64361173137287E-02 
1769	 1.63641341017487E-02 
1770	 1.58715165743925E-02 
1771	 1.54666006955474E-02 
1772	 1.45751895255112E-02 
1773	 1.45292419977276E-02 
1774	 1.63764523833481E-02 
1775	 1.56223809504476E-02 
1776	 1.55688561654258E-02 
1777	 1.52047816744076E-02 
1778	 1.46895878218747E-02 
1779	 1.51043805917073E-02 
1780	 1.54295393602515E-02 
1781	 1.48781830941488E-02 
1782	 0.014688016136886 
1783	 1.60748156863847E-02 
1784	 1.59682846795057E-02 
1785	 1.37981985350383E-02 
1786	 1.33636808379103E-02 
1787	 0.012566985175989 
1788	 1.30398345722191E-02 
1789	 1.68804673063815E-02 
1790	 1.83567512174833E-02 
1791	 1.85551982648324E-02 
1792	 1.74514630299505E-02 
1793	 1.30047125584721E-02 
1794	 1.29968544072438E-02 
1795	 1.41587406246302E-02 
1796	 1.43105751036438E-02 
1797	 1.71288051072085E-02 
1798	 1.01887336670248E-02 
1799	-6.79728898706423E-04 
1800	-1.54867107671851E-03 
1801	-2.67794861788492E-03 
1802	 1.40911291111693E-02 
1803	 1.90964160237043E-02 
1804	-3.55783969959538E-03 
1805	-2.28212553589678E-03 
1806	 2.61577520833608E-02 
1807	 3.91195299801867E-02 
1808	 0.085610262167815 
1809	 0.1194417881691 
1810	 4.18929659221614E-02 
1811	 5.03078137305124E-02 
1812	 0.20968754980349 
1813	 0.196767472375325 
1814	 3.22259487233203E-02 
1815	-5.40103025608038E-02 
1816	-0.497205212350684 
1817	-0.124170644062899 
1818	 0.255919602212711 
1819	 5.28301125878142E-02 
1820	 0.192113435347999 
1821	-7.81511394983323E-02 
1822	-0.174606012502036 
1823	-0.104885943588549 
1824	-4.02125763313231E-02 
1825	 0.259734799125204 
1826	 0.638919253314324 
1827	 0.502237706093877 
1828	 0.474630948612581 
1829	 0.454940133425885 
1830	 0.313705836278184 
1831	-1.57424729212779 
1832	 12.6658994038888 
1833	-0.779692844350025 
1834	-0.509688034916504 
1835	-5.68196582925325E-02 
1836	 0.303165032748669 
1837	-0.679789010681276 
1838	-0.764568525722307 
1839	-0.805180024829939 
1840	-0.593944339519341 
1841	-0.718761090658372 
1842	-1.3464443112039 
1843	-1.19918646005292 
1844	-0.390890095440045 
1845	-0.258139166317006 
1846	-0.181719926807612 
1847	-0.232114391943956 
1848	-0.4271101810144 
1849	-0.652290880157115 
1850	-1.26570873710812 
1851	-1.15947109331381 
1852	-0.384691920948115 
1853	-0.274694267439904 
1854	-0.310595539683913 
1855	-0.631772096656339 
1856	-0.809313691866872 
1857	 7.39951246237901 
1858	 3.22462333589041 
1859	 0.868188345091199 
1860	 1.32892682856278 
1861	 1.42082178686256 
1862	 1.07852766726782 
1863	 5.27571033199162E-02 
1864	-20.0665171608782 
1865	 4.62989010942577 
1866	-1.76385374133004 
1867	-0.958803654479106 
1868	 2.80847833095467 
1869	 9.23735840666313 
1870	 0.456040309383922 
1871	-2.5178000603375 
1872	 1.06204818321812 
1873	 13.2470968186266 
1874	-0.533795895299848 
1875	-0.443012620780073 
1876	-0.117195284872727 
1877	 8.9084547490686E-03 
1878	 0.061475911704658 
1879	-4.55150263591716 
1880	-1.0936614716418 
1881	 0.132476548187183 
1882	 0.561532614278206 
1883	 1.8867004823856 
1884	 4.00673335341783 
1885	 2.14041693889534 
1886	 2.99769825724197 
1887	-4.23220690146855 
1888	-0.153027121047079 
1889	 0.27267945544673 
1890	 0.658092166835064 
1891	 0.419755116621702 
1892	-1.84143168031265 
1893	-0.783309673783161 
1894	-0.257447091091188 
1895	-0.121836383630425 
1896	 7.61841239457048E-02 
1897	-7.70022177088043 
1898	 5.09098225435369 
1899	-73.116884271418 
1900	-8.98760911736513 
1901	-1.21931308829449 
1902	-0.845715520543881 
1903	-0.590399674478244 
1904	-1.13785079133613 
1905	-1.80975695493067 
1906	-0.813918103838553 
1907	-4.00652965728215E-02 
1908	 0.214250294219261 
1909	 1.22587674696508 
1910	 16.2567687945557 
1911	-1.6344445269024 
1912	-1.50616565833341 
1913	-1.34670906419087 
1914	-0.122208473103781 
1915	-0.140113885869792 
1916	-7.73419271167904E-02 
1917	 5.75252172984705E-02 
1918	 0.043668059592661 
1919	 0.161678306257858 
1920	 0.348473346603076 
1921	 0.149398941822288 
1922	-6.45400335205448E-02 
1923	 0.15355213917819 
1924	 0.246140742159218 
1925	-0.648338146183566 
1926	-1.94798746161984 
1927	-9.69604066639868 
1928	 1.84066029316651 
1929	 0.406071572884033 
1930	 0.182938828985735 
1931	-0.152065796402215 
1932	 0.26608930508049 
1933	 1.33558230619253 
1934	 0.791212571938148 
1935	 1.03048695098406 
1936	 0.997734623471026 
1937	 0.432214591219609 
1938	 0.201221903447058 
1939	 5.60151208413718E-02 
1940	-6.49560780792553E-02 
1941	-6.83747109093069E-02 
1942	-6.43313707167541E-02 
1943	-4.14387150872496E-02 
1944	 5.47521120022661E-02 
1945	 5.62424092793901E-02 
1946	 4.56671581703368E-02 
1947	 0.101777130275899 
1948	 8.77154257649607E-02 
1949	 4.69985873719693E-02 
1950	 0.074832637889706 
1951	 7.24510633606788E-02 
1952	 5.52507915184855E-02 
1953	 3.28061632125241E-02 
1954	 3.48535591035413E-02 
1955	 3.78061782868714E-03 
1956	-1.26776842732039E-02 
1957	 9.33905204110871E-03 
1958	 2.12927116773262E-02 
1959	 2.71676049143231E-02 
1960	 3.61718450746254E-02 
1961	 2.98677148697598E-02 
1962	 2.30743504473215E-02 
1963	 2.25005435361697E-02 
1964	 2.18741106825122E-02 
1965	 0.020637827268785 
1966	 1.73470438641889E-02 
1967	 0.013217845664444 
1968	 1.06855356205734E-02 
1969	 1.20464363600641E-02 
1970	 1.37482524492196E-02 
1971	 1.45895888146129E-02 
1972	 1.57570172010452E-02 
1973	 1.48479917567646E-02 
1974	 1.12451758757887E-02 
1975	 1.06056092234936E-02 
1976	 1.30691308233874E-02 
1977	 0.013868366991389 
1978	 1.48177212566507E-02 
1979	 1.52748902467597E-02 
1980	 1.60729025614237E-02 
1981	 1.50309394239008E-02 
1982	 1.44696811332974E-02 
1983	 1.43219041386538E-02 
1984	 1.45363323328377E-02 
1985	 1.49975947471032E-02 
1986	 1.39798202461742E-02 
1987	 1.28625356798881E-02 
1988	 1.28136763241732E-02 
1989	 0.011801488945395 
1990	 0.011252691660601 
1991	 1.18019336225077E-02 
1992	 0.012024547024433 
1993	 1.26983298774706E-02 
1994	 1.34232687270319E-02 
1995	 1.51622251751409E-02 
1996	 1.63285606250189E-02 
1997	 1.61921639561459E-02 
1998	 1.56955611627528E-02 
1999	 1.51565071391558E-02 
2000	 1.49825396132691E-02 
2001	 1.38721700858347E-02 
2002	 1.27918008356686E-02 
2003	 1.33004937080566E-02 
2004	 1.27375381466931E-02 
2005	 1.36236082369568E-02 
2006	 1.33133558011152E-02 
2007	 1.40204057391477E-02 
2008	 1.78364532825471E-02 
2009	 1.89086923046827E-02 
2010	 2.11722694740896E-02 
2011	 2.06960864111071E-02 
2012	 1.75206529273939E-02 
2013	 1.31875024487665E-02 
2014	 1.24041974302935E-02 
2015	 1.30150578653933E-02 
2016	 1.55700624489303E-02 
2017	 1.77390894701268E-02 
2018	 1.70208834916303E-02 
2019	 1.54266046322316E-02 
2020	 1.49107166967878E-02 
2021	 1.40081113030269E-02 
2022	 1.40252382012783E-02 
2023	 1.63043643781055E-02 
2024	 1.65065458679198E-02 
2025	 1.57345635081158E-02 
2026	 1.54667682921461E-02 
2027	 1.50651266053153E-02 
2028	 1.41555693978183E-02 
2029	 1.35259927463308E-02 
2030	 1.42503572524878E-02 
2031	 0.015178190352416 
2032	 1.49548305397456E-02 
2033	 1.48657114436913E-02 
2034	 1.53564119771009E-02 
2035	 1.48608107280175E-02 
2036	 1.41376155316193E-02 
2037	 1.40618183468693E-02 
2038	 1.39656491075057E-02 
2039	 1.42764876253564E-02 
2040	 1.55332947868583E-02 
2041	 1.58135198552584E-02 
2042	 1.57180891834669E-02 
2043	 1.58343586701939E-02 
2044	 1.56820700882531E-02 
2045	 1.51373313212651E-02 
2046	 1.48881808563488E-02 
2047	 1.50140003352352E-02 
2048	 1.46071561571013E-02 
2049	 1.41972101662134E-02 
2050	 1.43187807590427E-02 
2051	 0.014771126340454 
2052	 1.47834390482086E-02 
2053	 1.37961849563202E-02 
2054	 1.34010740970461E-02 
2055	 1.28343261173145E-02 
2056	 1.26833664009005E-02 
2057	 1.33402376785691E-02 
2058	 1.38765884739424E-02 
2059	 1.46855652557665E-02 
2060	 1.50973395842103E-02 
2061	 0.015634718032493 
2062	 1.50143634474178E-02 
2063	 1.47049304074731E-02 
2064	 1.46074602583209E-02 
2065	 1.46182038507979E-02 
2066	 1.44769496078127E-02 
2067	 0.013470922135865 
2068	 1.33005685221983E-02 
2069	 1.38541981407151E-02 
2070	 1.41781354073102E-02 
2071	 1.55580324990427E-02 
2072	 1.64285598979264E-02 
2073	 1.70309168529933E-02 
2074	 1.73732978748624E-02 
2075	 1.74675968524517E-02 
2076	 1.74598112224787E-02 
2077	 0.017480875660487 
2078	 1.66840292311388E-02 
2079	 0.016357256078652 
2080	 1.66883694160402E-02 
2081	 1.62849911281703E-02 
2082	 1.52403348370115E-02 
2083	 1.54080608136249E-02 
2084	 1.60848709151281E-02 
2085	 1.64676695561665E-02 
2086	 1.65906076288972E-02 
2087	 1.71699280231191E-02 
2088	 1.65365832204437E-02 
2089	 0.015057821138059 
2090	 1.56073245196157E-02 
2091	 0.016241127610312 
2092	 1.63769522371948E-02 
2093	 0.017040669018063 
2094	 1.74311768821039E-02 
2095	 1.67476463457154E-02 
2096	 0.016689747970419 
2097	 1.74116994917563E-02 
2098	 1.76136285997739E-02 
2099	 1.76918865521995E-02 
2100	 1.76920648097779E-02 
2101	 0.016647773239064 
2102	 0.015951186660208 
2103	 1.61508644776565E-02 
2104	 1.63185034823936E-02 
2105	 1.69799053605315E-02 
2106	 1.71236334397408E-02 
2107	 1.67489158164553E-02 
2108	 1.66850790904011E-02 
2109	 1.69852347133059E-02 
2110	 1.74611287038032E-02 
2111	 1.71596375480416E-02 
2112	 1.69512378584905E-02 
2113	 1.70373679000435E-02 
2114	 1.73862170793031E-02 
2115	 0.017419928695083 
2116	 1.75628594241089E-02 
2117	 0.017469742745788 
2118	 1.71798045327886E-02 
2119	 1.68688008840923E-02 
2120	 1.65585358261635E-02 
2121	 1.60656456536403E-02 
2122	 1.56604207905426E-02 
2123	 1.50765172609754E-02 
2124	 1.40441778758034E-02 
2125	 0.014138700180276 
2126	 1.51251017335817E-02 
2127	 1.58288861273692E-02 
2128	 1.71561796433001E-02 
2129	 0.018226228015144 
2130	 1.80763356844177E-02 
2131	 1.79001678179899E-02 
2132	 1.76975516997688E-02 
2133	 1.73849020789377E-02 
2134	 1.71226439554381E-02 
2135	 1.66883111018883E-02 
2136	 1.66434698981481E-02 
2137	 1.67645455468336E-02 
2138	 1.68376386624554E-02 
2139	 1.73831511987014E-02 
2140	 1.73290053656267E-02 
2141	 1.67954622953613E-02 
2142	 1.65977225415454E-02 
2143	 1.64922883186367E-02 
2144	 1.60728779253772E-02 
2145	 1.52128340225379E-02 
2146	 1.45647998884669E-02 
2147	 1.39139352734568E-02 
2148	 1.37183483550528E-02 
2149	 1.47316766150651E-02 
2150	 1.59243326308197E-02 
2151	 1.60967279653584E-02 
2152	 1.58597229521214E-02 
2153	 1.58816808341661E-02 
2154	 1.56540835219166E-02 
2155	 1.59210605411572E-02 
2156	 1.74208103584377E-02 
2157	 1.77373794219593E-02 
2158	 1.72949629273791E-02 
2159	 0.017265704674862 
2160	 1.67377674379127E-02 
2161	 1.64030147552178E-02 
2162	 1.64073390114684E-02 
2163	 1.66011359376212E-02 
2164	 1.72254994213273E-02 
2165	 1.71068797899733E-02 
2166	 1.67818756572735E-02 
2167	 1.65724449664481E-02 
2168	 1.54398841800515E-02 
2169	 1.52760615016841E-02 
2170	 1.59700774296597E-02 
2171	 1.62154500063048E-02 
2172	 1.70522308001989E-02 
2173	 1.73825986652099E-02 
2174	 1.71680928909229E-02 
2175	 1.72715182545819E-02 
2176	 1.71657332669313E-02 
2177	 0.017855847236114 
2178	 1.89268705025468E-02 
2179	 1.86045243384699E-02 
2180	 1.77650493179573E-02 
2181	 1.75174072279463E-02 
2182	 1.75297567055805E-02 
2183	 1.76309883901131E-02 
2184	 1.74367790885004E-02 
2185	 1.64337841333722E-02 
2186	 1.61578224316731E-02 
2187	 1.57349943124534E-02 
2188	 1.57842848279624E-02 
2189	 1.69561494151337E-02 
2190	 1.70573644767599E-02 
2191	 1.64292693355883E-02 
2192	 1.60986284233983E-02 
2193	 1.53048596113225E-02 
2194	 0.015334881154706 
2195	 1.63434049441563E-02 
2196	 0.016251457123606 
2197	 1.54260992886485E-02 
2198	 1.54527240657717E-02 
2199	 1.49367641515592E-02 
2200	 1.58464799784473E-02 
2201	 1.66011669416962E-02 
2202	 1.72597373066272E-02 
2203	 1.86081443394195E-02 
2204	 1.88712320753626E-02 
2205	 1.91982013450029E-02 
2206	 0.019913446661742 
2207	 1.85631325058567E-02 
2208	 1.63607209287917E-02 
2209	 1.55699632064445E-02 
2210	 1.49150232124968E-02 
2211	 1.42684064614487E-02 
2212	 1.49638355909883E-02 
2213	 1.57823043635292E-02 
2214	 0.015888561627494 
2215	 1.72038496545745E-02 
2216	 1.85541906646623E-02 
2217	 1.84664106587223E-02 
2218	 1.68589568817654E-02 
2219	 1.67650816869623E-02 
2220	 1.63516489664348E-02 
2221	 1.59787810852029E-02 
2222	 1.64062840711338E-02 
2223	 0.016887091557036 
2224	 0.017209778775157 
2225	 1.73582832487352E-02 
2226	 1.75165727360736E-02 
2227	 1.81902211935624E-02 
2228	 1.91815593717513E-02 
2229	 1.99331888967834E-02 
2230	 2.13544803241334E-02 
2231	 2.13560885772952E-02 
2232	 2.00249850765262E-02 
2233	 1.94458845240689E-02 
2234	 1.80911887604281E-02 
2235	 1.86703457702662E-02 
2236	 0.01849837325913 
2237	 1.66099811955977E-02 
2238	 1.61209453020882E-02 
2239	 1.58445335691846E-02 
2240	 1.63986401128481E-02 
2241	 1.67536793071736E-02 
2242	 1.57689147301007E-02 
2243	 1.49899780097067E-02 
2244	 1.54496578802207E-02 
2245	 1.66606235151881E-02 
2246	 1.70539399598632E-02 
2247	 1.65545945344394E-02 
2248	 1.58890248532245E-02 
2249	 1.50198663095113E-02 
2250	 1.29614393182884E-02 
2251	 0.012918169037911 
2252	 1.39862663265243E-02 
2253	 1.39563498701157E-02 
2254	 1.56137632328856E-02 
2255	 1.69094230370765E-02 
2256	 1.74434365074833E-02 
2257	 1.72649226987358E-02 
2258	 1.68421306035441E-02 
2259	 1.81031459699193E-02 
2260	 1.87141997848476E-02 
2261	 2.04585553509769E-02 
2262	 1.92928046176982E-02 
2263	 1.49858257661043E-02 
2264	 1.43849498220247E-02 
2265	 1.39542997731809E-02 
2266	 1.38940418005091E-02 
2267	 1.68158378453683E-02 
2268	 1.80960791473855E-02 
2269	 1.80770471640984E-02 
2270	 1.71685478163121E-02 
2271	 1.67093258334092E-02 
2272	 1.61704501045035E-02 
2273	 1.26657720469057E-02 
2274	 0.012533334765458 
2275	 1.53327622524949E-02 
2276	 1.59179361811868E-02 
2277	 1.72012024421394E-02 
2278	 1.78038599474116E-02 
2279	 0.017536587072829 
2280	 1.61362150100437E-02 
2281	 0.014065627190413 
2282	 1.13254393838796E-02 
2283	 8.34631506711867E-03 
2284	 7.80000355614197E-03 
2285	 9.56165208594519E-03 
2286	 1.17152410419962E-02 
2287	 0.012233020964685 
2288	 1.08602915226788E-02 
2289	 8.0793971156889E-03 
2290	 7.26454262609668E-03 
2291	 9.23201131842253E-03 
2292	 1.23820468042655E-02 
2293	 1.54909522101197E-02 
2294	 1.54936061872344E-02 
2295	 1.58913795065366E-02 
2296	 1.78591918591099E-02 
2297	 1.99186502454761E-02 
2298	 2.26745776150327E-02 
2299	 2.21142902661926E-02 
2300	 1.82781267667411E-02 
2301	 1.73111407627492E-02 
2302	 1.82334299084586E-02 
2303	 1.68300711676629E-02 
2304	 1.46095321353332E-02 
2305	 1.33752776669089E-02 
2306	 1.24671779554116E-02 
2307	 1.36417636909345E-02 
2308	 1.43980830036422E-02 
2309	 1.24313205924928E-02 
2310	 1.21713249537585E-02 
2311	 1.18584880981627E-02 
2312	 1.41283931412254E-02 
2313	 1.95476719239305E-02 
2314	 2.06428278189231E-02 
2315	 2.02618746066086E-02 
2316	 2.28134580473401E-02 
2317	 2.49503024367573E-02 
2318	 0.02373021872088 
2319	 2.24682443203835E-02 
2320	 2.25903338739431E-02 
2321	 1.94665826853183E-02 
2322	 1.88387147808053E-02 
2323	 2.10162809020308E-02 
2324	 1.78416834167148E-02 
2325	 1.89202973574729E-02 
2326	 1.83720073363544E-02 
2327	 1.39491797084706E-02 
2328	 1.53043271805089E-02 
2329	 1.32152633388659E-02 
2330	 1.13041297070242E-02 
2331	 1.18710558941734E-02 
2332	 7.99571750681459E-03 
2333	 4.95425820617646E-03 
2334	 9.4614400289572E-03 
2335	 0.014737789009116 
2336	 1.43602090852499E-02 
2337	 1.48063198874305E-02 
2338	 1.51550522112105E-02 
2339	 1.19334932712183E-02 
2340	 1.25340071723251E-02 
2341	 1.94667260057287E-02 
2342	 2.00937683176194E-02 
2343	 0.01684993578221 
2344	 0.023182302118299 
2345	 2.77895575795315E-02 
2346	 2.44952511937431E-02 
2347	 2.80310068666908E-02 
2348	 3.21388694546425E-02 
2349	 2.99018984769331E-02 
2350	 3.13812986269544E-02 
2351	 0.033469962765885 
2352	 0.030840557416876 
2353	 1.76684278559999E-02 
2354	 1.05480711353756E-02 
2355	 1.52944118756767E-02 
2356	 8.44721729505482E-03 
2357	 5.06561116479479E-03 
2358	 1.25146303528955E-02 
2359	 3.19091544986993E-03 
2360	-3.92837992729019E-03 
2361	 5.15578285541674E-03 
2362	 3.6571867233894E-03 
2363	 2.83191157371333E-03 
2364	 8.55565777613027E-03 
2365	 1.19861041414083E-02 
2366	 1.42592200282005E-02 
2367	 1.32862217595554E-02 
2368	 1.35963680400416E-02 
2369	 1.03329551928598E-02 
2370	 1.17149777582305E-02 
2371	 1.03696522754771E-02 
2372	 4.24693365514385E-03 
2373	 1.30447160277368E-02 
2374	 1.67119046116869E-02 
2375	 1.19251393003674E-02 
2376	 1.12367704395369E-02 
2377	 1.18697442486342E-02 
2378	 9.39134332362301E-03 
2379	-1.69170199941298E-03 
2380	-5.46518901193721E-03 
2381	-2.01303154239878E-02 
2382	-4.68097744693122E-02 
2383	-2.84080290081276E-02 
2384	 9.20405801917678E-03 
2385	 2.30559102144696E-02 
2386	 3.75839269033682E-02 
2387	 5.66387999411493E-02 
2388	 4.34351821150284E-02 
2389	 2.90439679489095E-02 
2390	 3.93532873061227E-02 
2391	 2.42473685703855E-02 
2392	-2.39820765186107E-03 
2393	 6.79009969575216E-04 
2394	 6.19061067729337E-03 
2395	-1.47902083054537E-02 
2396	-1.38795754247367E-02 
2397	-1.73194067414112E-02 
2398	-4.01561258672386E-02 
2399	-2.29561877714138E-02 
2400	 5.94612905333369E-03 
2401	 1.86170378424019E-02 
2402	 1.85966335163003E-02 
2403	 3.91381677276427E-02 
2404	 8.84303046702245E-02 
2405	 8.91437705638825E-02 
2406	 0.071979871975617 
2407	 6.59136565663606E-02 
2408	 3.94896248879212E-02 
2409	 4.50604697320648E-02 
2410	 8.22586035477629E-02 
2411	 0.133726097709629 
2412	 7.59267942867097E-02 
2413	 5.47746485081474E-03 
2414	 6.07362074309449E-02 
2415	-4.54792690463138E-03 
2416	-6.11314149243212E-02 
2417	 8.65922817568304E-03 
2418	 9.25747200594525E-03 
2419	 2.35777540398444E-04 
2420	 9.09237005067899E-02 
2421	 9.63228922180052E-02 
2422	 1.89996251104864E-02 
2423	-2.04541272770123E-02 
2424	-5.85162992006034E-02 
2425	-8.49133610628445E-02 
2426	-0.074731913195629 
2427	 1.68339033839127E-03 
2428	 6.97420651370438E-02 
2429	 2.98825796683815E-02 
2430	 2.33264176753621E-02 
2431	 5.63688715262215E-02 
2432	 4.87579159340552E-02 
2433	 0.122802673505789 
2434	 0.235272343763443 
2435	 0.243324979288165 
2436	 0.151263180865835 
2437	 5.15615716875946E-02 
2438	-3.07312396042352E-02 
2439	-1.79950946290713E-02 
2440	 0.143876304821296 
2441	 0.430566235197281 
2442	 0.472982472910726 
2443	 0.388859944029586 
2444	 0.270146380125282 
2445	-2.39828832770112E-02 
2446	 0.071794056895062 
2447	 0.483290613047692 
2448	 0.564258968168312 
2449	 0.391174009158449 
2450	 0.564282159578002 
2451	 1.46748807233577 
2452	 2.0347145779458 
2453	 1.1947290988179 
2454	 0.759487692652392 
2455	 0.528665156768791 
2456	 0.260226967680311 
2457	 9.49221501507845E-02 
2458	 0.181691011183852 
2459	 0.292983596700463 
2460	 0.341637907104851 
2461	 0.400817756713612 
2462	 0.31753345522598 
2463	 0.380613339686587 
2464	 0.643630251729104 
2465	 0.955067700509328 
2466	 2.90030176749256 
2467	 8.40704231582902 
2468	-0.116566568349899 
2469	-0.023615392212891 
2470	-0.440606219449706 
2471	 30.3947516677588 
2472	-0.490178707202898 
2473	-0.91387611589492 
2474	-1.73890466705684 
2475	-3.00356891866296 
2476	 0.223550025120454 
2477	 0.188978925417026 
2478	 0.539038997256087 
2479	 1.14565925211913 
2480	-1.0478791421873 
2481	 31.6278453746872 
2482	-2.00386184884841 
2483	-0.199503770961364 
2484	-0.139120106400726 
2485	 11.5789296525917 
2486	 2.2609154959104 
2487	 0.771893311718183 
2488	 3.36987354142962 
2489	-3.15531361657586 
2490	-0.966033260563878 
2491	-0.423922376362451 
2492	-0.517490662148858 
2493	-0.231762593153318 
2494	-1.33875397929656 
2495	-0.952443335558309 
2496	-4.85977672946075E-02 
2497	-0.224313763668142 
2498	-4.45184373900779E-03 
2499	 0.225549571141929 
2500	 0.656455122513007 
