Wavelength	rt0713west_far_sunny_300002.asd
350	 6.81544548207906E-02 
351	 6.67930380989088E-02 
352	 6.68976851798077E-02 
353	 0.06752784014519 
354	 6.75548501744892E-02 
355	 6.68407901896282E-02 
356	 6.64185048027729E-02 
357	 6.63807727193785E-02 
358	 6.64360586207224E-02 
359	 0.066155933867936 
360	 6.61663733952479E-02 
361	 6.62923106986681E-02 
362	 6.59028297717846E-02 
363	 6.57498478090542E-02 
364	 6.57732198350656E-02 
365	 6.57657125497771E-02 
366	 6.54509266532304E-02 
367	 6.55701756995887E-02 
368	 0.065673405044334 
369	 6.52850688069499E-02 
370	 0.064924439810569 
371	 6.51032420043584E-02 
372	 6.54049956375089E-02 
373	 6.50452275510198E-02 
374	 6.52208323374642E-02 
375	 6.53624302612425E-02 
376	 6.51992166081134E-02 
377	 6.51113261491178E-02 
378	 6.50913554876775E-02 
379	 6.50071673142545E-02 
380	 6.48738345184801E-02 
381	 6.53002867422075E-02 
382	 6.54461924881817E-02 
383	 6.53725841952583E-02 
384	 0.065520322026318 
385	 6.56056211226671E-02 
386	 6.54530583601118E-02 
387	 6.53352909805793E-02 
388	 6.59313637132924E-02 
389	 6.58361298075184E-02 
390	 6.55702116496662E-02 
391	 6.57257016234058E-02 
392	 6.61569011584989E-02 
393	 0.066319614455255 
394	 6.62884416097552E-02 
395	 6.63148636834523E-02 
396	 6.60974418794108E-02 
397	 6.61028298064501E-02 
398	 6.63188002303922E-02 
399	 6.63170829979989E-02 
400	 6.61880876584586E-02 
401	 6.62666265667109E-02 
402	 6.65992903085982E-02 
403	 6.65263225288869E-02 
404	 6.65108868146531E-02 
405	 6.65311243657919E-02 
406	 6.64561856990677E-02 
407	 6.65850463122217E-02 
408	 6.67810561249122E-02 
409	 0.066910473823649 
410	 6.68857587993837E-02 
411	 6.68561357075889E-02 
412	 6.69896198359232E-02 
413	 0.067256521777159 
414	 6.71308865142798E-02 
415	 6.73284728696713E-02 
416	 6.76140063293502E-02 
417	 6.75255987717931E-02 
418	 6.77693522202853E-02 
419	 6.80162221639703E-02 
420	 0.068132965842056 
421	 6.82718018991512E-02 
422	 6.84122555197645E-02 
423	 6.86331850061006E-02 
424	 6.89407202303582E-02 
425	 6.90898624349146E-02 
426	 6.93139673550733E-02 
427	 0.06959854885499 
428	 6.98363524842373E-02 
429	 0.070202414398051 
430	 7.05233662857604E-02 
431	 7.07499229991269E-02 
432	 7.10131684702937E-02 
433	 0.07131272231005 
434	 7.15797607948334E-02 
435	 7.17984147897305E-02 
436	 7.21650205500789E-02 
437	 7.24978756566962E-02 
438	 7.27753104013399E-02 
439	 7.30629634732797E-02 
440	 7.33550544722855E-02 
441	 7.36595303050822E-02 
442	 7.39643940186607E-02 
443	 7.42256729917899E-02 
444	 7.45615128386654E-02 
445	 7.48645790600856E-02 
446	 7.50563041210142E-02 
447	 7.54355700779644E-02 
448	 7.56814510262859E-02 
449	 7.58012832583778E-02 
450	 7.60436578098502E-02 
451	 7.63383299449098E-02 
452	 7.66244796380561E-02 
453	 7.68424084849833E-02 
454	 7.69141579917549E-02 
455	 7.71396269872047E-02 
456	 7.74084944541666E-02 
457	 7.75244810532973E-02 
458	 7.77248384607762E-02 
459	 7.79032487151183E-02 
460	 7.80360861346304E-02 
461	 7.81943392693204E-02 
462	 0.078301786124107 
463	 7.84218296783406E-02 
464	 7.86080653161396E-02 
465	 7.88261536126876E-02 
466	 7.89537387057131E-02 
467	 7.90315366622482E-02 
468	 7.91794139325553E-02 
469	 7.94102693195209E-02 
470	 7.95541237054225E-02 
471	 7.96006281633906E-02 
472	 7.97694495888724E-02 
473	 7.99055720259968E-02 
474	 8.00849375971358E-02 
475	 8.03720533065599E-02 
476	 8.05861947503997E-02 
477	 8.08082655432986E-02 
478	 8.10413774427197E-02 
479	 8.12426616184736E-02 
480	 8.14781987383422E-02 
481	 8.17714641965176E-02 
482	 8.20984391545683E-02 
483	 8.23486509759756E-02 
484	 8.26372511769364E-02 
485	 0.082944869361875 
486	 8.32245294238387E-02 
487	 8.35574041152582E-02 
488	 8.39051752119525E-02 
489	 8.42435045644065E-02 
490	 8.45692806570423E-02 
491	 8.48352830296249E-02 
492	 8.51687569992212E-02 
493	 8.56343069388082E-02 
494	 8.60601485361667E-02 
495	 8.63910516385529E-02 
496	 8.66779656030702E-02 
497	 8.70219442343161E-02 
498	 8.73752534126825E-02 
499	 8.77423452570747E-02 
500	 8.81216982929161E-02 
501	 8.84964981766788E-02 
502	 8.88665518116634E-02 
503	 8.92580836146161E-02 
504	 8.96975514762025E-02 
505	 0.090183990168953 
506	 9.06382129268834E-02 
507	 9.10570147850017E-02 
508	 9.14976433793415E-02 
509	 9.19493514642794E-02 
510	 9.24058992705607E-02 
511	 9.28759726440887E-02 
512	 9.34152738066626E-02 
513	 0.093928324636816 
514	 9.44153888529483E-02 
515	 9.49258666556493E-02 
516	 9.55426433139984E-02 
517	 9.61450897750408E-02 
518	 9.66711515755681E-02 
519	 9.71580157921545E-02 
520	 9.77416668833617E-02 
521	 9.83182989899488E-02 
522	 9.88006183101654E-02 
523	 9.93428724594113E-02 
524	 9.99154716776093E-02 
525	 0.100509460028309 
526	 0.101130756989454 
527	 0.101768119285275 
528	 0.102352970883694 
529	 0.10286665274259 
530	 0.103386919981329 
531	 0.104017715053108 
532	 0.104680068585234 
533	 0.105250039742598 
534	 0.105836221029325 
535	 0.106427462591976 
536	 0.107017481700293 
537	 0.107609702042025 
538	 0.108167681580178 
539	 0.108729136243216 
540	 0.109332170897732 
541	 0.109962923925535 
542	 0.110548044450856 
543	 0.111093914524458 
544	 0.111665817960409 
545	 0.112354864893092 
546	 0.112980468266172 
547	 0.11347954879747 
548	 0.114077868546831 
549	 0.114699055368511 
550	 0.115294502173013 
551	 0.115840531711541 
552	 0.116415830670047 
553	 0.116987055573008 
554	 0.117559641895696 
555	 0.118184394112618 
556	 0.118736688579752 
557	 0.119259729961151 
558	 0.119803061250128 
559	 0.120313795393288 
560	 0.120807573640038 
561	 0.121271156402847 
562	 0.121677958876624 
563	 0.122020749700747 
564	 0.122386916049399 
565	 0.122775801606314 
566	 0.122990170565649 
567	 0.12321841998103 
568	 0.123467018308426 
569	 0.123694293700317 
570	 0.123992538812423 
571	 0.12424856746639 
572	 0.124418806912567 
573	 0.124548483789553 
574	 0.124724026980794 
575	 0.12489336966281 
576	 0.125002052530584 
577	 0.125111254150136 
578	 0.125176523921496 
579	 0.125201029474968 
580	 0.125203917648879 
581	 0.125052635429767 
582	 0.124843495680203 
583	 0.124620147172499 
584	 0.124284811784144 
585	 0.123775253981747 
586	 0.123153910301189 
587	 0.122514332301687 
588	 0.121817916301231 
589	 0.12124946043 
590	 0.12087038648283 
591	 0.120545722163445 
592	 0.120078077627791 
593	 0.119505809577162 
594	 0.118887677974425 
595	 0.118124235104545 
596	 0.117288372310322 
597	 0.116401564949097 
598	 0.115470451677338 
599	 0.114574181275487 
600	 0.113791027451365 
601	 0.113161652077296 
602	 0.112663801026171 
603	 0.112321743719398 
604	 0.112071232075363 
605	 0.111847414886109 
606	 0.111722528668998 
607	 0.111661752073908 
608	 0.111632841536317 
609	 0.111611913068719 
610	 0.111605852750656 
611	 0.111551637747768 
612	 0.111427111474408 
613	 0.111364541657887 
614	 0.111298343626033 
615	 0.111242070025007 
616	 0.111236843662078 
617	 0.111167746309199 
618	 0.11105909113499 
619	 0.110943988955051 
620	 0.110842740967355 
621	 0.110781773856847 
622	 0.11074389700572 
623	 0.110687226837503 
624	 0.110554467489691 
625	 0.110311930953452 
626	 0.110027135316236 
627	 0.109857014539944 
628	 0.109782857092238 
629	 0.109746406687378 
630	 0.109696220982313 
631	 0.109624251791759 
632	 0.109614053801766 
633	 0.109614102045248 
634	 0.109523373806879 
635	 0.109422008541341 
636	 0.109309379920461 
637	 0.10917700752838 
638	 0.109013078220968 
639	 0.10887453066713 
640	 0.108712731348501 
641	 0.108476540087894 
642	 0.10824027044229 
643	 0.107922787288612 
644	 0.107496419916597 
645	 0.106988499325811 
646	 0.106485887084066 
647	 0.106123808996636 
648	 0.105943023586702 
649	 0.105763227755949 
650	 0.105506640759752 
651	 0.105198954105912 
652	 0.104891519266313 
653	 0.104378838803035 
654	 0.103762836315315 
655	 0.103116928952217 
656	 0.102529586690104 
657	 0.102061490055326 
658	 0.101622187650472 
659	 0.101148690141719 
660	 0.100794612613412 
661	 0.100481415710337 
662	 0.10017308773453 
663	 9.98740673146281E-02 
664	 9.96536497696507E-02 
665	 9.94666689097963E-02 
666	 0.099273395687252 
667	 9.90759978297426E-02 
668	 9.88801126084276E-02 
669	 9.87167367290544E-02 
670	 9.86103152908404E-02 
671	 9.85123338611566E-02 
672	 9.84018562257865E-02 
673	 9.82779979977041E-02 
674	 9.81623569893599E-02 
675	 0.098165452385776 
676	 9.81742807842373E-02 
677	 9.80977968912144E-02 
678	 9.80053267857291E-02 
679	 0.097923892612494 
680	 9.79147511310814E-02 
681	 9.80098000037001E-02 
682	 9.79668342020259E-02 
683	 9.79236407557679E-02 
684	 9.78852887795938E-02 
685	 9.76200882561574E-02 
686	 9.72740976499941E-02 
687	 9.70384662843254E-02 
688	 9.69884861970134E-02 
689	 0.096802310292097 
690	 9.64453875262299E-02 
691	 9.58885796633062E-02 
692	 9.51362835006423E-02 
693	 9.45540872006159E-02 
694	 9.42423141353511E-02 
695	 9.40641854843289E-02 
696	 9.36338524486003E-02 
697	 9.27971183959238E-02 
698	 9.17211301883803E-02 
699	 0.090735283449159 
700	 8.98654721132879E-02 
701	 8.90970119747323E-02 
702	 8.83450964718952E-02 
703	 8.74589350737843E-02 
704	 8.64082773763675E-02 
705	 0.085262674176512 
706	 8.41155167046317E-02 
707	 0.082995254003093 
708	 8.17004766470091E-02 
709	 8.03032622361254E-02 
710	 0.078928539551866 
711	 7.73684963561902E-02 
712	 7.55864948159271E-02 
713	 7.36434719127628E-02 
714	 7.16270577614533E-02 
715	 6.93544893279662E-02 
716	 6.67940012379383E-02 
717	 6.43004259508786E-02 
718	 6.21730189732195E-02 
719	 6.07334330236422E-02 
720	 5.97166770190707E-02 
721	 5.84815514338886E-02 
722	 5.68574536302721E-02 
723	 5.48329464904982E-02 
724	 0.05285972664534 
725	 5.13133236878684E-02 
726	 4.98620885199907E-02 
727	 4.82852218290463E-02 
728	 4.65444463545885E-02 
729	 4.49130090703604E-02 
730	 4.34868713605375E-02 
731	 4.24330618217201E-02 
732	 4.17252001953519E-02 
733	 4.08837582122921E-02 
734	 4.00670810703782E-02 
735	 3.94066738325716E-02 
736	 3.89320774475633E-02 
737	 3.86570251010895E-02 
738	 3.85372607572016E-02 
739	 3.85030349976172E-02 
740	 3.84427043936748E-02 
741	 3.84337489624096E-02 
742	 3.84608097425038E-02 
743	 3.84600986328098E-02 
744	 3.84001911386673E-02 
745	 3.83487968209184E-02 
746	 3.83333063036838E-02 
747	 3.83125311590751E-02 
748	 3.82862546801791E-02 
749	 3.82540285325329E-02 
750	 3.82076261801887E-02 
751	 3.80970969245312E-02 
752	 3.80645751902106E-02 
753	 3.81108280462511E-02 
754	 3.81448792447467E-02 
755	 3.80814612434765E-02 
756	 3.79089680514154E-02 
757	 3.76127101515387E-02 
758	 3.70432689498514E-02 
759	 3.61104334808489E-02 
760	 0.035196390777294 
761	 3.51955905700288E-02 
762	 0.035394083291864 
763	 3.57062326790361E-02 
764	 0.036223537499743 
765	 3.69600808679001E-02 
766	 3.73069482023742E-02 
767	 3.75239934893269E-02 
768	 3.77494707725026E-02 
769	 3.79829757553663E-02 
770	 3.80635266522484E-02 
771	 3.81473118788067E-02 
772	 3.83273645639121E-02 
773	 3.83343834055571E-02 
774	 3.84193319781856E-02 
775	 3.85842292851004E-02 
776	 3.87162316227382E-02 
777	 3.87218603315334E-02 
778	 3.88048001522721E-02 
779	 3.90070255827844E-02 
780	 3.91821707123151E-02 
781	 3.92327122984024E-02 
782	 0.039239695468867 
783	 0.039286727180979 
784	 3.93811488515294E-02 
785	 3.94657807220219E-02 
786	 3.94889656470852E-02 
787	 3.94422144995871E-02 
788	 3.94911788741098E-02 
789	 0.039655467850324 
790	 3.99293248607253E-02 
791	 4.02787677953764E-02 
792	 4.05752626972888E-02 
793	 4.07879575098954E-02 
794	 4.09386118562924E-02 
795	 4.10917550883199E-02 
796	 4.13103706567434E-02 
797	 4.14870902614185E-02 
798	 4.15572267564849E-02 
799	 4.17512179261915E-02 
800	 4.18891519576684E-02 
801	 4.19663755411986E-02 
802	 4.20875158283001E-02 
803	 4.23172054221408E-02 
804	 4.25074000641182E-02 
805	 4.26075831865914E-02 
806	 4.26900958466643E-02 
807	 4.26662825541076E-02 
808	 4.23617206303966E-02 
809	 4.17911952081349E-02 
810	 4.14839815771735E-02 
811	 4.12462511655342E-02 
812	 4.08320994119509E-02 
813	 4.00631662669398E-02 
814	 3.94807640465692E-02 
815	 3.90903462644275E-02 
816	 3.88196583927359E-02 
817	 3.85802230129874E-02 
818	 0.038672817925056 
819	 3.87501431795941E-02 
820	 3.84989008118847E-02 
821	 0.03766355455414 
822	 3.69673786252344E-02 
823	 3.64568167682482E-02 
824	 3.59813097706026E-02 
825	 3.54734684504019E-02 
826	 3.45552309925345E-02 
827	 3.35522539156158E-02 
828	 3.30064506399049E-02 
829	 3.23546873973114E-02 
830	 3.19436832116261E-02 
831	 3.17499254373386E-02 
832	 3.14795855371578E-02 
833	 3.11467727174688E-02 
834	 3.09745403602732E-02 
835	 3.09869436310756E-02 
836	 0.030935669926712 
837	 0.03084218774987 
838	 3.07692176048829E-02 
839	 3.07825523707834E-02 
840	 3.09627672195213E-02 
841	 3.08166968781243E-02 
842	 3.06003153892505E-02 
843	 3.06916828280337E-02 
844	 3.05925114803875E-02 
845	 3.05558765499494E-02 
846	 3.05431054102703E-02 
847	 3.03519251957109E-02 
848	 3.03614707702091E-02 
849	 3.03326874157061E-02 
850	 3.01752634066522E-02 
851	 3.00765994139318E-02 
852	 3.01145436817625E-02 
853	 3.00945853886271E-02 
854	 2.99303407807768E-02 
855	 2.98816658092816E-02 
856	 2.99183943464506E-02 
857	 2.99757601101855E-02 
858	 3.00080883281277E-02 
859	 3.01168971404688E-02 
860	 2.99193355956649E-02 
861	 2.96506874086038E-02 
862	 2.97419685089764E-02 
863	 2.97260305782086E-02 
864	 0.029597649231378 
865	 0.029391086093881 
866	 2.91849011566795E-02 
867	 2.93271033225339E-02 
868	 2.94300192688775E-02 
869	 2.93175053044349E-02 
870	 0.029220775513099 
871	 2.91998635126993E-02 
872	 2.90841359984236E-02 
873	 2.88517029863027E-02 
874	 2.89325763432288E-02 
875	 2.89454656898903E-02 
876	 2.88420392988887E-02 
877	 2.86951956503372E-02 
878	 2.86069571807305E-02 
879	 2.84240186965923E-02 
880	 2.82135749429697E-02 
881	 2.81313977202776E-02 
882	 2.81785244633712E-02 
883	 2.81249042771896E-02 
884	 2.79413692811855E-02 
885	 2.77898861834225E-02 
886	 2.79848682522644E-02 
887	 2.78355437031544E-02 
888	 2.73811663719979E-02 
889	 2.75241981686971E-02 
890	 2.73891756036446E-02 
891	 2.69512916775296E-02 
892	 2.64292569876354E-02 
893	 2.62163660540034E-02 
894	 2.58153283400626E-02 
895	 2.51953706355408E-02 
896	 2.45759400404877E-02 
897	 2.44099863377103E-02 
898	 2.44689083273958E-02 
899	 2.45383712483713E-02 
900	 2.44803288237272E-02 
901	 2.43299808011034E-02 
902	 2.46856663204044E-02 
903	 0.024900638460285 
904	 2.42748412499767E-02 
905	 0.024264980718293 
906	 2.42786378798787E-02 
907	 2.40657110017984E-02 
908	 2.36778968794672E-02 
909	 2.30752186615865E-02 
910	 2.26945993343597E-02 
911	 2.27813649787759E-02 
912	 2.32411246385633E-02 
913	 2.32034544023784E-02 
914	 0.022877375237509 
915	 2.27351305898432E-02 
916	 2.31849309834568E-02 
917	 2.29457778786633E-02 
918	 2.26941290453502E-02 
919	 2.29293366563768E-02 
920	 2.35167474952205E-02 
921	 0.023548964710491 
922	 2.31470118720475E-02 
923	 2.27897028549184E-02 
924	 2.32674072948277E-02 
925	 0.022384403058554 
926	 2.12779453161173E-02 
927	 2.13981013472544E-02 
928	 2.07474713453819E-02 
929	 2.04879451819439E-02 
930	 2.10778679676645E-02 
931	 2.19717956224792E-02 
932	 0.01903401165956 
933	 2.03305078406276E-02 
934	 2.15872912275949E-02 
935	 1.57104063964379E-02 
936	 1.54394502404707E-02 
937	 1.80799479253827E-02 
938	 1.87383074206147E-02 
939	 1.53563520123388E-02 
940	 1.64148345882284E-02 
941	 1.89577603499361E-02 
942	 2.07232062203558E-02 
943	 2.01878559042703E-02 
944	 0.018653372296471 
945	 1.68761552027203E-02 
946	 1.53209014343213E-02 
947	 1.45460098968566E-02 
948	 1.76184167510597E-02 
949	 1.93297989581448E-02 
950	 1.76921882537305E-02 
951	 1.43495043152404E-02 
952	 1.62527353052234E-02 
953	 1.91259145918336E-02 
954	 1.99893612360876E-02 
955	 1.84165083221517E-02 
956	 1.87117894918152E-02 
957	 1.89886157870506E-02 
958	 1.89640513163112E-02 
959	 1.94612720637036E-02 
960	 1.83624021688828E-02 
961	 1.75580667842899E-02 
962	 1.88025064060532E-02 
963	 2.22017503553735E-02 
964	 2.10425682079926E-02 
965	 2.05958845153475E-02 
966	 2.12453305298829E-02 
967	 0.019840518380354 
968	 1.86482780455157E-02 
969	 2.04913020257265E-02 
970	 2.29250362001575E-02 
971	 2.04724359963068E-02 
972	 2.03272947565022E-02 
973	 2.12079654870741E-02 
974	 2.17207219538992E-02 
975	 2.15128886207639E-02 
976	 2.18302018242697E-02 
977	 2.09049051145496E-02 
978	 2.01272702466837E-02 
979	 2.25954308469347E-02 
980	 2.20456939084313E-02 
981	 2.07179453653417E-02 
982	 2.09794845952131E-02 
983	 2.35530638156748E-02 
984	 2.27598507741767E-02 
985	 2.21133990617454E-02 
986	 2.31272345229929E-02 
987	 2.46073871566812E-02 
988	 2.38086793493135E-02 
989	 2.34395273177013E-02 
990	 2.40002264588569E-02 
991	 2.39927283158742E-02 
992	 2.34490501920422E-02 
993	 2.28687009062681E-02 
994	 2.29435409038703E-02 
995	 2.39884266500682E-02 
996	 0.024000121621008 
997	 2.33856824469012E-02 
998	 0.023518179624747 
999	 2.52927211577113E-02 
1000	 2.49019034385446E-02 
1001	 2.15709762531525E-02 
1002	 2.14343452267187E-02 
1003	 2.13308611589807E-02 
1004	 2.11157337310841E-02 
1005	 2.10481237277363E-02 
1006	 2.10374597109676E-02 
1007	 2.12224153102263E-02 
1008	 2.13375762215139E-02 
1009	 2.12765947642062E-02 
1010	 0.02113920583392 
1011	 2.07499277597228E-02 
1012	 2.04456032352791E-02 
1013	 2.02904527263175E-02 
1014	 2.03329978100463E-02 
1015	 2.07454602662549E-02 
1016	 2.08593332893144E-02 
1017	 2.09751443200404E-02 
1018	 2.11377378893416E-02 
1019	 2.12098102132838E-02 
1020	 0.021163023838952 
1021	 2.11757225405766E-02 
1022	 2.10908395817946E-02 
1023	 2.08409301989703E-02 
1024	 2.09573813007745E-02 
1025	 2.09595417002964E-02 
1026	 2.11538184328086E-02 
1027	 2.12529397528392E-02 
1028	 2.12223292021161E-02 
1029	 2.13279074916577E-02 
1030	 2.17291039885834E-02 
1031	 2.15999948063146E-02 
1032	 2.11086010471256E-02 
1033	 2.09376570808651E-02 
1034	 0.020446869355113 
1035	 2.04126242823822E-02 
1036	 2.09683650672617E-02 
1037	 2.12070227456965E-02 
1038	 2.14392788569698E-02 
1039	 2.17608795598166E-02 
1040	 2.15026866844252E-02 
1041	 2.13080579438976E-02 
1042	 0.021272416629406 
1043	 2.11196878015007E-02 
1044	 2.10995328825134E-02 
1045	 2.12636330662875E-02 
1046	 2.14784919756471E-02 
1047	 0.021872550663845 
1048	 2.19715560370098E-02 
1049	 2.20919533807131E-02 
1050	 2.21037143545944E-02 
1051	 2.17677070172105E-02 
1052	 2.15678398070747E-02 
1053	 2.13266992793283E-02 
1054	 2.13081462729668E-02 
1055	 2.14530161829211E-02 
1056	 2.15031357030671E-02 
1057	 2.15925786185383E-02 
1058	 2.19737010750058E-02 
1059	 2.18905550541184E-02 
1060	 2.14310728951898E-02 
1061	 2.13146662890813E-02 
1062	 2.11030912214197E-02 
1063	 2.10969599372489E-02 
1064	 0.021472061799479 
1065	 2.15100718781431E-02 
1066	 2.14396228366009E-02 
1067	 2.13877231140664E-02 
1068	 2.11382554263522E-02 
1069	 2.10348024616661E-02 
1070	 2.10571450331806E-02 
1071	 0.021034114439073 
1072	 2.11223894414661E-02 
1073	 0.021032610687111 
1074	 2.09747886174669E-02 
1075	 2.08802447535295E-02 
1076	 0.020786939762613 
1077	 2.06833317982984E-02 
1078	 2.05592407216175E-02 
1079	 2.03076035786163E-02 
1080	 0.020261307911194 
1081	 2.03735646984571E-02 
1082	 2.03420191059951E-02 
1083	 2.03895116386314E-02 
1084	 0.020377017250559 
1085	 2.01779920013701E-02 
1086	 2.00598417864879E-02 
1087	 2.00553696915828E-02 
1088	 1.99879073137895E-02 
1089	 1.98053080245821E-02 
1090	 1.97285419418278E-02 
1091	 1.97159573150118E-02 
1092	 1.97608084637117E-02 
1093	 1.96513982052349E-02 
1094	 1.95986630784092E-02 
1095	 1.94551040001283E-02 
1096	 1.91211062696275E-02 
1097	 1.88859139541081E-02 
1098	 0.018635993078902 
1099	 1.84813776746378E-02 
1100	 1.82310927372478E-02 
1101	 0.018151311570766 
1102	 1.85343067134493E-02 
1103	 1.85446132040239E-02 
1104	 1.83224409491081E-02 
1105	 1.84123645329089E-02 
1106	 1.78140061809741E-02 
1107	 1.68029080927806E-02 
1108	 1.68208070740913E-02 
1109	 1.70387169782515E-02 
1110	 1.69011484201104E-02 
1111	 1.74760273820309E-02 
1112	 1.71143283062377E-02 
1113	 1.48155953993263E-02 
1114	 1.43129965388019E-02 
1115	 1.54062749785382E-02 
1116	 1.54124542216163E-02 
1117	 0.015868686705574 
1118	 1.58125383334852E-02 
1119	 0.013652950557665 
1120	 1.22442361072348E-02 
1121	 1.02979227098353E-02 
1122	 1.24539393200552E-02 
1123	 0.015335600967649 
1124	 1.32191899968878E-02 
1125	 1.65090137299751E-02 
1126	 1.91229842735181E-02 
1127	 1.19162760239183E-02 
1128	 6.42910212951146E-03 
1129	 5.85516296906579E-03 
1130	 3.45772358562028E-03 
1131	 5.73097286912688E-03 
1132	 1.60480979466203E-02 
1133	 1.72848115883957E-02 
1134	 1.49819490918666E-02 
1135	 1.42012434167417E-02 
1136	 1.18297035509739E-02 
1137	 1.13583301429669E-02 
1138	 1.18783093232239E-02 
1139	 1.20168903192947E-02 
1140	 1.44902219185856E-02 
1141	 1.44741248590651E-02 
1142	 1.22005581495357E-02 
1143	 0.012319700468017 
1144	 1.25273950962185E-02 
1145	 1.23074564399241E-02 
1146	 1.30685112928368E-02 
1147	 1.31367470048533E-02 
1148	 1.32423885394623E-02 
1149	 1.35279698323225E-02 
1150	 0.0137310380686 
1151	 1.53892891016024E-02 
1152	 1.55913497444653E-02 
1153	 1.43502723343383E-02 
1154	 1.45005295429551E-02 
1155	 0.015114595099261 
1156	 1.50143813266537E-02 
1157	 1.59025530995655E-02 
1158	 1.64435199341738E-02 
1159	 1.53960156206335E-02 
1160	 1.54940839509045E-02 
1161	 1.64823565864974E-02 
1162	 1.64354770932893E-02 
1163	 1.66967555425438E-02 
1164	 1.79097863107974E-02 
1165	 1.81022375552141E-02 
1166	 1.76330733920418E-02 
1167	 1.80490310772201E-02 
1168	 1.80683146660696E-02 
1169	 1.75725656754681E-02 
1170	 1.77166367489009E-02 
1171	 1.79142927107548E-02 
1172	 1.81486254810698E-02 
1173	 0.018360238203622 
1174	 1.88950084433412E-02 
1175	 1.90040516718567E-02 
1176	 1.86480253088715E-02 
1177	 1.85047888214609E-02 
1178	 1.84170005367063E-02 
1179	 1.84192620455054E-02 
1180	 1.87553164894074E-02 
1181	 1.88449225984929E-02 
1182	 1.83342474438056E-02 
1183	 1.80156021806556E-02 
1184	 1.82453785876168E-02 
1185	 1.84175194364817E-02 
1186	 1.85228007439906E-02 
1187	 1.86709695496737E-02 
1188	 1.84961700937999E-02 
1189	 1.84474514963808E-02 
1190	 1.87193546012189E-02 
1191	 1.87214403266503E-02 
1192	 1.87664971016061E-02 
1193	 1.87766055635309E-02 
1194	 1.88262326408966E-02 
1195	 1.87486687469568E-02 
1196	 0.018903880448506 
1197	 1.92111950497763E-02 
1198	 1.91551456109344E-02 
1199	 1.89965914015936E-02 
1200	 1.90943075765719E-02 
1201	 1.91342705733492E-02 
1202	 1.89893079780799E-02 
1203	 1.90551158872975E-02 
1204	 1.93217969083281E-02 
1205	 1.92640760617589E-02 
1206	 1.91085669753214E-02 
1207	 1.91669262196299E-02 
1208	 0.019115558040469 
1209	 1.91282314615055E-02 
1210	 1.93138457769765E-02 
1211	 1.92571415472769E-02 
1212	 1.91372170244516E-02 
1213	 1.92527111430319E-02 
1214	 1.92628859237351E-02 
1215	 0.019271156101036 
1216	 1.92943015183601E-02 
1217	 1.94343951559628E-02 
1218	 1.94989284738919E-02 
1219	 1.96015128997013E-02 
1220	 1.97809296475803E-02 
1221	 1.98404213575795E-02 
1222	 1.97549960958663E-02 
1223	 1.97945937375167E-02 
1224	 1.99695779747452E-02 
1225	 1.99590594304206E-02 
1226	 1.98960631507955E-02 
1227	 1.99297860337114E-02 
1228	 1.99896740703137E-02 
1229	 2.00714526187488E-02 
1230	 2.01147064516781E-02 
1231	 2.02007678418339E-02 
1232	 2.02810001952321E-02 
1233	 2.02347293879823E-02 
1234	 2.02313379186508E-02 
1235	 2.03262357705652E-02 
1236	 2.04466242451772E-02 
1237	 2.04676418658789E-02 
1238	 0.020526395459139 
1239	 2.06544219761137E-02 
1240	 2.05894527390236E-02 
1241	 2.03512005644496E-02 
1242	 2.03724741271606E-02 
1243	 2.05143136429332E-02 
1244	 2.04523396167395E-02 
1245	 2.03512633329622E-02 
1246	 2.03639418859136E-02 
1247	 2.04511726392668E-02 
1248	 2.05079359322651E-02 
1249	 2.04630552061271E-02 
1250	 2.04229463523869E-02 
1251	 2.03368280620392E-02 
1252	 2.02058802882282E-02 
1253	 2.02913903991145E-02 
1254	 2.02854761560793E-02 
1255	 2.00742454402645E-02 
1256	 2.00392608702254E-02 
1257	 2.01813272449719E-02 
1258	 0.020066652108116 
1259	 1.98971168417922E-02 
1260	 1.98294164183162E-02 
1261	 1.95191512423117E-02 
1262	 1.93906628636587E-02 
1263	 1.94658701783296E-02 
1264	 0.019586833965798 
1265	 1.95782986889302E-02 
1266	 1.96542487136632E-02 
1267	 1.97203919572621E-02 
1268	 1.96934742802082E-02 
1269	 0.019677680615578 
1270	 1.97320016327096E-02 
1271	 1.97269163154553E-02 
1272	 1.96644917820379E-02 
1273	 1.96378175575783E-02 
1274	 0.019695980745817 
1275	 1.99338847105197E-02 
1276	 2.00843362275909E-02 
1277	 1.98430825974215E-02 
1278	 0.019668577611581 
1279	 1.98723718709149E-02 
1280	 2.00209561165427E-02 
1281	 1.99817627835221E-02 
1282	 2.00070560988023E-02 
1283	 2.00008534328661E-02 
1284	 0.019688653542298 
1285	 1.95467733620528E-02 
1286	 1.96115557793413E-02 
1287	 1.96192835771854E-02 
1288	 1.95143798260378E-02 
1289	 1.94770497888882E-02 
1290	 1.95662502077999E-02 
1291	 1.96445360677075E-02 
1292	 1.94647686546462E-02 
1293	 0.01921592662372 
1294	 1.90326927249094E-02 
1295	 1.89557607246708E-02 
1296	 1.91363013901457E-02 
1297	 1.91600921042364E-02 
1298	 0.018928926311414 
1299	 1.86756652269016E-02 
1300	 1.84480453528657E-02 
1301	 0.018431775080255 
1302	 1.84904262827843E-02 
1303	 1.83094462580368E-02 
1304	 1.78688707272066E-02 
1305	 1.77415885816917E-02 
1306	 1.76724939630257E-02 
1307	 0.017841952840881 
1308	 0.017752636455392 
1309	 1.76089029737904E-02 
1310	 1.75137465104529E-02 
1311	 1.74448306783912E-02 
1312	 1.72330730176542E-02 
1313	 1.67701849738069E-02 
1314	 1.67139520608297E-02 
1315	 1.70026903617842E-02 
1316	 1.67973120781369E-02 
1317	 1.64921431274004E-02 
1318	 1.65304871690531E-02 
1319	 1.61831751477149E-02 
1320	 1.59515581135848E-02 
1321	 1.62969169198496E-02 
1322	 1.67753686468849E-02 
1323	 1.60981330359103E-02 
1324	 1.52809389328281E-02 
1325	 1.50419610936571E-02 
1326	 1.49944899956855E-02 
1327	 1.51605718468397E-02 
1328	 1.54971512114159E-02 
1329	 1.51113721678517E-02 
1330	 1.43448560919445E-02 
1331	 1.45082385794418E-02 
1332	 1.47078759970458E-02 
1333	 1.44422349777061E-02 
1334	 1.42733173794513E-02 
1335	 1.41068574930318E-02 
1336	 0.013063367128697 
1337	 1.29676041375345E-02 
1338	 1.40751952608758E-02 
1339	 1.39842861443277E-02 
1340	 1.27782043542012E-02 
1341	 1.30929615889851E-02 
1342	 1.49719482627545E-02 
1343	 1.47219471292912E-02 
1344	 1.29681125912927E-02 
1345	 1.35653165867347E-02 
1346	 1.44536417884698E-02 
1347	 1.36469063666836E-02 
1348	 1.53023082454228E-02 
1349	 1.84292875990858E-02 
1350	 1.62330330217578E-02 
1351	 1.37461165356278E-02 
1352	 2.51007217738304E-02 
1353	 3.45433684857575E-02 
1354	 3.04393624490489E-02 
1355	 5.30414243038672E-03 
1356	-2.49388081949672E-02 
1357	-3.21955174442698E-02 
1358	 1.05360494750049E-02 
1359	-8.91568121795881E-03 
1360	-4.93651646213255E-02 
1361	-2.44190160853614E-02 
1362	-9.09240270089603E-02 
1363	-0.062450207990191 
1364	 8.45640981481784E-02 
1365	 0.148134055695811 
1366	 0.196633118650824 
1367	 0.173526460986481 
1368	 9.09272090253836E-02 
1369	-7.63472003640641E-02 
1370	-6.77742862965545E-02 
1371	 7.91036683222403E-02 
1372	-2.89358341753308E-03 
1373	-0.220878953978225 
1374	-0.164634749950379 
1375	-0.104227462531129 
1376	-0.255223807849023 
1377	-0.466274101280237 
1378	-8.14239080500582E-02 
1379	-6.75631605271086E-02 
1380	-4.87188712475594E-02 
1381	 0.259593438865475 
1382	 0.405977991829009 
1383	 0.359027359978924 
1384	 0.424649794507655 
1385	 0.669078308016055 
1386	 0.548775973640813 
1387	 6.45685278333381E-02 
1388	-5.13233790884023E-02 
1389	-0.102613517015928 
1390	-0.124466763728013 
1391	 0.159399528716282 
1392	 0.439128189116715 
1393	 5.55365581876635E-02 
1394	-5.18022551870465E-02 
1395	 0.227259583785698 
1396	 0.217203715622274 
1397	 7.11500126832137E-02 
1398	 3.50999587613705E-02 
1399	-0.168362974867709 
1400	-0.306426924951377 
1401	-3.51359341958232E-02 
1402	 0.215359158260894 
1403	 0.332667415976468 
1404	 0.369971068658574 
1405	 0.305192249856783 
1406	-6.74720128175884E-02 
1407	 6.40554680813718E-02 
1408	 0.346504163735601 
1409	 0.308174948351977 
1410	 0.358484673207274 
1411	 0.258010557421737 
1412	-9.79387544380729E-02 
1413	-0.102474625182115 
1414	 0.151923971483815 
1415	 0.110776425215344 
1416	-3.06522513131763E-02 
1417	 6.23871443629139E-03 
1418	 0.048755285517707 
1419	 2.09366130897602E-02 
1420	 5.24073061430875E-02 
1421	 5.95802467734872E-02 
1422	-6.27366341161375E-03 
1423	-1.12209895212208E-02 
1424	 2.85978128414279E-02 
1425	 3.29865141255741E-02 
1426	 2.44528046463434E-02 
1427	 2.62207092259348E-02 
1428	 3.79679086135589E-02 
1429	 3.23263209930715E-02 
1430	 9.4049401193304E-03 
1431	 2.08823757401213E-03 
1432	-4.72484017119987E-03 
1433	-1.07824183050173E-02 
1434	-1.22286204113787E-02 
1435	-0.004611296517033 
1436	 9.86152180674203E-03 
1437	 1.91155177422142E-02 
1438	 1.61760375540718E-02 
1439	 9.94452040521672E-03 
1440	 1.28870330351709E-02 
1441	 6.43293119993757E-03 
1442	 9.34873551208244E-03 
1443	 2.40395973000446E-02 
1444	 1.60298611283192E-02 
1445	 2.59010411714889E-03 
1446	 6.26588471049033E-04 
1447	 3.00458977453579E-03 
1448	 8.35676450836056E-03 
1449	 1.31330653829193E-02 
1450	 1.26625838805366E-02 
1451	 1.00203149980887E-02 
1452	 1.15035010961065E-02 
1453	 1.36767884505939E-02 
1454	 1.25381726503311E-02 
1455	 1.07272936611097E-02 
1456	 1.13419054389139E-02 
1457	 1.11813656353571E-02 
1458	 1.05999908858735E-02 
1459	 1.22177879013484E-02 
1460	 1.28048074703212E-02 
1461	 1.05697802861812E-02 
1462	 1.01911203374962E-02 
1463	 1.20994552382137E-02 
1464	 0.012578722239753 
1465	 1.19341206799158E-02 
1466	 1.22688321379652E-02 
1467	 1.42424846188377E-02 
1468	 1.40740191080253E-02 
1469	 1.19597945774597E-02 
1470	 1.13198121578921E-02 
1471	 9.3911567458085E-03 
1472	 9.46601002436653E-03 
1473	 1.29636366755624E-02 
1474	 1.31187554266655E-02 
1475	 1.10533785084743E-02 
1476	 1.17172604729586E-02 
1477	 1.32743145150345E-02 
1478	 1.32392952983616E-02 
1479	 1.33541667801303E-02 
1480	 1.40767372322268E-02 
1481	 1.42617598980125E-02 
1482	 1.38348921954986E-02 
1483	 1.35765059549164E-02 
1484	 1.42393371081244E-02 
1485	 1.48038497273652E-02 
1486	 0.014588653522553 
1487	 1.47525369294823E-02 
1488	 1.50816929769728E-02 
1489	 1.47307789651499E-02 
1490	 1.45265960455633E-02 
1491	 1.48937217330003E-02 
1492	 1.51242661252693E-02 
1493	 1.48788861168168E-02 
1494	 1.49373411852397E-02 
1495	 1.53182639424178E-02 
1496	 1.55595088918161E-02 
1497	 1.57319898149668E-02 
1498	 1.59802980110168E-02 
1499	 1.64429252692785E-02 
1500	 1.66059033303907E-02 
1501	 1.64170286021713E-02 
1502	 1.65948405140986E-02 
1503	 1.69958430278544E-02 
1504	 1.70771246551734E-02 
1505	 1.70318950639888E-02 
1506	 1.73136220803915E-02 
1507	 0.017644148822635 
1508	 1.77494701205374E-02 
1509	 1.78858960185898E-02 
1510	 1.82110750854167E-02 
1511	 1.82199581848783E-02 
1512	 1.80829959715436E-02 
1513	 0.01814288204235 
1514	 1.82235173165506E-02 
1515	 1.83909005068925E-02 
1516	 1.84883121200985E-02 
1517	 1.86417337760384E-02 
1518	 1.88427680140766E-02 
1519	 0.018680531153787 
1520	 1.85515305085464E-02 
1521	 1.86775576650338E-02 
1522	 1.88309119484596E-02 
1523	 1.90700088719387E-02 
1524	 1.91590177202087E-02 
1525	 1.90226356427579E-02 
1526	 1.89949239378623E-02 
1527	 1.91075687312533E-02 
1528	 1.91604197099481E-02 
1529	 1.91542656147252E-02 
1530	 1.92143960922551E-02 
1531	 1.92854471274885E-02 
1532	 1.93609698231864E-02 
1533	 1.95118972429561E-02 
1534	 1.96836859757768E-02 
1535	 1.96218460755651E-02 
1536	 1.94860498389619E-02 
1537	 0.019730376659721 
1538	 1.98999675481125E-02 
1539	 1.97103190216602E-02 
1540	 1.97648782087515E-02 
1541	 1.99106554177102E-02 
1542	 1.98535908836819E-02 
1543	 0.019956254007658 
1544	 2.00930905687829E-02 
1545	 0.020098994654799 
1546	 2.01452842893242E-02 
1547	 2.00999548569889E-02 
1548	 2.00749872936324E-02 
1549	 2.02207588361634E-02 
1550	 2.01660068651122E-02 
1551	 2.00800984335375E-02 
1552	 2.02048333753215E-02 
1553	 2.02425277744409E-02 
1554	 2.01102232832669E-02 
1555	 2.00362951650519E-02 
1556	 2.02120726482204E-02 
1557	 2.03918610724166E-02 
1558	 2.03786051223324E-02 
1559	 2.02952889981852E-02 
1560	 2.03949159735763E-02 
1561	 0.02062610744232 
1562	 2.06043860199397E-02 
1563	 2.05465281532904E-02 
1564	 2.06301159888159E-02 
1565	 2.04751272292071E-02 
1566	 2.03492091557724E-02 
1567	 2.05622069388017E-02 
1568	 2.05523476775528E-02 
1569	 2.03116909788209E-02 
1570	 0.020240881263982 
1571	 2.02746975700107E-02 
1572	 2.02824435846818E-02 
1573	 2.01982286816048E-02 
1574	 2.01858688473613E-02 
1575	 2.00933761397539E-02 
1576	 1.98362344627012E-02 
1577	 2.00181989453028E-02 
1578	 2.03435807607093E-02 
1579	 0.020395086194033 
1580	 2.05900133715152E-02 
1581	 2.07249468248553E-02 
1582	 2.05265861788254E-02 
1583	 2.02849148853201E-02 
1584	 2.02460164486631E-02 
1585	 2.03715755942475E-02 
1586	 2.03802227983213E-02 
1587	 2.03982828370516E-02 
1588	 2.05677386336143E-02 
1589	 2.04207432457695E-02 
1590	 2.02746026003985E-02 
1591	 2.04967752016755E-02 
1592	 2.04740340092849E-02 
1593	 2.03281450189067E-02 
1594	 2.05023614426566E-02 
1595	 2.05071821275836E-02 
1596	 2.02823892391905E-02 
1597	 2.04071555554114E-02 
1598	 2.04873113941372E-02 
1599	 2.02225458547185E-02 
1600	 2.02607106205435E-02 
1601	 2.04183616691658E-02 
1602	 2.02739991741222E-02 
1603	 2.01947150803314E-02 
1604	 2.02731099906777E-02 
1605	 2.03275423965496E-02 
1606	 2.02838182478307E-02 
1607	 2.04001378841675E-02 
1608	 2.05614891432285E-02 
1609	 2.04271833743244E-02 
1610	 2.03590425471212E-02 
1611	 2.04294419678627E-02 
1612	 2.04432635286242E-02 
1613	 0.020480242961505 
1614	 2.06568899443072E-02 
1615	 2.08643799733536E-02 
1616	 2.08596134570771E-02 
1617	 2.07242560184228E-02 
1618	 2.05904155813701E-02 
1619	 2.04496872137558E-02 
1620	 2.04192592517736E-02 
1621	 2.05598206156536E-02 
1622	 2.06185246139081E-02 
1623	 0.020565236407444 
1624	 2.06629130111757E-02 
1625	 2.07195663586243E-02 
1626	 2.06668244118573E-02 
1627	 2.06246177086689E-02 
1628	 2.06199055420613E-02 
1629	 2.07474945795762E-02 
1630	 0.020843155585328 
1631	 2.08437851889092E-02 
1632	 2.06443627448605E-02 
1633	 0.020299650155897 
1634	 2.02986039033403E-02 
1635	 0.020635398653301 
1636	 2.09052794480906E-02 
1637	 2.09138172494993E-02 
1638	 2.06888733427604E-02 
1639	 2.04266877294771E-02 
1640	 2.03590470150717E-02 
1641	 2.05145286314438E-02 
1642	 2.05666117971893E-02 
1643	 2.03673954905486E-02 
1644	 2.02951018237922E-02 
1645	 2.04220402835744E-02 
1646	 2.03799809456635E-02 
1647	 2.03743268877289E-02 
1648	 2.04784995136228E-02 
1649	 2.02562445594539E-02 
1650	 2.03358263857689E-02 
1651	 2.09068989040047E-02 
1652	 2.06540589108273E-02 
1653	 2.04450690284637E-02 
1654	 2.05274150785066E-02 
1655	 2.05135627972949E-02 
1656	 2.05174454190859E-02 
1657	 0.020646285272932 
1658	 2.05971554422199E-02 
1659	 2.04401522964947E-02 
1660	 2.04727907123103E-02 
1661	 2.06105715480955E-02 
1662	 2.04383499739391E-02 
1663	 2.01744002385675E-02 
1664	 2.00816260490776E-02 
1665	 1.97491926877638E-02 
1666	 1.98047873401141E-02 
1667	 2.03641390975799E-02 
1668	 2.04411906174399E-02 
1669	 2.02797167562644E-02 
1670	 2.01692095617467E-02 
1671	 2.02624096637136E-02 
1672	 2.03779331798472E-02 
1673	 2.04138392905181E-02 
1674	 2.05474932782526E-02 
1675	 2.05129839400179E-02 
1676	 2.01516079329808E-02 
1677	 2.03278814098761E-02 
1678	 2.07955767719718E-02 
1679	 0.020669493057105 
1680	 2.05424130219535E-02 
1681	 2.07016785716601E-02 
1682	 2.05276003782318E-02 
1683	 2.03512140420457E-02 
1684	 2.05757386717175E-02 
1685	 2.03583720272506E-02 
1686	 1.99910177628104E-02 
1687	 2.02053873067438E-02 
1688	 2.01532266974539E-02 
1689	 1.99767155575244E-02 
1690	 2.02335397639703E-02 
1691	 2.02405933870664E-02 
1692	 2.00403205310324E-02 
1693	 2.00942708531348E-02 
1694	 2.02548201751266E-02 
1695	 2.04059985133497E-02 
1696	 2.03598110034843E-02 
1697	 2.01192890691743E-02 
1698	 2.01635268049553E-02 
1699	 2.01912280369613E-02 
1700	 1.99210366068983E-02 
1701	 2.00790556583067E-02 
1702	 2.02275206868135E-02 
1703	 1.97911267923585E-02 
1704	 1.96509279199325E-02 
1705	 1.98531965183952E-02 
1706	 1.98420861875312E-02 
1707	 1.98495109093668E-02 
1708	 1.99690187340258E-02 
1709	 1.99993973480789E-02 
1710	 1.97334898999837E-02 
1711	 1.94991894572078E-02 
1712	 1.96903715869665E-02 
1713	 1.98371135507756E-02 
1714	 0.019805685875664 
1715	 1.94839261963691E-02 
1716	 1.94803250485396E-02 
1717	 1.96424465200965E-02 
1718	 1.95429990868344E-02 
1719	 1.97941412854083E-02 
1720	 1.99671132023105E-02 
1721	 1.94437396141819E-02 
1722	 1.90599066649767E-02 
1723	 1.88533711736979E-02 
1724	 1.87471588309404E-02 
1725	 1.92351794715754E-02 
1726	 0.0196820912715 
1727	 1.93351022977603E-02 
1728	 1.90604046420119E-02 
1729	 1.88808246193138E-02 
1730	 1.84447306499025E-02 
1731	 1.87738335469455E-02 
1732	 1.93110723803238E-02 
1733	 0.01910735524916 
1734	 1.88339123149926E-02 
1735	 1.87198825335094E-02 
1736	 1.83804512845106E-02 
1737	 1.81283288100687E-02 
1738	 1.83747332758439E-02 
1739	 1.85386797823188E-02 
1740	 1.82480410441847E-02 
1741	 1.81898880198279E-02 
1742	 1.82667060013199E-02 
1743	 1.79382244045546E-02 
1744	 1.76983238492786E-02 
1745	 1.76925683457328E-02 
1746	 1.80602581149382E-02 
1747	 1.82406390000883E-02 
1748	 1.85086628062084E-02 
1749	 1.82773837521509E-02 
1750	 1.72212417484542E-02 
1751	 1.71507883629371E-02 
1752	 1.78649212294713E-02 
1753	 1.78050100904698E-02 
1754	 1.78730437582295E-02 
1755	 1.77731667928477E-02 
1756	 0.016532428971059 
1757	 1.66356692324353E-02 
1758	 1.72700283569264E-02 
1759	 1.75380597187403E-02 
1760	 1.80314856401937E-02 
1761	 1.79384725756695E-02 
1762	 1.71527747800001E-02 
1763	 1.67031857959338E-02 
1764	 1.61682190790234E-02 
1765	 1.62677996138377E-02 
1766	 1.70609473390936E-02 
1767	 1.68929915755014E-02 
1768	 1.65111176983995E-02 
1769	 1.58928384094263E-02 
1770	 1.46907434114168E-02 
1771	 1.43369598637653E-02 
1772	 1.44137915339606E-02 
1773	 1.50191817057034E-02 
1774	 1.61441604238254E-02 
1775	 1.52191082032489E-02 
1776	 1.50312400577452E-02 
1777	 1.35553833320008E-02 
1778	 1.31805007100082E-02 
1779	 1.59210230839421E-02 
1780	 1.58590417193852E-02 
1781	 1.35448348498225E-02 
1782	 1.32274458132479E-02 
1783	 1.17963286363446E-02 
1784	 1.17329511635337E-02 
1785	 1.51387373022545E-02 
1786	 1.58422536607708E-02 
1787	 1.52323867541404E-02 
1788	 1.36030527496236E-02 
1789	 9.85936712441005E-03 
1790	 7.47080312697391E-03 
1791	 6.00475633212118E-03 
1792	 1.01365560610265E-02 
1793	 1.41875653574808E-02 
1794	 0.014149665351625 
1795	 1.56626683015703E-02 
1796	 1.17478690754359E-02 
1797	 1.68705946074928E-03 
1798	 3.59354293894856E-03 
1799	 1.09202289954554E-02 
1800	 3.48392338858168E-02 
1801	 4.31800530772415E-02 
1802	 2.61480974033662E-02 
1803	 1.67963556102822E-02 
1804	-0.033333528500182 
1805	-4.77921363021675E-02 
1806	 1.93987192354969E-02 
1807	 3.79680033331561E-02 
1808	 8.43141017281657E-02 
1809	 8.87463589965147E-02 
1810	-0.108186813990657 
1811	-0.156228852599646 
1812	-0.110253212742473 
1813	-8.58412489706553E-04 
1814	 0.657313954908891 
1815	 0.927287743963943 
1816	 0.827630027331954 
1817	 0.480944568056796 
1818	-0.198688877184992 
1819	 0.11849302545462 
1820	 0.308209038214316 
1821	 9.81536664830874E-02 
1822	 0.140710013399742 
1823	-0.171056046066088 
1824	-0.161907428184548 
1825	 2.3791264964781 
1826	 2.85840436308549 
1827	 0.623201397011582 
1828	 0.40160473811882 
1829	-8.33355431264782E-02 
1830	-0.231454751874154 
1831	-2.31196662600359 
1832	 37.3338503464376 
1833	 0.981404172027532 
1834	 0.785537272196596 
1835	-2.49886795829996E-02 
1836	-0.549425830531313 
1837	-0.844678665618174 
1838	-0.649583870276923 
1839	 1.77403868420475E-02 
1840	 0.437410035566206 
1841	 0.309183390474627 
1842	 0.656108190330927 
1843	 0.181748314375012 
1844	-1.03409986124272 
1845	-1.0041730854517 
1846	-8.71197590048522E-02 
1847	 1.22846473103042E-02 
1848	-0.077346948453033 
1849	 0.252768395389075 
1850	-0.216893689515873 
1851	-0.471094177267695 
1852	-0.126816743986487 
1853	 2.23359852736221E-03 
1854	 1.58507422480254E-02 
1855	-0.159707056626852 
1856	-0.476469147186448 
1857	 6.95302764945095 
1858	 4.9272230255052 
1859	-2.86636734325737 
1860	-1.65084431409184 
1861	-1.57571231383533 
1862	-0.953172783183628 
1863	-1.22447750103851 
1864	-32.6755612865567 
1865	 6.4031747700016 
1866	-4.04984485356192 
1867	-1.86806685291805 
1868	 0.121381504885226 
1869	 7.81513269103833 
1870	 2.6068090078199 
1871	 3.3597734348603 
1872	-0.97126940557092 
1873	-1.51402234958942 
1874	-0.502919895012044 
1875	-1.35782356133993 
1876	-1.66895088218236 
1877	-1.21076055385327 
1878	-1.56025845331544 
1879	 12.5253478848309 
1880	 2.87667185986858 
1881	 0.596949129179731 
1882	-0.505946886951806 
1883	-0.149797328147855 
1884	 0.830948525281098 
1885	 0.98619362787235 
1886	 2.403049793557 
1887	-0.554744301031102 
1888	 0.991624139676017 
1889	 0.986002575932503 
1890	 0.215912508044919 
1891	-0.437797323661538 
1892	-6.70827605187089 
1893	-2.21357286063283 
1894	-0.260849188891924 
1895	-0.219849589059843 
1896	 0.100535757124576 
1897	 6.8449610599883 
1898	 1.30106026593654 
1899	-9.77745569676766E-03 
1900	 1.86654523247299 
1901	 0.867703321546485 
1902	 0.679052544160094 
1903	 0.704596081985435 
1904	 0.574456728005472 
1905	 0.339506851517319 
1906	 0.412966231830988 
1907	 0.157941098998727 
1908	 0.363153825168866 
1909	 0.258556605135413 
1910	-4.5540309994277 
1911	-0.688609534422826 
1912	-0.353020529541135 
1913	-0.796205277839746 
1914	 1.90884891958235 
1915	 1.13029239822382 
1916	 0.428832577458705 
1917	 0.473631502089547 
1918	 0.476954506984644 
1919	-2.21815862190125E-02 
1920	-0.300025663014682 
1921	-0.112715678729773 
1922	-0.314771557778266 
1923	-0.227187425710509 
1924	 0.166723536730481 
1925	 0.234009657240639 
1926	 0.615078202233512 
1927	 1.43857639720996 
1928	-0.892916140785998 
1929	-1.27446023045817 
1930	-1.59541264493063 
1931	-1.54153478163702 
1932	-2.48337811803246 
1933	-0.686527924431857 
1934	 0.186953187152278 
1935	 0.259001499491254 
1936	 0.373967500374563 
1937	 0.379740373277665 
1938	 0.298770500476928 
1939	 0.25208341152042 
1940	 0.251744151862633 
1941	 0.200255357888296 
1942	 0.128664386520502 
1943	 5.42294545510994E-02 
1944	 3.76696903851774E-02 
1945	 8.11897737746076E-02 
1946	 3.98341474752718E-02 
1947	 1.29917408520895E-02 
1948	 5.00385315061891E-02 
1949	 0.04375236204098 
1950	 7.65033564187414E-02 
1951	 0.138794883852429 
1952	 0.144402502439563 
1953	 0.110826193440956 
1954	 7.79509073512305E-02 
1955	 5.31125765379032E-02 
1956	 0.023398504599688 
1957	 1.16735759373419E-02 
1958	 1.38201489951587E-02 
1959	 9.23408679376458E-03 
1960	 4.42280111544201E-03 
1961	 8.22221658129573E-03 
1962	 6.33393445611113E-03 
1963	 7.65725584199203E-03 
1964	 1.42899103608288E-02 
1965	 1.48786586715337E-02 
1966	 1.32922588842457E-02 
1967	 1.00075037022355E-02 
1968	 8.17546636889956E-03 
1969	 6.84298481522196E-03 
1970	 6.32996619384601E-03 
1971	 1.05334845692218E-02 
1972	 1.45932800895538E-02 
1973	 1.45791290189252E-02 
1974	 1.43075988961365E-02 
1975	 1.26312372428246E-02 
1976	 1.06595188417817E-02 
1977	 1.15776387527298E-02 
1978	 1.36266289009741E-02 
1979	 1.45663584949987E-02 
1980	 0.015910268058453 
1981	 1.61382157665613E-02 
1982	 1.52656777579728E-02 
1983	 1.51078287548718E-02 
1984	 0.014621616665822 
1985	 1.36302411403327E-02 
1986	 0.014589513305966 
1987	 0.014386332237417 
1988	 0.013864722195315 
1989	 1.55204219085609E-02 
1990	 1.56713040271925E-02 
1991	 1.55437880907532E-02 
1992	 1.52965685371593E-02 
1993	 1.45600586980057E-02 
1994	 1.44924553470586E-02 
1995	 1.47934162003755E-02 
1996	 1.45775986783641E-02 
1997	 1.46293218404361E-02 
1998	 1.47867273323597E-02 
1999	 1.33720396857526E-02 
2000	 1.24217105481209E-02 
2001	 1.36698953437331E-02 
2002	 1.27629871604744E-02 
2003	 0.012809129248227 
2004	 1.44221712450811E-02 
2005	 1.25652764015764E-02 
2006	 1.16582708317832E-02 
2007	 1.29461224383933E-02 
2008	 1.43466205133629E-02 
2009	 0.014411044357363 
2010	 1.54763136374364E-02 
2011	 1.59868979603472E-02 
2012	 0.016065392825093 
2013	 1.17220361457041E-02 
2014	 0.011951504534261 
2015	 1.29700927713586E-02 
2016	 1.14511456815499E-02 
2017	 1.39562078892904E-02 
2018	 1.48667587783172E-02 
2019	 1.31699122884895E-02 
2020	 0.013585038269026 
2021	 1.39717884911203E-02 
2022	 1.37975571457767E-02 
2023	 1.40869070842865E-02 
2024	 0.014168616118644 
2025	 1.40672238258444E-02 
2026	 1.38770286157758E-02 
2027	 1.34878305760163E-02 
2028	 1.34536833677831E-02 
2029	 1.38928114655442E-02 
2030	 1.39258793556913E-02 
2031	 1.42621881942541E-02 
2032	 1.45663552967725E-02 
2033	 1.47097331007844E-02 
2034	 1.50720647817394E-02 
2035	 1.53528696304881E-02 
2036	 1.60379983469974E-02 
2037	 0.016195917616559 
2038	 1.60934689550279E-02 
2039	 1.61966913826176E-02 
2040	 1.60820659145992E-02 
2041	 1.61400180441385E-02 
2042	 1.69801616682977E-02 
2043	 0.016657595310607 
2044	 1.54752329527279E-02 
2045	 1.49118787614041E-02 
2046	 0.014062412223942 
2047	 1.32899493005474E-02 
2048	 1.40394784019877E-02 
2049	 1.42243006792651E-02 
2050	 1.38420968145941E-02 
2051	 1.41431325898397E-02 
2052	 1.45698493517115E-02 
2053	 1.53185871583468E-02 
2054	 0.016451311960628 
2055	 1.68869348133776E-02 
2056	 0.016580175227365 
2057	 1.48090067488806E-02 
2058	 1.42267491008708E-02 
2059	 1.29442380205242E-02 
2060	 1.30430157079233E-02 
2061	 1.46154952026727E-02 
2062	 1.56078806349715E-02 
2063	 1.57017166590194E-02 
2064	 1.59093213320701E-02 
2065	 1.51816300698065E-02 
2066	 1.44770603977318E-02 
2067	 1.49121022913454E-02 
2068	 1.56900836573205E-02 
2069	 1.52789738218592E-02 
2070	 1.47019459359465E-02 
2071	 1.55132375700578E-02 
2072	 0.016608498759848 
2073	 1.68680160415172E-02 
2074	 1.74572852378264E-02 
2075	 1.77480489162379E-02 
2076	 1.72148121403368E-02 
2077	 1.68010133749002E-02 
2078	 1.68084501949968E-02 
2079	 0.016909388006025 
2080	 1.68163044628856E-02 
2081	 1.60389911435269E-02 
2082	 1.66869153321064E-02 
2083	 1.71543993380563E-02 
2084	 1.68587423194992E-02 
2085	 1.68052227859693E-02 
2086	 1.70398526449785E-02 
2087	 1.69634376774994E-02 
2088	 1.67211067490965E-02 
2089	 1.67175635652969E-02 
2090	 1.59779983846222E-02 
2091	 1.53753266178783E-02 
2092	 1.52814170240212E-02 
2093	 1.58552237885447E-02 
2094	 1.58178272611923E-02 
2095	 1.56726207053043E-02 
2096	 0.015777679286918 
2097	 1.58731203857178E-02 
2098	 1.60144934504372E-02 
2099	 1.64719145510097E-02 
2100	 1.67952360721926E-02 
2101	 1.63910459839024E-02 
2102	 1.61649532433954E-02 
2103	 1.62428100471307E-02 
2104	 1.55871453281813E-02 
2105	 1.60514813244627E-02 
2106	 1.66924161799344E-02 
2107	 1.61631959958694E-02 
2108	 1.64636792045395E-02 
2109	 0.017302366651202 
2110	 1.75396702741562E-02 
2111	 1.71991444355722E-02 
2112	 0.017146458742208 
2113	 1.72307176380429E-02 
2114	 1.63875421723806E-02 
2115	 1.64307945032187E-02 
2116	 1.76259904975766E-02 
2117	 1.81206197067339E-02 
2118	 1.87442915571772E-02 
2119	 1.85596363616439E-02 
2120	 1.75520406449758E-02 
2121	 1.74137555589551E-02 
2122	 1.74304833580395E-02 
2123	 1.67964316304523E-02 
2124	 1.63645335425946E-02 
2125	 1.63530709163356E-02 
2126	 1.62826774944768E-02 
2127	 1.63247310956538E-02 
2128	 1.70848966052771E-02 
2129	 0.017910734169985 
2130	 1.81538223868279E-02 
2131	 1.83006372795475E-02 
2132	 1.81460197950991E-02 
2133	 1.80567430181462E-02 
2134	 1.81647175214487E-02 
2135	 1.82248019764882E-02 
2136	 0.018025540137224 
2137	 1.77609996609511E-02 
2138	 1.80186216533324E-02 
2139	 1.86431411817125E-02 
2140	 1.86840166116777E-02 
2141	 1.89534375581576E-02 
2142	 1.87968685546379E-02 
2143	 1.81229120442591E-02 
2144	 1.67542592259216E-02 
2145	 1.55205490678835E-02 
2146	 1.54488757291206E-02 
2147	 1.55281319611912E-02 
2148	 1.57272568868738E-02 
2149	 1.63084669785289E-02 
2150	 1.65662061788987E-02 
2151	 1.62581893242951E-02 
2152	 1.62963726807791E-02 
2153	 1.62400376310414E-02 
2154	 1.53924194000385E-02 
2155	 1.58263662714586E-02 
2156	 1.66438449402964E-02 
2157	 1.72308669659283E-02 
2158	 1.94112778133508E-02 
2159	 1.91514968464912E-02 
2160	 1.65621296893037E-02 
2161	 1.60287110115719E-02 
2162	 1.50126763530815E-02 
2163	 1.50556524152554E-02 
2164	 1.75307549972616E-02 
2165	 1.77559214905761E-02 
2166	 1.64951020245116E-02 
2167	 1.63714711785836E-02 
2168	 1.57339643189036E-02 
2169	 1.61414507046684E-02 
2170	 1.82716323702345E-02 
2171	 1.90744598728059E-02 
2172	 1.88912122465106E-02 
2173	 1.83482943781235E-02 
2174	 1.67108987775488E-02 
2175	 1.58666551187183E-02 
2176	 1.61647956844974E-02 
2177	 1.63924879838268E-02 
2178	 0.016511013577548 
2179	 1.68571308455031E-02 
2180	 1.65844893790788E-02 
2181	 0.015541011829623 
2182	 1.66219656005685E-02 
2183	 1.80359821589483E-02 
2184	 1.69944235176985E-02 
2185	 1.68251560717327E-02 
2186	 1.71180235510862E-02 
2187	 1.64358851581638E-02 
2188	 1.57017824193185E-02 
2189	 1.60765219048867E-02 
2190	 1.64726391118623E-02 
2191	 1.60457161145302E-02 
2192	 1.55043969825634E-02 
2193	 1.56013554493073E-02 
2194	 1.60940758043075E-02 
2195	 1.60928522739699E-02 
2196	 1.60238213910704E-02 
2197	 0.017125499348303 
2198	 1.73895434680614E-02 
2199	 1.65229076032807E-02 
2200	 1.56678565956572E-02 
2201	 1.55529543398022E-02 
2202	 1.65207323885903E-02 
2203	 1.63251904417539E-02 
2204	 1.66470057612298E-02 
2205	 1.83981961669219E-02 
2206	 1.94746277836879E-02 
2207	 0.019029850969984 
2208	 1.83207373669783E-02 
2209	 1.83202597505884E-02 
2210	 1.77655830348526E-02 
2211	 1.80858351759328E-02 
2212	 1.84218055325003E-02 
2213	 1.76145039269707E-02 
2214	 1.76250048777669E-02 
2215	 0.017970960256274 
2216	 1.88936727969875E-02 
2217	 1.88100746684683E-02 
2218	 1.72927143972929E-02 
2219	 1.62347698430734E-02 
2220	 1.48740203779947E-02 
2221	 1.44022074813418E-02 
2222	 1.42815591849195E-02 
2223	 1.42960022879893E-02 
2224	 1.54544012774594E-02 
2225	 1.55486773013052E-02 
2226	 1.40660271157782E-02 
2227	 0.014493319589017 
2228	 1.67574110132411E-02 
2229	 0.016876874119939 
2230	 1.56123634669524E-02 
2231	 1.66184833334102E-02 
2232	 1.82745942784378E-02 
2233	 1.87424498252583E-02 
2234	 2.01381271291895E-02 
2235	 0.022623127233484 
2236	 2.13310611269633E-02 
2237	 1.65411845720723E-02 
2238	 1.54170013237657E-02 
2239	 1.62420636417511E-02 
2240	 1.51077246044671E-02 
2241	 1.60689234163455E-02 
2242	 0.016707586806875 
2243	 1.37916083064732E-02 
2244	 1.21149368170226E-02 
2245	 1.30397208086573E-02 
2246	 1.33148534766171E-02 
2247	 0.013119342221459 
2248	 1.54241440747089E-02 
2249	 1.65641184261048E-02 
2250	 1.50119562112334E-02 
2251	 1.53266387271127E-02 
2252	 1.55260569844906E-02 
2253	 1.45677775006533E-02 
2254	 1.58113015768587E-02 
2255	 1.72658894563186E-02 
2256	 1.72477145346811E-02 
2257	 1.72351030836705E-02 
2258	 1.57502053963075E-02 
2259	 1.29275476999987E-02 
2260	 1.27617365927145E-02 
2261	 1.45072744559408E-02 
2262	 1.45638675323358E-02 
2263	 1.64869952244995E-02 
2264	 1.62060288848481E-02 
2265	 1.16646051629207E-02 
2266	 1.12979044654236E-02 
2267	 1.33503738083119E-02 
2268	 1.34461892780598E-02 
2269	 1.39111527985911E-02 
2270	 1.49317673577022E-02 
2271	 1.58020779049544E-02 
2272	 1.58874153148491E-02 
2273	 1.71170205777753E-02 
2274	 1.73883195675553E-02 
2275	 1.43318601524957E-02 
2276	 1.37579030219014E-02 
2277	 0.015034863056903 
2278	 1.60847689328567E-02 
2279	 0.018997213578003 
2280	 1.91972972696519E-02 
2281	 1.76065951330845E-02 
2282	 1.73397238513226E-02 
2283	 1.64088176176363E-02 
2284	 1.43711337336952E-02 
2285	 0.014609727995195 
2286	 0.014778137897553 
2287	 1.09833471816753E-02 
2288	 1.04944111650877E-02 
2289	 1.42848971450692E-02 
2290	 1.42161661244094E-02 
2291	 0.014639130624212 
2292	 1.67924009446121E-02 
2293	 1.39807900965483E-02 
2294	 1.19629179789092E-02 
2295	 1.23627368100424E-02 
2296	 1.19968294121073E-02 
2297	 1.42487298506635E-02 
2298	 1.58399021004063E-02 
2299	 1.58265419437358E-02 
2300	 0.014106728417526 
2301	 1.09629872983154E-02 
2302	 9.65507606312961E-03 
2303	 1.02098456871544E-02 
2304	 1.40816466670229E-02 
2305	 1.83839774878384E-02 
2306	 2.07446041049547E-02 
2307	 2.29619828667606E-02 
2308	 0.024075718270076 
2309	 2.21083488610348E-02 
2310	 0.017822746399785 
2311	 1.50527456874849E-02 
2312	 1.56950945368864E-02 
2313	 1.71438694392624E-02 
2314	 1.70312459280561E-02 
2315	 1.73683320407923E-02 
2316	 1.31251055536914E-02 
2317	 7.59331870538544E-03 
2318	 9.29739480603228E-03 
2319	 6.86784029567865E-03 
2320	 3.2697544132619E-03 
2321	 3.86494889181982E-03 
2322	 1.42301797477743E-03 
2323	 2.38673276024134E-03 
2324	 7.09749772318836E-03 
2325	 8.74667418382629E-03 
2326	 1.11549903103575E-02 
2327	 1.41503611428188E-02 
2328	 1.14586651912963E-02 
2329	 8.71792225288652E-03 
2330	 1.06580472671764E-02 
2331	 1.32674738315154E-02 
2332	 1.59061855316786E-02 
2333	 1.51947619937382E-02 
2334	 1.06745736232505E-02 
2335	 7.48519821729038E-03 
2336	 4.58604954103976E-03 
2337	 1.82131031337259E-03 
2338	 5.13623164419971E-03 
2339	 9.20243151229339E-03 
2340	 9.84264825492451E-03 
2341	 1.64393653266314E-02 
2342	 1.85672434221175E-02 
2343	 1.24679284830101E-02 
2344	 9.87974006490013E-03 
2345	 1.03609978312739E-02 
2346	 1.07034622137513E-02 
2347	 2.96944906033463E-03 
2348	-3.52558612868656E-03 
2349	-3.22046592850373E-03 
2350	-2.96888470444445E-03 
2351	 1.08663040084698E-02 
2352	 2.67274869137645E-02 
2353	 1.66555537566586E-02 
2354	 3.54752832842706E-03 
2355	 1.29346234772828E-02 
2356	 1.90344661743536E-02 
2357	 2.12956285257855E-02 
2358	 2.89002429026764E-02 
2359	 2.06921895302989E-02 
2360	 1.30200104257024E-02 
2361	 0.017276086724469 
2362	 2.09141840547572E-02 
2363	 2.07560553982994E-02 
2364	 1.15827047191423E-02 
2365	 2.47993186402488E-03 
2366	-6.38835914018184E-03 
2367	-1.31218739061883E-02 
2368	-2.34972595345106E-03 
2369	 1.24732225967586E-02 
2370	 0.021397198029208 
2371	 2.42700292281093E-02 
2372	 1.73751260089135E-02 
2373	 5.77416157888297E-03 
2374	 2.32656053931594E-04 
2375	 1.16594524360266E-02 
2376	 2.22637611792464E-02 
2377	 2.03345265887984E-02 
2378	 1.50571376817406E-02 
2379	-1.60350688966584E-03 
2380	-1.70182021101889E-02 
2381	-1.71891917581175E-02 
2382	 1.79569060335195E-03 
2383	 2.96440687879826E-02 
2384	 3.39220015029827E-02 
2385	 1.82370382047833E-02 
2386	-3.50742632874837E-04 
2387	 2.16076651363848E-03 
2388	 1.85767117099234E-02 
2389	 2.71239650130293E-02 
2390	 3.87313353862845E-02 
2391	 2.86674329534295E-02 
2392	-8.10800995808806E-03 
2393	-2.63415778981588E-02 
2394	-0.02966109939341 
2395	-4.35889501793544E-02 
2396	-3.39722822985813E-02 
2397	-7.68746455757633E-03 
2398	 5.28801857920413E-04 
2399	-0.026781795466383 
2400	-4.79725032105333E-02 
2401	-4.24982739645865E-02 
2402	-7.52809123299615E-02 
2403	-7.28025214771247E-02 
2404	-4.53465323169612E-02 
2405	-3.72278398338669E-02 
2406	 3.16591924513537E-03 
2407	 3.14919102427305E-02 
2408	 4.04033097034366E-02 
2409	 1.36309242977835E-03 
2410	-4.15716196506472E-02 
2411	-2.96447024642304E-02 
2412	 2.64855293598451E-02 
2413	 8.98218799841175E-02 
2414	 0.110623714771696 
2415	 0.116604988327412 
2416	 8.18765321003035E-02 
2417	 0.074638675773865 
2418	 9.52740932118094E-02 
2419	 2.64958471150444E-02 
2420	-4.47122086966003E-02 
2421	-0.105589936773148 
2422	-0.13280605062627 
2423	-7.81988221321954E-02 
2424	-4.96556002998953E-02 
2425	-6.47589557309846E-02 
2426	-3.73161521158971E-02 
2427	-3.23773202305169E-02 
2428	-5.02404362941762E-02 
2429	 1.91974818247215E-02 
2430	 3.84839339692845E-02 
2431	-1.30403296141885E-02 
2432	 2.11602015812953E-02 
2433	-6.46551745496095E-02 
2434	-0.211868957233804 
2435	-0.271746981348004 
2436	-0.336284141868292 
2437	-0.307051078829377 
2438	-0.211673468808823 
2439	-0.124000836003853 
2440	-1.30453321173302E-02 
2441	 7.23528434924989E-02 
2442	 0.042117586988841 
2443	 4.37003694378576E-02 
2444	-7.08555154614615E-02 
2445	-0.291118421291581 
2446	-0.435078627291329 
2447	-0.775760556480411 
2448	-0.919836880068022 
2449	-0.619334875472346 
2450	-0.766871145480198 
2451	-1.55762617815231 
2452	-2.20357895488604 
2453	-1.31476819640061 
2454	-0.819821434688021 
2455	-0.779570769356802 
2456	-0.757704809263181 
2457	-0.708116052892401 
2458	-0.84511189569544 
2459	-0.46212157401924 
2460	-7.60156317285868E-02 
2461	-0.175966253829179 
2462	-0.195861328114761 
2463	-0.333391127174269 
2464	-0.738178618910943 
2465	-1.10114261940072 
2466	-3.5579477857444 
2467	-17.3835392925479 
2468	-1.07621595352557 
2469	-0.510775134269755 
2470	-1.11334011820658 
2471	 40.4023422905076 
2472	 1.95655073117064 
2473	 2.36777006316246 
2474	 1.89256005782339 
2475	 6.4248828963281 
2476	 3.44132922610895 
2477	 1.85114397102376 
2478	 3.58320422326236 
2479	 11.6561086400652 
2480	 4.26578679931603 
2481	-33.0439083578317 
2482	 0.722279537562887 
2483	 0.304867503781425 
2484	 6.23266827596884 
2485	 38.5614444271244 
2486	 28.2026287586188 
2487	-1.31023310937486 
2488	 0.961005085684245 
2489	-2.03737164883255 
2490	-0.21589059248956 
2491	 1.0759805661051 
2492	 1.43689307024391 
2493	 1.16714196445948 
2494	 1.42385739448182 
2495	 1.3302151728791 
2496	 0.577479297880761 
2497	 0.425967536232158 
2498	 0.389348207797619 
2499	 0.449752654009788 
2500	 0.932858148275905 
