Wavelength	rt0713west_far_sunny_300009.asd
350	 0.073701025157977 
351	 7.30138286073832E-02 
352	 7.25084336304367E-02 
353	 7.26618766232906E-02 
354	 7.31460063387299E-02 
355	 7.22649814304863E-02 
356	 7.17689427159026E-02 
357	 7.16973590264198E-02 
358	 7.16186266316562E-02 
359	 0.071580185606616 
360	 7.16310890399445E-02 
361	 7.16117175718566E-02 
362	 7.12718733139112E-02 
363	 7.08423380017879E-02 
364	 0.070762455969739 
365	 7.10512686959924E-02 
366	 7.11026089367484E-02 
367	 7.08081620466757E-02 
368	 7.05390078102471E-02 
369	 7.05552114440785E-02 
370	 7.01665677807315E-02 
371	 7.02981653608153E-02 
372	 7.05904688867691E-02 
373	 7.01208107349091E-02 
374	 7.01553879809288E-02 
375	 0.070314790294348 
376	 7.02533743990871E-02 
377	 0.069924060384607 
378	 6.99811588128207E-02 
379	 6.99949692821658E-02 
380	 6.97169759824911E-02 
381	 7.03576131894235E-02 
382	 7.03871181628625E-02 
383	 7.01053471984456E-02 
384	 7.04766118993912E-02 
385	 7.03375765451635E-02 
386	 7.00551153398437E-02 
387	 7.00191138611087E-02 
388	 7.04510592233147E-02 
389	 7.02937172862917E-02 
390	 0.07004457003698 
391	 7.02038766800881E-02 
392	 7.05455721341039E-02 
393	 7.06649674611917E-02 
394	 7.05879670727061E-02 
395	 7.05170471687235E-02 
396	 7.05099749057486E-02 
397	 7.05953580466311E-02 
398	 7.06950674738464E-02 
399	 7.06593559165766E-02 
400	 7.05448095443049E-02 
401	 7.05571053934151E-02 
402	 7.07536698589445E-02 
403	 7.08517796140122E-02 
404	 0.070849885147998 
405	 7.08155108704196E-02 
406	 7.08304466060369E-02 
407	 7.08365116193184E-02 
408	 7.09258963737723E-02 
409	 7.10443431084863E-02 
410	 7.10061096122241E-02 
411	 7.10681832355455E-02 
412	 7.11346904014107E-02 
413	 7.11276263538925E-02 
414	 7.11414910613727E-02 
415	 0.071381729031534 
416	 7.16238458735763E-02 
417	 7.15836079793164E-02 
418	 7.17902650834813E-02 
419	 7.19689739528558E-02 
420	 7.20377988841533E-02 
421	 7.21766348165291E-02 
422	 7.23049211204986E-02 
423	 7.25128267965194E-02 
424	 7.28259276717189E-02 
425	 7.29995045671449E-02 
426	 7.32451423427437E-02 
427	 7.35231929589876E-02 
428	 7.37093510091027E-02 
429	 7.40290388303966E-02 
430	 7.42129433969897E-02 
431	 7.42992333949714E-02 
432	 0.074722550899373 
433	 0.074974221221716 
434	 7.51596371060052E-02 
435	 7.54493450928659E-02 
436	 7.57906209377069E-02 
437	 7.61212922139501E-02 
438	 7.64027765016511E-02 
439	 7.66237325412416E-02 
440	 7.68528906881725E-02 
441	 7.71800410925534E-02 
442	 7.75635391332809E-02 
443	 0.077770686972877 
444	 7.80297339596526E-02 
445	 7.83108972311506E-02 
446	 7.85467072831966E-02 
447	 0.078817799579233 
448	 7.90490486269035E-02 
449	 7.92272808895986E-02 
450	 7.93984546976642E-02 
451	 7.97081787836858E-02 
452	 7.99697761362825E-02 
453	 0.080088995589227 
454	 8.02462840582324E-02 
455	 8.04827686734412E-02 
456	 8.07074680565779E-02 
457	 0.0808137810759 
458	 8.09274023985108E-02 
459	 8.10318176461492E-02 
460	 8.11442984309543E-02 
461	 8.13155384030758E-02 
462	 8.14288247909839E-02 
463	 8.15309253999563E-02 
464	 8.16803287453091E-02 
465	 8.18844441278772E-02 
466	 8.20161714331512E-02 
467	 8.20893731611679E-02 
468	 8.21905046744933E-02 
469	 8.23357897277781E-02 
470	 8.24793921073722E-02 
471	 8.26014764671605E-02 
472	 8.27248449936874E-02 
473	 8.28756449171103E-02 
474	 0.083047853538345 
475	 8.32318106349635E-02 
476	 0.083446410387002 
477	 8.36341658688901E-02 
478	 0.083820353283743 
479	 8.40757866160961E-02 
480	 8.42780987151628E-02 
481	 8.45484727103221E-02 
482	 8.49053852379456E-02 
483	 8.50862569822031E-02 
484	 8.53470604515497E-02 
485	 8.56486988844384E-02 
486	 8.58887199536085E-02 
487	 8.62415279710025E-02 
488	 8.65878601882206E-02 
489	 8.68671721228085E-02 
490	 8.70986417953109E-02 
491	 8.74199211303505E-02 
492	 8.78049201572179E-02 
493	 8.81869391233125E-02 
494	 0.088484085151108 
495	 8.88649925440431E-02 
496	 8.92974788882667E-02 
497	 8.96552029599022E-02 
498	 8.99676395787146E-02 
499	 9.02983412853763E-02 
500	 9.06638019882687E-02 
501	 9.10034374149702E-02 
502	 9.13114774024084E-02 
503	 9.17014796794735E-02 
504	 9.22299410167565E-02 
505	 9.25796323052504E-02 
506	 0.093011407194943 
507	 9.35367111622358E-02 
508	 9.39654845957631E-02 
509	 9.43526092957795E-02 
510	 9.47760598086741E-02 
511	 9.52797033781273E-02 
512	 9.58383265898588E-02 
513	 9.63305010993758E-02 
514	 0.096791924378368 
515	 0.09732276312038 
516	 9.79256565253504E-02 
517	 9.84994384761184E-02 
518	 9.89945824291467E-02 
519	 9.94405137283321E-02 
520	 0.100027690150069 
521	 0.100599958386472 
522	 0.101037044974081 
523	 0.101619999223731 
524	 0.102204594253454 
525	 0.102767322408849 
526	 0.103368438862398 
527	 0.103937004775406 
528	 0.104507885920851 
529	 0.105093540451427 
530	 0.105629234297622 
531	 0.106199459012416 
532	 0.106835017672066 
533	 0.107519077311414 
534	 0.108121572208057 
535	 0.108649106105521 
536	 0.109173024236488 
537	 0.109817215166734 
538	 0.11039080626652 
539	 0.110938972474911 
540	 0.111533714044977 
541	 0.112138146168811 
542	 0.112746086090471 
543	 0.113339050938766 
544	 0.113904547078794 
545	 0.114540830185234 
546	 0.115192820416232 
547	 0.115802166379034 
548	 0.116335632991806 
549	 0.116938873213233 
550	 0.1175596857802 
551	 0.118108685487192 
552	 0.118724428666031 
553	 0.119328693064496 
554	 0.119908934145051 
555	 0.120534745451799 
556	 0.121099554489492 
557	 0.121627213019006 
558	 0.122159085173185 
559	 0.122704165511331 
560	 0.123229156283224 
561	 0.123692413883492 
562	 0.124064764454904 
563	 0.124453485201211 
564	 0.124865488120854 
565	 0.125246641344179 
566	 0.125444904320159 
567	 0.125697058224073 
568	 0.125989253127911 
569	 0.126240772971477 
570	 0.126579286192224 
571	 0.126870800718652 
572	 0.127055624247385 
573	 0.12717240780756 
574	 0.127345021340456 
575	 0.127565103411231 
576	 0.127772499502109 
577	 0.127864688279307 
578	 0.127945867526912 
579	 0.128044146194556 
580	 0.128120478544015 
581	 0.127997921152053 
582	 0.127797920916665 
583	 0.127602689625299 
584	 0.127361092150228 
585	 0.126978339128126 
586	 0.12643983947426 
587	 0.125780249253558 
588	 0.125117021134212 
589	 0.124610014380013 
590	 0.124312512215833 
591	 0.124112929053059 
592	 0.123686302084651 
593	 0.123157774817964 
594	 0.122662834831828 
595	 0.122017284749524 
596	 0.121279581536478 
597	 0.120476735793813 
598	 0.119637206745627 
599	 0.118890299327941 
600	 0.118206880967137 
601	 0.11759891800169 
602	 0.117185593139103 
603	 0.116851801448369 
604	 0.11660978922862 
605	 0.116496627881731 
606	 0.116460077477967 
607	 0.116384553010715 
608	 0.116274629402129 
609	 0.11625627141763 
610	 0.116201549589234 
611	 0.116117994040383 
612	 0.116052077753196 
613	 0.116086776668407 
614	 0.116073915526775 
615	 0.1159884091453 
616	 0.115890068941004 
617	 0.115884739096093 
618	 0.115832533939352 
619	 0.115695072875218 
620	 0.11564045090012 
621	 0.115582969526819 
622	 0.115512233729556 
623	 0.115422562001052 
624	 0.115223991904001 
625	 0.115028728670858 
626	 0.114871925453036 
627	 0.114711710327557 
628	 0.114619399017728 
629	 0.114616994963482 
630	 0.114656771428164 
631	 0.114535901223646 
632	 0.114483865192391 
633	 0.114477359486915 
634	 0.114395785831749 
635	 0.114393293585671 
636	 0.11435664827652 
637	 0.114219108530707 
638	 0.114008790036821 
639	 0.113889130918821 
640	 0.113782204365982 
641	 0.113574961357527 
642	 0.113343914374468 
643	 0.113041960193236 
644	 0.112632287548683 
645	 0.112102995345872 
646	 0.111637038233008 
647	 0.111319037428409 
648	 0.111160048789859 
649	 0.111080468892532 
650	 0.110818388835309 
651	 0.11046161765828 
652	 0.110198515283882 
653	 0.109760945987174 
654	 0.109190170237663 
655	 0.108571374121458 
656	 0.108096836747806 
657	 0.10758122707059 
658	 0.107110977059165 
659	 0.106763427944761 
660	 0.106486739501466 
661	 0.106166202066858 
662	 0.105816386344529 
663	 0.105545074397449 
664	 0.105419823961962 
665	 0.105297212201159 
666	 0.10509147158811 
667	 0.104869017713592 
668	 0.104642028738871 
669	 0.104497113020101 
670	 0.104482534358926 
671	 0.104351996459908 
672	 0.104231267238853 
673	 0.10417270731492 
674	 0.104139614840977 
675	 0.104031751987808 
676	 0.103979039968208 
677	 0.10403427275721 
678	 0.103940673494366 
679	 0.103852456830499 
680	 0.103845663323444 
681	 0.103930047636654 
682	 0.103916506671776 
683	 0.103905728970867 
684	 0.103860808401235 
685	 0.103505980057925 
686	 0.103160746564738 
687	 0.10299259271576 
688	 0.102992284611226 
689	 0.102860644903346 
690	 0.102512824851243 
691	 0.101961641074239 
692	 0.101297063106733 
693	 0.10074592393053 
694	 0.100451018910239 
695	 0.100302122791564 
696	 9.98691303076099E-02 
697	 9.90790278553171E-02 
698	 9.80587237484187E-02 
699	 9.70791712471085E-02 
700	 9.62449654720469E-02 
701	 0.095518982419454 
702	 9.48148701994637E-02 
703	 9.39939648321031E-02 
704	 9.28986911734542E-02 
705	 9.17713796732958E-02 
706	 9.07773766772416E-02 
707	 8.97053565365503E-02 
708	 8.84726785697556E-02 
709	 8.71141839618223E-02 
710	 0.085693629398019 
711	 0.084100800364374 
712	 8.23843295967448E-02 
713	 8.05244568260998E-02 
714	 7.83627415473011E-02 
715	 7.59730026072505E-02 
716	 7.32923895974949E-02 
717	 7.06572514460848E-02 
718	 6.86465169601296E-02 
719	 6.71612882881117E-02 
720	 6.60162437673275E-02 
721	 6.47716717580945E-02 
722	 6.30907782556263E-02 
723	 6.09991981479017E-02 
724	 0.058955518407095 
725	 5.72640833323118E-02 
726	 5.55403874762188E-02 
727	 5.37398243472334E-02 
728	 5.19231049679742E-02 
729	 5.00810249039856E-02 
730	 4.85296319429259E-02 
731	 4.73795345998293E-02 
732	 4.64515989568391E-02 
733	 4.53477756277983E-02 
734	 4.43130488354688E-02 
735	 4.35245828273313E-02 
736	 4.30006382913216E-02 
737	 4.26650605652474E-02 
738	 4.24699326646747E-02 
739	 4.23699038590476E-02 
740	 4.22790719222653E-02 
741	 4.22868127904536E-02 
742	 4.23130000807443E-02 
743	 4.22228521018857E-02 
744	 4.22092728193402E-02 
745	 0.042116912224357 
746	 4.19708636945218E-02 
747	 4.20763784422171E-02 
748	 4.21316817911432E-02 
749	 4.20880639181552E-02 
750	 4.19837733213306E-02 
751	 4.18984649713319E-02 
752	 4.18894657986603E-02 
753	 4.19094077534248E-02 
754	 4.18624822096904E-02 
755	 4.18055042728456E-02 
756	 4.17035461770568E-02 
757	 0.041465071037756 
758	 4.07758879103314E-02 
759	 3.97910418464193E-02 
760	 3.89352528403822E-02 
761	 3.89512697489558E-02 
762	 3.91362095430989E-02 
763	 3.94787243056025E-02 
764	 4.00232110637322E-02 
765	 4.07367081107571E-02 
766	 4.11345302945938E-02 
767	 4.13813038275331E-02 
768	 0.041609766334666 
769	 4.18974280139433E-02 
770	 4.20122551838549E-02 
771	 0.042100053511985 
772	 4.22628926063119E-02 
773	 4.22501722761741E-02 
774	 4.23668400280192E-02 
775	 4.25609951141037E-02 
776	 4.26601685834961E-02 
777	 4.27938724110758E-02 
778	 4.29794683229553E-02 
779	 4.31911209478575E-02 
780	 4.33668001750045E-02 
781	 4.34399758362128E-02 
782	 4.34931180404282E-02 
783	 4.35893736259933E-02 
784	 4.36825005576703E-02 
785	 4.37898364743119E-02 
786	 4.38665741622386E-02 
787	 4.38867846137604E-02 
788	 4.40200201101586E-02 
789	 4.42510695942956E-02 
790	 4.45556664513867E-02 
791	 4.49093194959231E-02 
792	 4.52958172707106E-02 
793	 4.55883398922703E-02 
794	 4.57519067703069E-02 
795	 4.59010758370843E-02 
796	 4.61709528604519E-02 
797	 4.63810608835066E-02 
798	 4.64220593846519E-02 
799	 4.67377140790809E-02 
800	 4.68711816080628E-02 
801	 4.68646241696987E-02 
802	 4.70330346995693E-02 
803	 4.73352998976275E-02 
804	 4.75265566566538E-02 
805	 4.75758457749751E-02 
806	 4.76911949946168E-02 
807	 0.047676817722648 
808	 4.74285248451969E-02 
809	 4.69743414856368E-02 
810	 4.66187213386399E-02 
811	 4.63202184176132E-02 
812	 4.58579797833002E-02 
813	 4.50349079162512E-02 
814	 4.44190267173126E-02 
815	 4.39973862090858E-02 
816	 4.36656168892307E-02 
817	 0.043310088982447 
818	 4.32815568457635E-02 
819	 4.32846752569899E-02 
820	 4.30067429209906E-02 
821	 4.21466380340677E-02 
822	 0.041327987051313 
823	 4.06049651608714E-02 
824	 3.99190287062784E-02 
825	 3.93694276066012E-02 
826	 3.83009637374655E-02 
827	 3.70628012577188E-02 
828	 3.63301176515775E-02 
829	 3.54611236065089E-02 
830	 0.034815567838756 
831	 3.44790262066176E-02 
832	 3.42855247244231E-02 
833	 0.033895653216018 
834	 3.35621855078422E-02 
835	 3.34159343216222E-02 
836	 3.33372312128658E-02 
837	 0.033244849243164 
838	 3.31759474733158E-02 
839	 3.31895279968264E-02 
840	 3.33624875130552E-02 
841	 3.32242803369634E-02 
842	 3.29781819292003E-02 
843	 0.032974542513726 
844	 3.29312430474259E-02 
845	 3.29001215574478E-02 
846	 3.28402150828112E-02 
847	 3.26763211357853E-02 
848	 3.26812094665978E-02 
849	 3.25430419371038E-02 
850	 3.22545018128415E-02 
851	 0.032251606856993 
852	 3.23119957202855E-02 
853	 3.22798613678896E-02 
854	 3.21212271018891E-02 
855	 0.032023547615401 
856	 3.19786218215996E-02 
857	 3.19863111831266E-02 
858	 3.20198351194264E-02 
859	 3.19878152489683E-02 
860	 3.18007878426924E-02 
861	 3.16250824841409E-02 
862	 3.16635858418608E-02 
863	 3.14967922246945E-02 
864	 3.13631988580871E-02 
865	 0.031310118460394 
866	 3.11870630158409E-02 
867	 3.11178888193255E-02 
868	 3.11419206086863E-02 
869	 3.11668022292171E-02 
870	 3.09654106540613E-02 
871	 3.07730380041835E-02 
872	 3.06854478536219E-02 
873	 3.06849723885042E-02 
874	 3.05746750388366E-02 
875	 3.05858192509254E-02 
876	 3.05055144324006E-02 
877	 3.01737498804868E-02 
878	 3.01100976960497E-02 
879	 3.00686914396357E-02 
880	 2.99441668086136E-02 
881	 0.02972953580246 
882	 2.95065690871124E-02 
883	 2.94432321249077E-02 
884	 2.94519031077686E-02 
885	 2.92928606825701E-02 
886	 0.029191893846469 
887	 2.91508706145688E-02 
888	 2.91169194094328E-02 
889	 2.90042525738982E-02 
890	 2.87465326831628E-02 
891	 2.84110740607832E-02 
892	 2.80697809671917E-02 
893	 2.77524398984782E-02 
894	 2.69658004834722E-02 
895	 2.62629882012319E-02 
896	 2.61925485011173E-02 
897	 2.61228558428252E-02 
898	 2.59118001692984E-02 
899	 2.56188618652989E-02 
900	 0.025463635878714 
901	 2.58173034762955E-02 
902	 2.58030065159875E-02 
903	 2.55207871652824E-02 
904	 2.54050745054994E-02 
905	 2.54785167239483E-02 
906	 2.55335638098954E-02 
907	 2.54465139241935E-02 
908	 2.51791295307622E-02 
909	 0.024761900766261 
910	 2.41420443076137E-02 
911	 2.37406294665162E-02 
912	 2.41880878142479E-02 
913	 2.42270461941894E-02 
914	 2.40775412365475E-02 
915	 2.41088888092839E-02 
916	 2.45046817022623E-02 
917	 2.42402165702166E-02 
918	 2.38074374305163E-02 
919	 2.37951515511482E-02 
920	 2.45444196250098E-02 
921	 2.45195333027441E-02 
922	 2.39456909250332E-02 
923	 2.34609044165877E-02 
924	 2.38247050848921E-02 
925	 0.022935934049749 
926	 2.20528892400829E-02 
927	 2.24561796146501E-02 
928	 2.07985242415856E-02 
929	 2.05549826611037E-02 
930	 2.11992706463152E-02 
931	 2.03745623528453E-02 
932	 2.27916512671787E-02 
933	 2.24149928964876E-02 
934	 1.93683265214271E-02 
935	 1.78692641222608E-02 
936	 1.70770902471011E-02 
937	 1.69235754615362E-02 
938	 1.70058112652438E-02 
939	 1.70639696669443E-02 
940	 1.75333528467161E-02 
941	 1.70877409630185E-02 
942	 1.72074568019109E-02 
943	 1.96306400043851E-02 
944	 1.87496854046166E-02 
945	 1.65137990281171E-02 
946	 1.60022445003428E-02 
947	 1.88195273590892E-02 
948	 0.018599568266729 
949	 1.80118632068269E-02 
950	 0.017519927421374 
951	 1.63282142792548E-02 
952	 1.68467804029624E-02 
953	 0.017945180028577 
954	 1.88660425253079E-02 
955	 1.93340178130677E-02 
956	 1.89813608220696E-02 
957	 1.83291957492623E-02 
958	 1.87629616762659E-02 
959	 2.11287939835487E-02 
960	 1.98886961083498E-02 
961	 1.86070049121351E-02 
962	 1.94915597782785E-02 
963	 2.21111699428287E-02 
964	 2.08187002101166E-02 
965	 2.11011135782051E-02 
966	 2.26267353553174E-02 
967	 2.12546068387926E-02 
968	 2.08127269037296E-02 
969	 0.021427191391385 
970	 2.22318451140556E-02 
971	 2.20516457644452E-02 
972	 2.16655006693953E-02 
973	 0.021902884785805 
974	 2.26832792867718E-02 
975	 2.30339261075432E-02 
976	 0.022567248228508 
977	 2.13864569225063E-02 
978	 2.07841463228258E-02 
979	 0.022284139664676 
980	 2.31730495721447E-02 
981	 2.26074584479676E-02 
982	 0.021705286308891 
983	 2.25033993804407E-02 
984	 2.34847964914869E-02 
985	 2.40122885453778E-02 
986	 2.43128630761935E-02 
987	 2.49014768420487E-02 
988	 2.36019817943451E-02 
989	 0.023586451818371 
990	 0.024695103371557 
991	 2.43612163229992E-02 
992	 2.44084983259324E-02 
993	 2.40197298736246E-02 
994	 2.36026986147243E-02 
995	 2.41616070823215E-02 
996	 2.41338220155596E-02 
997	 2.48640194094325E-02 
998	 2.53440893133257E-02 
999	 2.39766536590578E-02 
1000	 2.47391648154594E-02 
1001	 2.29316128024186E-02 
1002	 2.27120217151843E-02 
1003	 2.26570464306724E-02 
1004	 2.29564487597638E-02 
1005	 2.30015453208964E-02 
1006	 2.28792458105933E-02 
1007	 2.27826138871264E-02 
1008	 2.29272687377507E-02 
1009	 2.26891039952744E-02 
1010	 2.23200138379702E-02 
1011	 2.21382710135091E-02 
1012	 2.17210502362238E-02 
1013	 2.17623874454502E-02 
1014	 2.17965259307502E-02 
1015	 0.021914546941417 
1016	 2.22313543912642E-02 
1017	 2.29588706905633E-02 
1018	 0.023167747828004 
1019	 0.02347368152657 
1020	 2.35842053939498E-02 
1021	 2.33393186722101E-02 
1022	 2.28966827940909E-02 
1023	 2.28950897048324E-02 
1024	 2.25864890245152E-02 
1025	 2.23143706787011E-02 
1026	 2.23817143766849E-02 
1027	 2.23449212162057E-02 
1028	 2.24065470286985E-02 
1029	 2.23023435127297E-02 
1030	 2.21397289005609E-02 
1031	 2.19781166925716E-02 
1032	 2.14907505664186E-02 
1033	 2.15758106379805E-02 
1034	 2.21011091315519E-02 
1035	 2.23421419238779E-02 
1036	 2.28960226603121E-02 
1037	 0.023124016015201 
1038	 2.30265263831959E-02 
1039	 2.29023793451227E-02 
1040	 2.27760831996383E-02 
1041	 2.27538200960598E-02 
1042	 2.26226107461106E-02 
1043	 2.23898389654886E-02 
1044	 2.22994330698342E-02 
1045	 2.21962669342014E-02 
1046	 2.21780337407826E-02 
1047	 2.22728690111955E-02 
1048	 0.022375746290893 
1049	 2.25915161417648E-02 
1050	 2.26626631472378E-02 
1051	 2.27127137306706E-02 
1052	 2.27507959113958E-02 
1053	 2.25990322128745E-02 
1054	 2.25982767848727E-02 
1055	 2.27337355937603E-02 
1056	 0.022824035740804 
1057	 0.022925594080139 
1058	 2.32061720513275E-02 
1059	 2.30397139519052E-02 
1060	 2.25375042906093E-02 
1061	 2.23962013923881E-02 
1062	 2.20867521820839E-02 
1063	 2.20176256777416E-02 
1064	 2.24530586686882E-02 
1065	 2.24603898985955E-02 
1066	 2.21561940723316E-02 
1067	 2.20920772853259E-02 
1068	 2.19394916058107E-02 
1069	 2.19595970998575E-02 
1070	 2.24728710742307E-02 
1071	 0.022549507207431 
1072	 2.26131738553869E-02 
1073	 2.22179114485706E-02 
1074	 2.21137968916993E-02 
1075	 2.17580467216851E-02 
1076	 2.16962488399297E-02 
1077	 2.19834643804671E-02 
1078	 2.19686280224258E-02 
1079	 2.17608763763568E-02 
1080	 2.17283353074489E-02 
1081	 2.18643616690996E-02 
1082	 2.17188911198164E-02 
1083	 2.13496709804828E-02 
1084	 2.12452397626057E-02 
1085	 2.09611391052594E-02 
1086	 2.09187387044848E-02 
1087	 2.15859951646614E-02 
1088	 2.17412855851081E-02 
1089	 2.19422624297709E-02 
1090	 2.13641854143953E-02 
1091	 2.11558611212052E-02 
1092	 2.06410410269513E-02 
1093	 2.04442904357565E-02 
1094	 2.06038809040358E-02 
1095	 2.04550875289148E-02 
1096	 1.99957267469285E-02 
1097	 1.99031250479443E-02 
1098	 2.00263773976547E-02 
1099	 1.99391883491957E-02 
1100	 2.01251606789807E-02 
1101	 2.00869387622058E-02 
1102	 1.94817124051829E-02 
1103	 1.91945748602813E-02 
1104	 1.93250513411613E-02 
1105	 1.88691867208919E-02 
1106	 1.82839937082759E-02 
1107	 1.84260726286721E-02 
1108	 1.81241996883176E-02 
1109	 0.018095503737923 
1110	 0.017894713480955 
1111	 1.75450052986121E-02 
1112	 1.74412810077778E-02 
1113	 1.75800546369168E-02 
1114	 1.74258274756055E-02 
1115	 0.01774644114936 
1116	 1.77246457638481E-02 
1117	 1.58870119059317E-02 
1118	 1.52223612098178E-02 
1119	 1.72934647108683E-02 
1120	 1.70845083002735E-02 
1121	 1.45915846418661E-02 
1122	 1.37034135377144E-02 
1123	 1.64910817258808E-02 
1124	 1.44029568789342E-02 
1125	 1.36653690066609E-02 
1126	 1.57709466478134E-02 
1127	 1.25510245848123E-02 
1128	 9.14372559738559E-03 
1129	 9.42497702473639E-03 
1130	 1.40160999173186E-02 
1131	 1.55207118266153E-02 
1132	 1.67948945043948E-02 
1133	 1.63591402537597E-02 
1134	 1.43569072881179E-02 
1135	 1.42951779368182E-02 
1136	 1.50239967260835E-02 
1137	 1.52200377382806E-02 
1138	 1.60212768476843E-02 
1139	 1.58978209625757E-02 
1140	 1.66247731795702E-02 
1141	 1.47379771672851E-02 
1142	 1.31972691696008E-02 
1143	 1.52489606820166E-02 
1144	 1.65857604555837E-02 
1145	 1.60006595817827E-02 
1146	 1.63226748751998E-02 
1147	 1.66223189280851E-02 
1148	 1.47770945335493E-02 
1149	 1.45351651792501E-02 
1150	 1.50085108575402E-02 
1151	 1.64927376921386E-02 
1152	 1.64285304687866E-02 
1153	 1.66451774354557E-02 
1154	 1.64635028690561E-02 
1155	 1.55793929019686E-02 
1156	 1.49141703018401E-02 
1157	 1.60855324457364E-02 
1158	 1.71593684694957E-02 
1159	 1.78402623330973E-02 
1160	 1.84382299625645E-02 
1161	 1.80742762492367E-02 
1162	 1.77182863741037E-02 
1163	 0.018086728345464 
1164	 1.86021418708877E-02 
1165	 1.89251972835205E-02 
1166	 1.89363854690098E-02 
1167	 1.88700137881745E-02 
1168	 1.87317319859999E-02 
1169	 1.86459905596123E-02 
1170	 1.91068458010958E-02 
1171	 1.93033088251154E-02 
1172	 1.92824753876156E-02 
1173	 1.93530820439964E-02 
1174	 1.95527522114248E-02 
1175	 0.019675467890099 
1176	 1.92313844566968E-02 
1177	 1.92333147441445E-02 
1178	 1.96882419018122E-02 
1179	 1.96989313441185E-02 
1180	 1.97938924747317E-02 
1181	 2.00146658714123E-02 
1182	 1.97848164896274E-02 
1183	 0.019458088728132 
1184	 1.93755659440004E-02 
1185	 1.96265501880285E-02 
1186	 1.98189099104207E-02 
1187	 1.98293458804602E-02 
1188	 1.99012415602872E-02 
1189	 1.99338057196178E-02 
1190	 1.99659414720273E-02 
1191	 1.99557761612787E-02 
1192	 1.99394667260729E-02 
1193	 1.98793966688761E-02 
1194	 1.99568577527316E-02 
1195	 2.00848049659456E-02 
1196	 2.00493746983148E-02 
1197	 1.99375936408408E-02 
1198	 1.99317651084986E-02 
1199	 1.99001327826771E-02 
1200	 0.019895270824888 
1201	 2.01403979180453E-02 
1202	 2.02030563843556E-02 
1203	 0.019920131767558 
1204	 1.99132914069143E-02 
1205	 2.01330957247409E-02 
1206	 2.01043326324215E-02 
1207	 2.00640054586147E-02 
1208	 2.00674756895029E-02 
1209	 1.98217045532874E-02 
1210	 0.019872307579051 
1211	 0.020172274714718 
1212	 2.01584986394772E-02 
1213	 2.02480447796896E-02 
1214	 2.03008327600801E-02 
1215	 2.02568412221459E-02 
1216	 2.00794309955676E-02 
1217	 0.020237101946406 
1218	 2.03376754077562E-02 
1219	 2.02923112784181E-02 
1220	 2.03588885719756E-02 
1221	 2.03570034395657E-02 
1222	 2.04205067378392E-02 
1223	 2.06872817903065E-02 
1224	 0.020724535857837 
1225	 2.05876346809497E-02 
1226	 2.07472476724342E-02 
1227	 2.09068370628386E-02 
1228	 0.020768839552389 
1229	 2.08521091613245E-02 
1230	 2.10080584596833E-02 
1231	 2.07938040106368E-02 
1232	 2.07660630424031E-02 
1233	 2.09333168454259E-02 
1234	 0.020905657916172 
1235	 2.09350960704034E-02 
1236	 2.10704672616896E-02 
1237	 2.11222537619435E-02 
1238	 2.11453892878789E-02 
1239	 2.11087440890619E-02 
1240	 2.11608047989099E-02 
1241	 0.021162725351782 
1242	 2.10992040130379E-02 
1243	 2.10598132655392E-02 
1244	 2.10546698862939E-02 
1245	 2.10595278325521E-02 
1246	 2.11051466351636E-02 
1247	 2.12139356642578E-02 
1248	 2.12505845697259E-02 
1249	 2.11213930508219E-02 
1250	 2.10517721252894E-02 
1251	 2.10764118849042E-02 
1252	 2.08965427854521E-02 
1253	 2.07609956629985E-02 
1254	 2.08252409176211E-02 
1255	 2.08596327091844E-02 
1256	 2.07955251811095E-02 
1257	 2.06447238259922E-02 
1258	 0.020653302548739 
1259	 2.07012908271252E-02 
1260	 2.05653451444134E-02 
1261	 2.04471019857422E-02 
1262	 2.05293425085087E-02 
1263	 2.06471800660064E-02 
1264	 2.04312145489688E-02 
1265	 0.020375598907127 
1266	 2.04652578995384E-02 
1267	 0.020427831831905 
1268	 2.04028666001559E-02 
1269	 2.05118188516704E-02 
1270	 2.04712746427587E-02 
1271	 2.03332664833473E-02 
1272	 2.03752407328752E-02 
1273	 2.03467230265219E-02 
1274	 2.02948498951056E-02 
1275	 2.04150372398813E-02 
1276	 2.04239286277333E-02 
1277	 0.020328735669579 
1278	 2.02700446994378E-02 
1279	 2.02219131612901E-02 
1280	 2.03704536904424E-02 
1281	 0.02032420604783 
1282	 2.04566892881068E-02 
1283	 2.05150136053983E-02 
1284	 2.02798574942721E-02 
1285	 2.01645524850275E-02 
1286	 2.03269327500912E-02 
1287	 2.03611304699327E-02 
1288	 2.01460865853595E-02 
1289	 2.00831874152999E-02 
1290	 2.00517696157885E-02 
1291	 2.02663888729335E-02 
1292	 2.03177387171726E-02 
1293	 2.01635424993499E-02 
1294	 2.00640223760192E-02 
1295	 2.00373379417365E-02 
1296	 2.00860702929357E-02 
1297	 2.00561088722653E-02 
1298	 1.96389176253293E-02 
1299	 1.92339013178557E-02 
1300	 1.92873595082494E-02 
1301	 1.93503256314122E-02 
1302	 1.93177703890209E-02 
1303	 1.93735771895462E-02 
1304	 1.91458612335805E-02 
1305	 1.86762375841625E-02 
1306	 0.018507008030353 
1307	 1.87909037608516E-02 
1308	 1.87253796053402E-02 
1309	 1.85712803355455E-02 
1310	 1.83357436225091E-02 
1311	 1.78211392281733E-02 
1312	 0.017643081698505 
1313	 1.76064865585261E-02 
1314	 1.74513565656712E-02 
1315	 1.74126626471663E-02 
1316	 1.73853626505044E-02 
1317	 0.017319923504401 
1318	 1.72688819511954E-02 
1319	 1.72412100681601E-02 
1320	 1.72773884924584E-02 
1321	 1.73465211357123E-02 
1322	 1.72917205187155E-02 
1323	 1.71274138392073E-02 
1324	 1.75208326568438E-02 
1325	 1.75959661033097E-02 
1326	 1.71471084149874E-02 
1327	 1.70343666990619E-02 
1328	 1.67186785642516E-02 
1329	 1.59098037465756E-02 
1330	 0.015087577357718 
1331	 1.47974059958385E-02 
1332	 1.52756307092949E-02 
1333	 1.54099750106217E-02 
1334	 1.50706503788911E-02 
1335	 1.51929161783831E-02 
1336	 1.49056032939847E-02 
1337	 1.47238649254091E-02 
1338	 1.50790880172986E-02 
1339	 1.53792109347309E-02 
1340	 1.53912820692877E-02 
1341	 1.52404582071496E-02 
1342	 1.54082550822745E-02 
1343	 0.015748766255173 
1344	 1.54496272889126E-02 
1345	 1.53645242691691E-02 
1346	 1.67670790660062E-02 
1347	 1.71474155442882E-02 
1348	 1.50446830637061E-02 
1349	 0.013983899496302 
1350	 1.46865026399743E-02 
1351	 0.014667884615014 
1352	 1.37731154924041E-02 
1353	 1.27941960825153E-02 
1354	 1.09045571741198E-02 
1355	-3.37370520842098E-03 
1356	-1.82906977326256E-02 
1357	 4.84254990501106E-02 
1358	 9.02352837902876E-02 
1359	 1.78423002255176E-02 
1360	 1.51527867808246E-03 
1361	 2.99300861453782E-02 
1362	 9.88370273961498E-02 
1363	 0.181241182564113 
1364	 0.101898727982823 
1365	-5.83475042321525E-03 
1366	 9.92196034556656E-02 
1367	 0.285553675554882 
1368	 0.174275468122255 
1369	-9.83305624285618E-02 
1370	-0.104169588232162 
1371	-0.161996491823816 
1372	-0.270023402087497 
1373	-0.180620252245838 
1374	-0.117620707537731 
1375	-0.509599422030992 
1376	-0.588923037533813 
1377	-0.345889184740181 
1378	-0.170475233364453 
1379	-0.278393143876282 
1380	-0.190564032205706 
1381	 0.159949467686796 
1382	 0.189195180428537 
1383	 0.143197915861356 
1384	 0.307156540714683 
1385	 0.271297453877574 
1386	 8.07127788467522E-02 
1387	-0.149330496130512 
1388	-0.144276410843064 
1389	-0.276569979668646 
1390	-0.230447802115657 
1391	 0.459333871377799 
1392	 0.64169652306402 
1393	 0.373081952113075 
1394	 0.20371594155289 
1395	-0.151408453676355 
1396	-0.148879903847019 
1397	 7.12855946405416E-02 
1398	-9.90451358133145E-03 
1399	-0.172870162872466 
1400	-0.359624088541723 
1401	-0.144702168256979 
1402	-0.110053187169352 
1403	-0.150251762837087 
1404	 0.27009799674374 
1405	 0.319188896174464 
1406	-0.130362193941333 
1407	-0.204164581777706 
1408	-0.186820033267282 
1409	-0.154537339848185 
1410	-9.44614720726987E-02 
1411	-1.46430771681708E-02 
1412	 0.124922464071934 
1413	 0.165906350797139 
1414	 0.166620771527539 
1415	 0.122527796069426 
1416	 4.60453662405093E-02 
1417	 2.63465170785814E-02 
1418	 6.8845756897893E-03 
1419	 1.57739106681351E-03 
1420	 2.70269636359494E-02 
1421	 2.12867426474612E-02 
1422	-1.39069469612499E-03 
1423	-2.15134599469248E-03 
1424	 1.54139200611153E-03 
1425	-1.90021778805932E-03 
1426	-7.3362799912158E-03 
1427	-1.12064411623956E-03 
1428	 9.61195045631153E-03 
1429	 1.14121455528097E-02 
1430	 1.78318872975838E-02 
1431	 2.14723787776521E-02 
1432	 0.013854579678386 
1433	 1.23479804748371E-02 
1434	 2.23306483350697E-02 
1435	 2.33801740383741E-02 
1436	 1.23724140836367E-02 
1437	 1.31001215244611E-02 
1438	 1.12101653725156E-02 
1439	 1.32761198232634E-02 
1440	 2.76499950114974E-02 
1441	 2.62551483643133E-02 
1442	 2.13089289407009E-02 
1443	 1.51176509554102E-02 
1444	 5.55700377821539E-03 
1445	 4.9736858849336E-03 
1446	 6.4704848693703E-03 
1447	 7.11829262567094E-03 
1448	 7.86271389929422E-03 
1449	 8.06330416790464E-03 
1450	 9.91204476496931E-03 
1451	 1.22736924766169E-02 
1452	 1.20778712352309E-02 
1453	 1.21558793426988E-02 
1454	 1.27217379061759E-02 
1455	 1.29173554822135E-02 
1456	 1.26871198732698E-02 
1457	 1.31933472294098E-02 
1458	 1.33822470151982E-02 
1459	 1.25126383611815E-02 
1460	 1.25885281910738E-02 
1461	 1.39346523116691E-02 
1462	 1.34954592972132E-02 
1463	 1.18409468019922E-02 
1464	 0.011397306993145 
1465	 1.01262996321822E-02 
1466	 1.01688647720734E-02 
1467	 1.29946534232204E-02 
1468	 1.27882665050514E-02 
1469	 0.010766111099928 
1470	 1.08746834628512E-02 
1471	 1.01814618645589E-02 
1472	 9.87060761750544E-03 
1473	 1.16940489950613E-02 
1474	 1.20977193759679E-02 
1475	 1.14430538241708E-02 
1476	 1.08624865658134E-02 
1477	 9.82419896757772E-03 
1478	 1.00941532991132E-02 
1479	 1.07790239847519E-02 
1480	 1.08744343847192E-02 
1481	 1.09952380579521E-02 
1482	 1.19486487697466E-02 
1483	 0.013298449568621 
1484	 1.34295279576644E-02 
1485	 0.01349605319181 
1486	 1.41253651745251E-02 
1487	 1.44319195168819E-02 
1488	 1.41437509271192E-02 
1489	 0.013681076510537 
1490	 1.40494387555963E-02 
1491	 1.43938430468348E-02 
1492	 1.46001105463978E-02 
1493	 1.54813948100839E-02 
1494	 1.58264162177723E-02 
1495	 1.54241712429314E-02 
1496	 0.015403162438659 
1497	 1.56619770768788E-02 
1498	 1.58887653866437E-02 
1499	 1.62620528540705E-02 
1500	 1.63480492390708E-02 
1501	 1.61195835202222E-02 
1502	 1.62270754251456E-02 
1503	 1.65020597758016E-02 
1504	 1.65576941094807E-02 
1505	 1.66508453052624E-02 
1506	 1.67180899452261E-02 
1507	 1.69009961768937E-02 
1508	 1.70117176916277E-02 
1509	 1.71677023462854E-02 
1510	 0.017555210754379 
1511	 1.76991712631412E-02 
1512	 1.75129416212326E-02 
1513	 1.73012222253718E-02 
1514	 1.73130518638845E-02 
1515	 1.73148445425495E-02 
1516	 1.72757148314255E-02 
1517	 1.73162786530102E-02 
1518	 1.72710872763692E-02 
1519	 1.72634705749254E-02 
1520	 1.73889877504822E-02 
1521	 0.017618308670237 
1522	 1.77745537687165E-02 
1523	 0.017774559721121 
1524	 1.77840586956314E-02 
1525	 1.77604075438422E-02 
1526	 1.76878694868254E-02 
1527	 1.77789783785627E-02 
1528	 1.79816411192084E-02 
1529	 1.80429937596928E-02 
1530	 1.80350121486433E-02 
1531	 1.81388440931755E-02 
1532	 1.83042870445255E-02 
1533	 1.83740542961156E-02 
1534	 1.84727180528508E-02 
1535	 1.86005021282472E-02 
1536	 1.84378843888463E-02 
1537	 1.82611017872831E-02 
1538	 1.83591893807204E-02 
1539	 1.83952615169116E-02 
1540	 1.83302649322232E-02 
1541	 1.84622083097777E-02 
1542	 1.86317825272398E-02 
1543	 1.86053271275239E-02 
1544	 1.85971268121119E-02 
1545	 1.85103587694785E-02 
1546	 1.82746052254236E-02 
1547	 0.018333780082658 
1548	 1.85628507674844E-02 
1549	 1.86369438174828E-02 
1550	 1.87321463879969E-02 
1551	 0.018787080816126 
1552	 0.018599877134282 
1553	 1.85191771419388E-02 
1554	 1.87308246942392E-02 
1555	 1.88445258934238E-02 
1556	 1.88609386186144E-02 
1557	 1.88406123971788E-02 
1558	 1.86704168332583E-02 
1559	 0.018545485417873 
1560	 1.86162022829136E-02 
1561	 1.88406514392823E-02 
1562	 1.89260970093136E-02 
1563	 1.87551796055136E-02 
1564	 0.018598343312261 
1565	 1.84938925390881E-02 
1566	 1.84746561070629E-02 
1567	 1.85785263941204E-02 
1568	 1.86335086833898E-02 
1569	 1.84445204117093E-02 
1570	 1.81875193968346E-02 
1571	 1.81996593598734E-02 
1572	 0.018166143075726 
1573	 1.81627118689706E-02 
1574	 1.83784686848712E-02 
1575	 1.84882698539879E-02 
1576	 1.85413747233745E-02 
1577	 0.018535724477022 
1578	 1.84080487667643E-02 
1579	 1.83667704526532E-02 
1580	 1.84514441008576E-02 
1581	 1.86133402490291E-02 
1582	 1.87624285000127E-02 
1583	 1.86822725721295E-02 
1584	 1.85875729737647E-02 
1585	 1.86285101950686E-02 
1586	 1.86285655718733E-02 
1587	 1.85888453707928E-02 
1588	 1.86295826615252E-02 
1589	 1.87350638065286E-02 
1590	 1.87414335722686E-02 
1591	 1.86501746141239E-02 
1592	 1.86361577122033E-02 
1593	 1.88229786272997E-02 
1594	 0.018848573320182 
1595	 1.87467659092415E-02 
1596	 1.89270522048319E-02 
1597	 1.88784347470899E-02 
1598	 1.85438746968278E-02 
1599	 1.86073428964444E-02 
1600	 1.87262978693456E-02 
1601	 1.84062166480415E-02 
1602	 1.83939086133414E-02 
1603	 1.87334981344356E-02 
1604	 0.018586456708463 
1605	 1.84525452067323E-02 
1606	 1.85958082984416E-02 
1607	 1.85335795608004E-02 
1608	 1.83914170870355E-02 
1609	 1.83612977454308E-02 
1610	 1.84654893543545E-02 
1611	 0.01846804971511 
1612	 1.83611118886234E-02 
1613	 0.018349547254488 
1614	 1.83955170828233E-02 
1615	 1.84464296786647E-02 
1616	 1.84960416484868E-02 
1617	 1.86310492959783E-02 
1618	 1.86374478514093E-02 
1619	 1.86301119001582E-02 
1620	 1.88219664462709E-02 
1621	 1.87260546897673E-02 
1622	 1.85960284151495E-02 
1623	 1.86188836472478E-02 
1624	 1.84491978677792E-02 
1625	 1.84147177225669E-02 
1626	 0.018541772449368 
1627	 1.86992897447273E-02 
1628	 1.88771227956773E-02 
1629	 1.88143845492631E-02 
1630	 1.87052056360335E-02 
1631	 1.86136125842971E-02 
1632	 1.85200533352751E-02 
1633	 1.86116766388193E-02 
1634	 1.86959037478023E-02 
1635	 1.88372132621006E-02 
1636	 1.88540153726305E-02 
1637	 1.87657731349485E-02 
1638	 1.88961457558175E-02 
1639	 1.87592134149712E-02 
1640	 1.84849422413904E-02 
1641	 0.018529608959775 
1642	 0.018707974631567 
1643	 1.88111712452046E-02 
1644	 1.86253648039175E-02 
1645	 1.84374259597857E-02 
1646	 1.84784561248353E-02 
1647	 0.018488723831524 
1648	 1.85763786735372E-02 
1649	 1.85562656025371E-02 
1650	 1.84461987597508E-02 
1651	 1.85311935791264E-02 
1652	 0.018444234734789 
1653	 0.018455112909006 
1654	 1.85536570632973E-02 
1655	 1.85769832297379E-02 
1656	 1.85608639739815E-02 
1657	 1.86326521782634E-02 
1658	 1.86005677479801E-02 
1659	 1.83300832268427E-02 
1660	 1.81885530938856E-02 
1661	 1.82072277010691E-02 
1662	 1.83568078615773E-02 
1663	 1.85266044079384E-02 
1664	 1.85552821343166E-02 
1665	 1.86846617376888E-02 
1666	 1.86781077699116E-02 
1667	 1.85019246677442E-02 
1668	 1.85352395092957E-02 
1669	 1.84954984091074E-02 
1670	 1.83109932024685E-02 
1671	 0.018171468397497 
1672	 1.82910832588118E-02 
1673	 1.83637828197927E-02 
1674	 1.85268833999418E-02 
1675	 1.87871602625891E-02 
1676	 1.85438560150972E-02 
1677	 1.81673614726976E-02 
1678	 1.83243871428014E-02 
1679	 1.87324931777127E-02 
1680	 1.90484250685513E-02 
1681	 1.90429767646495E-02 
1682	 1.86345896925909E-02 
1683	 1.83166914071571E-02 
1684	 1.83621133233612E-02 
1685	 1.85180985765854E-02 
1686	 1.86708528166817E-02 
1687	 1.86897379104752E-02 
1688	 1.84386225544126E-02 
1689	 1.84377570352116E-02 
1690	 1.87025637928762E-02 
1691	 0.018476705857785 
1692	 1.80763849051342E-02 
1693	 1.82487495830954E-02 
1694	 1.83087327920361E-02 
1695	 1.79133633611548E-02 
1696	 1.80280270571838E-02 
1697	 1.83765862760616E-02 
1698	 1.81924495188019E-02 
1699	 1.81297786712641E-02 
1700	 1.83910516991086E-02 
1701	 1.79797225492575E-02 
1702	 1.75512878639208E-02 
1703	 1.81179649066684E-02 
1704	 0.01845328000192 
1705	 1.83331255533795E-02 
1706	 1.84229010211347E-02 
1707	 1.81189102819136E-02 
1708	 1.77884558656582E-02 
1709	 1.80510565920043E-02 
1710	 1.82504082120095E-02 
1711	 1.82296939818356E-02 
1712	 1.81761378171002E-02 
1713	 1.73222846064438E-02 
1714	 1.74200458892389E-02 
1715	 1.88949127282366E-02 
1716	 1.83975548406838E-02 
1717	 1.78902542012163E-02 
1718	 1.78581483486566E-02 
1719	 0.017183433216813 
1720	 1.69835580613486E-02 
1721	 1.78282538449039E-02 
1722	 1.80064608571005E-02 
1723	 1.73094974674889E-02 
1724	 1.73636292867906E-02 
1725	 1.78321677084547E-02 
1726	 1.78665857734848E-02 
1727	 1.80202709804188E-02 
1728	 0.018199029407086 
1729	 1.79919573061622E-02 
1730	 0.017609570468076 
1731	 1.75785079661128E-02 
1732	 1.77499942279322E-02 
1733	 1.73214761677431E-02 
1734	 1.67824052449752E-02 
1735	 1.69506272649727E-02 
1736	 1.70156454571165E-02 
1737	 1.68286585930978E-02 
1738	 0.017150761895303 
1739	 0.017172720291823 
1740	 1.69126768522938E-02 
1741	 1.70984794343311E-02 
1742	 1.70422094902144E-02 
1743	 1.69222256145087E-02 
1744	 1.68470782545484E-02 
1745	 1.64996453079548E-02 
1746	 0.016437175121491 
1747	 1.64929134395283E-02 
1748	 1.71909348916336E-02 
1749	 1.73339594910797E-02 
1750	 1.68690970180137E-02 
1751	 0.01666874838864 
1752	 1.60609547480117E-02 
1753	 1.59240693509343E-02 
1754	 1.66653936818636E-02 
1755	 1.68143850128522E-02 
1756	 1.69090829321099E-02 
1757	 1.62562562381027E-02 
1758	 1.55136271564099E-02 
1759	 1.55530193534463E-02 
1760	 1.52846496785051E-02 
1761	 1.52554334504592E-02 
1762	 1.57118884327463E-02 
1763	 1.54154227465165E-02 
1764	 0.015236677441295 
1765	 1.57953975023302E-02 
1766	 1.57045054011849E-02 
1767	 1.52950446591119E-02 
1768	 1.53246893163468E-02 
1769	 1.50685426698194E-02 
1770	 0.014886626361789 
1771	 1.53115370153375E-02 
1772	 0.015328069001208 
1773	 1.44850180896498E-02 
1774	 1.44681817889611E-02 
1775	 1.52914763028016E-02 
1776	 0.015427545354043 
1777	 1.65412106385152E-02 
1778	 1.66659228981314E-02 
1779	 1.48616297404139E-02 
1780	 1.42131029691645E-02 
1781	 1.35569818845799E-02 
1782	 1.33670668783643E-02 
1783	 1.43279517548343E-02 
1784	 1.45006072863058E-02 
1785	 1.52961182388934E-02 
1786	 1.51763466737581E-02 
1787	 1.32026442261125E-02 
1788	 1.20164064481157E-02 
1789	 1.01837257612295E-02 
1790	 1.10129672548204E-02 
1791	 1.41073344711355E-02 
1792	 1.61832613496823E-02 
1793	 1.53051160686347E-02 
1794	 1.12662390070261E-02 
1795	 8.31714095951981E-03 
1796	 7.07964787715784E-03 
1797	 6.60445439317335E-03 
1798	 9.33614721381312E-03 
1799	 5.83141967790698E-03 
1800	 1.43697651296537E-03 
1801	 2.35223811170587E-03 
1802	 9.52425599954454E-03 
1803	 1.79407271927977E-02 
1804	 4.61442072567438E-02 
1805	 5.38425392732494E-02 
1806	 2.97525513231429E-02 
1807	 9.32726897923034E-03 
1808	-0.059691693337988 
1809	-0.116500623257588 
1810	-0.171677448131455 
1811	-0.167194185271922 
1812	-1.21652128364234E-02 
1813	 3.78334330021677E-02 
1814	 0.193699615726989 
1815	 0.285098806742307 
1816	-3.96172568424578E-02 
1817	 0.224701046592564 
1818	 0.26804474447687 
1819	 0.192844790422351 
1820	 0.131990710993408 
1821	-0.191540164722747 
1822	-0.251446651836465 
1823	 0.110475089565067 
1824	 8.70745998042831E-02 
1825	-0.513508552559959 
1826	-0.553425273101519 
1827	-0.539864039680389 
1828	-0.496042304559143 
1829	 6.22115573336947E-02 
1830	 9.34126047283194E-02 
1831	 2.87415673097868 
1832	-40.6819622934105 
1833	-1.87550256825672 
1834	-1.16376057583627 
1835	-0.34697108443144 
1836	-0.398806988443366 
1837	-0.1167202111666 
1838	 2.36932665016437E-02 
1839	 0.516097950658563 
1840	 0.747001253181748 
1841	 1.28631307072483 
1842	 2.27434771601363 
1843	 2.04056846310268 
1844	 0.440920057583659 
1845	 0.336051409789438 
1846	 0.508360251709621 
1847	 0.594141148402925 
1848	 1.25804009969439 
1849	 1.02101695397026 
1850	 0.557477188589701 
1851	 0.321998747065194 
1852	-2.62188274576563E-02 
1853	-7.99180409498818E-02 
1854	-0.156263138433223 
1855	-0.339766070076428 
1856	-0.436313441162436 
1857	-9.30611927933215E-02 
1858	-0.34172830693813 
1859	 0.285796257387662 
1860	 0.18888379150371 
1861	-0.2873219264167 
1862	-0.81669553719633 
1863	-1.13063614923281 
1864	-8.5137405860257 
1865	-5.89356018539531E-02 
1866	 2.52223996379201 
1867	 2.59971883026612 
1868	 14.3741299602271 
1869	 37.1322981510123 
1870	 5.19926977080111 
1871	 6.77663114374555 
1872	-2.32221014558877 
1873	-27.3071632960511 
1874	 1.1039661971389 
1875	 1.39976763146701 
1876	 1.54807529068104 
1877	 1.30788617149078 
1878	 1.44374499068662 
1879	-5.85678897029336 
1880	-1.83407272559438 
1881	-1.43081398945714 
1882	-0.607424820452454 
1883	-0.448978341707574 
1884	-1.43421967863502 
1885	-0.651871755061148 
1886	 0.585732233149976 
1887	-0.679102478637793 
1888	 0.311920366807151 
1889	 0.493738144241296 
1890	 0.746255402807155 
1891	 0.933301133344295 
1892	 4.16870415804411 
1893	 1.55053546177176 
1894	 0.760540418555117 
1895	 0.500093906782183 
1896	 0.351550745305725 
1897	 6.49549776782939 
1898	-3.96112827806963 
1899	 57.8132123797202 
1900	 6.25245168739976 
1901	 1.27686431797204 
1902	 0.908379591242024 
1903	 0.557292393475527 
1904	 0.311776684767458 
1905	 4.40955426146635E-02 
1906	-0.346434998297068 
1907	-0.575084533456896 
1908	-0.359372706026574 
1909	 0.431807633322711 
1910	 6.89642389673372 
1911	-2.07005258442306 
1912	-0.82681102375147 
1913	-1.05840552897596 
1914	 1.68248669394764 
1915	 1.06540220286042 
1916	 0.720452324553765 
1917	 0.799876172462671 
1918	 0.426446466646526 
1919	-2.98576192498959E-02 
1920	-3.01493501280638E-02 
1921	 0.105342314082307 
1922	 0.381480148387214 
1923	 1.21558089422621 
1924	 1.52190535965228 
1925	 1.74850375034888 
1926	 2.93962232329023 
1927	 8.43343923567135 
1928	-1.3682343114779 
1929	-0.511874663367763 
1930	-0.41361187192766 
1931	-0.128783547077125 
1932	 5.50042243767157E-02 
1933	-0.129003219090234 
1934	-0.124530118037978 
1935	-0.240321950451786 
1936	-0.385551731984648 
1937	-0.216745271488358 
1938	-8.91133873256165E-02 
1939	-5.13749294225144E-02 
1940	-8.59133595955307E-02 
1941	-3.09202330857888E-02 
1942	 4.38159576941925E-02 
1943	-1.32132752978069E-02 
1944	-6.09722708014458E-02 
1945	-6.92939243099186E-02 
1946	-8.59003304718965E-02 
1947	-4.74665771411789E-02 
1948	-2.60847602258716E-02 
1949	-3.65411685114102E-02 
1950	-4.50259715010728E-02 
1951	-6.75122379936461E-02 
1952	-6.37654043559178E-02 
1953	-3.97515783920082E-02 
1954	-1.87199351756561E-02 
1955	-1.68176217947444E-02 
1956	-1.53265997001004E-02 
1957	-3.47650704012368E-02 
1958	-3.23139808810968E-02 
1959	-1.53744240812691E-02 
1960	-2.28184951736197E-03 
1961	 1.13581170596905E-02 
1962	 1.34128539805488E-02 
1963	 8.8981777290016E-03 
1964	 6.62393762474908E-03 
1965	 2.92277166622853E-03 
1966	 3.15371450321247E-03 
1967	 4.89315889605541E-03 
1968	 9.97138644736658E-03 
1969	 1.14321178425108E-02 
1970	 1.33306094737597E-02 
1971	 1.43099180862894E-02 
1972	 0.011858670837893 
1973	 1.13397029908769E-02 
1974	 1.14324502838294E-02 
1975	 1.17169059809661E-02 
1976	 1.30697653883987E-02 
1977	 1.26983350475757E-02 
1978	 0.013146196354957 
1979	 0.013531863741608 
1980	 1.41668072037679E-02 
1981	 1.29972583359253E-02 
1982	 1.34454563059502E-02 
1983	 1.43117104831258E-02 
1984	 1.29200368482563E-02 
1985	 1.22324517320019E-02 
1986	 0.012892838335684 
1987	 1.18220615104876E-02 
1988	 0.011575199804896 
1989	 1.36832969286753E-02 
1990	 1.44159902353951E-02 
1991	 1.42110199587981E-02 
1992	 0.013835686226248 
1993	 1.28255411036303E-02 
1994	 1.22819045692416E-02 
1995	 1.12315314585586E-02 
1996	 1.13995620122773E-02 
1997	 1.16216087572448E-02 
1998	 1.06737007750214E-02 
1999	 0.010817059404935 
2000	 1.08300874484254E-02 
2001	 1.12325460850512E-02 
2002	 1.21421162445806E-02 
2003	 1.07561580514039E-02 
2004	 0.008222605098655 
2005	 5.78139939700576E-03 
2006	 6.45076189118454E-03 
2007	 7.88347471902663E-03 
2008	 8.93157457081832E-03 
2009	 9.85976741432978E-03 
2010	 9.94381285985351E-03 
2011	 1.04878492316176E-02 
2012	 1.15893816804319E-02 
2013	 1.24156254426076E-02 
2014	 1.14359455156938E-02 
2015	 1.24564917082806E-02 
2016	 1.30754277887871E-02 
2017	 0.011254371247176 
2018	 1.14731610243799E-02 
2019	 1.33304749504622E-02 
2020	 1.28755092509832E-02 
2021	 1.21953223262388E-02 
2022	 1.20001625609391E-02 
2023	 1.12835897804151E-02 
2024	 1.12471294754049E-02 
2025	 1.19753703383071E-02 
2026	 1.22884394697853E-02 
2027	 1.25997087689404E-02 
2028	 0.012914751447013 
2029	 0.013021749446134 
2030	 1.32539892283209E-02 
2031	 1.45067515035839E-02 
2032	 1.49989542891453E-02 
2033	 1.48193917395111E-02 
2034	 1.55207112052183E-02 
2035	 1.53429669041611E-02 
2036	 1.46266327469595E-02 
2037	 1.51089467847224E-02 
2038	 1.51996863148815E-02 
2039	 0.015275537317381 
2040	 1.58303807910476E-02 
2041	 0.016076015070339 
2042	 1.59200411308651E-02 
2043	 1.56422906756899E-02 
2044	 1.49956223961504E-02 
2045	 0.014786088190558 
2046	 1.52276820294499E-02 
2047	 1.56513690199126E-02 
2048	 1.63914561267145E-02 
2049	 1.64092082617857E-02 
2050	 1.52771291852167E-02 
2051	 1.45491658290629E-02 
2052	 1.43899813139431E-02 
2053	 1.40276340629132E-02 
2054	 1.48738470508268E-02 
2055	 1.56632108537774E-02 
2056	 1.49936852133932E-02 
2057	 1.29938024061789E-02 
2058	 1.28135831750027E-02 
2059	 0.011913071722041 
2060	 1.19277500130673E-02 
2061	 1.39257307538681E-02 
2062	 1.49423732565746E-02 
2063	 1.52257715846567E-02 
2064	 1.45387283658189E-02 
2065	 1.30258054758604E-02 
2066	 0.013158673616959 
2067	 1.25204493271188E-02 
2068	 1.12092453776154E-02 
2069	 1.21006638942853E-02 
2070	 1.28880436651215E-02 
2071	 1.30989491808727E-02 
2072	 1.49795646121685E-02 
2073	 1.56301193346499E-02 
2074	 1.48502904466633E-02 
2075	 1.52301359648942E-02 
2076	 1.66865079053714E-02 
2077	 1.65315952808014E-02 
2078	 1.61251319972322E-02 
2079	 1.58638767314212E-02 
2080	 1.47862722573584E-02 
2081	 1.35079577283293E-02 
2082	 1.35758555832648E-02 
2083	 1.40358360949029E-02 
2084	 0.014806906782308 
2085	 0.015438035553081 
2086	 1.55207795321229E-02 
2087	 1.58368462060992E-02 
2088	 0.015775071644798 
2089	 1.53937178982897E-02 
2090	 0.015533953723014 
2091	 1.54497467375246E-02 
2092	 1.56637955649058E-02 
2093	 1.60621478474344E-02 
2094	 1.64717596949225E-02 
2095	 1.77916661914034E-02 
2096	 1.77711776422191E-02 
2097	 1.67722836766073E-02 
2098	 1.62881113671784E-02 
2099	 1.52413054264542E-02 
2100	 1.41391038120548E-02 
2101	 1.46845499877577E-02 
2102	 1.53050086213245E-02 
2103	 1.59594540312862E-02 
2104	 1.63901296457452E-02 
2105	 1.64084925396494E-02 
2106	 1.67405861359559E-02 
2107	 1.64819416627473E-02 
2108	 1.63582837323785E-02 
2109	 1.65562726662105E-02 
2110	 1.61297825309991E-02 
2111	 1.62294136709418E-02 
2112	 1.65814363375513E-02 
2113	 1.63907208525556E-02 
2114	 1.55330987529858E-02 
2115	 1.53777780070776E-02 
2116	 1.53217723606585E-02 
2117	 1.51936513525841E-02 
2118	 1.56247935940997E-02 
2119	 1.55261895705902E-02 
2120	 1.48969988582607E-02 
2121	 0.014571503274808 
2122	 1.46375127137353E-02 
2123	 1.42792547882453E-02 
2124	 0.01445408313323 
2125	 1.50124189999205E-02 
2126	 1.53091054109056E-02 
2127	 1.57135924906185E-02 
2128	 1.66483998031771E-02 
2129	 1.69072460206185E-02 
2130	 1.67416107591999E-02 
2131	 1.71549842399298E-02 
2132	 1.70237276524504E-02 
2133	 0.01708636858516 
2134	 1.67602400756155E-02 
2135	 0.015700663384246 
2136	 1.56782838668287E-02 
2137	 1.59673389837983E-02 
2138	 1.60051362651916E-02 
2139	 1.72120036745702E-02 
2140	 1.72228758499137E-02 
2141	 1.58869115323456E-02 
2142	 1.53886340121189E-02 
2143	 0.014777002357039 
2144	 1.44664591109789E-02 
2145	 1.45527534700097E-02 
2146	 1.49287662147645E-02 
2147	 0.015223306170815 
2148	 1.54810250260302E-02 
2149	 1.55193795433463E-02 
2150	 0.015291697944952 
2151	 1.49637753311086E-02 
2152	 0.01412527359659 
2153	 1.38726523451827E-02 
2154	 1.37187945162776E-02 
2155	 1.34716393825018E-02 
2156	 1.35710860124057E-02 
2157	 1.37136906607533E-02 
2158	 1.41182815959285E-02 
2159	 1.39390959548509E-02 
2160	 1.36860837595002E-02 
2161	 1.38022969093399E-02 
2162	 1.31906248016417E-02 
2163	 1.30233705249544E-02 
2164	 1.38517151765132E-02 
2165	 1.37750175974725E-02 
2166	 1.29688720281149E-02 
2167	 1.30903062827491E-02 
2168	 1.37680027993398E-02 
2169	 1.37353827826505E-02 
2170	 1.34385685723471E-02 
2171	 1.34477019400483E-02 
2172	 1.43099411816341E-02 
2173	 1.48404381195362E-02 
2174	 1.49042800809818E-02 
2175	 1.56270370180032E-02 
2176	 1.48591244578247E-02 
2177	 1.38146275029119E-02 
2178	 1.50566584261758E-02 
2179	 1.60299899810744E-02 
2180	 1.55579355261027E-02 
2181	 1.54742875286829E-02 
2182	 1.52455502659042E-02 
2183	 1.40723280021275E-02 
2184	 1.32893375295122E-02 
2185	 1.32030320558001E-02 
2186	 1.31068988592369E-02 
2187	 1.27306602033738E-02 
2188	 0.01257941207158 
2189	 1.30584237366797E-02 
2190	 1.30811408829539E-02 
2191	 1.24913893696242E-02 
2192	 1.22812984533274E-02 
2193	 1.26135624070764E-02 
2194	 1.26857304885415E-02 
2195	 1.28567860253284E-02 
2196	 1.24899969377816E-02 
2197	 1.15495539861916E-02 
2198	 1.11100740876938E-02 
2199	 1.03813749571981E-02 
2200	 9.63658019507131E-03 
2201	 1.10990658846247E-02 
2202	 1.03573621790023E-02 
2203	 9.21866952872056E-03 
2204	 1.01588392793904E-02 
2205	 1.09711663159437E-02 
2206	 1.21965611688821E-02 
2207	 1.26320751087525E-02 
2208	 1.31566023456899E-02 
2209	 1.28603894238558E-02 
2210	 0.011998783813603 
2211	 1.32459918149878E-02 
2212	 1.44524807425392E-02 
2213	 1.42342837276397E-02 
2214	 1.25497514518076E-02 
2215	 1.17182870670394E-02 
2216	 1.20615179921277E-02 
2217	 0.012139069843413 
2218	 1.38390672525264E-02 
2219	 1.41552665352709E-02 
2220	 1.31786084964332E-02 
2221	 1.26093946083983E-02 
2222	 1.17089500315627E-02 
2223	 1.12460903753722E-02 
2224	 1.09319353029016E-02 
2225	 1.08951454532495E-02 
2226	 1.07355860634893E-02 
2227	 1.14943568210409E-02 
2228	 1.44666217688723E-02 
2229	 1.48025358066193E-02 
2230	 1.37608714353068E-02 
2231	 1.32644282850648E-02 
2232	 1.08117674208906E-02 
2233	 9.80419637774851E-03 
2234	 9.69072955704603E-03 
2235	 1.06628903235489E-02 
2236	 1.23273158651629E-02 
2237	 1.24730016290209E-02 
2238	 1.27353633875632E-02 
2239	 1.37461080993993E-02 
2240	 1.33989641659663E-02 
2241	 0.01407354724799 
2242	 1.47969319329893E-02 
2243	 1.38651610826175E-02 
2244	 1.26525091739183E-02 
2245	 1.01849820831052E-02 
2246	 7.14929142864734E-03 
2247	 7.20220512136048E-03 
2248	 8.77290563031781E-03 
2249	 1.00370753718339E-02 
2250	 1.17677445916593E-02 
2251	 1.22549911757404E-02 
2252	 1.25955871864861E-02 
2253	 0.012456960919159 
2254	 1.17047778027302E-02 
2255	 1.30409229710879E-02 
2256	 1.32707941326145E-02 
2257	 1.19737648712548E-02 
2258	 1.26806072246626E-02 
2259	 1.22305654081487E-02 
2260	 1.08957851126796E-02 
2261	 8.52489193841819E-03 
2262	 7.62322887074691E-03 
2263	 5.46281449953291E-03 
2264	 5.43806696245149E-03 
2265	 8.05906712637905E-03 
2266	 8.95571254849236E-03 
2267	 1.02399846380625E-02 
2268	 1.07383684835787E-02 
2269	 1.00914761987701E-02 
2270	 0.010211914824191 
2271	 1.03103466933245E-02 
2272	 1.05691570484059E-02 
2273	 1.10911000776053E-02 
2274	 0.011328629296746 
2275	 1.19201329626983E-02 
2276	 1.15664290626949E-02 
2277	 1.02452816322612E-02 
2278	 9.92460079334402E-03 
2279	 9.78162707611086E-03 
2280	 9.1961719956367E-03 
2281	 8.40337898338911E-03 
2282	 8.89710870987317E-03 
2283	 9.44948003055813E-03 
2284	 1.07535097886663E-02 
2285	 1.53818772281775E-02 
2286	 1.75374094928756E-02 
2287	 1.80724516583233E-02 
2288	 0.018621108328947 
2289	 0.014309258468589 
2290	 1.04366283268141E-02 
2291	 1.06262844010673E-02 
2292	 8.58736362956505E-03 
2293	 8.85597601583476E-03 
2294	 1.26177310690203E-02 
2295	 1.25717463742893E-02 
2296	 1.21967997316112E-02 
2297	 1.15085911624441E-02 
2298	 1.00673859417702E-02 
2299	 1.00477855835641E-02 
2300	 0.010647091243299 
2301	 1.18466578346776E-02 
2302	 1.04803798814081E-02 
2303	 8.12246550139247E-03 
2304	 5.46599478837235E-03 
2305	 4.84201901540458E-03 
2306	 8.51915298951327E-03 
2307	 8.35899446221017E-03 
2308	 6.75790896832101E-03 
2309	 5.91194211116568E-03 
2310	 2.13988482228081E-03 
2311	 2.17440061451875E-03 
2312	 4.9058027322082E-03 
2313	 5.82623172030791E-03 
2314	 6.3845574177297E-03 
2315	 4.54496229327937E-03 
2316	 3.5187785484313E-03 
2317	 4.6025317173834E-03 
2318	 6.74141445953843E-03 
2319	 8.25074317766813E-03 
2320	 7.2022719625234E-03 
2321	 9.57886320778964E-03 
2322	 1.05358198446443E-02 
2323	 9.36171459526183E-03 
2324	 1.33385492928618E-02 
2325	 1.29253953318019E-02 
2326	 9.45498665553316E-03 
2327	 9.25810042834925E-03 
2328	 5.86005156997949E-03 
2329	 2.83111692977082E-03 
2330	 1.01485488653293E-03 
2331	-1.05911406570926E-03 
2332	 1.51885287355643E-03 
2333	 4.19773407098568E-03 
2334	 5.28230645181832E-03 
2335	 8.90503778257144E-03 
2336	 7.64446673810817E-03 
2337	 1.06170124353051E-03 
2338	 8.37425256844191E-04 
2339	 3.42945314897467E-04 
2340	-1.32298850373469E-03 
2341	 4.14603604021914E-03 
2342	 2.27709218590735E-03 
2343	-2.94311596274805E-03 
2344	-1.60847946599987E-04 
2345	-1.13865629582287E-03 
2346	-1.76862268652089E-03 
2347	-2.8791972959292E-03 
2348	-9.3139791572401E-03 
2349	-1.00754497057749E-02 
2350	-1.10515579590238E-02 
2351	-1.62866572035679E-02 
2352	-1.69962993982006E-02 
2353	-1.27146337980373E-02 
2354	-1.63592477017333E-02 
2355	-2.05242751072645E-02 
2356	-1.07472856173618E-02 
2357	-9.02949447159557E-03 
2358	-1.64185426542757E-02 
2359	-1.27289065460525E-02 
2360	-1.27693995517395E-02 
2361	-2.23062353394677E-02 
2362	-1.92152343849008E-02 
2363	-7.10120194851553E-03 
2364	-4.73711073612043E-03 
2365	-1.43201628517465E-03 
2366	 6.96136769843124E-03 
2367	 7.46568523071213E-03 
2368	 1.12199238608763E-02 
2369	 1.68081926813884E-02 
2370	 0.018026809890109 
2371	 2.40287368605102E-02 
2372	 1.84323599212613E-02 
2373	 6.10090978843737E-03 
2374	-2.47709489735393E-04 
2375	-2.54271070669402E-02 
2376	-4.29210563341005E-02 
2377	-3.81271388378089E-02 
2378	-4.73786290925837E-02 
2379	-4.07791165793231E-02 
2380	-2.19408237863447E-02 
2381	-0.024135324746399 
2382	-3.02938053701543E-02 
2383	-4.69777821047258E-02 
2384	-6.50070929850024E-02 
2385	-7.79233400133234E-02 
2386	-8.82081146618927E-02 
2387	-6.94600385298451E-02 
2388	-5.90984128485892E-02 
2389	-0.067868621111592 
2390	-5.45250691375136E-02 
2391	-3.36999621721844E-02 
2392	-2.82371819982323E-02 
2393	-3.35157806250096E-02 
2394	-4.88778895373754E-02 
2395	-6.44809838302374E-02 
2396	-7.30233387075303E-02 
2397	-6.46202382038986E-02 
2398	-2.55394320777056E-02 
2399	-5.80969301197331E-03 
2400	-1.43778715365293E-02 
2401	-3.01519008426746E-02 
2402	-7.68911534420748E-02 
2403	-8.89630521440676E-02 
2404	-7.52110226688341E-02 
2405	-6.06834008893167E-02 
2406	-8.04991780380337E-03 
2407	-2.78122637312475E-02 
2408	-4.79263114813881E-02 
2409	-2.25603064178534E-02 
2410	-5.76388694752995E-02 
2411	-3.03225073967687E-02 
2412	-4.44336882126773E-02 
2413	-0.176699181042875 
2414	-0.218032823926777 
2415	-0.246842851323193 
2416	-0.299073991674133 
2417	-0.281297718967971 
2418	-0.231195222393837 
2419	-0.158700797438854 
2420	-7.72944941316304E-02 
2421	 1.62338922963509E-02 
2422	 3.63005940905086E-03 
2423	-6.51935245535006E-02 
2424	-7.38283103724346E-02 
2425	-0.140915007123779 
2426	-0.158405881285345 
2427	-0.11581449676845 
2428	-0.119151377001227 
2429	-6.37622062763004E-02 
2430	-3.20796630029261E-02 
2431	-0.140445825024448 
2432	-0.114431482951133 
2433	-8.53659846219827E-02 
2434	-0.202237474048187 
2435	-8.41767489825756E-02 
2436	-8.65617934039798E-02 
2437	-0.334405073962027 
2438	-0.340984331593791 
2439	-0.281400804135148 
2440	-0.318391351901607 
2441	-0.202032609439832 
2442	-7.51609801334652E-02 
2443	-0.387818860968861 
2444	-0.813557848114785 
2445	-0.760296400134399 
2446	-0.923304902549625 
2447	-0.78234870411657 
2448	-0.614384271159067 
2449	-0.749181047424726 
2450	-1.23085742476811 
2451	-2.24318809736684 
2452	-2.66241044642473 
2453	-2.01025705531031 
2454	-1.19491448922137 
2455	-0.731940190954256 
2456	-0.538460391189858 
2457	-0.715453910128098 
2458	-0.642354770349809 
2459	-6.79732350709471E-02 
2460	-0.331027224927993 
2461	-0.258911589585946 
2462	-0.201673039034894 
2463	-0.454834761787917 
2464	-0.353245533458607 
2465	-0.424545532495923 
2466	-2.00924518472087 
2467	-5.17406103136171 
2468	-0.552534508369322 
2469	-0.679146433933281 
2470	-1.61007811365128 
2471	 84.8177334896241 
2472	 4.29378533879221 
2473	 2.93164236830725 
2474	 1.44276530732777 
2475	 5.57965987363778 
2476	 2.59232316656378 
2477	 1.1351809971924 
2478	 1.5623375803967 
2479	 6.03617762117412 
2480	 4.04597408872709 
2481	-29.5178333847282 
2482	 1.42069985705045 
2483	 1.02704223983885 
2484	 12.8158030301976 
2485	 61.3195656755163 
2486	 39.6039256459613 
2487	-3.63925801510341 
2488	-6.39935379240198 
2489	 3.75740574626769 
2490	 1.4393661571921 
2491	 0.851348629404081 
2492	 0.404040121917072 
2493	 0.866572825049427 
2494	 2.03430314088112 
2495	 0.988224081329233 
2496	 0.184326804898498 
2497	 0.146265324902094 
2498	-3.41875583917363E-02 
2499	 0.166118407075938 
2500	 1.14962416617032 
