Wavelength	rt0713west_far_cloud00009.asd
350	 4.59365366860512E-02 
351	 4.71340612937031E-02 
352	 4.71042440285407E-02 
353	 4.68543914725049E-02 
354	 0.047117096350299 
355	 4.67393796935577E-02 
356	 4.68823090322253E-02 
357	 4.73424727560401E-02 
358	 4.74981959602371E-02 
359	 4.68403908836538E-02 
360	 4.69716950486562E-02 
361	 0.04755898856603 
362	 0.047119088877871 
363	 4.72744507941386E-02 
364	 4.73224466493182E-02 
365	 4.71044202871183E-02 
366	 4.77207983562861E-02 
367	 4.77947039390516E-02 
368	 4.76566761647277E-02 
369	 4.78711171090467E-02 
370	 4.81275506229001E-02 
371	 4.84378140118821E-02 
372	 4.85146802346852E-02 
373	 4.80654286137381E-02 
374	 4.81894686057075E-02 
375	 4.86415347524588E-02 
376	 4.89497632966905E-02 
377	 0.048587607847413 
378	 4.90539150286534E-02 
379	 4.94037912496984E-02 
380	 4.88851867091935E-02 
381	 4.92187386133313E-02 
382	 4.94889033877559E-02 
383	 4.96824058438988E-02 
384	 5.00948620120068E-02 
385	 4.99677164867055E-02 
386	 0.049974500490978 
387	 5.03876388757195E-02 
388	 0.050884499489153 
389	 5.09511837188797E-02 
390	 5.10344369631054E-02 
391	 5.14118506816969E-02 
392	 5.14514405106365E-02 
393	 5.16486148543513E-02 
394	 5.17684658706657E-02 
395	 5.15518894216056E-02 
396	 5.20851163044219E-02 
397	 5.24374972808967E-02 
398	 5.24852422479121E-02 
399	 5.28467131951235E-02 
400	 5.26610124138756E-02 
401	 5.26649245120882E-02 
402	 5.32283843624626E-02 
403	 5.34038490470058E-02 
404	 5.35175100215025E-02 
405	 5.36694609914635E-02 
406	 5.38595061921629E-02 
407	 5.39325165344008E-02 
408	 5.40216890006418E-02 
409	 0.054167060739375 
410	 5.43048094741908E-02 
411	 5.46008884988592E-02 
412	 5.48319593968052E-02 
413	 5.48720542116508E-02 
414	 5.49547831030539E-02 
415	 0.05529275364414 
416	 5.56364891676152E-02 
417	 5.56681435831396E-02 
418	 5.59594240387702E-02 
419	 5.62104140944261E-02 
420	 5.63232308069691E-02 
421	 5.64833660296552E-02 
422	 5.68457826110885E-02 
423	 5.72179415707556E-02 
424	 5.74645894092314E-02 
425	 5.78339674730816E-02 
426	 5.81801698043633E-02 
427	 5.84631412306407E-02 
428	 0.058710785645268 
429	 5.90217999975054E-02 
430	 5.94424230488701E-02 
431	 5.99162580352236E-02 
432	 6.02836662941561E-02 
433	 0.060570699810681 
434	 6.08192281743917E-02 
435	 6.11050400531608E-02 
436	 6.16016427058675E-02 
437	 6.20485684664802E-02 
438	 6.24005542261198E-02 
439	 6.27387575739136E-02 
440	 6.31009626715393E-02 
441	 6.34743923442502E-02 
442	 6.38354477514839E-02 
443	 6.41555930672877E-02 
444	 6.44755816946763E-02 
445	 6.48255044057729E-02 
446	 6.52133007521921E-02 
447	 6.55974455444409E-02 
448	 6.58872879266104E-02 
449	 6.61168098191834E-02 
450	 6.64100057963769E-02 
451	 6.67731442637417E-02 
452	 6.70283409873441E-02 
453	 0.067133833090931 
454	 6.73667484049462E-02 
455	 6.76859235354218E-02 
456	 6.79640227901741E-02 
457	 6.80925836644243E-02 
458	 6.82858051009369E-02 
459	 6.84917950034356E-02 
460	 6.86569395660991E-02 
461	 6.87484581178587E-02 
462	 6.89802370009887E-02 
463	 6.91990885010989E-02 
464	 6.92930132204199E-02 
465	 6.94730323801878E-02 
466	 6.96448245474977E-02 
467	 6.97917721766949E-02 
468	 6.99429779054649E-02 
469	 7.01700941373657E-02 
470	 7.04567048645478E-02 
471	 7.07253844711429E-02 
472	 0.07083270334476 
473	 7.09562192043357E-02 
474	 7.11563747120117E-02 
475	 7.14258103573177E-02 
476	 7.16519165444513E-02 
477	 0.071817868507991 
478	 7.20576440557153E-02 
479	 7.25470039203518E-02 
480	 7.27008980589246E-02 
481	 7.28774888404777E-02 
482	 7.32876771823593E-02 
483	 7.35831733515439E-02 
484	 7.38612724887603E-02 
485	 0.074183242078966 
486	 7.45812097521368E-02 
487	 0.074965057774655 
488	 7.53057847284149E-02 
489	 7.56424783284744E-02 
490	 7.60696564570738E-02 
491	 0.076489255537053 
492	 7.69050988311281E-02 
493	 7.73355124115236E-02 
494	 7.77898489509547E-02 
495	 7.82626710328603E-02 
496	 7.87129829594149E-02 
497	 7.91100341990966E-02 
498	 7.96430430589969E-02 
499	 8.02637032295353E-02 
500	 8.08731753688545E-02 
501	 8.13370982191549E-02 
502	 8.18355753628455E-02 
503	 8.24720219652306E-02 
504	 0.083221803033209 
505	 8.36583426277553E-02 
506	 8.41435501938671E-02 
507	 8.47993601790143E-02 
508	 0.085528137578142 
509	 8.61977521414249E-02 
510	 8.68524623752698E-02 
511	 8.75400975723367E-02 
512	 8.82470800432845E-02 
513	 8.89247967376809E-02 
514	 8.96097164069143E-02 
515	 9.03664413448099E-02 
516	 9.11823450670905E-02 
517	 9.20359629140476E-02 
518	 9.28771114502265E-02 
519	 9.36301529296551E-02 
520	 9.43647780506972E-02 
521	 9.51555574047697E-02 
522	 9.60257626329876E-02 
523	 9.68157524537512E-02 
524	 9.75730380655893E-02 
525	 9.83557629523574E-02 
526	 9.92181747733902E-02 
527	 0.100046253262124 
528	 0.100812837744706 
529	 0.10153187893672 
530	 0.102258223551261 
531	 0.103069246190993 
532	 0.103896127248051 
533	 0.104635679110647 
534	 0.105385438313075 
535	 0.106134765918136 
536	 0.106911273242316 
537	 0.107787141970057 
538	 0.108530035081327 
539	 0.109230969934308 
540	 0.110002410128305 
541	 0.110741893044489 
542	 0.111510651917866 
543	 0.112288844513881 
544	 0.113018142983229 
545	 0.113762992649669 
546	 0.114545196268292 
547	 0.115326195904588 
548	 0.115955691950852 
549	 0.116647519884251 
550	 0.117378606435325 
551	 0.118068222221033 
552	 0.118819598461361 
553	 0.119607666974905 
554	 0.12035907795482 
555	 0.120955798884041 
556	 0.121540637384765 
557	 0.122168614339535 
558	 0.1228386590272 
559	 0.123482167612212 
560	 0.124028791753674 
561	 0.124513127355597 
562	 0.125024477789987 
563	 0.125419228506781 
564	 0.125803826973144 
565	 0.12624617315707 
566	 0.126689791613603 
567	 0.127003470725 
568	 0.127252981814869 
569	 0.127566065133224 
570	 0.127934969084942 
571	 0.128220037191469 
572	 0.128444457338782 
573	 0.128805388445636 
574	 0.129007648950772 
575	 0.12915708416578 
576	 0.12937992562965 
577	 0.129557955683661 
578	 0.129731739400903 
579	 0.129877369897546 
580	 0.129941568810183 
581	 0.129992839576607 
582	 0.129950846118652 
583	 0.129835588183668 
584	 0.129895190210739 
585	 0.129839312566682 
586	 0.129694110020497 
587	 0.12956999080423 
588	 0.129334869601576 
589	 0.129249086202745 
590	 0.129233620354921 
591	 0.1288559394627 
592	 0.128753619159499 
593	 0.128673633226043 
594	 0.128336931825013 
595	 0.127947243424847 
596	 0.127493323288005 
597	 0.126999096098429 
598	 0.126502458165952 
599	 0.125967540862844 
600	 0.125527866707155 
601	 0.125242189456737 
602	 0.125011161101026 
603	 0.124845262766506 
604	 0.124738547991766 
605	 0.12468102753791 
606	 0.124652426367479 
607	 0.124631947049191 
608	 0.124619765004559 
609	 0.124635439227552 
610	 0.124625052593927 
611	 0.124593006318484 
612	 0.124567120911283 
613	 0.124609894307716 
614	 0.12461278518742 
615	 0.124565576464103 
616	 0.124517957919022 
617	 0.124494776755494 
618	 0.124429870458828 
619	 0.124317023765627 
620	 0.124261588715704 
621	 0.124238369549971 
622	 0.124248038247081 
623	 0.124261219558754 
624	 0.124062487219511 
625	 0.12407729670004 
626	 0.124264799856543 
627	 0.124141044807394 
628	 0.124027629775173 
629	 0.124010230543191 
630	 0.124058529475714 
631	 0.123971599538353 
632	 0.123840548284979 
633	 0.123665529246021 
634	 0.123424687924506 
635	 0.123247664234925 
636	 0.123092277735149 
637	 0.12289635314892 
638	 0.122591259417451 
639	 0.122294209451005 
640	 0.12204806512636 
641	 0.121852608333652 
642	 0.121654911546862 
643	 0.121267005497215 
644	 0.120818544347885 
645	 0.120675373274839 
646	 0.120388110145537 
647	 0.12003139662899 
648	 0.119726848643088 
649	 0.119435784361403 
650	 0.119257109898611 
651	 0.119135018306016 
652	 0.11894702606654 
653	 0.118526523918578 
654	 0.118139395978443 
655	 0.117890005456125 
656	 0.117637093770036 
657	 0.11717454827467 
658	 0.116795735827572 
659	 0.116656484593799 
660	 0.11622844278812 
661	 0.115877004731171 
662	 0.115652369276363 
663	 0.115411775581406 
664	 0.115130615438563 
665	 0.114871670181976 
666	 0.114664528289741 
667	 0.114459875827175 
668	 0.114337113987839 
669	 0.114249096727015 
670	 0.11415354223628 
671	 0.114267838382004 
672	 0.114280943011476 
673	 0.114159659207646 
674	 0.114150472782315 
675	 0.114291610894614 
676	 0.114497730742153 
677	 0.114698596583828 
678	 0.114937144475839 
679	 0.115179548902215 
680	 0.115524354007279 
681	 0.116060870180313 
682	 0.116353819109091 
683	 0.116845868901431 
684	 0.117667331553824 
685	 0.11851339429799 
686	 0.119239093189406 
687	 0.119986949829235 
688	 0.120815386798465 
689	 0.121205929936679 
690	 0.121861860226922 
691	 0.122779087672761 
692	 0.123527963825739 
693	 0.124093542766572 
694	 0.124579891993169 
695	 0.125034540519081 
696	 0.125407508707103 
697	 0.125689828285033 
698	 0.12600913161397 
699	 0.126420175284581 
700	 0.126551994517165 
701	 0.126558743470029 
702	 0.126486574559007 
703	 0.126286820912012 
704	 0.126227766323378 
705	 0.126031400348984 
706	 0.125535426770857 
707	 0.124995469875434 
708	 0.124256706982202 
709	 0.123405801524452 
710	 0.122542714350975 
711	 0.121328692873685 
712	 0.120018899092899 
713	 0.11869914791079 
714	 0.117202754335623 
715	 0.115658603223267 
716	 0.113948753892655 
717	 0.112086969856881 
718	 0.110158382489036 
719	 0.107780592235793 
720	 0.10571140158691 
721	 0.104185017205418 
722	 0.10214097974002 
723	 9.99215270095909E-02 
724	 9.79230467121089E-02 
725	 9.56153483302701E-02 
726	 9.30350546010792E-02 
727	 9.03012105292856E-02 
728	 8.74781804592189E-02 
729	 8.42889229938595E-02 
730	 8.10225069000576E-02 
731	 7.80947299036064E-02 
732	 7.56207154985034E-02 
733	 7.34457688178645E-02 
734	 7.15456677768247E-02 
735	 6.99198221656446E-02 
736	 6.85337099236638E-02 
737	 6.75775617082432E-02 
738	 6.68662084034561E-02 
739	 6.62425399384495E-02 
740	 6.58575402125605E-02 
741	 6.56146718416697E-02 
742	 6.53841879998758E-02 
743	 6.50725670940241E-02 
744	 0.065013432904352 
745	 6.50481732954138E-02 
746	 6.50496497727966E-02 
747	 6.50035844566252E-02 
748	 6.49260765738213E-02 
749	 6.48303166670563E-02 
750	 6.47376686434347E-02 
751	 6.46842667660223E-02 
752	 6.47037257533013E-02 
753	 6.47573294982245E-02 
754	 6.47675445964645E-02 
755	 6.47127046656434E-02 
756	 0.064615938533825 
757	 6.45707798307371E-02 
758	 6.48412719215785E-02 
759	 6.52294778822404E-02 
760	 6.54418414705408E-02 
761	 6.52776754389546E-02 
762	 6.53824916193681E-02 
763	 6.52794996110876E-02 
764	 6.51402166041346E-02 
765	 6.52424253186858E-02 
766	 6.54754932847916E-02 
767	 6.55785599657867E-02 
768	 6.56296244391943E-02 
769	 6.59948819635245E-02 
770	 0.066104475062791 
771	 6.61651247159621E-02 
772	 6.64101026853668E-02 
773	 6.67051577113405E-02 
774	 6.70345252043279E-02 
775	 6.73438928004872E-02 
776	 6.75956399363665E-02 
777	 6.78864786042804E-02 
778	 0.068288992999244 
779	 6.87355479547347E-02 
780	 6.90403232458638E-02 
781	 6.94161900366814E-02 
782	 0.069827840679025 
783	 7.02659763264182E-02 
784	 7.09115352855902E-02 
785	 7.13509331568472E-02 
786	 7.16791845462793E-02 
787	 7.21540187281033E-02 
788	 7.27666545393786E-02 
789	 7.34335932852877E-02 
790	 7.40475934056137E-02 
791	 7.45246089722494E-02 
792	 7.49691763038134E-02 
793	 7.54846901704183E-02 
794	 7.60555364339827E-02 
795	 7.64533787718104E-02 
796	 7.69007461061062E-02 
797	 7.75131557565916E-02 
798	 0.078231121093706 
799	 7.84253877950409E-02 
800	 7.88498706056997E-02 
801	 7.94618958673009E-02 
802	 7.97987215146385E-02 
803	 8.00702463474335E-02 
804	 8.01885139964953E-02 
805	 8.03000950242573E-02 
806	 8.07772334047066E-02 
807	 8.06864345640888E-02 
808	 8.03651731815539E-02 
809	 8.02195337157317E-02 
810	 0.080133323855049 
811	 7.99562665516973E-02 
812	 7.96694536315818E-02 
813	 7.92970300361433E-02 
814	 7.87006960149156E-02 
815	 7.80419893252211E-02 
816	 7.74954463876215E-02 
817	 0.077076634038743 
818	 7.59276040533979E-02 
819	 7.50382516129406E-02 
820	 0.074538113966103 
821	 7.34116059044405E-02 
822	 7.16218615921201E-02 
823	 6.98138206809945E-02 
824	 6.84247421001382E-02 
825	 6.68348603410761E-02 
826	 0.064831285085371 
827	 6.24821311601788E-02 
828	 0.060209113168009 
829	 5.84136351697649E-02 
830	 5.66523549843442E-02 
831	 5.49291128319784E-02 
832	 5.36432183330031E-02 
833	 5.27515862513396E-02 
834	 5.18441694544826E-02 
835	 5.09124366689238E-02 
836	 5.05046224229502E-02 
837	 0.050038266980499 
838	 4.95816234508599E-02 
839	 4.92537054614332E-02 
840	 4.89599237876672E-02 
841	 4.84184940716225E-02 
842	 4.79540802663333E-02 
843	 4.79032259729426E-02 
844	 4.75419297015251E-02 
845	 4.70203630278111E-02 
846	 4.66401537796569E-02 
847	 4.66810234079541E-02 
848	 4.65025183280581E-02 
849	 4.60866705766156E-02 
850	 4.56473197310604E-02 
851	 4.55490569254575E-02 
852	 4.53314506207843E-02 
853	 4.49486614619112E-02 
854	 4.45663359899761E-02 
855	 0.044571336660665 
856	 4.43789364406172E-02 
857	 4.40814675045588E-02 
858	 4.38837105621325E-02 
859	 4.36578287628366E-02 
860	 4.35121238038523E-02 
861	 4.32221228582132E-02 
862	 4.25987848146903E-02 
863	 4.27530454029201E-02 
864	 4.26278896543916E-02 
865	 4.21239060575333E-02 
866	 4.20487746289149E-02 
867	 4.15728621600293E-02 
868	 0.041014824058346 
869	 0.040735367076466 
870	 4.09152101963684E-02 
871	 4.07116766543534E-02 
872	 4.03744466056763E-02 
873	 4.01577291936138E-02 
874	 3.97389832022166E-02 
875	 3.95025691395597E-02 
876	 3.93567705850874E-02 
877	 3.90521242630938E-02 
878	 3.82862502818396E-02 
879	 3.83389023178573E-02 
880	 0.038517521835683 
881	 3.76025388921414E-02 
882	 3.72364706046988E-02 
883	 3.69874822995504E-02 
884	 3.68155068556149E-02 
885	 3.69376470726878E-02 
886	 3.65103901860385E-02 
887	 3.61235840792194E-02 
888	 3.60751063968617E-02 
889	 3.61164017737993E-02 
890	 0.035804071064935 
891	 3.56531868777897E-02 
892	 3.58133606516132E-02 
893	 0.035378804014357 
894	 3.50747598208636E-02 
895	 3.46654677289102E-02 
896	 3.39671832236044E-02 
897	 3.38460724065969E-02 
898	 3.45186361432318E-02 
899	 3.45451555443679E-02 
900	 0.033050451517135 
901	 3.27187938997309E-02 
902	 3.26236196092966E-02 
903	 3.28039550202201E-02 
904	 0.033276849981351 
905	 3.20081800143546E-02 
906	 3.14356194654388E-02 
907	 3.17900231602257E-02 
908	 3.16303070375999E-02 
909	 3.14686334501875E-02 
910	 3.14048937040872E-02 
911	 3.14838573171186E-02 
912	 3.15874990623482E-02 
913	 3.04157816392151E-02 
914	 2.93572025056638E-02 
915	 2.94078021714697E-02 
916	 3.03942939082716E-02 
917	 3.01571250063527E-02 
918	 2.93048934695809E-02 
919	 2.86949081915002E-02 
920	 2.88340531235158E-02 
921	 2.85632575998259E-02 
922	 2.82939642594601E-02 
923	 2.82572564331244E-02 
924	 2.76449779114606E-02 
925	 2.70194854115599E-02 
926	 2.69446612283282E-02 
927	 2.74603770616378E-02 
928	 0.026448026779441 
929	 0.025462147412825 
930	 2.57975756741095E-02 
931	 0.027629769512153 
932	 2.43198870882879E-02 
933	 0.018335918539056 
934	 1.80804508386699E-02 
935	 2.72496316619031E-02 
936	 3.00885954662933E-02 
937	 2.64372338832301E-02 
938	 2.34540352931311E-02 
939	 2.58320095942674E-02 
940	 2.20877460766457E-02 
941	 2.21571910852522E-02 
942	 2.39916201596306E-02 
943	 2.19247710429205E-02 
944	 2.90573464993941E-02 
945	 2.93697130678605E-02 
946	 2.56313139903538E-02 
947	 2.86920249777787E-02 
948	 1.89409278561133E-02 
949	 1.80011216350166E-02 
950	 2.18483016468349E-02 
951	 1.47852224723508E-02 
952	 2.16303998974989E-02 
953	 2.64003971073421E-02 
954	 2.53724403025461E-02 
955	 2.43949532045633E-02 
956	 1.99094761545271E-02 
957	 1.66873711802155E-02 
958	 1.76661428156441E-02 
959	 0.022425937006548 
960	 2.16652899971622E-02 
961	 0.023150362129433 
962	 0.024848667828038 
963	 0.020074337491785 
964	 2.31198462705098E-02 
965	 2.40368539396192E-02 
966	 2.18540263319259E-02 
967	 0.022389941912451 
968	 2.31440712895764E-02 
969	 2.25921177593421E-02 
970	 2.22419924961832E-02 
971	 2.49102920429532E-02 
972	 2.25770359885226E-02 
973	 2.12213384659849E-02 
974	 2.29257092829892E-02 
975	 2.42065098195525E-02 
976	 2.32404293590778E-02 
977	 2.30078550906402E-02 
978	 2.46276436171501E-02 
979	 2.64661015789292E-02 
980	 2.34760742131255E-02 
981	 2.27473281568636E-02 
982	 2.51004127953885E-02 
983	 2.55655048804079E-02 
984	 0.022742384478141 
985	 2.20865770315834E-02 
986	 2.41931169697691E-02 
987	 2.53860444114925E-02 
988	 2.47108050806557E-02 
989	 2.41763664913222E-02 
990	 2.42652876778403E-02 
991	 2.40416441353338E-02 
992	 2.31050295994269E-02 
993	 2.31797229605729E-02 
994	 2.34876632289538E-02 
995	 2.23169891525776E-02 
996	 2.40721820797416E-02 
997	 2.55792131556351E-02 
998	 2.55862956160429E-02 
999	 2.47970554859738E-02 
1000	 2.48714097236615E-02 
1001	 2.31827144365036E-02 
1002	 2.33573686098107E-02 
1003	 2.33955213515256E-02 
1004	 2.33631188199296E-02 
1005	 2.32729064759403E-02 
1006	 2.33856155789555E-02 
1007	 0.023172592885055 
1008	 2.29945953906921E-02 
1009	 2.29751983616157E-02 
1010	 2.33661770429759E-02 
1011	 2.39009085051877E-02 
1012	 2.46146468338628E-02 
1013	 2.50321806393196E-02 
1014	 2.51191597476341E-02 
1015	 2.48306400361234E-02 
1016	 0.02485462602211 
1017	 2.48599030848074E-02 
1018	 2.45861406366199E-02 
1019	 2.42392360896442E-02 
1020	 2.40209596371457E-02 
1021	 2.37000723252303E-02 
1022	 2.29692394163233E-02 
1023	 2.34212293443433E-02 
1024	 2.34466388155829E-02 
1025	 2.30287110035648E-02 
1026	 2.34266703419195E-02 
1027	 2.35915063685249E-02 
1028	 2.36649991307685E-02 
1029	 2.38111110195983E-02 
1030	 2.43889365811791E-02 
1031	 2.42017133711028E-02 
1032	 2.31556433696389E-02 
1033	 2.29584935603068E-02 
1034	 2.28075687207967E-02 
1035	 2.29124018498667E-02 
1036	 2.39662046847127E-02 
1037	 2.43036060164583E-02 
1038	 2.42499553192795E-02 
1039	 2.41820372999824E-02 
1040	 2.41498859410777E-02 
1041	 2.41144678716917E-02 
1042	 2.40137481932205E-02 
1043	 2.39316076049705E-02 
1044	 2.39804307308989E-02 
1045	 2.40245030896216E-02 
1046	 0.0240012896525 
1047	 0.024090217097837 
1048	 2.41976857955736E-02 
1049	 2.41658746500474E-02 
1050	 2.41657709375902E-02 
1051	 2.43319967447247E-02 
1052	 2.44642765672726E-02 
1053	 2.42555119490369E-02 
1054	 2.44578446682172E-02 
1055	 2.52685975429736E-02 
1056	 2.56423980007451E-02 
1057	 2.59162308144333E-02 
1058	 2.63926749946196E-02 
1059	 2.62445288966913E-02 
1060	 2.54959371302187E-02 
1061	 2.50400916044813E-02 
1062	 2.40721298319755E-02 
1063	 2.39814145007323E-02 
1064	 2.45592361923884E-02 
1065	 2.46306186621223E-02 
1066	 2.50908353798096E-02 
1067	 0.025165057593435 
1068	 2.44015562553554E-02 
1069	 2.42853082821257E-02 
1070	 2.45199207987129E-02 
1071	 2.46814670100421E-02 
1072	 2.52549137841988E-02 
1073	 2.55819514491507E-02 
1074	 2.55582749989922E-02 
1075	 2.52683839935153E-02 
1076	 2.51038306359297E-02 
1077	 2.45855561315121E-02 
1078	 2.43922674025281E-02 
1079	 2.43335197010138E-02 
1080	 2.43924696033818E-02 
1081	 0.024831966632936 
1082	 2.47529808273217E-02 
1083	 2.44414290466976E-02 
1084	 2.42293135222593E-02 
1085	 2.34421132425228E-02 
1086	 0.023300028388699 
1087	 2.40028979964677E-02 
1088	 2.41561554021349E-02 
1089	 2.44881537204756E-02 
1090	 2.41350823917916E-02 
1091	 2.42120767085204E-02 
1092	 2.41961561586296E-02 
1093	 2.42071341775363E-02 
1094	 0.024506905400258 
1095	 2.45344070098635E-02 
1096	 2.39328404877209E-02 
1097	 2.38108090210366E-02 
1098	 2.44091749484057E-02 
1099	 2.42004259367773E-02 
1100	 2.31868906688073E-02 
1101	 2.31122028721388E-02 
1102	 2.29836095003071E-02 
1103	 2.30488360599296E-02 
1104	 2.41844835578072E-02 
1105	 2.51742307973669E-02 
1106	 2.51450394116793E-02 
1107	 2.48878997127381E-02 
1108	 2.35980293456088E-02 
1109	 2.36301987887335E-02 
1110	 2.37610560045138E-02 
1111	 2.42281018960901E-02 
1112	 2.43935713867182E-02 
1113	 2.55583991672564E-02 
1114	 2.56636135843011E-02 
1115	 2.45471849883092E-02 
1116	 0.024497291137032 
1117	 2.41683874463996E-02 
1118	 2.38616144783509E-02 
1119	 2.45290876756649E-02 
1120	 2.52381835645934E-02 
1121	 0.025236363425439 
1122	 2.79182282341279E-02 
1123	 3.37020431048763E-02 
1124	 3.21674202465118E-02 
1125	 0.027266463899551 
1126	 2.43139840540278E-02 
1127	 1.91885929868936E-02 
1128	 0.019918914419244 
1129	 2.16279565372857E-02 
1130	 2.74817142410836E-02 
1131	 2.92193063181776E-02 
1132	 2.98237475651442E-02 
1133	 3.03421373884035E-02 
1134	 3.24723757962158E-02 
1135	 3.11594069308171E-02 
1136	 2.61509867383504E-02 
1137	 2.60947200855599E-02 
1138	 2.85304309862573E-02 
1139	 2.54058660267168E-02 
1140	 0.024644282011959 
1141	 2.63689911535549E-02 
1142	 2.54383135246391E-02 
1143	 2.66209196594246E-02 
1144	 2.76279346521655E-02 
1145	 2.93264850688426E-02 
1146	 3.03463558167053E-02 
1147	 2.98121376658332E-02 
1148	 3.17398159279296E-02 
1149	 0.029489613964854 
1150	 2.77191205525834E-02 
1151	 2.34837413728344E-02 
1152	 2.32388554420168E-02 
1153	 2.55217769444907E-02 
1154	 0.026165414004733 
1155	 2.72380117282824E-02 
1156	 2.70974055545376E-02 
1157	 2.70216108967448E-02 
1158	 2.53263564571421E-02 
1159	 2.42758384212785E-02 
1160	 2.45394614804732E-02 
1161	 2.39798837077636E-02 
1162	 2.31326933632629E-02 
1163	 2.29673359716693E-02 
1164	 2.28422037874173E-02 
1165	 2.30967836501205E-02 
1166	 2.39037431932578E-02 
1167	 2.41534994852802E-02 
1168	 2.37078683378938E-02 
1169	 2.31222082778716E-02 
1170	 2.27611192627067E-02 
1171	 2.25478139485196E-02 
1172	 2.25331509037618E-02 
1173	 2.28195209417447E-02 
1174	 2.36370217982024E-02 
1175	 2.33488518849691E-02 
1176	 2.29021937351451E-02 
1177	 2.31931482048761E-02 
1178	 2.28214822318643E-02 
1179	 2.30757579816914E-02 
1180	 2.43802414892002E-02 
1181	 2.43083124499525E-02 
1182	 2.38153579707956E-02 
1183	 0.023618898307332 
1184	 2.26179320562791E-02 
1185	 2.29517707211318E-02 
1186	 2.40838103346112E-02 
1187	 2.36413079142905E-02 
1188	 2.34360517369993E-02 
1189	 2.37882661825323E-02 
1190	 2.34106643971396E-02 
1191	 2.35026297308593E-02 
1192	 2.36787468007436E-02 
1193	 2.44466216950089E-02 
1194	 2.39128332333675E-02 
1195	 0.02292451482016 
1196	 2.28157986905685E-02 
1197	 2.31849135313298E-02 
1198	 2.31077568222156E-02 
1199	 2.29618091825128E-02 
1200	 2.28940405364353E-02 
1201	 2.25602213170497E-02 
1202	 2.27287432942601E-02 
1203	 2.35311283362307E-02 
1204	 2.38310435614449E-02 
1205	 2.33204457215812E-02 
1206	 2.31162450053229E-02 
1207	 0.023440972660747 
1208	 0.023216675793598 
1209	 2.24387433402757E-02 
1210	 2.21805660683724E-02 
1211	 2.23369940026179E-02 
1212	 2.24901538422569E-02 
1213	 2.29239913401098E-02 
1214	 2.32061396552766E-02 
1215	 2.31854952783313E-02 
1216	 2.27358272026149E-02 
1217	 0.022831268701192 
1218	 2.31537316543408E-02 
1219	 2.33202580497254E-02 
1220	 2.32070944989707E-02 
1221	 2.33653713298969E-02 
1222	 0.023844729342418 
1223	 2.37678470939876E-02 
1224	 2.34718238843233E-02 
1225	 0.023348691230001 
1226	 0.023061757682007 
1227	 2.29387241895564E-02 
1228	 2.32225924035858E-02 
1229	 0.023461401910629 
1230	 2.33302670936655E-02 
1231	 2.33014143449341E-02 
1232	 2.36422501536944E-02 
1233	 2.37031883181097E-02 
1234	 0.023433286409136 
1235	 0.023283106686163 
1236	 2.32935867802132E-02 
1237	 0.023110798630061 
1238	 2.26139089018278E-02 
1239	 2.25366325531715E-02 
1240	 2.29278944537176E-02 
1241	 2.28388691646776E-02 
1242	 2.27533024178654E-02 
1243	 0.022981406879362 
1244	 2.27568502876083E-02 
1245	 2.26359238982111E-02 
1246	 2.27948391314386E-02 
1247	 2.30094540203825E-02 
1248	 2.31218339745484E-02 
1249	 2.30011243630494E-02 
1250	 0.023256097368828 
1251	 2.32322915801095E-02 
1252	 2.29194443244878E-02 
1253	 2.33565687334676E-02 
1254	 2.34889785025733E-02 
1255	 2.30645314513124E-02 
1256	 2.30499709808663E-02 
1257	 2.32427475947249E-02 
1258	 2.32921323238224E-02 
1259	 2.35921412272954E-02 
1260	 2.36740248018076E-02 
1261	 2.34844729136688E-02 
1262	 2.34242327653776E-02 
1263	 2.32376363901522E-02 
1264	 2.32653299162446E-02 
1265	 2.33106997511186E-02 
1266	 2.31844792883716E-02 
1267	 2.32320427936747E-02 
1268	 2.33101585212933E-02 
1269	 2.33828288879823E-02 
1270	 2.35160140905673E-02 
1271	 2.33880025886873E-02 
1272	 2.29943698083892E-02 
1273	 2.32175362504814E-02 
1274	 2.38782388098222E-02 
1275	 2.37748213046944E-02 
1276	 2.35534760776656E-02 
1277	 2.37817531935915E-02 
1278	 2.38302989090374E-02 
1279	 2.35968427697904E-02 
1280	 2.34727601216979E-02 
1281	 2.35795277698856E-02 
1282	 0.023364386962659 
1283	 2.30456232392853E-02 
1284	 2.29725366195933E-02 
1285	 2.31597583210569E-02 
1286	 2.31581245922789E-02 
1287	 2.30200143171044E-02 
1288	 2.34744463155352E-02 
1289	 2.37134534917121E-02 
1290	 2.35814510798185E-02 
1291	 2.29558195564063E-02 
1292	 2.32580803185858E-02 
1293	 2.35911236347059E-02 
1294	 2.33622228651784E-02 
1295	 2.29847048770197E-02 
1296	 2.27497659915414E-02 
1297	 2.27957432681404E-02 
1298	 2.28374452377298E-02 
1299	 0.02324277507474 
1300	 2.39348347252908E-02 
1301	 2.36478062055554E-02 
1302	 2.30635355240755E-02 
1303	 2.31867371247582E-02 
1304	 2.28703453684428E-02 
1305	 0.022438114740375 
1306	 2.23993777367665E-02 
1307	 2.29993602229316E-02 
1308	 2.29849186214294E-02 
1309	 2.23909972474205E-02 
1310	 2.26009072034867E-02 
1311	 2.35460997874826E-02 
1312	 2.38211646699751E-02 
1313	 2.40526081426337E-02 
1314	 2.43895084986607E-02 
1315	 2.44795788436942E-02 
1316	 2.42093481644876E-02 
1317	 2.36859189318298E-02 
1318	 2.37435199112539E-02 
1319	 2.36421071174729E-02 
1320	 2.35240931504402E-02 
1321	 2.39884717143711E-02 
1322	 2.45183014361229E-02 
1323	 2.36683424409759E-02 
1324	 2.29577428649252E-02 
1325	 0.022364460367265 
1326	 2.29528162401389E-02 
1327	 2.41944464230418E-02 
1328	 2.35479411192571E-02 
1329	 2.35585632350517E-02 
1330	 2.46843456934869E-02 
1331	 2.47330015348374E-02 
1332	 2.45540322749957E-02 
1333	 2.50414021764937E-02 
1334	 2.51274589712624E-02 
1335	 2.44101102633956E-02 
1336	 2.44624202453585E-02 
1337	 2.44892379204134E-02 
1338	 2.18407522592612E-02 
1339	 2.18782886937316E-02 
1340	 2.68129199107381E-02 
1341	 2.69642405939333E-02 
1342	 2.29340932763928E-02 
1343	 2.27075361139637E-02 
1344	 2.24679927632234E-02 
1345	 2.24371470849674E-02 
1346	 2.71789345577517E-02 
1347	 3.02060400446071E-02 
1348	 0.032223616550579 
1349	 3.19325508034675E-02 
1350	 2.23003720181284E-02 
1351	 2.39069865648727E-02 
1352	 4.08502272916554E-02 
1353	 3.98703059546495E-02 
1354	 2.17910986468052E-02 
1355	 5.51347127821142E-02 
1356	 8.46984875764415E-02 
1357	 8.38714361205158E-02 
1358	 7.28213484640698E-02 
1359	 0.241630396984021 
1360	 0.556852720663763 
1361	 0.326056023448489 
1362	 8.58158512569198E-02 
1363	 8.12340840621399E-02 
1364	 0.103056604228771 
1365	 0.273495019785792 
1366	 0.760835878283568 
1367	 0.990483014752291 
1368	 1.08123203250536 
1369	 0.59110235193623 
1370	 0.542716718958292 
1371	 0.698547947174893 
1372	 0.935196442450181 
1373	 2.23652868714175 
1374	 2.16493955787117 
1375	 0.809196746015182 
1376	 0.911440474418874 
1377	 0.955445130279608 
1378	 0.82946141742688 
1379	 1.02740436423288 
1380	 1.37614967715734 
1381	 9.7145394069783 
1382	 1.83267887426846 
1383	 0.275762998454584 
1384	 0.350079662744267 
1385	 0.589123958046968 
1386	 0.361216240281389 
1387	 0.263875039098187 
1388	 0.289306454949244 
1389	-0.409347373960658 
1390	-0.454375676418386 
1391	 0.152792466095368 
1392	 0.384546997778372 
1393	 0.358876199358431 
1394	 0.455545133808063 
1395	 0.691624628461465 
1396	 3.90467669654792 
1397	 3.38580801456041 
1398	 2.63479721729422 
1399	 2.15328752184856 
1400	 0.866401079626412 
1401	 1.91806367685721 
1402	 2.65513303796649 
1403	 0.677000438688643 
1404	 0.531663978689484 
1405	 0.507700127942576 
1406	 5.62888137823693E-02 
1407	 0.185174807422925 
1408	 1.31813312064581 
1409	 1.31059887049954 
1410	 0.812340434070427 
1411	 0.720598864470527 
1412	 0.553689418874168 
1413	 0.32225722686577 
1414	 0.175578795435649 
1415	 9.13365297280166E-02 
1416	-1.88754610391756E-02 
1417	-1.03965204787717E-02 
1418	 3.30816081767046E-02 
1419	 6.19823571030664E-02 
1420	 0.146559647913035 
1421	 0.184446243413101 
1422	 0.216564787315898 
1423	 0.216953656706191 
1424	 0.190989921928789 
1425	 0.161995253924586 
1426	 0.131600225464858 
1427	 0.101264399160922 
1428	 6.85927105141579E-02 
1429	 5.62775114254922E-02 
1430	 1.71131220563347E-02 
1431	 1.87782059134114E-02 
1432	 9.00544620160698E-02 
1433	 9.16702563731214E-02 
1434	 4.17438316170402E-02 
1435	 5.12019128098403E-02 
1436	 7.76122050673826E-02 
1437	 6.58437940910276E-02 
1438	 4.55706263433298E-02 
1439	 7.44679468541103E-02 
1440	 9.99958569059386E-02 
1441	 6.87271348127204E-02 
1442	 4.99706117931756E-02 
1443	 6.30322106860126E-02 
1444	 6.82228358444099E-02 
1445	 5.90717962122853E-02 
1446	 4.72803740382806E-02 
1447	 4.59665035942899E-02 
1448	 4.19196571424744E-02 
1449	 3.34628617251417E-02 
1450	 3.93506659257083E-02 
1451	 4.09805067338275E-02 
1452	 3.02017822291331E-02 
1453	 3.12995944476675E-02 
1454	 2.99425858530003E-02 
1455	 3.27063435590119E-02 
1456	 3.12911385014741E-02 
1457	 2.62774834104805E-02 
1458	 0.02652796229844 
1459	 2.96210464618036E-02 
1460	 2.96836467542526E-02 
1461	 3.15495738558405E-02 
1462	 3.02414269534338E-02 
1463	 2.24835650487499E-02 
1464	 2.26059435498068E-02 
1465	 2.77079696351885E-02 
1466	 2.74863095254833E-02 
1467	 2.59122976998201E-02 
1468	 3.15220298021986E-02 
1469	 0.044815182999424 
1470	 4.19112327873619E-02 
1471	 3.25246666539966E-02 
1472	 3.17483238080699E-02 
1473	 2.08684130607174E-02 
1474	 1.90569205924608E-02 
1475	 0.032191592284221 
1476	 3.57137113795328E-02 
1477	 3.45578668153204E-02 
1478	 0.032446282121194 
1479	 2.90246154379562E-02 
1480	 2.87436379791845E-02 
1481	 2.72350533418659E-02 
1482	 2.56463972076414E-02 
1483	 2.62104684164491E-02 
1484	 0.027209291395677 
1485	 2.79782418276778E-02 
1486	 2.71845899237876E-02 
1487	 0.026972367702612 
1488	 2.65774503772383E-02 
1489	 2.39924822966233E-02 
1490	 2.34350522576641E-02 
1491	 2.46858739627968E-02 
1492	 2.49602903420289E-02 
1493	 2.55383307830784E-02 
1494	 2.53311226525357E-02 
1495	 2.38693375744064E-02 
1496	 2.38417143051697E-02 
1497	 2.44216399650035E-02 
1498	 2.42561631872382E-02 
1499	 2.45671738725537E-02 
1500	 2.47956700838455E-02 
1501	 2.42164662388102E-02 
1502	 2.39772158441534E-02 
1503	 2.43551818559652E-02 
1504	 2.43446859914446E-02 
1505	 2.36057605433057E-02 
1506	 2.37477329861509E-02 
1507	 2.40344334681898E-02 
1508	 2.40225883163309E-02 
1509	 2.45192843511826E-02 
1510	 2.45462972868727E-02 
1511	 2.34760360917969E-02 
1512	 2.31677202379561E-02 
1513	 2.37429832121077E-02 
1514	 2.36999890835396E-02 
1515	 2.34182213554124E-02 
1516	 2.37853588608502E-02 
1517	 2.42359470933674E-02 
1518	 2.39148261070699E-02 
1519	 2.38917227474168E-02 
1520	 2.45833276874528E-02 
1521	 2.42860632870045E-02 
1522	 0.023758090499348 
1523	 2.43709504539983E-02 
1524	 2.45807637793243E-02 
1525	 2.40684695887511E-02 
1526	 2.43636628819456E-02 
1527	 2.46667127788687E-02 
1528	 2.40948018018785E-02 
1529	 2.42924715382513E-02 
1530	 2.49453718130837E-02 
1531	 2.43795510457298E-02 
1532	 2.40203802872095E-02 
1533	 2.43945692010643E-02 
1534	 2.40287888861313E-02 
1535	 2.37356798799907E-02 
1536	 2.42606060573749E-02 
1537	 2.41892850329257E-02 
1538	 0.023625930852738 
1539	 2.36893463728514E-02 
1540	 2.38601042817712E-02 
1541	 2.40345704401085E-02 
1542	 0.024346003152733 
1543	 2.43199845947222E-02 
1544	 2.43424740418281E-02 
1545	 2.46734111943862E-02 
1546	 2.46955771379332E-02 
1547	 2.46452813716318E-02 
1548	 2.50636064639165E-02 
1549	 0.025428140010153 
1550	 2.51101430013465E-02 
1551	 2.44240293484822E-02 
1552	 2.42523038344817E-02 
1553	 2.40758252356819E-02 
1554	 2.37862277001334E-02 
1555	 2.44233611478493E-02 
1556	 2.46165284291635E-02 
1557	 2.39445453625991E-02 
1558	 2.40728717399574E-02 
1559	 2.45099067733331E-02 
1560	 2.43217720577448E-02 
1561	 2.40511292305351E-02 
1562	 2.43177219610868E-02 
1563	 2.44165822790334E-02 
1564	 0.0241526751989 
1565	 2.44342277678895E-02 
1566	 2.45821936233437E-02 
1567	 2.41786829326404E-02 
1568	 2.42260456701405E-02 
1569	 0.024568559371798 
1570	 2.43475580596162E-02 
1571	 2.42801383274661E-02 
1572	 2.44963407377061E-02 
1573	 2.41337541634024E-02 
1574	 2.41102760627244E-02 
1575	 2.44455251676233E-02 
1576	 2.45593359690293E-02 
1577	 2.49317640487559E-02 
1578	 2.52083733893117E-02 
1579	 2.48318273605513E-02 
1580	 2.44821227502297E-02 
1581	 2.45702894831411E-02 
1582	 2.47287612819761E-02 
1583	 2.47479910304768E-02 
1584	 2.45028390749389E-02 
1585	 2.42312012460934E-02 
1586	 2.39511146413687E-02 
1587	 2.43000103101393E-02 
1588	 2.49822747083406E-02 
1589	 2.49160920052544E-02 
1590	 2.47635880742839E-02 
1591	 2.46456336343507E-02 
1592	 2.43945936427786E-02 
1593	 2.46653217950012E-02 
1594	 2.46641492337134E-02 
1595	 2.41179740280981E-02 
1596	 2.45326380916905E-02 
1597	 2.51013615890215E-02 
1598	 2.46790625355111E-02 
1599	 2.45127925533534E-02 
1600	 2.48741435893092E-02 
1601	 2.49000263395582E-02 
1602	 2.48438263532574E-02 
1603	 2.49198849173716E-02 
1604	 2.47409945820292E-02 
1605	 2.40909581491358E-02 
1606	 2.36968523321238E-02 
1607	 2.44419680739227E-02 
1608	 2.46409625344686E-02 
1609	 2.39278973887726E-02 
1610	 2.41905162519085E-02 
1611	 2.45252468339045E-02 
1612	 2.41340519943236E-02 
1613	 2.41346312228609E-02 
1614	 2.47460776371549E-02 
1615	 2.49434121718608E-02 
1616	 2.45730142879985E-02 
1617	 2.44704560627989E-02 
1618	 2.44218896392118E-02 
1619	 2.43347299070323E-02 
1620	 2.44256087183657E-02 
1621	 2.43743315080028E-02 
1622	 0.024395043608715 
1623	 2.46287057425171E-02 
1624	 2.41927083744155E-02 
1625	 2.36902717343722E-02 
1626	 2.40026178080826E-02 
1627	 2.43714880089912E-02 
1628	 0.024727182298611 
1629	 2.52775828147347E-02 
1630	 2.58759836739043E-02 
1631	 2.57673243997605E-02 
1632	 2.49674778046196E-02 
1633	 2.47263436239706E-02 
1634	 2.47823786901025E-02 
1635	 2.44440435684565E-02 
1636	 2.47492765263016E-02 
1637	 2.56504730575398E-02 
1638	 2.54650975682622E-02 
1639	 2.48359918392632E-02 
1640	 2.50620400528738E-02 
1641	 2.54916859001076E-02 
1642	 2.52673089569859E-02 
1643	 2.47640228627203E-02 
1644	 2.47110233326153E-02 
1645	 2.47812956821665E-02 
1646	 2.47491335667336E-02 
1647	 2.50243726706789E-02 
1648	 2.51673495148214E-02 
1649	 2.49410437425693E-02 
1650	 2.51086770642234E-02 
1651	 2.55537630514204E-02 
1652	 2.55900463343177E-02 
1653	 2.47935670097465E-02 
1654	 0.024417042072673 
1655	 0.024293353274998 
1656	 2.44178512087319E-02 
1657	 2.48047308323218E-02 
1658	 2.49296309707221E-02 
1659	 2.52082161627684E-02 
1660	 2.53250148476988E-02 
1661	 2.49862634989339E-02 
1662	 2.47909570155095E-02 
1663	 2.48191098971458E-02 
1664	 0.024932630471064 
1665	 2.49576086997825E-02 
1666	 2.51282171797076E-02 
1667	 2.56162930349107E-02 
1668	 2.48007495989596E-02 
1669	 0.02466289430999 
1670	 2.50064673799984E-02 
1671	 2.47617244013427E-02 
1672	 2.44202208312795E-02 
1673	 0.024949241489237 
1674	 0.025836723462878 
1675	 2.59412208728353E-02 
1676	 2.59145144004209E-02 
1677	 2.60064769682385E-02 
1678	 2.51784884970893E-02 
1679	 2.46525041033218E-02 
1680	 2.50747583640326E-02 
1681	 2.48934232554529E-02 
1682	 2.42570726395002E-02 
1683	 2.41281029795148E-02 
1684	 2.43846863634969E-02 
1685	 2.47129629904927E-02 
1686	 2.56392420891525E-02 
1687	 2.60046856852649E-02 
1688	 2.54189073470366E-02 
1689	 2.55325235260546E-02 
1690	 2.51327793421025E-02 
1691	 2.46794908270743E-02 
1692	 2.54064287741664E-02 
1693	 0.025447817769692 
1694	 0.025191560827013 
1695	 2.50587770980483E-02 
1696	 2.44591564668633E-02 
1697	 2.47218289461071E-02 
1698	 2.56282216307791E-02 
1699	 2.59954120258086E-02 
1700	 2.54374010592712E-02 
1701	 2.48726443588251E-02 
1702	 2.50364469574196E-02 
1703	 2.51701859444203E-02 
1704	 2.58222958549969E-02 
1705	 2.63456225015186E-02 
1706	 2.57837516695848E-02 
1707	 2.53629533445046E-02 
1708	 2.57133779456088E-02 
1709	 0.025864399398486 
1710	 2.49069289760146E-02 
1711	 2.45213849878179E-02 
1712	 2.51958667671968E-02 
1713	 0.025531838143652 
1714	 2.54392364250198E-02 
1715	 2.48892396598634E-02 
1716	 0.024937602710311 
1717	 2.46548484039379E-02 
1718	 2.48615692399339E-02 
1719	 2.59537787097571E-02 
1720	 2.61420945162177E-02 
1721	 2.56032620952459E-02 
1722	 2.60509128973921E-02 
1723	 2.69378896704552E-02 
1724	 2.61528552420186E-02 
1725	 2.57661629727634E-02 
1726	 2.63737640967809E-02 
1727	 2.51668348051405E-02 
1728	 2.47854615722664E-02 
1729	 2.54144704049346E-02 
1730	 2.47067136588086E-02 
1731	 0.024912160319993 
1732	 2.58446878573991E-02 
1733	 2.56551336032193E-02 
1734	 2.49097812580792E-02 
1735	 0.024530146387285 
1736	 2.40466283554636E-02 
1737	 2.38222312968087E-02 
1738	 2.54168367410178E-02 
1739	 2.65621760082963E-02 
1740	 2.53237459896625E-02 
1741	 2.56029948840873E-02 
1742	 2.71662779323716E-02 
1743	 2.55477348048267E-02 
1744	 2.44888313761788E-02 
1745	 2.57683897657444E-02 
1746	 2.47861938828302E-02 
1747	 2.46271969468762E-02 
1748	 2.56658622224318E-02 
1749	 2.53607623019198E-02 
1750	 2.45045666506752E-02 
1751	 2.47333014493705E-02 
1752	 2.50043672379768E-02 
1753	 2.51274053775102E-02 
1754	 2.51940864165101E-02 
1755	 2.54918438882902E-02 
1756	 2.65109834867927E-02 
1757	 2.75449517350787E-02 
1758	 2.70244206898598E-02 
1759	 2.56051249552883E-02 
1760	 2.53120642825887E-02 
1761	 2.59172992236301E-02 
1762	 2.63480801763893E-02 
1763	 2.63925989165945E-02 
1764	 2.51930113189853E-02 
1765	 2.38742197684875E-02 
1766	 2.43228572646659E-02 
1767	 2.72289370444275E-02 
1768	 2.96632202403729E-02 
1769	 2.89853747548632E-02 
1770	 2.75451776464574E-02 
1771	 2.57888538393147E-02 
1772	 2.45896978332238E-02 
1773	 0.026232846450362 
1774	 2.77491626311107E-02 
1775	 2.59983145956604E-02 
1776	 2.60539445832073E-02 
1777	 2.65080613613556E-02 
1778	 2.66337352121646E-02 
1779	 2.83463934773893E-02 
1780	 2.89950838920376E-02 
1781	 2.97196612174166E-02 
1782	 0.028679447660455 
1783	 2.38055899306783E-02 
1784	 2.25306410969434E-02 
1785	 0.020395998310232 
1786	 2.33331336085568E-02 
1787	 0.036488180654375 
1788	 3.90272009673501E-02 
1789	 3.71052591699035E-02 
1790	 2.86820915938567E-02 
1791	 2.45912155896664E-02 
1792	 2.54363649338622E-02 
1793	 2.82977893255448E-02 
1794	 3.89183467896748E-02 
1795	 4.21490327710763E-02 
1796	 3.84684237815608E-02 
1797	 4.75872103521792E-02 
1798	 3.95224710980475E-02 
1799	 2.69280889166607E-02 
1800	 2.75250302989904E-02 
1801	 2.02260774476475E-02 
1802	 2.14531732608858E-02 
1803	 1.71150121062641E-02 
1804	-1.34891542124937E-02 
1805	-0.012498631123343 
1806	 4.19245846743704E-02 
1807	 5.24145061526279E-02 
1808	 5.94336154526028E-02 
1809	 9.15482204886212E-02 
1810	-1.91009889015593E-02 
1811	-7.93989884682691E-02 
1812	 5.40555694625765E-02 
1813	 0.103160457348099 
1814	 4.89134692937597E-02 
1815	 0.156728783913493 
1816	 0.546951196161412 
1817	 0.601183334846989 
1818	 1.05440506255456 
1819	 0.519648875425939 
1820	 3.28189992960147E-02 
1821	 0.318707504741239 
1822	 0.395708242060354 
1823	-0.939863032929965 
1824	 0.37532967627765 
1825	-1.24110404967366 
1826	-1.32450784156684 
1827	-2.67834189370366 
1828	-6.01225806237006 
1829	 6.90546044391432 
1830	 3.29832357592641 
1831	 0.445563446436122 
1832	 0.646374868418931 
1833	 1.4734859663449 
1834	 1.16055262918862 
1835	 0.374262866221004 
1836	 0.189277425798808 
1837	-1.15980972271983 
1838	-2.17714821719494 
1839	-1.44108218386848 
1840	-0.498670102997559 
1841	-0.377873995459151 
1842	-0.284722261486424 
1843	-0.296266696211179 
1844	-0.507498892148067 
1845	-0.610769867257559 
1846	-0.96275955414116 
1847	-1.19547810874383 
1848	 18.5825498877766 
1849	 0.346088379547719 
1850	 1.07164131089793 
1851	-32.2881462736856 
1852	 1.19975164921045 
1853	 0.733410420661338 
1854	 0.71579325706918 
1855	 0.804083428197034 
1856	 0.832645200056895 
1857	 1.16948524159035 
1858	 1.91497242523777 
1859	 2.22643509095605 
1860	 2.7701679661273 
1861	 6.63019204175773 
1862	 66.6337168357065 
1863	 3.84390204415517 
1864	 1.914588356192 
1865	 1.23014076710627 
1866	 0.722552647419851 
1867	 0.535051205608915 
1868	-0.2301580850139 
1869	-0.961701568524622 
1870	-1.77766141491141E-02 
1871	 6.55676193207042 
1872	 2.79294734825064 
1873	-0.601939968918011 
1874	-0.314952778100678 
1875	-0.114362274616817 
1876	-7.78985521425582E-02 
1877	 2.21157644517113E-02 
1878	 8.23719672809587E-02 
1879	 0.480567846651783 
1880	 0.392561425731026 
1881	 1.44530243042181 
1882	-0.986171254672256 
1883	 6.72688537329476E-02 
1884	 1.96655648593635 
1885	-13.7450454836722 
1886	 55.8321727816694 
1887	-11.4260633819969 
1888	-9.51979815999462 
1889	-3.77801337279337 
1890	-1.78274503322898 
1891	-0.906964669647928 
1892	-0.589447429753461 
1893	-6.65174850017194E-02 
1894	 0.742028769456228 
1895	 0.880706607527038 
1896	 0.895815034950265 
1897	 0.981888929464729 
1898	 3.18904920906667 
1899	-2.38356676209009 
1900	-1.78021211658017 
1901	-1.95667430928168 
1902	-1.62057689359462 
1903	-1.47562855347185 
1904	 0.260475854384633 
1905	 0.961497669478129 
1906	-0.634458483235242 
1907	-0.377315963896154 
1908	-0.452382744782079 
1909	-0.576330963565242 
1910	-7.37346128058351 
1911	 3.91131174268741 
1912	 1.54491446817907 
1913	 0.941073716014318 
1914	-0.140674908911107 
1915	-0.960595110536254 
1916	-1.2596381299056 
1917	-2.28750045251229 
1918	 1.87020342685117 
1919	 2.22906868790477 
1920	 2.20644741956414 
1921	 1.19716295573306 
1922	 2.48779684580867 
1923	 2.58782420327458 
1924	 0.817944466698094 
1925	 0.701517114326639 
1926	 0.535318099547889 
1927	-0.461826919050356 
1928	-0.469440476587938 
1929	 1.65831732248895 
1930	 2.80803648423339 
1931	-6.1256978936621 
1932	-3.275957853803 
1933	-3.4453013473856 
1934	-1.68313775277016 
1935	-0.928674399334153 
1936	-0.948492972409855 
1937	-1.97570604849712 
1938	-1.63893491328512 
1939	-0.990008884899924 
1940	-0.59524012475539 
1941	-0.170431464561563 
1942	 4.66298845222158E-02 
1943	 0.18932129318119 
1944	 0.110499708151055 
1945	-5.32755025733171E-02 
1946	-7.04022501385721E-02 
1947	-0.104996055600654 
1948	-0.127967170264594 
1949	-8.63167738535858E-02 
1950	-0.177338000551266 
1951	-0.142047003960861 
1952	-0.116004065240062 
1953	-8.94245507860764E-02 
1954	-9.80514995641528E-02 
1955	-7.29891112948404E-02 
1956	-7.33799412474404E-02 
1957	-4.70534127738439E-02 
1958	 7.58839296621255E-03 
1959	 4.70939348939566E-02 
1960	 5.94710467438715E-02 
1961	 5.73144565015344E-02 
1962	 0.053695887693946 
1963	 0.054149599815778 
1964	 5.08782611566592E-02 
1965	 4.22805589289947E-02 
1966	 3.73850236338065E-02 
1967	 3.06073985605278E-02 
1968	 2.50704882094872E-02 
1969	 2.32555696885327E-02 
1970	 2.53361306262951E-02 
1971	 2.97782661647046E-02 
1972	 3.20857948966738E-02 
1973	 3.29422202681846E-02 
1974	 3.13760381688859E-02 
1975	 2.92506627362072E-02 
1976	 2.86845152151871E-02 
1977	 2.26924344197252E-02 
1978	 2.12387003115475E-02 
1979	 2.15294772434249E-02 
1980	 2.23030967633095E-02 
1981	 1.97980655555071E-02 
1982	 2.36795583749546E-02 
1983	 2.53637445706598E-02 
1984	 2.25500173137674E-02 
1985	 1.94720193215207E-02 
1986	 1.56208848367034E-02 
1987	 1.40254352885117E-02 
1988	 1.41642044096378E-02 
1989	 1.73523209678635E-02 
1990	 2.12972096883379E-02 
1991	 2.37890875873096E-02 
1992	 2.61928883015128E-02 
1993	 0.028029615391912 
1994	 2.83662402523207E-02 
1995	 0.027971488804828 
1996	 0.024567143655592 
1997	 2.29023988895758E-02 
1998	 2.41982190182741E-02 
1999	 2.41604341700085E-02 
2000	 2.77100458624854E-02 
2001	 3.19948895378351E-02 
2002	 2.67210848576047E-02 
2003	 2.09695991883167E-02 
2004	 2.64281546869559E-02 
2005	 2.52347100207706E-02 
2006	 2.21654507182751E-02 
2007	 3.31101764663333E-02 
2008	 3.27894264323223E-02 
2009	 2.67499480118983E-02 
2010	 1.45296720085753E-02 
2011	 1.34977280281734E-02 
2012	 1.09923330160983E-02 
2013	 4.17741198243472E-03 
2014	 8.78463572368718E-03 
2015	 1.27410514057968E-02 
2016	 1.05420304476778E-02 
2017	 0.010066423405135 
2018	 1.71818920238844E-02 
2019	 2.16216312350409E-02 
2020	 1.92963586152884E-02 
2021	 2.03997704689656E-02 
2022	 2.19449231160371E-02 
2023	 0.021996180733968 
2024	 2.23574336278525E-02 
2025	 2.46723005271843E-02 
2026	 2.44744866611369E-02 
2027	 2.42122733962921E-02 
2028	 1.99868835951964E-02 
2029	 1.63965083345626E-02 
2030	 1.58909655692887E-02 
2031	 1.45811897401776E-02 
2032	 1.64670376554687E-02 
2033	 1.93341738273508E-02 
2034	 1.99383305168995E-02 
2035	 2.13744425051915E-02 
2036	 2.28792344398407E-02 
2037	 2.33351481942686E-02 
2038	 2.44151696295781E-02 
2039	 2.50004411275618E-02 
2040	 2.44594458379235E-02 
2041	 2.43802366994521E-02 
2042	 2.45965520683925E-02 
2043	 2.47496312372913E-02 
2044	 2.46515734977887E-02 
2045	 0.02561655958275 
2046	 2.56428661386875E-02 
2047	 2.37897006302067E-02 
2048	 2.20019891088938E-02 
2049	 2.19284757802952E-02 
2050	 2.17203109947836E-02 
2051	 2.27980611671873E-02 
2052	 2.44178073020921E-02 
2053	 2.30468008652106E-02 
2054	 2.17433698451091E-02 
2055	 2.17375761695026E-02 
2056	 2.23599537835159E-02 
2057	 2.53454704771199E-02 
2058	 2.48229125128994E-02 
2059	 2.26680585319611E-02 
2060	 2.10792381385455E-02 
2061	 1.69391550050014E-02 
2062	 0.014496543363991 
2063	 1.68021218749489E-02 
2064	 1.90175143567784E-02 
2065	 1.87148938415112E-02 
2066	 1.91321056378242E-02 
2067	 1.98879181552508E-02 
2068	 2.01158840551664E-02 
2069	 2.41872080874219E-02 
2070	 2.91303388793209E-02 
2071	 2.98293473547936E-02 
2072	 3.05950804292286E-02 
2073	 3.00473985549241E-02 
2074	 2.69211311963479E-02 
2075	 2.51512515486401E-02 
2076	 2.23513677412055E-02 
2077	 2.18891834490138E-02 
2078	 2.37133247491849E-02 
2079	 2.44703277104812E-02 
2080	 2.62031032047227E-02 
2081	 2.60846197687096E-02 
2082	 2.61465700692681E-02 
2083	 2.62060165103784E-02 
2084	 2.48408301320898E-02 
2085	 2.45782233488909E-02 
2086	 2.62128037555237E-02 
2087	 2.53716871416477E-02 
2088	 2.25145158919601E-02 
2089	 2.18673554114103E-02 
2090	 2.04556865961324E-02 
2091	 1.88814733084749E-02 
2092	 1.88839206423069E-02 
2093	 2.21490447246827E-02 
2094	 2.25669537183703E-02 
2095	 0.021567293876883 
2096	 2.20503980827685E-02 
2097	 2.25869309437572E-02 
2098	 2.28562730880895E-02 
2099	 2.41868759539375E-02 
2100	 0.02445542813347 
2101	 2.32503480064622E-02 
2102	 0.024027461927513 
2103	 2.37951961668239E-02 
2104	 2.27755357607897E-02 
2105	 2.31278874019556E-02 
2106	 2.22810523818555E-02 
2107	 2.24002613310784E-02 
2108	 2.29581025468171E-02 
2109	 2.17551949886988E-02 
2110	 2.14484275690698E-02 
2111	 2.22953723329247E-02 
2112	 2.38236527934921E-02 
2113	 0.024619846485139 
2114	 2.66340310451891E-02 
2115	 2.66082626719729E-02 
2116	 2.38980881688216E-02 
2117	 2.36226370373472E-02 
2118	 2.31963202222827E-02 
2119	 2.34294538142286E-02 
2120	 2.55010338669436E-02 
2121	 2.72227032022214E-02 
2122	 2.63624793339306E-02 
2123	 2.64851972531218E-02 
2124	 2.42382773368725E-02 
2125	 2.13272126646274E-02 
2126	 1.99873286030526E-02 
2127	 1.87425729463002E-02 
2128	 1.74914403413363E-02 
2129	 1.77280939419076E-02 
2130	 1.80411650741811E-02 
2131	 1.71500606893955E-02 
2132	 1.79199538554676E-02 
2133	 1.74072938484367E-02 
2134	 1.69858901814315E-02 
2135	 1.52470227945367E-02 
2136	 0.015833451953529 
2137	 1.84986755198417E-02 
2138	 0.019832675858519 
2139	 2.23009519702206E-02 
2140	 2.28495650913782E-02 
2141	 2.07926070600838E-02 
2142	 2.01903722617333E-02 
2143	 1.90099942618628E-02 
2144	 1.91832303684201E-02 
2145	 2.11525593409605E-02 
2146	 2.05562614451513E-02 
2147	 2.25191985637737E-02 
2148	 2.48545298367713E-02 
2149	 2.47018077391569E-02 
2150	 2.59667362583466E-02 
2151	 2.57440952282957E-02 
2152	 2.46494974256561E-02 
2153	 0.02510399265001 
2154	 2.52466082607766E-02 
2155	 2.25207843352922E-02 
2156	 2.09539910659168E-02 
2157	 0.020133811269633 
2158	 1.91106091653247E-02 
2159	 1.87268073127017E-02 
2160	 2.02598741231932E-02 
2161	 2.01568143004732E-02 
2162	 1.86611214174598E-02 
2163	 1.86828798425649E-02 
2164	 1.99546064029551E-02 
2165	 0.019502780679531 
2166	 1.80356387459665E-02 
2167	 1.85255810975341E-02 
2168	 1.84944454812199E-02 
2169	 1.88082250679166E-02 
2170	 0.020228455583745 
2171	 2.40999040796917E-02 
2172	 2.41122140586861E-02 
2173	 2.44154125181786E-02 
2174	 2.51559871217991E-02 
2175	 2.22198708645231E-02 
2176	 2.07144705807555E-02 
2177	 2.16020948700602E-02 
2178	 0.023415704751133 
2179	 2.46586509960483E-02 
2180	 2.49770386512719E-02 
2181	 2.48364414717234E-02 
2182	 2.30452787865882E-02 
2183	 2.20949100513004E-02 
2184	 2.12846170574669E-02 
2185	 2.11827459110632E-02 
2186	 2.08556438958883E-02 
2187	 2.07178341904109E-02 
2188	 2.02446008071821E-02 
2189	 0.019852243238543 
2190	 1.84716211293368E-02 
2191	 1.55312044697936E-02 
2192	 0.014204056688808 
2193	 1.42256019283339E-02 
2194	 1.36409975860519E-02 
2195	 1.19503006806678E-02 
2196	 1.33806128276431E-02 
2197	 1.58454470241998E-02 
2198	 1.74556603972093E-02 
2199	 2.09683444892841E-02 
2200	 0.026179683005289 
2201	 2.57777423295966E-02 
2202	 2.49838546854245E-02 
2203	 2.53849622764559E-02 
2204	 2.61533806434505E-02 
2205	 2.82787371830166E-02 
2206	 2.86312181389224E-02 
2207	 2.40907819332042E-02 
2208	 1.91138219777361E-02 
2209	 1.68486870867824E-02 
2210	 0.015599225934998 
2211	 1.65286447557887E-02 
2212	 1.97546408431405E-02 
2213	 2.08305993458622E-02 
2214	 1.86537761134382E-02 
2215	 1.91438073748052E-02 
2216	 2.07586843626861E-02 
2217	 2.00333181331266E-02 
2218	 1.77329922316922E-02 
2219	 1.66315731183054E-02 
2220	 1.43010661192242E-02 
2221	 1.40802749019973E-02 
2222	 1.65470593509064E-02 
2223	 1.74214236834016E-02 
2224	 1.76537782438196E-02 
2225	 1.68240721348451E-02 
2226	 1.38523420547486E-02 
2227	 1.38323022048606E-02 
2228	 1.63169804595219E-02 
2229	 1.80111320296113E-02 
2230	 1.95577964828368E-02 
2231	 2.15277616550266E-02 
2232	 2.56918279624864E-02 
2233	 2.51189003397091E-02 
2234	 2.09716767960255E-02 
2235	 2.11146281127765E-02 
2236	 1.99477879542705E-02 
2237	 1.72531204647819E-02 
2238	 2.02422285757459E-02 
2239	 2.31766682287805E-02 
2240	 2.32762436825774E-02 
2241	 2.60471626921055E-02 
2242	 2.71659314037374E-02 
2243	 2.81158813635836E-02 
2244	 2.87022333280762E-02 
2245	 0.024261801752168 
2246	 2.23879450577479E-02 
2247	 2.08905814872883E-02 
2248	 2.09925446927111E-02 
2249	 2.53832551651638E-02 
2250	 2.56468307376009E-02 
2251	 2.57126031222783E-02 
2252	 2.76315704595089E-02 
2253	 2.54078631201735E-02 
2254	 2.55916556865458E-02 
2255	 2.77063436907545E-02 
2256	 2.31789893771298E-02 
2257	 2.03510998032015E-02 
2258	 2.13152156160352E-02 
2259	 2.13557618082478E-02 
2260	 2.23584612250859E-02 
2261	 0.027106994312267 
2262	 2.77409040823275E-02 
2263	 2.60363904759702E-02 
2264	 2.60141264042549E-02 
2265	 2.58940541606732E-02 
2266	 2.64272413680191E-02 
2267	 2.67441541844382E-02 
2268	 2.68519470249006E-02 
2269	 2.88905635043664E-02 
2270	 2.89284022312034E-02 
2271	 2.69234025727566E-02 
2272	 2.62874673659938E-02 
2273	 2.50040206385728E-02 
2274	 2.19148324444382E-02 
2275	 1.75435966347069E-02 
2276	 1.71515525781745E-02 
2277	 2.02915757997936E-02 
2278	 1.86496675743436E-02 
2279	 0.014123756722444 
2280	 0.015331885773441 
2281	 1.81753903028568E-02 
2282	 1.53210086019776E-02 
2283	 1.50506210951377E-02 
2284	 2.04509706196566E-02 
2285	 2.09958215439816E-02 
2286	 2.25382659259567E-02 
2287	 2.98717895426392E-02 
2288	 3.23641295197753E-02 
2289	 2.87601694433694E-02 
2290	 2.35851004391537E-02 
2291	 2.64990562753808E-02 
2292	 3.13239942671306E-02 
2293	 2.41822523507364E-02 
2294	 2.59323531130609E-02 
2295	 3.12668985257165E-02 
2296	 0.025648243945353 
2297	 3.01682018324363E-02 
2298	 3.28150769804714E-02 
2299	 2.78062380490124E-02 
2300	 2.71648755554619E-02 
2301	 2.41389052818365E-02 
2302	 2.06594707195997E-02 
2303	 2.19146392910503E-02 
2304	 2.54189240334473E-02 
2305	 2.55833253031363E-02 
2306	 3.04169100012154E-02 
2307	 3.43034172214926E-02 
2308	 0.027618714942504 
2309	 2.56449816938659E-02 
2310	 2.25058885914892E-02 
2311	 1.77584268114683E-02 
2312	 2.09623301731796E-02 
2313	 2.40113649908069E-02 
2314	 3.01379498120669E-02 
2315	 2.75156966664243E-02 
2316	 1.69106143626909E-02 
2317	 1.29052423791552E-02 
2318	 0.014145612431015 
2319	 1.87043844484961E-02 
2320	 1.70399739670447E-02 
2321	 1.19557780423189E-02 
2322	 1.36017769505959E-02 
2323	 1.80114292723121E-02 
2324	 1.98632972493464E-02 
2325	 2.39148175334593E-02 
2326	 2.22880214375443E-02 
2327	 1.60407772640423E-02 
2328	 1.74086274651515E-02 
2329	 1.93522065241958E-02 
2330	 2.07990264299897E-02 
2331	 2.91403753973266E-02 
2332	 4.60007030474976E-02 
2333	 5.93617893787501E-02 
2334	 5.38683942350093E-02 
2335	 3.38363837296522E-02 
2336	 0.012440074614501 
2337	 2.54376386962459E-03 
2338	 4.30962642642987E-03 
2339	 8.04967151313117E-03 
2340	 3.85219897250581E-03 
2341	-3.96384304955455E-03 
2342	 5.69311363853005E-04 
2343	 3.81396097837497E-03 
2344	 2.30497440623715E-03 
2345	 1.29354052397413E-03 
2346	-8.2785411396245E-03 
2347	-1.95199757229845E-02 
2348	-7.64254088292186E-03 
2349	 2.01409077254842E-02 
2350	 2.41565862286324E-02 
2351	 3.91748035225652E-02 
2352	 6.65113403195411E-02 
2353	 4.82990739250623E-02 
2354	 3.06244993340728E-02 
2355	 2.41776376203302E-02 
2356	 1.55757635496009E-02 
2357	 1.64015817017679E-04 
2358	-3.60816109848577E-02 
2359	-4.15317470577609E-02 
2360	-4.25027992627796E-02 
2361	-4.21711399077578E-02 
2362	 1.00797588763778E-02 
2363	 6.57218224120028E-02 
2364	 7.07703518733781E-02 
2365	 0.061714030792616 
2366	 4.35161390995766E-02 
2367	-4.48156960011901E-04 
2368	-1.32382278350876E-02 
2369	 1.38369939906713E-03 
2370	 0.035538928718322 
2371	 6.71603480151205E-02 
2372	 4.49887105561615E-02 
2373	-3.1479051017739E-03 
2374	-6.43378253072588E-02 
2375	-6.38548715613985E-02 
2376	-1.10014477446366E-02 
2377	 4.59613418641763E-02 
2378	 0.136127987534797 
2379	 0.194525708354275 
2380	 0.215861523291209 
2381	 0.198728756218742 
2382	 0.129690739477745 
2383	 8.76295286952439E-02 
2384	 9.00908306595344E-02 
2385	 7.90219214641879E-02 
2386	 0.099710518397611 
2387	 0.115421672459949 
2388	 6.22701562806565E-02 
2389	 0.054798776215474 
2390	 6.78083609698659E-02 
2391	-7.18820664394031E-03 
2392	-8.28848341842328E-02 
2393	-3.66158152714417E-02 
2394	-2.81466977691583E-02 
2395	-4.82653690246241E-02 
2396	-2.75518363825838E-02 
2397	-4.50879493262591E-02 
2398	-8.08868670429993E-02 
2399	-4.08578307223633E-02 
2400	 5.79155115269116E-02 
2401	-1.43417227144736E-03 
2402	-6.63428680349512E-02 
2403	-5.81955864223628E-03 
2404	-1.93709404338078E-02 
2405	-4.90598113617931E-03 
2406	 0.184733806593116 
2407	 0.238216537400998 
2408	 0.195654836482232 
2409	 0.247286197822854 
2410	 1.76028527953038E-02 
2411	-0.278706655886654 
2412	-0.321460794488964 
2413	-0.30318095823418 
2414	-0.239308711931965 
2415	-6.38799366326474E-02 
2416	 4.72542407784664E-02 
2417	-0.270613327147263 
2418	-0.382459646498468 
2419	-0.251951776459616 
2420	-0.251787202028459 
2421	-3.16786597696558E-02 
2422	 0.203687068771545 
2423	 0.200651891497048 
2424	 0.259442686584562 
2425	 0.308625045297471 
2426	 0.234825745617437 
2427	-6.07097655822676E-02 
2428	-0.408068309343216 
2429	-0.393779894832476 
2430	-0.37932844006686 
2431	-0.563897735709434 
2432	-0.349751839696635 
2433	-0.123141444860384 
2434	-0.118238338697399 
2435	-0.13099180833965 
2436	-9.41316806086641E-02 
2437	-9.51995847343925E-02 
2438	-9.53460319763959E-02 
2439	 0.115680252101902 
2440	 0.175595637863299 
2441	 0.121208423117305 
2442	 5.81326349813006E-02 
2443	-2.95474724153972E-02 
2444	 2.79195130941233E-02 
2445	-8.87116588932699E-02 
2446	-0.733180875334031 
2447	 0.840305015001659 
2448	 1.06871582888569 
2449	 0.746902708643969 
2450	 0.597809016485771 
2451	-0.379926386710908 
2452	-9.37844651179199E-02 
2453	-0.140640472291605 
2454	-0.268071777762437 
2455	 0.194445208597087 
2456	-28.311222922529 
2457	-1.22244719591299 
2458	-0.262442184299363 
2459	 14.288616262019 
2460	-2.42539955038548 
2461	-1.58163205381583 
2462	-0.676206645159161 
2463	-0.597940671870294 
2464	-0.963587884458004 
2465	-1.49516188806196 
2466	-15.4249530455927 
2467	 2.3605042716907 
2468	 4.34436487733866 
2469	 22.4917045382611 
2470	 6.26903697122014 
2471	 3.1841373044302 
2472	 1.52728901751262 
2473	 1.53785340640657 
2474	 0.478003558133995 
2475	 0.179328960985028 
2476	-0.118366505545131 
2477	 4.19643704579048E-02 
2478	-0.143540917562131 
2479	-0.422583279430498 
2480	-1.54384444719395 
2481	 21.747411902004 
2482	-0.518085251246157 
2483	-0.139946393374688 
2484	 0.279471065378899 
2485	 2.07506992284512 
2486	-2.26765040057429 
2487	-1.35706642656358 
2488	-7.87109278478075 
2489	 2.19303954635089 
2490	 2.67577400367652 
2491	 0.998909074235486 
2492	 13.9532164767615 
2493	-2.64757229012682 
2494	-19.8084104898357 
2495	-3.35314980285295 
2496	-0.225062982841349 
2497	-0.174894374447511 
2498	-0.199979475221362 
2499	 0.188346515513525 
2500	 1.2000267324732 
