Wavelength	rt0713west_far_sunny_300005.asd
350	 7.62282882084955E-02 
351	 0.07564558297803 
352	 7.53279880880827E-02 
353	 7.55339385649726E-02 
354	 0.075899343065407 
355	 0.075097563575974 
356	 7.44797774788523E-02 
357	 7.43716533146405E-02 
358	 7.45978367476906E-02 
359	 7.44364506011398E-02 
360	 7.44200752745762E-02 
361	 7.44482792064299E-02 
362	 7.40500273452822E-02 
363	 7.37903007861873E-02 
364	 0.073862721655441 
365	 0.074130999786638 
366	 7.40683305115013E-02 
367	 7.37743608103903E-02 
368	 7.35038521185796E-02 
369	 7.34189888224406E-02 
370	 7.31481766882266E-02 
371	 7.32079794766403E-02 
372	 7.34140271768221E-02 
373	 7.32495385453964E-02 
374	 7.32114514009567E-02 
375	 0.073193265532419 
376	 7.30838044410857E-02 
377	 7.28552390745265E-02 
378	 7.27913639539215E-02 
379	 7.28311007548852E-02 
380	 7.28787745307071E-02 
381	 7.30400971788055E-02 
382	 0.073065675872977 
383	 7.30758265952353E-02 
384	 7.32960068350844E-02 
385	 7.33382146372358E-02 
386	 7.32980706472394E-02 
387	 7.33470449242074E-02 
388	 7.36562018773735E-02 
389	 0.073293890341576 
390	 7.30113568659746E-02 
391	 7.33720600636586E-02 
392	 7.37498379332172E-02 
393	 7.38593316944264E-02 
394	 7.37400225405912E-02 
395	 7.35972205960318E-02 
396	 7.36105645732595E-02 
397	 7.37005607034217E-02 
398	 7.37470160527854E-02 
399	 7.36369741755019E-02 
400	 7.37452403526283E-02 
401	 7.38610910407477E-02 
402	 7.38320485664078E-02 
403	 7.38221267685401E-02 
404	 7.38925776274471E-02 
405	 7.39692548904831E-02 
406	 7.39672411288215E-02 
407	 7.40702665948354E-02 
408	 7.42319362313577E-02 
409	 7.43316559173592E-02 
410	 7.42171823303421E-02 
411	 7.42916986918845E-02 
412	 7.44316050871588E-02 
413	 7.44921203021479E-02 
414	 7.45002246808404E-02 
415	 0.074661049698265 
416	 7.48718717087486E-02 
417	 7.49543887679166E-02 
418	 7.51339177430715E-02 
419	 7.52783980331728E-02 
420	 0.075343695944532 
421	 7.54074841346733E-02 
422	 7.56183969135771E-02 
423	 7.58864080122939E-02 
424	 7.61156845602595E-02 
425	 7.63531607674935E-02 
426	 7.65581035799298E-02 
427	 7.67500508640416E-02 
428	 7.69783648181216E-02 
429	 7.72902921483162E-02 
430	 7.75067309438091E-02 
431	 7.76686302749063E-02 
432	 0.078087442484487 
433	 7.84037171826017E-02 
434	 7.86508031225326E-02 
435	 7.89274195466963E-02 
436	 7.92556262119397E-02 
437	 0.079538984783284 
438	 7.98123684057582E-02 
439	 8.01564408123906E-02 
440	 8.03673505537769E-02 
441	 0.080649648435087 
442	 8.10470908103735E-02 
443	 8.13078732187255E-02 
444	 8.15534144537407E-02 
445	 8.17950178244696E-02 
446	 8.20319682913156E-02 
447	 8.23303172045521E-02 
448	 0.082604152697605 
449	 8.28250661778071E-02 
450	 8.30204245058291E-02 
451	 8.33110541383975E-02 
452	 0.083549516795589 
453	 8.36682162291897E-02 
454	 8.38311434514655E-02 
455	 0.084065040603381 
456	 8.42795269438181E-02 
457	 8.43805715668527E-02 
458	 8.45242917576173E-02 
459	 8.47066450200226E-02 
460	 8.48982358500203E-02 
461	 8.50508617920998E-02 
462	 8.51001159770599E-02 
463	 8.51686421489287E-02 
464	 8.53527000280705E-02 
465	 8.55876519123091E-02 
466	 8.57355895110019E-02 
467	 8.58109586383974E-02 
468	 8.59111280218893E-02 
469	 8.60675026665872E-02 
470	 8.62149282816904E-02 
471	 8.63307629261799E-02 
472	 8.64608559905056E-02 
473	 8.66343325046125E-02 
474	 8.68272169517271E-02 
475	 8.70115192016512E-02 
476	 0.087200378288609 
477	 8.74220033612075E-02 
478	 8.76546707820008E-02 
479	 0.08785684307019 
480	 8.81723786581141E-02 
481	 8.84837472941026E-02 
482	 8.87086258275236E-02 
483	 8.88946183567212E-02 
484	 8.91795057342065E-02 
485	 8.95069195600612E-02 
486	 0.089775238423804 
487	 9.00939915749761E-02 
488	 9.04260763622913E-02 
489	 9.07441486466136E-02 
490	 9.10404940671502E-02 
491	 9.13123604874241E-02 
492	 9.16416986210059E-02 
493	 9.20582268673929E-02 
494	 9.24153708972782E-02 
495	 9.28033312356272E-02 
496	 9.31837788148712E-02 
497	 9.34780545858247E-02 
498	 9.38274403845725E-02 
499	 9.42211246187071E-02 
500	 9.45978061054098E-02 
501	 9.48421613614712E-02 
502	 9.52099801344905E-02 
503	 9.56609657236682E-02 
504	 9.60878856581395E-02 
505	 9.64857883760768E-02 
506	 9.69923512525741E-02 
507	 9.75389583627771E-02 
508	 9.79103367405089E-02 
509	 9.82955936589394E-02 
510	 0.098747490449629 
511	 9.92647977660703E-02 
512	 9.97923521614014E-02 
513	 0.100283444990711 
514	 0.100744806596181 
515	 0.101226403140017 
516	 0.101881756304659 
517	 0.102486624115678 
518	 0.102978210767826 
519	 0.10353497317509 
520	 0.104102435555065 
521	 0.104613723143451 
522	 0.105062982491828 
523	 0.105652668949749 
524	 0.10623722373489 
525	 0.106810669951786 
526	 0.107456005451432 
527	 0.108023297351316 
528	 0.108557157249931 
529	 0.109115274612352 
530	 0.10973581118403 
531	 0.110289472507057 
532	 0.110840542361322 
533	 0.111492023924381 
534	 0.112123697242223 
535	 0.112675374077567 
536	 0.113181886994047 
537	 0.113771948933662 
538	 0.114344268364422 
539	 0.114900676734676 
540	 0.11546644017013 
541	 0.116062770910241 
542	 0.116662311165822 
543	 0.117252289865247 
544	 0.117835945851116 
545	 0.11844946507964 
546	 0.119054282812731 
547	 0.119630685293294 
548	 0.12021513974127 
549	 0.120789959645916 
550	 0.121349169322239 
551	 0.121900909448115 
552	 0.122497886585058 
553	 0.123097489614007 
554	 0.123678519102562 
555	 0.124247109495055 
556	 0.124782173231346 
557	 0.125298728151633 
558	 0.125815542562251 
559	 0.126360097080641 
560	 0.126828031899939 
561	 0.127226815465994 
562	 0.127633831851435 
563	 0.128023944175358 
564	 0.128380709618026 
565	 0.128682475354074 
566	 0.128891352977771 
567	 0.129119345466083 
568	 0.129358310285987 
569	 0.129575662737812 
570	 0.129888594523788 
571	 0.130184774891462 
572	 0.130387522338207 
573	 0.13047843026532 
574	 0.130638983760537 
575	 0.130821067705738 
576	 0.130949862805173 
577	 0.131061484861592 
578	 0.131140423942846 
579	 0.131185576098687 
580	 0.131195299264476 
581	 0.131079246243174 
582	 0.130864346355944 
583	 0.130584727199084 
584	 0.130265461104429 
585	 0.129801497992215 
586	 0.12919778269695 
587	 0.128505737584129 
588	 0.127797459150332 
589	 0.127226809718667 
590	 0.126844886418947 
591	 0.126537383117159 
592	 0.126084507053327 
593	 0.125547663730547 
594	 0.125004324169755 
595	 0.124342190114193 
596	 0.123564965615892 
597	 0.122706975445365 
598	 0.121831633546212 
599	 0.121002668817115 
600	 0.120237142866642 
601	 0.119586132101569 
602	 0.119176204753447 
603	 0.118812031264777 
604	 0.118532601826722 
605	 0.118415192565424 
606	 0.118310990817245 
607	 0.118210461210309 
608	 0.118128910083146 
609	 0.118099164496804 
610	 0.118095874706438 
611	 0.118050626186643 
612	 0.117946461244899 
613	 0.117950789235718 
614	 0.117851923513206 
615	 0.11771471794876 
616	 0.117727651602292 
617	 0.117651674936144 
618	 0.117557826387152 
619	 0.117488426348509 
620	 0.11738701767826 
621	 0.117256672902946 
622	 0.117143037668563 
623	 0.117071496896037 
624	 0.116902677432431 
625	 0.116667814578899 
626	 0.116424800187442 
627	 0.116248812788734 
628	 0.116145968868586 
629	 0.116130825716918 
630	 0.116163984026179 
631	 0.1160702033764 
632	 0.116018983348072 
633	 0.116002049024955 
634	 0.115934540165402 
635	 0.115853752736747 
636	 0.115776302708096 
637	 0.115671062041157 
638	 0.115436075289313 
639	 0.115308183288858 
640	 0.115170377022241 
641	 0.114880699384324 
642	 0.114646189965883 
643	 0.114376515870211 
644	 0.113979299892579 
645	 0.113384546302286 
646	 0.112829333145226 
647	 0.112479506260829 
648	 0.112358841880144 
649	 0.112223871864558 
650	 0.112004844933306 
651	 0.111702622139105 
652	 0.111352084611291 
653	 0.110846489460961 
654	 0.110278510190119 
655	 0.109678990043546 
656	 0.109056697769053 
657	 0.108581533662799 
658	 0.108181030997902 
659	 0.107770346999793 
660	 0.107430546117561 
661	 0.1070683960938 
662	 0.10671953395476 
663	 0.1064964961148 
664	 0.10633404458521 
665	 0.106166949291976 
666	 0.105963890225601 
667	 0.10575497365078 
668	 0.105550028541175 
669	 0.105397353075835 
670	 0.105324407514797 
671	 0.105202470995426 
672	 0.10507872611669 
673	 0.104969670561262 
674	 0.104858595574005 
675	 0.104797782814311 
676	 0.104786999601803 
677	 0.104792572693701 
678	 0.104724822843099 
679	 0.104646443700463 
680	 0.104636262325686 
681	 0.104737209853867 
682	 0.104696525552527 
683	 0.104678410852658 
684	 0.104659152734804 
685	 0.104296300371411 
686	 0.103865728391989 
687	 0.103628493656522 
688	 0.103654177507861 
689	 0.103494800036003 
690	 0.103140587805349 
691	 0.102581329727548 
692	 0.101840619723161 
693	 0.101316145871474 
694	 0.101074385121976 
695	 0.10093731525469 
696	 0.100488555617799 
697	 9.97072958574155E-02 
698	 9.87009376957987E-02 
699	 9.77069180355359E-02 
700	 9.68519476874028E-02 
701	 9.61620579630986E-02 
702	 9.55180001101993E-02 
703	 9.46865938931191E-02 
704	 9.36527695702262E-02 
705	 9.25419894472784E-02 
706	 0.091460102975695 
707	 9.03379827525548E-02 
708	 8.90901621892349E-02 
709	 0.08775296593004 
710	 8.63783305755001E-02 
711	 0.084800310245443 
712	 8.31191357857354E-02 
713	 8.13287303685211E-02 
714	 7.92382272815574E-02 
715	 7.68592887120539E-02 
716	 7.41609251828579E-02 
717	 7.15205218078738E-02 
718	 6.94453016483857E-02 
719	 6.80791503344568E-02 
720	 6.71615336353543E-02 
721	 0.066100403416734 
722	 6.44170186570873E-02 
723	 6.23367447262615E-02 
724	 6.04072752420528E-02 
725	 5.88202889839655E-02 
726	 5.72833060199038E-02 
727	 5.56185367327659E-02 
728	 5.38222718147079E-02 
729	 5.21638304364255E-02 
730	 5.07577669674205E-02 
731	 4.97544602074831E-02 
732	 4.90920745972255E-02 
733	 4.82503188512313E-02 
734	 4.73489862107644E-02 
735	 4.65843634301163E-02 
736	 4.61871109738876E-02 
737	 4.59588511294766E-02 
738	 4.58265145220162E-02 
739	 4.57491076668634E-02 
740	 4.56625551906053E-02 
741	 4.57136082742993E-02 
742	 4.58053085116112E-02 
743	 4.57455019771971E-02 
744	 4.56856766606287E-02 
745	 4.56138710677265E-02 
746	 4.55560830137498E-02 
747	 4.56069575188555E-02 
748	 4.56258094727109E-02 
749	 4.55758916722818E-02 
750	 4.54747097217521E-02 
751	 4.54039282548535E-02 
752	 4.53865434924546E-02 
753	 4.54112340947729E-02 
754	 4.54310956533168E-02 
755	 4.53175805360823E-02 
756	 4.51745336086907E-02 
757	 4.49692835451951E-02 
758	 4.42950955419538E-02 
759	 0.043254317409935 
760	 4.22759244998749E-02 
761	 4.22303440339875E-02 
762	 4.23330087692172E-02 
763	 4.27006269585054E-02 
764	 0.043331513174811 
765	 4.40996546138397E-02 
766	 4.45002432477582E-02 
767	 4.47641112093662E-02 
768	 4.50069651042047E-02 
769	 4.52147520203344E-02 
770	 4.53581948154485E-02 
771	 4.54734395007015E-02 
772	 0.045579666734385 
773	 4.56012083331185E-02 
774	 4.56850521604989E-02 
775	 4.58151675049743E-02 
776	 4.59076869107178E-02 
777	 4.59448891371725E-02 
778	 4.60633091099068E-02 
779	 4.62642277726204E-02 
780	 4.64055902035972E-02 
781	 4.64996084953479E-02 
782	 4.65586728639802E-02 
783	 4.66211978993129E-02 
784	 4.67923572134136E-02 
785	 4.68207773305498E-02 
786	 0.046738566864539 
787	 4.66974893319818E-02 
788	 4.68213086226721E-02 
789	 4.70492601962108E-02 
790	 4.73406837396147E-02 
791	 4.76794094511097E-02 
792	 4.80224862428007E-02 
793	 4.82400520255882E-02 
794	 4.83156407192945E-02 
795	 4.84140570412836E-02 
796	 4.85906295750477E-02 
797	 4.87721472669707E-02 
798	 4.88971854757684E-02 
799	 4.90747648546327E-02 
800	 4.92100998578751E-02 
801	 4.93145446205262E-02 
802	 4.94670920710616E-02 
803	 4.97386987629627E-02 
804	 4.99029450130487E-02 
805	 4.99275548747101E-02 
806	 5.00083329576956E-02 
807	 5.00663961955581E-02 
808	 4.98590229699127E-02 
809	 4.93003449368994E-02 
810	 4.87609855683368E-02 
811	 4.84607776287357E-02 
812	 4.81203522388475E-02 
813	 4.73318501775072E-02 
814	 4.65834006120791E-02 
815	 4.61885669627479E-02 
816	 4.60174884433161E-02 
817	 4.56649311817973E-02 
818	 4.58600241977407E-02 
819	 4.59585131322829E-02 
820	 4.55492803669234E-02 
821	 4.45861434542736E-02 
822	 4.39008290201353E-02 
823	 0.043440961940563 
824	 4.29533812535204E-02 
825	 4.24242762119695E-02 
826	 4.15458336388855E-02 
827	 0.040504546060165 
828	 3.97235409978007E-02 
829	 3.91267631529517E-02 
830	 3.87391592351526E-02 
831	 3.84402517878247E-02 
832	 3.80528121742621E-02 
833	 3.77086838180436E-02 
834	 3.76313948080931E-02 
835	 3.77495898771163E-02 
836	 3.76349893377906E-02 
837	 3.75072350118815E-02 
838	 3.74369032849449E-02 
839	 3.74537442613398E-02 
840	 3.75863042746664E-02 
841	 3.75733348727759E-02 
842	 3.74269432012269E-02 
843	 3.72869172513341E-02 
844	 3.73129991158751E-02 
845	 3.72903988542207E-02 
846	 3.71755310178041E-02 
847	 3.70621200884619E-02 
848	 0.037033164730367 
849	 3.70024777068135E-02 
850	 3.69055993369901E-02 
851	 3.67429102787607E-02 
852	 3.66961666889996E-02 
853	 3.67059777370174E-02 
854	 3.66612187405599E-02 
855	 3.64550499852577E-02 
856	 3.65356348670394E-02 
857	 3.66687870820196E-02 
858	 3.65903805291688E-02 
859	 3.66719825724825E-02 
860	 3.65229729143145E-02 
861	 3.63125042873305E-02 
862	 3.63841216681625E-02 
863	 3.62583596737376E-02 
864	 3.61020358390857E-02 
865	 3.60155885568984E-02 
866	 3.59907473196928E-02 
867	 3.59952080115278E-02 
868	 3.59565114950523E-02 
869	 3.58598256760783E-02 
870	 3.57650430942839E-02 
871	 3.55644848367464E-02 
872	 3.53546508299954E-02 
873	 3.52513090540016E-02 
874	 3.53192716314755E-02 
875	 3.52850899788825E-02 
876	 3.51719057434697E-02 
877	 3.50889053003551E-02 
878	 3.50830092725645E-02 
879	 3.48737740764562E-02 
880	 3.46423081009566E-02 
881	 3.46789407437383E-02 
882	 3.45171442202755E-02 
883	 3.45092436631537E-02 
884	 0.034551622914603 
885	 3.42644175850514E-02 
886	 3.42557724592903E-02 
887	 3.41532078987023E-02 
888	 3.38714801594348E-02 
889	 3.37527913366165E-02 
890	 0.033654513671868 
891	 3.33997807653369E-02 
892	 3.29713082100314E-02 
893	 3.26771908245349E-02 
894	 3.19798662530052E-02 
895	 3.11439045287306E-02 
896	 3.06470673174301E-02 
897	 3.07186275127836E-02 
898	 3.04940668141943E-02 
899	 3.02864353343714E-02 
900	 3.04985294765077E-02 
901	 3.01896458856141E-02 
902	 3.06599649153086E-02 
903	 3.11258029022675E-02 
904	 3.05011534382674E-02 
905	 3.03174447123446E-02 
906	 3.01442604861398E-02 
907	 2.98359501159578E-02 
908	 2.94906920986744E-02 
909	 2.90744903435564E-02 
910	 2.87133932587754E-02 
911	 2.86482538383477E-02 
912	 2.90697630990631E-02 
913	 2.90690937521474E-02 
914	 2.87176153232943E-02 
915	 2.85280117639835E-02 
916	 2.91251753708217E-02 
917	 0.028985168318063 
918	 2.85555983812945E-02 
919	 2.85447100869494E-02 
920	 2.95044418905112E-02 
921	 2.95580781725422E-02 
922	 2.89707423124666E-02 
923	 2.83706804936177E-02 
924	 2.82308067271937E-02 
925	 2.75180496405593E-02 
926	 2.68149755075183E-02 
927	 2.67651470476439E-02 
928	 2.60454561421488E-02 
929	 0.02525332645478 
930	 0.024711802675606 
931	 2.46882291711231E-02 
932	 2.54253123553611E-02 
933	 2.44686954123064E-02 
934	 0.022769048298298 
935	 2.28163788216095E-02 
936	 2.30846946549371E-02 
937	 2.20749580085499E-02 
938	 0.020982534367343 
939	 2.13531029557257E-02 
940	 2.33185593543287E-02 
941	 2.36373060348187E-02 
942	 2.37529602232493E-02 
943	 2.61178832913991E-02 
944	 2.39726125785238E-02 
945	 0.021301671785247 
946	 2.12060589523081E-02 
947	 2.37636100222075E-02 
948	 2.10450455339438E-02 
949	 2.01564493757937E-02 
950	 2.14763578728156E-02 
951	 2.12264888635423E-02 
952	 2.09752242042473E-02 
953	 0.023372954662415 
954	 2.58175484384836E-02 
955	 2.37815541098296E-02 
956	 2.33413031040793E-02 
957	 2.41429302098331E-02 
958	 0.025407755331295 
959	 2.62064340710349E-02 
960	 2.36902565255268E-02 
961	 2.24558389481662E-02 
962	 2.39801125056462E-02 
963	 2.64873045750085E-02 
964	 0.026521107833647 
965	 2.63092977688599E-02 
966	 2.62888322058919E-02 
967	 2.55604987476805E-02 
968	 2.58402190834342E-02 
969	 2.67431792678365E-02 
970	 2.74631093330734E-02 
971	 2.72067071936637E-02 
972	 2.65153685484344E-02 
973	 2.68221402634935E-02 
974	 2.77857054359732E-02 
975	 2.75280703939515E-02 
976	 2.72546268295187E-02 
977	 2.66152937135603E-02 
978	 2.61048597880079E-02 
979	 2.67071809364589E-02 
980	 2.68425904643648E-02 
981	 2.72809890852889E-02 
982	 2.78777574187166E-02 
983	 2.78741543153002E-02 
984	 2.90285207768083E-02 
985	 2.96149819670656E-02 
986	 2.95933293940469E-02 
987	 3.01171612700244E-02 
988	 2.89401116752983E-02 
989	 2.85996893337378E-02 
990	 2.93606989037907E-02 
991	 2.95734563430297E-02 
992	 2.94653554460048E-02 
993	 2.98880413421953E-02 
994	 3.02868896418421E-02 
995	 2.94651335553231E-02 
996	 2.86166751296112E-02 
997	 2.91410138097791E-02 
998	 3.01319105569788E-02 
999	 2.99023750900724E-02 
1000	 3.11282779779617E-02 
1001	 2.71038638494928E-02 
1002	 2.68053276632425E-02 
1003	 2.66289224940795E-02 
1004	 0.026480739023501 
1005	 2.64756032258272E-02 
1006	 2.66759445652127E-02 
1007	 2.66057795510935E-02 
1008	 2.66090521589209E-02 
1009	 2.66894970770156E-02 
1010	 2.70588801363217E-02 
1011	 2.72243171472442E-02 
1012	 2.72209117532922E-02 
1013	 2.73658017877504E-02 
1014	 2.73508620171256E-02 
1015	 2.69535987495888E-02 
1016	 0.026920157332551 
1017	 2.70904534359672E-02 
1018	 0.02714898920704 
1019	 2.72015798557772E-02 
1020	 2.72447017249683E-02 
1021	 2.73371718239425E-02 
1022	 2.74084520370811E-02 
1023	 2.72331312768851E-02 
1024	 0.027138267116651 
1025	 2.68155377694466E-02 
1026	 2.65931436417513E-02 
1027	 2.65523149086862E-02 
1028	 2.66688248832087E-02 
1029	 2.67173820740928E-02 
1030	 2.68573873260223E-02 
1031	 2.69681940459336E-02 
1032	 0.027080393322358 
1033	 2.71690037859794E-02 
1034	 2.73010766921721E-02 
1035	 2.74013713174696E-02 
1036	 2.76198178830677E-02 
1037	 2.75305154400601E-02 
1038	 2.72235846342416E-02 
1039	 2.69349855513785E-02 
1040	 2.66060021504763E-02 
1041	 2.62687645144466E-02 
1042	 0.026403474220253 
1043	 2.70678229500351E-02 
1044	 2.72709082277381E-02 
1045	 2.76138583527493E-02 
1046	 2.77041263064534E-02 
1047	 2.75364389845225E-02 
1048	 2.73956294523497E-02 
1049	 2.70674461507719E-02 
1050	 2.69595051151479E-02 
1051	 2.66975154746621E-02 
1052	 2.67537014180766E-02 
1053	 2.73992882398846E-02 
1054	 2.76070129564498E-02 
1055	 2.77893733371361E-02 
1056	 2.78730828914508E-02 
1057	 2.78065880697277E-02 
1058	 2.73564272951108E-02 
1059	 2.72366814593097E-02 
1060	 2.72169904178185E-02 
1061	 2.71297995096095E-02 
1062	 2.70098393754552E-02 
1063	 2.70208522712665E-02 
1064	 0.027135149658275 
1065	 2.71315365260489E-02 
1066	 2.72922131683601E-02 
1067	 2.72072501704651E-02 
1068	 2.68009411460061E-02 
1069	 0.026572087541877 
1070	 2.60839851008239E-02 
1071	 0.026008890363933 
1072	 2.62882589790613E-02 
1073	 2.66518959085209E-02 
1074	 2.66833752132245E-02 
1075	 2.68534770525809E-02 
1076	 2.67672264088146E-02 
1077	 2.61641683654524E-02 
1078	 2.60077852411552E-02 
1079	 2.60702005663087E-02 
1080	 2.60326958110061E-02 
1081	 2.60314947327975E-02 
1082	 2.60509025501413E-02 
1083	 2.61770825192772E-02 
1084	 2.61137629078805E-02 
1085	 0.025899770684199 
1086	 2.57984167313377E-02 
1087	 0.025651193949496 
1088	 2.54860086138877E-02 
1089	 2.54006220462686E-02 
1090	 2.53859921085881E-02 
1091	 2.51278871026468E-02 
1092	 0.024530654386932 
1093	 2.44571050881451E-02 
1094	 2.46233203221134E-02 
1095	 2.44791871559152E-02 
1096	 2.45064262577488E-02 
1097	 2.43581739229205E-02 
1098	 2.37566199952391E-02 
1099	 2.34626226569961E-02 
1100	 2.34095328524113E-02 
1101	 0.023285266469141 
1102	 2.30760716725746E-02 
1103	 2.29412433833444E-02 
1104	 2.28928158396842E-02 
1105	 2.29754553615929E-02 
1106	 2.27702914832293E-02 
1107	 2.26991033564694E-02 
1108	 0.022613100911774 
1109	 2.21962958802938E-02 
1110	 2.18733306833051E-02 
1111	 2.14185426184105E-02 
1112	 2.13086059314855E-02 
1113	 2.14414828473588E-02 
1114	 2.14258546755201E-02 
1115	 2.23124802034165E-02 
1116	 2.18289152438705E-02 
1117	 1.88432855245519E-02 
1118	 1.75518533621991E-02 
1119	 1.58206195192647E-02 
1120	 1.49022433878921E-02 
1121	 0.017155829601225 
1122	 2.15259456190701E-02 
1123	 2.07076940159913E-02 
1124	 1.75730934757613E-02 
1125	 1.98177809348585E-02 
1126	 1.85333999242236E-02 
1127	 1.24542750158415E-02 
1128	 1.41381634033519E-02 
1129	 1.50864242687582E-02 
1130	 1.27013355508147E-02 
1131	 1.32487400960236E-02 
1132	 1.88858010827453E-02 
1133	 1.85210184699908E-02 
1134	 1.44136300108657E-02 
1135	 1.45298869212453E-02 
1136	 1.57601177174466E-02 
1137	 1.61188448849547E-02 
1138	 1.82278466451146E-02 
1139	 1.76664206963401E-02 
1140	 1.56219553319829E-02 
1141	 1.53819785611332E-02 
1142	 1.64638379847524E-02 
1143	 1.76536894811808E-02 
1144	 1.79284609457869E-02 
1145	 1.71699108367276E-02 
1146	 0.015056953427139 
1147	 1.38764749041386E-02 
1148	 1.56308941042918E-02 
1149	 1.67464074111469E-02 
1150	 1.73526829447868E-02 
1151	 1.83804217599653E-02 
1152	 1.86969834892875E-02 
1153	 1.82266038806672E-02 
1154	 1.83805046973137E-02 
1155	 1.86402271022058E-02 
1156	 1.86311681043988E-02 
1157	 1.96269311151318E-02 
1158	 2.01584003832962E-02 
1159	 0.020577602834811 
1160	 2.13300663549142E-02 
1161	 2.10951268640635E-02 
1162	 2.07832397328849E-02 
1163	 2.13811056545611E-02 
1164	 2.19673338204452E-02 
1165	 2.25058141359548E-02 
1166	 2.27397902709476E-02 
1167	 2.24293282043507E-02 
1168	 2.24519768341356E-02 
1169	 2.26256462374197E-02 
1170	 2.24149805428978E-02 
1171	 2.24764083574221E-02 
1172	 2.28460250105211E-02 
1173	 2.30148520523005E-02 
1174	 2.30620668366717E-02 
1175	 2.31733446938877E-02 
1176	 2.35277487613077E-02 
1177	 2.32301596402543E-02 
1178	 2.28844856323198E-02 
1179	 2.34792582027344E-02 
1180	 2.38777295939258E-02 
1181	 2.35059063922823E-02 
1182	 2.34200335371977E-02 
1183	 0.023689674872923 
1184	 2.36574988017662E-02 
1185	 2.36352409056755E-02 
1186	 2.37858047873066E-02 
1187	 2.35546514100455E-02 
1188	 2.32897242623615E-02 
1189	 2.36041340439718E-02 
1190	 2.39242724455668E-02 
1191	 2.38279518539873E-02 
1192	 2.38002281672229E-02 
1193	 0.023707054766334 
1194	 2.37039420859116E-02 
1195	 2.36476866324174E-02 
1196	 2.36672581775385E-02 
1197	 2.38058989141606E-02 
1198	 2.37902887648293E-02 
1199	 2.36952953620899E-02 
1200	 2.38387659301911E-02 
1201	 2.39851541109753E-02 
1202	 2.40501466346967E-02 
1203	 2.41159634523822E-02 
1204	 2.40715131186132E-02 
1205	 2.40994556526316E-02 
1206	 2.42642213636012E-02 
1207	 2.41827144133919E-02 
1208	 2.37651123910973E-02 
1209	 2.36797443513713E-02 
1210	 0.023866559104497 
1211	 2.39141952974048E-02 
1212	 2.41593743717493E-02 
1213	 2.43452151030937E-02 
1214	 2.43898209056623E-02 
1215	 2.40361795944505E-02 
1216	 2.39705675538372E-02 
1217	 2.42936266757735E-02 
1218	 2.44717061129977E-02 
1219	 2.43874147723206E-02 
1220	 0.024471241799386 
1221	 2.46956038914462E-02 
1222	 2.46254781774443E-02 
1223	 2.45228426362005E-02 
1224	 2.47647532803115E-02 
1225	 2.48381720671753E-02 
1226	 2.46501859632176E-02 
1227	 2.48332623642125E-02 
1228	 2.51743865053853E-02 
1229	 2.50633162341622E-02 
1230	 2.48289780789639E-02 
1231	 2.49896645221163E-02 
1232	 2.50701241681992E-02 
1233	 2.48555377214597E-02 
1234	 2.49325035272732E-02 
1235	 2.50909784237398E-02 
1236	 2.52393734810003E-02 
1237	 2.52277065178895E-02 
1238	 2.52359033037391E-02 
1239	 2.55025475916238E-02 
1240	 2.54761948414209E-02 
1241	 2.52125916274005E-02 
1242	 2.53831598523699E-02 
1243	 2.55519993917675E-02 
1244	 2.52867606051978E-02 
1245	 2.51567691419202E-02 
1246	 2.52642235408516E-02 
1247	 0.025257697342953 
1248	 2.53200588463589E-02 
1249	 2.54317070370769E-02 
1250	 2.53048836862958E-02 
1251	 2.51056864069015E-02 
1252	 2.49638585333943E-02 
1253	 0.024914868365204 
1254	 2.49326080363208E-02 
1255	 0.024976463928498 
1256	 2.49041026538543E-02 
1257	 2.47611721695897E-02 
1258	 2.47047372029968E-02 
1259	 2.45623922206014E-02 
1260	 2.44806696312089E-02 
1261	 2.46090031654946E-02 
1262	 2.46308046860978E-02 
1263	 2.46257405096089E-02 
1264	 2.44780653958191E-02 
1265	 2.43697690726439E-02 
1266	 2.43590436246985E-02 
1267	 0.024313719876903 
1268	 2.42887714371372E-02 
1269	 2.43837122297626E-02 
1270	 2.43803860561425E-02 
1271	 2.43272221289306E-02 
1272	 2.42545724551578E-02 
1273	 2.42414847119648E-02 
1274	 2.43297619051656E-02 
1275	 2.42108282325291E-02 
1276	 2.40711364628985E-02 
1277	 2.41372553146441E-02 
1278	 0.024266683813974 
1279	 2.43540940003636E-02 
1280	 2.42023826848443E-02 
1281	 2.41575125079859E-02 
1282	 2.38326060233484E-02 
1283	 2.38268783998514E-02 
1284	 2.42667418751218E-02 
1285	 2.42953842772761E-02 
1286	 2.40451966303219E-02 
1287	 2.40189276229833E-02 
1288	 2.39361305902611E-02 
1289	 2.39110264546892E-02 
1290	 2.41901919078759E-02 
1291	 2.41943658527282E-02 
1292	 2.38838888206979E-02 
1293	 2.35990720938669E-02 
1294	 2.35448108052863E-02 
1295	 2.34905624172787E-02 
1296	 2.34226559400186E-02 
1297	 2.34287223616412E-02 
1298	 2.32169036502651E-02 
1299	 2.31592217911034E-02 
1300	 2.32763797142562E-02 
1301	 2.30183527554902E-02 
1302	 2.27646598864277E-02 
1303	 2.27509346540871E-02 
1304	 2.26945324222346E-02 
1305	 2.26329824393719E-02 
1306	 2.24343420204896E-02 
1307	 2.20807334444178E-02 
1308	 2.19142759618219E-02 
1309	 2.16976590915519E-02 
1310	 2.15512016263356E-02 
1311	 2.16995068667148E-02 
1312	 2.16235794083571E-02 
1313	 2.14078590035708E-02 
1314	 2.11711884321574E-02 
1315	 2.07179521652103E-02 
1316	 0.020620006988546 
1317	 2.07365509043754E-02 
1318	 2.06721739844812E-02 
1319	 2.08094558942603E-02 
1320	 2.08621639665004E-02 
1321	 2.08624632863699E-02 
1322	 2.05048454487492E-02 
1323	 0.01977003454885 
1324	 1.94810862283369E-02 
1325	 1.94721282009496E-02 
1326	 1.90957127961464E-02 
1327	 1.93236319795127E-02 
1328	 1.97156702439486E-02 
1329	 1.89700164204657E-02 
1330	 1.87871022950807E-02 
1331	 1.92101414009107E-02 
1332	 1.85675013889658E-02 
1333	 1.78645946332114E-02 
1334	 1.81389985067681E-02 
1335	 1.84828786791041E-02 
1336	 1.94254611500735E-02 
1337	 1.91975340574071E-02 
1338	 0.018285789799137 
1339	 1.85962553003146E-02 
1340	 1.91003845198377E-02 
1341	 1.86112764344984E-02 
1342	 1.87242444575434E-02 
1343	 1.92027099567113E-02 
1344	 1.76574418728381E-02 
1345	 1.67514464488375E-02 
1346	 1.98083826339401E-02 
1347	 2.01744435950882E-02 
1348	 1.32160821090821E-02 
1349	 1.09396112524009E-02 
1350	 1.64831965090547E-02 
1351	 1.53244656523196E-02 
1352	 6.96884999326073E-03 
1353	 7.69098371147268E-03 
1354	 1.21010451388174E-02 
1355	 1.55381043731347E-02 
1356	 4.66607503627834E-02 
1357	 0.113442384049854 
1358	 9.33042770306685E-02 
1359	 4.85080910725661E-02 
1360	 0.10064770551275 
1361	 8.57545477519078E-02 
1362	 9.20212457912597E-02 
1363	 0.191798420751365 
1364	 9.57081508425173E-02 
1365	-7.34211204727225E-02 
1366	-0.151281887226459 
1367	-0.236860563673412 
1368	-0.165427535727 
1369	 0.268252300381094 
1370	 0.402224724091784 
1371	 0.19007581591897 
1372	 0.184626009938552 
1373	 0.279617531268519 
1374	 0.28661383833623 
1375	 0.13498781331869 
1376	 0.185453351018021 
1377	 0.45917800733318 
1378	 0.163625831387506 
1379	 0.131538997072843 
1380	 6.12061275117182E-02 
1381	-0.402928596259079 
1382	-0.478128524466125 
1383	-0.443671143616769 
1384	-0.493888748202989 
1385	 8.24654866997666E-03 
1386	 3.37351574573614E-02 
1387	-0.33684208907904 
1388	-0.418499047044282 
1389	-0.388919608874408 
1390	-0.376726570662822 
1391	-0.306822440456803 
1392	-3.04043414719303E-02 
1393	-4.02459032704208E-02 
1394	-0.31674555166211 
1395	-0.125102417493431 
1396	-5.63447192965015E-02 
1397	-0.116150463018626 
1398	 8.53299411291479E-02 
1399	 6.80143136325726E-03 
1400	-5.51559773104215E-02 
1401	 0.198498833783526 
1402	 0.162956787753453 
1403	-3.93772303694505E-04 
1404	 0.23438873513337 
1405	 0.319372517790067 
1406	 0.292540503529331 
1407	 0.104645766676173 
1408	-5.72801030097549E-02 
1409	-6.20861594809253E-02 
1410	-0.184041119848344 
1411	-0.129376646267706 
1412	 0.102462012108631 
1413	 0.114419200723775 
1414	-2.29791647071771E-02 
1415	 1.29043822985513E-02 
1416	 0.166311864000574 
1417	 0.136980370491517 
1418	 0.03145729674763 
1419	 3.43562344488138E-02 
1420	 3.01400389421618E-02 
1421	 3.60961505526941E-03 
1422	 1.83760557467288E-02 
1423	 2.38014363477289E-02 
1424	-1.52332542214379E-02 
1425	-1.95487662977281E-02 
1426	 6.42347118860977E-03 
1427	 1.92176263406894E-02 
1428	 3.87869818655251E-02 
1429	 3.82206769020907E-02 
1430	 0.020239041567671 
1431	 1.69854562043552E-02 
1432	 7.39382203179527E-03 
1433	 8.33988777951676E-03 
1434	 3.23207753007208E-02 
1435	 3.78378687274427E-02 
1436	 3.74557467320053E-02 
1437	 3.15846773606415E-02 
1438	 6.23411555002547E-03 
1439	 1.07548122052813E-02 
1440	 2.15288011567631E-02 
1441	 1.25479537632352E-02 
1442	 0.012004096605368 
1443	 1.81410522346036E-02 
1444	 1.59144734465355E-02 
1445	 1.35823562554467E-02 
1446	 1.92774532864796E-02 
1447	 1.81706664376933E-02 
1448	 1.03524413939374E-02 
1449	 1.13455963120612E-02 
1450	 0.013803744060377 
1451	 1.33902435692625E-02 
1452	 1.61511752760065E-02 
1453	 1.70169385397294E-02 
1454	 1.74445171738351E-02 
1455	 1.67285198855071E-02 
1456	 1.55352518448995E-02 
1457	 0.013884061801238 
1458	 1.38522700492517E-02 
1459	 1.31111996711274E-02 
1460	 1.28620549579199E-02 
1461	 0.014650775532005 
1462	 0.014555520628576 
1463	 1.25766335169685E-02 
1464	 1.27320765484658E-02 
1465	 1.39098540436122E-02 
1466	 0.014100650808369 
1467	 1.53016386742821E-02 
1468	 1.48676565371393E-02 
1469	 1.16007021217285E-02 
1470	 0.011469587627074 
1471	 1.31041863251676E-02 
1472	 0.01271686849715 
1473	 0.012137814629241 
1474	 1.34722567610508E-02 
1475	 1.51589981280215E-02 
1476	 1.51543486404546E-02 
1477	 0.015825373316626 
1478	 1.61692609539363E-02 
1479	 0.014967839840283 
1480	 1.40523039910024E-02 
1481	 1.32125666053345E-02 
1482	 1.39775226942789E-02 
1483	 1.51425809961696E-02 
1484	 1.55514587476214E-02 
1485	 1.68277768257923E-02 
1486	 1.72727509072073E-02 
1487	 1.65869325081704E-02 
1488	 1.64967426630393E-02 
1489	 1.67057976428595E-02 
1490	 1.71056068983459E-02 
1491	 1.77090197825675E-02 
1492	 0.017685974085109 
1493	 1.74265687746942E-02 
1494	 1.75735334922591E-02 
1495	 1.75618843668218E-02 
1496	 1.75861312272629E-02 
1497	 1.79297087335898E-02 
1498	 1.82191044044593E-02 
1499	 1.82851816600455E-02 
1500	 1.84713954422578E-02 
1501	 1.89240088673156E-02 
1502	 1.91630936593922E-02 
1503	 1.94376383404705E-02 
1504	 0.019562569866657 
1505	 1.96309641831109E-02 
1506	 1.93399502323071E-02 
1507	 0.019518750710018 
1508	 1.95946191384852E-02 
1509	 1.96051922730818E-02 
1510	 1.98098508936833E-02 
1511	 1.98897727647262E-02 
1512	 2.00288036177432E-02 
1513	 2.03775396545965E-02 
1514	 2.05242286281954E-02 
1515	 0.02053701422411 
1516	 2.06523403739264E-02 
1517	 2.06712269747093E-02 
1518	 2.08442068808051E-02 
1519	 2.12749078681259E-02 
1520	 2.12995700122094E-02 
1521	 2.08951956395894E-02 
1522	 2.09519071848155E-02 
1523	 2.13941562021539E-02 
1524	 0.021393238383442 
1525	 0.021153957601864 
1526	 2.11700008774965E-02 
1527	 2.13097972889282E-02 
1528	 0.021303911137409 
1529	 2.12749519202892E-02 
1530	 2.14632035454698E-02 
1531	 0.021509047078073 
1532	 2.13395489490682E-02 
1533	 2.14670176065723E-02 
1534	 2.16889123426402E-02 
1535	 0.021614240976467 
1536	 2.15832763999849E-02 
1537	 2.18447335812122E-02 
1538	 2.20510672826925E-02 
1539	 2.19821248909875E-02 
1540	 2.19350828984337E-02 
1541	 2.19338903641224E-02 
1542	 2.18400216691393E-02 
1543	 2.18076991041113E-02 
1544	 2.18911697385704E-02 
1545	 2.19919715682241E-02 
1546	 2.19839058867642E-02 
1547	 2.19707209595307E-02 
1548	 2.20056291303544E-02 
1549	 2.21457716595996E-02 
1550	 2.22786109256909E-02 
1551	 2.21785619887804E-02 
1552	 2.22098208419253E-02 
1553	 2.22782933455418E-02 
1554	 2.21636001545829E-02 
1555	 2.21655427815351E-02 
1556	 2.22291672671148E-02 
1557	 2.22103124885982E-02 
1558	 2.21636180916771E-02 
1559	 2.22352942723395E-02 
1560	 2.22449890800876E-02 
1561	 2.20828542542082E-02 
1562	 0.022164654344749 
1563	 2.23591458205866E-02 
1564	 2.24153996144783E-02 
1565	 2.23987770448647E-02 
1566	 0.022257461185106 
1567	 2.21889723242946E-02 
1568	 2.21260417473346E-02 
1569	 0.021938185042416 
1570	 2.20191466852429E-02 
1571	 2.21262922999409E-02 
1572	 2.20949764948329E-02 
1573	 2.24736497897595E-02 
1574	 2.26332070792424E-02 
1575	 2.22526631064308E-02 
1576	 2.21652552081679E-02 
1577	 2.21882868287398E-02 
1578	 2.21026394106925E-02 
1579	 2.22488716319582E-02 
1580	 2.23856460546036E-02 
1581	 2.24122381550447E-02 
1582	 2.25325574169728E-02 
1583	 2.25502123102976E-02 
1584	 0.022599442965738 
1585	 2.27505789747175E-02 
1586	 2.25531049009427E-02 
1587	 2.23781598105382E-02 
1588	 2.24731991957379E-02 
1589	 2.23467807324273E-02 
1590	 2.23523705416076E-02 
1591	 2.26360308370406E-02 
1592	 0.022689338555738 
1593	 2.25184518389551E-02 
1594	 2.23066133255471E-02 
1595	 2.22234647337919E-02 
1596	 2.22730775463917E-02 
1597	 0.02224842573858 
1598	 2.22592755512087E-02 
1599	 2.24237385260406E-02 
1600	 2.24670501704485E-02 
1601	 2.25247405481626E-02 
1602	 2.25160498726468E-02 
1603	 2.22061258685561E-02 
1604	 2.21426692850667E-02 
1605	 2.23214494933738E-02 
1606	 2.23732709571274E-02 
1607	 2.23177416801334E-02 
1608	 2.22193584782468E-02 
1609	 2.20865097650604E-02 
1610	 2.21136530786012E-02 
1611	 2.25207925801076E-02 
1612	 2.26806287873027E-02 
1613	 2.26103417907097E-02 
1614	 2.28861219319116E-02 
1615	 2.29223499711742E-02 
1616	 0.022762301620922 
1617	 2.27981538032382E-02 
1618	 2.27725426599078E-02 
1619	 2.28391163148358E-02 
1620	 2.28648076495884E-02 
1621	 2.27409599651441E-02 
1622	 2.27336012087787E-02 
1623	 2.26382934081328E-02 
1624	 2.26276310142893E-02 
1625	 2.28383220963602E-02 
1626	 2.28747924887195E-02 
1627	 2.28229660874611E-02 
1628	 2.28146022035731E-02 
1629	 2.27455938571439E-02 
1630	 2.26560413158618E-02 
1631	 0.022679445968742 
1632	 2.28193960983819E-02 
1633	 2.27753532609731E-02 
1634	 2.26446526367679E-02 
1635	 2.27661249688525E-02 
1636	 2.27839693574366E-02 
1637	 0.022583276171508 
1638	 2.26862427269954E-02 
1639	 2.28831142276438E-02 
1640	 2.27083487102916E-02 
1641	 2.26180524977344E-02 
1642	 2.27928969176865E-02 
1643	 2.29583308962899E-02 
1644	 2.29035558950145E-02 
1645	 2.28054787420661E-02 
1646	 2.29119340171033E-02 
1647	 2.27632015741005E-02 
1648	 2.25673842558652E-02 
1649	 0.022614815107043 
1650	 2.25902738342588E-02 
1651	 2.27024722940851E-02 
1652	 2.27837987509072E-02 
1653	 2.26033023000153E-02 
1654	 2.27287093507918E-02 
1655	 0.02249877207096 
1656	 2.24038946357038E-02 
1657	 2.30468412925764E-02 
1658	 2.30777941713759E-02 
1659	 2.23918796082451E-02 
1660	 2.23630659286691E-02 
1661	 0.022653967666994 
1662	 2.26087176941458E-02 
1663	 2.25688295440442E-02 
1664	 2.27282756865945E-02 
1665	 0.022848825967034 
1666	 2.28370398031022E-02 
1667	 2.30086013166192E-02 
1668	 2.28892414694818E-02 
1669	 2.26015375057835E-02 
1670	 2.25174228046282E-02 
1671	 0.022711259349847 
1672	 2.27253777852191E-02 
1673	 2.26138892157821E-02 
1674	 2.25317563121876E-02 
1675	 0.022749053510631 
1676	 0.023011125620667 
1677	 2.27247473353624E-02 
1678	 2.28239794107456E-02 
1679	 2.31055457693676E-02 
1680	 2.27977028556529E-02 
1681	 2.28056070700968E-02 
1682	 2.30431404818624E-02 
1683	 2.28494642018663E-02 
1684	 2.25935802191347E-02 
1685	 2.25236979154212E-02 
1686	 2.24840393511965E-02 
1687	 2.24554127956219E-02 
1688	 2.24721948960612E-02 
1689	 2.24773211340608E-02 
1690	 2.25378295139101E-02 
1691	 2.26659575671905E-02 
1692	 2.27603992456164E-02 
1693	 2.27708251212207E-02 
1694	 2.25977805616368E-02 
1695	 2.23636093211789E-02 
1696	 2.23346674410035E-02 
1697	 0.022661443546085 
1698	 2.29410515911875E-02 
1699	 2.27240036069022E-02 
1700	 2.25817167527018E-02 
1701	 2.28356946803908E-02 
1702	 2.27048743717064E-02 
1703	 2.23960544975353E-02 
1704	 2.26028919566234E-02 
1705	 2.26961769618977E-02 
1706	 2.24506001033716E-02 
1707	 2.23887777421443E-02 
1708	 2.25076404173336E-02 
1709	 2.23216761543197E-02 
1710	 2.21294969941599E-02 
1711	 2.24739460716936E-02 
1712	 2.23276144921186E-02 
1713	 0.02175720952335 
1714	 2.17555783152992E-02 
1715	 2.21032093946287E-02 
1716	 2.20228774957391E-02 
1717	 2.22445814452241E-02 
1718	 2.24717156382234E-02 
1719	 2.22652786571645E-02 
1720	 0.022017925732369 
1721	 2.18394928085248E-02 
1722	 2.16192657811134E-02 
1723	 0.021609985036387 
1724	 2.15843434508039E-02 
1725	 2.16304006172431E-02 
1726	 2.22433605273389E-02 
1727	 2.24986094672591E-02 
1728	 2.20213981540748E-02 
1729	 2.17213962440562E-02 
1730	 2.17509130197069E-02 
1731	 2.18582154492794E-02 
1732	 2.21929438468949E-02 
1733	 0.022773204057876 
1734	 0.022674417189479 
1735	 2.19977490784097E-02 
1736	 2.15888661865808E-02 
1737	 2.15174695762085E-02 
1738	 2.18189029944078E-02 
1739	 2.18956308545874E-02 
1740	 2.21055955233211E-02 
1741	 0.022504888615838 
1742	 2.19031590864654E-02 
1743	 2.14647007495317E-02 
1744	 2.12239943546628E-02 
1745	 2.05908397692791E-02 
1746	 2.08026476310865E-02 
1747	 2.08000690523294E-02 
1748	 2.16294212510343E-02 
1749	 2.15655385929572E-02 
1750	 2.01636999901733E-02 
1751	 2.01148478297861E-02 
1752	 2.07820870120918E-02 
1753	 2.06782704816198E-02 
1754	 2.08003750158653E-02 
1755	 0.020845672465803 
1756	 2.01471811480728E-02 
1757	 2.03062998712273E-02 
1758	 2.05464148758593E-02 
1759	 2.04464805758257E-02 
1760	 2.02559025527621E-02 
1761	 1.99939954215423E-02 
1762	 2.01273444953002E-02 
1763	 2.06612975059419E-02 
1764	 2.00709574028066E-02 
1765	 1.90821439231644E-02 
1766	 1.94537273697803E-02 
1767	 2.00376181869959E-02 
1768	 2.04962534078776E-02 
1769	 2.02138739962293E-02 
1770	 1.88130754628032E-02 
1771	 1.81362908108046E-02 
1772	 1.77036545925646E-02 
1773	 1.87415247601352E-02 
1774	 2.09390750345016E-02 
1775	 1.85311945768329E-02 
1776	 1.78079942970283E-02 
1777	 1.70290252456458E-02 
1778	 1.66496801869521E-02 
1779	 1.85889162462303E-02 
1780	 1.89424130099165E-02 
1781	 1.82745670336022E-02 
1782	 1.82235426058735E-02 
1783	 1.73487439794935E-02 
1784	 1.65980506612126E-02 
1785	 1.61704255828608E-02 
1786	 1.65861311264962E-02 
1787	 1.72277074558232E-02 
1788	 1.75881158919556E-02 
1789	 1.98739787243887E-02 
1790	 1.74859351838931E-02 
1791	 1.62031796421827E-02 
1792	 0.019253059889569 
1793	 1.75879197679475E-02 
1794	 1.57531337441406E-02 
1795	 1.87639841348466E-02 
1796	 1.43829490412277E-02 
1797	 8.45953225497173E-03 
1798	 8.35851764156377E-03 
1799	 5.19104599259086E-03 
1800	 0.018871529125229 
1801	 2.22835269961654E-02 
1802	 1.62083423565454E-02 
1803	 1.17595227835288E-02 
1804	-1.90520999286004E-02 
1805	-3.35707665651781E-02 
1806	-1.10801181105456E-02 
1807	-8.13811975000544E-04 
1808	 1.93214114998061E-02 
1809	 2.96267183720662E-02 
1810	 3.06715329028043E-02 
1811	 2.36252182029456E-02 
1812	-0.050456442995678 
1813	-4.97272680434964E-02 
1814	 8.76927196724352E-03 
1815	 0.117472130365923 
1816	 0.555850545099043 
1817	 0.520869690595132 
1818	 0.122995932277246 
1819	-0.153740316977422 
1820	-0.301970614262896 
1821	-4.17356469004787E-02 
1822	 1.63445430891613E-02 
1823	-5.33220127685932E-02 
1824	-3.42106039284358E-02 
1825	-0.232711810941487 
1826	-0.152515538630005 
1827	 0.277946532333656 
1828	 0.286022637741429 
1829	 0.140965261785702 
1830	 0.120031979117101 
1831	-3.11780379665507 
1832	 53.3318118502217 
1833	 1.59999137813034 
1834	 0.847069391146398 
1835	 0.163333512576945 
1836	-5.99607066360971E-02 
1837	 0.272485982212917 
1838	 0.311637793836095 
1839	 0.186081008895602 
1840	 4.05614686036345E-02 
1841	 0.166248727367299 
1842	 6.78831548318727E-02 
1843	 8.74714966991598E-02 
1844	 0.19622603990564 
1845	 8.06587958775737E-02 
1846	-0.144656415221389 
1847	-0.230722884323689 
1848	-1.01819902962253 
1849	-0.957850052731394 
1850	 0.477812649960637 
1851	 0.504327183610797 
1852	-0.135983732680033 
1853	-0.320784752380808 
1854	-0.333436155819891 
1855	-0.76334712132073 
1856	-0.923327416195137 
1857	-3.48402069857011 
1858	-4.10519107832325 
1859	 2.33662689248871 
1860	 1.0431687076317 
1861	 0.126417024091604 
1862	-0.13826346346534 
1863	-0.361439275232908 
1864	-4.95755238340219 
1865	 0.486905975063302 
1866	 2.17683048422263 
1867	 1.57651958945704 
1868	 4.22651835669112 
1869	 6.2681052770191 
1870	 7.89485330676566E-02 
1871	-2.21050666553188 
1872	 2.27357057834028 
1873	 35.2398700910029 
1874	-0.345480803063903 
1875	 0.74585843364886 
1876	 0.592936827053961 
1877	-0.187828347654569 
1878	-0.18134696982772 
1879	 2.48304591765748 
1880	 1.13791021745847 
1881	 0.246094594412534 
1882	-8.83513609518438E-02 
1883	 0.682490664082411 
1884	 1.95085061213594 
1885	 0.671611204051884 
1886	 0.440493713942193 
1887	 1.2809226620117 
1888	 1.07932124968201 
1889	 0.967428326589508 
1890	 0.844646059811563 
1891	 0.904938966157172 
1892	 3.36189660473197 
1893	 0.322054118440378 
1894	-2.60195175320047E-03 
1895	-4.33374583378785E-02 
1896	-0.316298413003623 
1897	-3.13821279763007 
1898	-0.209068019206354 
1899	 11.7444613545326 
1900	 2.70055524740674 
1901	 0.645145524281202 
1902	 0.394522362229689 
1903	 0.193375758088957 
1904	 0.24698108663779 
1905	 8.35208976031432E-02 
1906	 0.149767111601226 
1907	 0.39556017060437 
1908	 0.228352945263618 
1909	 6.96816638986531E-02 
1910	-2.36221335742118 
1911	 0.682402124341361 
1912	-0.304471914928046 
1913	-0.397251824991675 
1914	-0.104577910694637 
1915	 5.20594640543861E-02 
1916	 0.210266290164231 
1917	 0.309630556899225 
1918	 0.228073631193007 
1919	-0.010825605805367 
1920	-0.81243762117737 
1921	-0.882229994012611 
1922	-0.726394757155244 
1923	-0.637598645198341 
1924	-0.272835212288197 
1925	-0.458878717597853 
1926	-0.868818107536566 
1927	-5.77124804199324 
1928	 1.45012229375642 
1929	-7.36359021287982E-02 
1930	-0.915947385425519 
1931	-1.09993678106072 
1932	-2.2381652013953 
1933	-0.856701357134253 
1934	 0.256109632739313 
1935	 0.685275010724561 
1936	 0.415658014491586 
1937	 0.131397014427785 
1938	 6.37155164005247E-02 
1939	-5.45281209765722E-02 
1940	-0.192167146999489 
1941	-0.157787760511095 
1942	-0.113546654907007 
1943	-0.211220815945728 
1944	-0.220617762882353 
1945	-0.104208774895284 
1946	-8.51132453110168E-02 
1947	-8.65883918404634E-02 
1948	-4.17804819983253E-02 
1949	-3.47907011979372E-02 
1950	-0.06093525289768 
1951	-7.04064860684818E-02 
1952	-4.90292753358412E-02 
1953	-2.94420233414573E-02 
1954	-2.10874371397813E-02 
1955	-3.58679919154247E-03 
1956	 1.31707370083479E-02 
1957	 5.77495991282306E-03 
1958	-2.44105856910413E-03 
1959	 1.82639602989585E-03 
1960	 8.0338379886213E-03 
1961	 8.68855007306551E-03 
1962	 9.15954831726799E-03 
1963	 1.15934218768407E-02 
1964	 1.47025624629511E-02 
1965	 1.42611442432976E-02 
1966	 1.27337502806149E-02 
1967	 9.40935429324243E-03 
1968	 7.52586579360538E-03 
1969	 6.77852763333923E-03 
1970	 7.41866210072056E-03 
1971	 1.03036257931366E-02 
1972	 1.22536435408686E-02 
1973	 1.27596634055601E-02 
1974	 1.46264980722723E-02 
1975	 1.55897963861932E-02 
1976	 1.49796347227198E-02 
1977	 1.48288629211611E-02 
1978	 1.56907380636824E-02 
1979	 1.52907234808351E-02 
1980	 1.42326546689491E-02 
1981	 1.29846297455029E-02 
1982	 1.28558255092037E-02 
1983	 1.21598276077297E-02 
1984	 1.27464966860336E-02 
1985	 1.41223769169175E-02 
1986	 1.44251441012035E-02 
1987	 1.43988825144199E-02 
1988	 1.39506175238027E-02 
1989	 1.42139423049575E-02 
1990	 1.45194340793477E-02 
1991	 1.40351120921737E-02 
1992	 1.33353918421039E-02 
1993	 1.24972815159363E-02 
1994	 1.23051700085521E-02 
1995	 1.26425389216042E-02 
1996	 1.35594508474011E-02 
1997	 1.45554526264222E-02 
1998	 1.52025110022989E-02 
1999	 1.43335033393467E-02 
2000	 1.33352676511841E-02 
2001	 1.05113085993604E-02 
2002	 7.79962599426241E-03 
2003	 9.60116261574659E-03 
2004	 9.83286556594824E-03 
2005	 1.30015456346371E-02 
2006	 1.84558069502147E-02 
2007	 0.016524942013351 
2008	 1.41549295627415E-02 
2009	 1.48967152761155E-02 
2010	 1.75562907976878E-02 
2011	 0.017190806939814 
2012	 1.74703409504477E-02 
2013	 1.74171330829731E-02 
2014	 1.67788836640671E-02 
2015	 1.40205994032352E-02 
2016	 1.33813589638996E-02 
2017	 1.66717667024051E-02 
2018	 1.48920644283084E-02 
2019	 1.16530358521365E-02 
2020	 1.27828882311748E-02 
2021	 1.44984256444974E-02 
2022	 1.71584341272418E-02 
2023	 1.89436862541549E-02 
2024	 1.89876961861939E-02 
2025	 1.66883051553353E-02 
2026	 1.60587620134071E-02 
2027	 1.48375814823879E-02 
2028	 1.53039954193316E-02 
2029	 1.59647287957963E-02 
2030	 1.64779458473697E-02 
2031	 1.69430947194247E-02 
2032	 1.67651038281911E-02 
2033	 1.72371913774075E-02 
2034	 1.74007071577534E-02 
2035	 1.70851806791415E-02 
2036	 1.69493211965274E-02 
2037	 1.61354139840052E-02 
2038	 1.54830240667625E-02 
2039	 0.015387895061755 
2040	 0.01556401204478 
2041	 1.56606640185021E-02 
2042	 1.65554708152548E-02 
2043	 1.68308585120924E-02 
2044	 1.65955008975749E-02 
2045	 1.65254963009835E-02 
2046	 1.69433122987076E-02 
2047	 0.017033871169685 
2048	 1.72922947510077E-02 
2049	 1.83725642201578E-02 
2050	 1.87286778624138E-02 
2051	 1.80353302244099E-02 
2052	 1.75148783288793E-02 
2053	 1.67867756263591E-02 
2054	 0.016182958547115 
2055	 1.61185790121081E-02 
2056	 1.57196595817564E-02 
2057	 1.48892276650563E-02 
2058	 1.48547084333835E-02 
2059	 1.54435028643588E-02 
2060	 1.57435588130086E-02 
2061	 0.016796585099964 
2062	 1.64742525350254E-02 
2063	 1.61906527153356E-02 
2064	 1.63919898177414E-02 
2065	 1.60433845139362E-02 
2066	 1.61779906895099E-02 
2067	 1.69971400122562E-02 
2068	 1.64237977079889E-02 
2069	 1.58961355179398E-02 
2070	 0.01615852703849 
2071	 1.56625489190382E-02 
2072	 1.58977966170604E-02 
2073	 1.58443298668347E-02 
2074	 1.55999253215104E-02 
2075	 1.57785246871981E-02 
2076	 1.62993205479115E-02 
2077	 1.63032160251625E-02 
2078	 1.60327498338749E-02 
2079	 1.62759824800708E-02 
2080	 1.66890763470355E-02 
2081	 1.71038684696389E-02 
2082	 1.63575751537621E-02 
2083	 0.016580242860244 
2084	 1.67498299496906E-02 
2085	 1.58588056178967E-02 
2086	 1.60380707471552E-02 
2087	 1.67520753021663E-02 
2088	 1.71120537494459E-02 
2089	 1.71617236593158E-02 
2090	 1.71096414406217E-02 
2091	 1.67478030232437E-02 
2092	 1.64572430223031E-02 
2093	 1.55655570803702E-02 
2094	 1.55822716783702E-02 
2095	 1.61542561535583E-02 
2096	 1.67303901678766E-02 
2097	 1.79693015183935E-02 
2098	 1.84781474992695E-02 
2099	 1.88854482848526E-02 
2100	 1.88205848008469E-02 
2101	 1.82671212763345E-02 
2102	 1.76761276346846E-02 
2103	 1.68514756527371E-02 
2104	 1.67573694985595E-02 
2105	 1.72803769628752E-02 
2106	 1.74671355184156E-02 
2107	 1.75395416290035E-02 
2108	 1.75150016638826E-02 
2109	 1.74551601832978E-02 
2110	 1.73435232712438E-02 
2111	 1.71117838434838E-02 
2112	 0.016608448708908 
2113	 1.67202890086803E-02 
2114	 1.71139327418691E-02 
2115	 1.72570854644313E-02 
2116	 1.77962154404101E-02 
2117	 1.82818402323257E-02 
2118	 1.85229694046682E-02 
2119	 1.85383264726692E-02 
2120	 1.87464856482898E-02 
2121	 0.0186053729849 
2122	 0.018219289553507 
2123	 1.81719264502195E-02 
2124	 1.84367981643432E-02 
2125	 1.84716448183197E-02 
2126	 1.87371829811966E-02 
2127	 1.88119691304942E-02 
2128	 1.87143256907519E-02 
2129	 1.90332033082025E-02 
2130	 1.89896742282916E-02 
2131	 1.86197484837775E-02 
2132	 1.81332822302626E-02 
2133	 1.86041013961707E-02 
2134	 1.86093246688747E-02 
2135	 1.84475561524955E-02 
2136	 1.83678871499252E-02 
2137	 0.017980701002537 
2138	 1.79458241522442E-02 
2139	 1.87970706400667E-02 
2140	 1.89141241293006E-02 
2141	 1.85316645173131E-02 
2142	 1.86288411090852E-02 
2143	 1.87187276614554E-02 
2144	 1.83364869651652E-02 
2145	 1.88015515791316E-02 
2146	 1.96525152560902E-02 
2147	 2.00776136303806E-02 
2148	 1.96829888996778E-02 
2149	 0.018910609679353 
2150	 1.86130307900354E-02 
2151	 1.84988728852901E-02 
2152	 1.87543884144793E-02 
2153	 0.018764811184324 
2154	 1.80505716616733E-02 
2155	 1.78297336817865E-02 
2156	 1.78427905577237E-02 
2157	 0.017909778742083 
2158	 1.92227289425486E-02 
2159	 1.90458238638813E-02 
2160	 1.74120314451887E-02 
2161	 1.71811363859292E-02 
2162	 1.71740094734955E-02 
2163	 1.69658815516064E-02 
2164	 1.74163428507442E-02 
2165	 0.017654845308614 
2166	 1.76358472409584E-02 
2167	 1.75086177673214E-02 
2168	 1.77053722930409E-02 
2169	 1.73778619806224E-02 
2170	 1.58645364073903E-02 
2171	 1.56231668715602E-02 
2172	 1.63530953553616E-02 
2173	 1.63567091933351E-02 
2174	 1.74217068007307E-02 
2175	 0.018213933068589 
2176	 1.81047709905275E-02 
2177	 1.78651598689623E-02 
2178	 0.0175837138912 
2179	 1.75152990123888E-02 
2180	 0.016885234832097 
2181	 0.017468636035022 
2182	 1.80691213117714E-02 
2183	 1.72532474340438E-02 
2184	 1.71100488431009E-02 
2185	 1.65764134047168E-02 
2186	 1.65421349134712E-02 
2187	 0.016957119767182 
2188	 0.0176646415529 
2189	 1.89345382971003E-02 
2190	 1.93009436994798E-02 
2191	 2.00384958383692E-02 
2192	 1.96512869951313E-02 
2193	 1.72715376320155E-02 
2194	 1.66710031369189E-02 
2195	 1.61796180899722E-02 
2196	 1.61609375328883E-02 
2197	 1.82046033817676E-02 
2198	 0.018791329495491 
2199	 0.019221171883966 
2200	 1.83305256852403E-02 
2201	 1.65443180315215E-02 
2202	 1.58617794028429E-02 
2203	 1.66504659545005E-02 
2204	 1.54691775603788E-02 
2205	 1.44987341829736E-02 
2206	 1.52942166201119E-02 
2207	 1.54797881683314E-02 
2208	 1.62253629191804E-02 
2209	 0.019184806029947 
2210	 2.03088254188165E-02 
2211	 1.72412501682059E-02 
2212	 1.63712302248196E-02 
2213	 1.66174444569133E-02 
2214	 1.45727135026814E-02 
2215	 1.58136767542736E-02 
2216	 1.78825164472803E-02 
2217	 1.83380835281763E-02 
2218	 1.80134285144721E-02 
2219	 1.77288667107128E-02 
2220	 1.62465276954586E-02 
2221	 1.58818537238913E-02 
2222	 1.58781536748097E-02 
2223	 1.55818809258714E-02 
2224	 1.57186243363336E-02 
2225	 1.54549744764719E-02 
2226	 0.014760272176182 
2227	 1.38478488328374E-02 
2228	 1.24563214565373E-02 
2229	 1.23177391232403E-02 
2230	 1.20802267553264E-02 
2231	 1.27718387117575E-02 
2232	 1.62883767574058E-02 
2233	 1.68600180754946E-02 
2234	 1.56795761302976E-02 
2235	 0.015667559934277 
2236	 1.57734903200048E-02 
2237	 1.40567388709956E-02 
2238	 0.014442745454467 
2239	 1.57299470568562E-02 
2240	 1.51264398238153E-02 
2241	 1.42890937153861E-02 
2242	 1.40930237710667E-02 
2243	 1.35988360827251E-02 
2244	 1.28711656489264E-02 
2245	 1.39641369547961E-02 
2246	 1.60643934773004E-02 
2247	 1.57684988554244E-02 
2248	 0.015027849469128 
2249	 1.55586917437643E-02 
2250	 1.59952294948435E-02 
2251	 1.82745267424309E-02 
2252	 1.85272524948892E-02 
2253	 1.72286034575749E-02 
2254	 1.85739910307695E-02 
2255	 1.82811122200516E-02 
2256	 1.79073950592075E-02 
2257	 1.85925101620988E-02 
2258	 1.74003634920646E-02 
2259	 1.46320964384109E-02 
2260	 1.34022897819446E-02 
2261	 1.33215669292612E-02 
2262	 1.35830216146127E-02 
2263	 1.52329689179279E-02 
2264	 1.50644558403738E-02 
2265	 1.40294586704363E-02 
2266	 1.47456287290757E-02 
2267	 1.51739052048938E-02 
2268	 1.47231822256203E-02 
2269	 1.53624691616723E-02 
2270	 1.61253837154797E-02 
2271	 1.52545892728396E-02 
2272	 1.52266752745415E-02 
2273	 1.79737187568143E-02 
2274	 1.80394609913254E-02 
2275	 1.47312125622769E-02 
2276	 1.45752452672406E-02 
2277	 1.69275391551966E-02 
2278	 1.62554928796627E-02 
2279	 1.37980080880201E-02 
2280	 1.37053066657967E-02 
2281	 0.013820450510811 
2282	 1.26780495727971E-02 
2283	 1.16608040070075E-02 
2284	 1.29571260995125E-02 
2285	 9.21308885099718E-03 
2286	 6.8161208709529E-03 
2287	 1.04875198984486E-02 
2288	 1.10408059082961E-02 
2289	 1.45066819015793E-02 
2290	 0.017305273828928 
2291	 1.40304096610162E-02 
2292	 1.44819653243307E-02 
2293	 1.50771854950087E-02 
2294	 1.29656201811782E-02 
2295	 1.45075956366074E-02 
2296	 1.43627242581035E-02 
2297	 1.18468425530839E-02 
2298	 1.31487451797131E-02 
2299	 1.33368925339277E-02 
2300	 1.35908825716149E-02 
2301	 1.65429407291551E-02 
2302	 1.65654308817936E-02 
2303	 1.49331646648659E-02 
2304	 1.71281397269181E-02 
2305	 1.79435466713278E-02 
2306	 1.66375330310138E-02 
2307	 2.05874656774782E-02 
2308	 2.10126672133263E-02 
2309	 1.66101508406046E-02 
2310	 1.63895567746587E-02 
2311	 1.23851195998368E-02 
2312	 5.52540172280454E-03 
2313	 7.51297361702525E-03 
2314	 9.81844727506463E-03 
2315	 7.98203915057063E-03 
2316	 8.69364377028418E-03 
2317	 9.03986285837208E-03 
2318	 9.44190266699073E-03 
2319	 1.19405388243707E-02 
2320	 1.17704971983325E-02 
2321	 1.01592646620142E-02 
2322	 8.81952108917405E-03 
2323	 3.9167424696029E-03 
2324	 5.3090657702408E-03 
2325	 1.15743131839253E-02 
2326	 1.05773571717722E-02 
2327	 1.17335171927237E-02 
2328	 0.01580320221232 
2329	 1.20847227394911E-02 
2330	 4.81398374666323E-03 
2331	 1.80900992446762E-04 
2332	-1.02533003701124E-06 
2333	 5.80420454755506E-03 
2334	 0.014453843977982 
2335	 2.16804627296916E-02 
2336	 1.97752072502903E-02 
2337	 1.34725832613494E-02 
2338	 1.02849384175341E-02 
2339	 6.30998534231076E-03 
2340	 5.37498556996483E-03 
2341	 2.20823402219498E-03 
2342	-9.17496436700759E-04 
2343	 3.79451050459346E-04 
2344	 4.12677620380049E-04 
2345	 1.05751962897559E-02 
2346	 2.04691791581174E-02 
2347	 1.96594332987757E-02 
2348	 1.63225702772451E-02 
2349	 6.0616983410979E-03 
2350	-2.40276805573523E-03 
2351	-2.23738519216977E-03 
2352	-2.59844511020313E-03 
2353	-6.56886270613539E-03 
2354	-9.08613120919585E-03 
2355	-4.48437995589168E-03 
2356	 8.12223155215083E-05 
2357	-1.26971002056724E-03 
2358	-4.38650666044646E-03 
2359	-1.05738608141444E-02 
2360	-8.88945811798091E-03 
2361	-3.50163669208001E-03 
2362	-3.28114738969386E-03 
2363	 2.08333967190919E-03 
2364	 1.96637523679189E-03 
2365	 3.15009403877597E-03 
2366	 8.41033770754421E-03 
2367	 9.72820108905829E-03 
2368	 5.27717303240009E-03 
2369	-1.97914211040108E-02 
2370	-3.59480208933663E-02 
2371	-4.46034689960821E-02 
2372	-5.04683426308353E-02 
2373	-0.021993532508143 
2374	-4.85709184792401E-04 
2375	 4.33781644533009E-03 
2376	 6.65896222089063E-03 
2377	 5.99066481454042E-03 
2378	 1.53844165655242E-02 
2379	 3.77517811817437E-03 
2380	-7.43301472824632E-03 
2381	-1.16749986939938E-02 
2382	-1.85507123556302E-02 
2383	 3.95257566283915E-03 
2384	 3.55105670926643E-02 
2385	 4.64611524594783E-02 
2386	 2.64363681035852E-02 
2387	-1.39771235275986E-03 
2388	-1.11302078815196E-02 
2389	-1.68259661406814E-02 
2390	-4.14262695564503E-02 
2391	-5.37348063644852E-02 
2392	-0.04644570347267 
2393	-5.68315629991558E-02 
2394	-4.39403594702003E-02 
2395	-2.02342680672595E-02 
2396	-3.33020604801405E-02 
2397	-2.64276317154839E-02 
2398	-3.45718311473657E-02 
2399	-7.03202209275164E-02 
2400	-0.085019666697413 
2401	-0.122583489648288 
2402	-0.123831387031073 
2403	-7.94819968960747E-02 
2404	-7.20245633804981E-02 
2405	-2.68913331018081E-02 
2406	 2.82025294712268E-02 
2407	-7.78840056716581E-04 
2408	-3.09051117689242E-02 
2409	-2.14638652926673E-02 
2410	-1.84753328004659E-02 
2411	-1.74587174112576E-02 
2412	 5.44129321335777E-02 
2413	 8.52065451509116E-02 
2414	 1.82734389172076E-02 
2415	 8.23536483191218E-02 
2416	 0.145719963755131 
2417	 0.124963563605331 
2418	 0.129401541883963 
2419	 7.31244740261109E-02 
2420	 4.09406765254037E-02 
2421	 0.134087157322244 
2422	 0.166203097189429 
2423	 0.142510668821231 
2424	 0.107362116285006 
2425	-3.82016873795884E-02 
2426	-0.123460387490008 
2427	-0.154696299316652 
2428	-0.158188447681649 
2429	-0.101060792541717 
2430	-6.41345315341024E-02 
2431	-1.46374152238383E-02 
2432	 5.61892249868345E-03 
2433	 5.86905813754143E-04 
2434	-2.41439446159312E-02 
2435	-0.169644167322051 
2436	-0.355685846834487 
2437	-0.398853992984991 
2438	-0.292102865537337 
2439	-0.151433796497536 
2440	-0.022146446097446 
2441	 6.36794532575808E-02 
2442	-8.25463742171945E-02 
2443	-0.258213837010201 
2444	-0.181877362054987 
2445	-0.129736613826077 
2446	-0.189903933677584 
2447	-0.226198416307689 
2448	-0.326782990090696 
2449	-0.552736456539776 
2450	-0.679065604435769 
2451	-0.915945655093088 
2452	-1.20883026705219 
2453	-1.0863732669906 
2454	-0.595813745449179 
2455	-0.312643079722583 
2456	-0.525294149094227 
2457	-0.693140522369555 
2458	-0.880376172553466 
2459	-0.828428012903851 
2460	-0.390132798900165 
2461	-0.171674586413385 
2462	-0.226333185283534 
2463	-0.527560928966373 
2464	-0.676759239538754 
2465	-0.829480475885517 
2466	-2.45155169693998 
2467	-11.257536605606 
2468	-1.60024153441353 
2469	-0.614119641929104 
2470	-0.422289714976196 
2471	 8.43717634999057 
2472	-0.890062885808068 
2473	 0.287090664540687 
2474	 1.82341477095657 
2475	 6.83625579815468 
2476	 1.85084380858912 
2477	 0.941624409813308 
2478	 1.62693677508326 
2479	 2.19902657335374 
2480	 2.01102823083758 
2481	-14.9806271242658 
2482	-0.961762460350493 
2483	-1.11888706190541 
2484	-13.5103090898127 
2485	-24.2845343770122 
2486	 7.27265275098785 
2487	-2.11241346378641 
2488	-5.98076195204811 
2489	 2.81996619233616 
2490	 1.16104715672946 
2491	 1.21773395468747 
2492	 1.31797280559217 
2493	 1.2710773077561 
2494	 2.2534026395482 
2495	 1.63000657964275 
2496	 0.454181011543602 
2497	 0.236807666683904 
2498	-4.91398080964969E-02 
2499	-0.308130962902573 
2500	-1.2852954065779 
