Wavelength	rt0713east_close00004.asd
350	 9.10193798052994E-02 
351	 9.07608114494636E-02 
352	 9.02181836508278E-02 
353	 9.00775797235596E-02 
354	 9.02046341164956E-02 
355	 8.88710086388315E-02 
356	 8.84858691374567E-02 
357	 8.89808223323658E-02 
358	 8.94806715050214E-02 
359	 8.94851731118792E-02 
360	 8.92279357609273E-02 
361	 8.87233757803119E-02 
362	 8.79606212235009E-02 
363	 8.85285095405622E-02 
364	 8.88064244461455E-02 
365	 8.82748797334314E-02 
366	 8.86647684993918E-02 
367	 8.83154773883523E-02 
368	 0.088135434099906 
369	 8.89949485140299E-02 
370	 8.92988823378806E-02 
371	 0.089198227207888 
372	 8.87286016830707E-02 
373	 8.79912256851427E-02 
374	 8.79366840908786E-02 
375	 8.82452587117639E-02 
376	 8.86225252339557E-02 
377	 8.90220554422815E-02 
378	 8.90424293687731E-02 
379	 8.88065326234753E-02 
380	 8.85724867300424E-02 
381	 8.85484664917009E-02 
382	 8.84954918708323E-02 
383	 8.83782609033242E-02 
384	 8.83308299660301E-02 
385	 8.87893788234368E-02 
386	 0.089810429550448 
387	 9.05442222307633E-02 
388	 8.93812505122637E-02 
389	 8.94291743454256E-02 
390	 8.97287489200331E-02 
391	 8.93969343595096E-02 
392	 8.98543255709836E-02 
393	 8.97455497363877E-02 
394	 8.97535239697337E-02 
395	 9.07246135125391E-02 
396	 9.02049587070529E-02 
397	 8.99660197822952E-02 
398	 9.03804905022384E-02 
399	 9.04535039563432E-02 
400	 9.05076720725399E-02 
401	 9.04558760422248E-02 
402	 9.03469748993073E-02 
403	 9.06883392142073E-02 
404	 9.08538821538505E-02 
405	 9.08031188799438E-02 
406	 9.07478402886936E-02 
407	 9.09353473243094E-02 
408	 9.10996885415031E-02 
409	 9.11601153481225E-02 
410	 9.12515703841825E-02 
411	 0.091488366595628 
412	 9.15988037071317E-02 
413	 0.091496932452801 
414	 9.16942794205306E-02 
415	 9.19616651265929E-02 
416	 9.21799478964049E-02 
417	 9.22952936833962E-02 
418	 9.23631597243918E-02 
419	 9.26444367250995E-02 
420	 9.30431979835175E-02 
421	 9.30946521526834E-02 
422	 9.32513274034258E-02 
423	 9.34668133301099E-02 
424	 9.36703310434749E-02 
425	 9.40306644483546E-02 
426	 9.43734312986007E-02 
427	 9.46762624705258E-02 
428	 9.49737556752966E-02 
429	 9.51015838548642E-02 
430	 9.54800835707315E-02 
431	 9.60684914215319E-02 
432	 9.62483808437109E-02 
433	 9.64515992808621E-02 
434	 9.67794347909547E-02 
435	 9.72125731700178E-02 
436	 9.76286745163006E-02 
437	 9.79296121274411E-02 
438	 9.81791891504579E-02 
439	 9.85097941786347E-02 
440	 9.87688452417444E-02 
441	 9.91136953354626E-02 
442	 9.95673066107726E-02 
443	 9.99163346828536E-02 
444	 0.100155455616441 
445	 0.100410236640544 
446	 0.100779742829999 
447	 0.101100546212061 
448	 0.101445706825961 
449	 0.101793349459842 
450	 0.102056032268098 
451	 0.102257496638247 
452	 0.10247226530334 
453	 0.102742908552622 
454	 0.103029729076656 
455	 0.103396754533416 
456	 0.103638808274768 
457	 0.10360246426308 
458	 0.103928649250583 
459	 0.104208618414501 
460	 0.104328425952556 
461	 0.104523140509751 
462	 0.104878299201746 
463	 0.105152049572073 
464	 0.105207437918549 
465	 0.105374963397886 
466	 0.105564348059548 
467	 0.105740211161423 
468	 0.105908967352238 
469	 0.10623407235809 
470	 0.106514826861444 
471	 0.106660159589777 
472	 0.106768628113491 
473	 0.106846614493499 
474	 0.107079278220524 
475	 0.107529372562186 
476	 0.107693592049516 
477	 0.107856705930179 
478	 0.108164395189251 
479	 0.108624151437779 
480	 0.108932601582838 
481	 0.109093623837624 
482	 0.109220253935589 
483	 0.109548611930191 
484	 0.109932730655018 
485	 0.110300473680949 
486	 0.110631190013237 
487	 0.111039764426838 
488	 0.111475310222625 
489	 0.111873804009054 
490	 0.112174633092654 
491	 0.112378849283961 
492	 0.112690057088612 
493	 0.113203380688518 
494	 0.113639135044964 
495	 0.114035909815381 
496	 0.114415619173597 
497	 0.114799319228052 
498	 0.115189698190237 
499	 0.115615884496484 
500	 0.116087279753422 
501	 0.11658868308793 
502	 0.116872719128082 
503	 0.117111984582093 
504	 0.117533391027437 
505	 0.118014092385624 
506	 0.118678932803259 
507	 0.119369888624906 
508	 0.119742641450408 
509	 0.120196507495162 
510	 0.120724261499185 
511	 0.121279478940957 
512	 0.121919900595157 
513	 0.122368245085592 
514	 0.12277765131009 
515	 0.123436924620167 
516	 0.124102017487897 
517	 0.1247121679995 
518	 0.125240670412515 
519	 0.12568723133258 
520	 0.126279938584514 
521	 0.126949347360993 
522	 0.127561124629314 
523	 0.127992521058788 
524	 0.128550523259971 
525	 0.129188357986655 
526	 0.1296418404027 
527	 0.13024796444547 
528	 0.130947162799576 
529	 0.131633020131542 
530	 0.132217713312291 
531	 0.132893542988857 
532	 0.133595370443527 
533	 0.134178626246418 
534	 0.134658485286823 
535	 0.135216778134334 
536	 0.135907192937846 
537	 0.136623830259428 
538	 0.137058506008941 
539	 0.137570685569892 
540	 0.138417415023427 
541	 0.138959629639066 
542	 0.139535743425849 
543	 0.140199506994688 
544	 0.140830950273432 
545	 0.141460982664738 
546	 0.142184297692377 
547	 0.142961798947975 
548	 0.143470830705735 
549	 0.144068635998421 
550	 0.14475908349965 
551	 0.145432108955513 
552	 0.146104307032505 
553	 0.146745713384117 
554	 0.147323281849595 
555	 0.147802475540211 
556	 0.148382892974353 
557	 0.14908176125352 
558	 0.149812185374133 
559	 0.150367719000135 
560	 0.150757511731687 
561	 0.151176767114718 
562	 0.151873684857748 
563	 0.152311660972877 
564	 0.152737839133079 
565	 0.153245490434221 
566	 0.153405194246473 
567	 0.15372181622853 
568	 0.154154340139787 
569	 0.154512556435365 
570	 0.155032540737579 
571	 0.155416071945121 
572	 0.155646005383583 
573	 0.156027847156939 
574	 0.156317999094752 
575	 0.156559466512559 
576	 0.15685819591705 
577	 0.15734685927951 
578	 0.157594708492395 
579	 0.157717967676261 
580	 0.158129193480903 
581	 0.158504037034375 
582	 0.158768691469049 
583	 0.158883466662367 
584	 0.158799990373479 
585	 0.158668362158882 
586	 0.158367751112184 
587	 0.157760696780657 
588	 0.157249467507341 
589	 0.157059214308105 
590	 0.157181119051688 
591	 0.157361448204334 
592	 0.157511591095263 
593	 0.15749489039271 
594	 0.157313040850759 
595	 0.157376375877985 
596	 0.157421953571288 
597	 0.157458919554498 
598	 0.157600675760262 
599	 0.157403941278792 
600	 0.157301010098038 
601	 0.157470807806848 
602	 0.157488185742304 
603	 0.157403593286241 
604	 0.15735108133156 
605	 0.157445829259977 
606	 0.157484704444563 
607	 0.157620239370857 
608	 0.157786293873346 
609	 0.157693249892984 
610	 0.157695298626436 
611	 0.157748375457406 
612	 0.157774634748174 
613	 0.157867422519605 
614	 0.157901407725642 
615	 0.157901527459069 
616	 0.157973331960559 
617	 0.158108525481984 
618	 0.158194065475958 
619	 0.158207154304747 
620	 0.158288569086315 
621	 0.158233979966231 
622	 0.1581817505091 
623	 0.158299531395691 
624	 0.158341229100705 
625	 0.158234594592164 
626	 0.158049757015406 
627	 0.1579874208205 
628	 0.158184976275336 
629	 0.158340713472504 
630	 0.15828342628979 
631	 0.158408988945488 
632	 0.158532786778391 
633	 0.158603801670899 
634	 0.158647865214991 
635	 0.158780762264499 
636	 0.158969392389456 
637	 0.159149979842762 
638	 0.159243440450271 
639	 0.159224935323219 
640	 0.159114712857683 
641	 0.15899657411554 
642	 0.159151023116312 
643	 0.159066489533614 
644	 0.158581661661199 
645	 0.157873638183526 
646	 0.157513237767414 
647	 0.157369132820371 
648	 0.1573084671794 
649	 0.157620911127862 
650	 0.157496750785214 
651	 0.157245556117309 
652	 0.15743851632527 
653	 0.157203317973051 
654	 0.156731761721442 
655	 0.156286353949377 
656	 0.156171826878379 
657	 0.1558929259824 
658	 0.155702665396695 
659	 0.155774817256173 
660	 0.155593163329117 
661	 0.155362413545293 
662	 0.155180614248329 
663	 0.15506174998062 
664	 0.154782629645771 
665	 0.154577058189311 
666	 0.15453764227944 
667	 0.154413261249864 
668	 0.154218902492177 
669	 0.154079240498005 
670	 0.154111463088736 
671	 0.154157922278069 
672	 0.154274700624563 
673	 0.154386612675495 
674	 0.154310877303348 
675	 0.154363407175962 
676	 0.154446913660647 
677	 0.15449285374826 
678	 0.154711558443676 
679	 0.155004716016955 
680	 0.155320930488848 
681	 0.155604808603173 
682	 0.155641447156846 
683	 0.15577299591857 
684	 0.15595032999428 
685	 0.155521001171735 
686	 0.155112256740374 
687	 0.155102281870907 
688	 0.155511335568651 
689	 0.155772351521351 
690	 0.155637883261988 
691	 0.155181802698717 
692	 0.154691547173011 
693	 0.154298109411967 
694	 0.154504693064971 
695	 0.155229508402808 
696	 0.155643989431132 
697	 0.155188875604115 
698	 0.154298860612018 
699	 0.153727893807726 
700	 0.153495272937367 
701	 0.153423908367175 
702	 0.153369303120142 
703	 0.153241349367496 
704	 0.152952160289461 
705	 0.152514139960781 
706	 0.152002161438456 
707	 0.151559521159141 
708	 0.150987532711005 
709	 0.15032979763072 
710	 0.149678307783837 
711	 0.148873556463669 
712	 0.147910877005093 
713	 0.146645347316415 
714	 0.144723638991285 
715	 0.142081641413629 
716	 0.139098765854532 
717	 0.136647098714149 
718	 0.134662301178846 
719	 0.134199125645813 
720	 0.13432301229073 
721	 0.133697420667977 
722	 0.13188860523951 
723	 0.129516171105742 
724	 0.127458185207705 
725	 0.125981756774339 
726	 0.124607035040418 
727	 0.12300426993445 
728	 0.121062017859743 
729	 0.118988200351805 
730	 0.117273999188844 
731	 0.116249129787466 
732	 0.115717171146254 
733	 0.114218784281459 
734	 0.112767744014491 
735	 0.111787418940604 
736	 0.110761414669115 
737	 0.110468583864107 
738	 0.110430954671729 
739	 0.110178180776704 
740	 0.110143449795837 
741	 0.110279467727501 
742	 0.110386417258576 
743	 0.11025059224908 
744	 0.110214274341392 
745	 0.110187936808695 
746	 0.110186578247146 
747	 0.11042088141021 
748	 0.110314628397631 
749	 0.11014141032343 
750	 0.110218144269973 
751	 0.110248725778098 
752	 0.110157166072746 
753	 0.110071704575113 
754	 0.110180312371277 
755	 0.110144795727296 
756	 0.110065506527859 
757	 0.109826508174786 
758	 0.108666538893118 
759	 0.107169894817872 
760	 0.105963589530009 
761	 0.105892420364762 
762	 0.10600619044928 
763	 0.106875818390767 
764	 0.108105925276573 
765	 0.109118482653653 
766	 0.109699794867671 
767	 0.110270074238888 
768	 0.110838594076979 
769	 0.111020391717841 
770	 0.111310783494752 
771	 0.111622260639801 
772	 0.111832674658206 
773	 0.112063609489141 
774	 0.112237676176104 
775	 0.11240289245168 
776	 0.112654606023275 
777	 0.11300198039867 
778	 0.113369394671935 
779	 0.113664778012589 
780	 0.113811097284943 
781	 0.11407801282156 
782	 0.114451459971307 
783	 0.114822578368285 
784	 0.115006930999506 
785	 0.115089901337687 
786	 0.115095069598935 
787	 0.115094167499941 
788	 0.115450879961336 
789	 0.115955283059922 
790	 0.116419108177403 
791	 0.116780388945416 
792	 0.117766725493051 
793	 0.118292949226209 
794	 0.118073135989287 
795	 0.118479040189197 
796	 0.118756116483842 
797	 0.119040116342852 
798	 0.119536230080696 
799	 0.119852043036199 
800	 0.119927594070534 
801	 0.119946716515717 
802	 0.120230080544336 
803	 0.120894950215832 
804	 0.121403928790636 
805	 0.121624163398151 
806	 0.121890568070254 
807	 0.121394077346995 
808	 0.120805702545968 
809	 0.120541900020741 
810	 0.119488274701978 
811	 0.11860477536417 
812	 0.117695180199109 
813	 0.116308614724725 
814	 0.115634246024402 
815	 0.115082900374998 
816	 0.114420758250104 
817	 0.113885582005837 
818	 0.114060625084092 
819	 0.114248198025824 
820	 0.11389596652701 
821	 0.11266440708519 
822	 0.111403650523273 
823	 0.110320661544929 
824	 0.109319919487362 
825	 0.108103388560509 
826	 0.106281444770491 
827	 0.104194466295165 
828	 0.102561852011725 
829	 0.101167439279534 
830	 9.96755301058011E-02 
831	 9.82501874703437E-02 
832	 9.74258350401674E-02 
833	 9.71232600552435E-02 
834	 9.66203038445358E-02 
835	 9.57987532004722E-02 
836	 9.53754760583182E-02 
837	 9.50929255240563E-02 
838	 9.50207718344329E-02 
839	 9.50711432446564E-02 
840	 9.46015419563643E-02 
841	 9.41574501385177E-02 
842	 9.40358032161027E-02 
843	 9.42615950485064E-02 
844	 9.41878322410365E-02 
845	 9.36483383749057E-02 
846	 9.30670838939686E-02 
847	 9.30985216672787E-02 
848	 9.27392967052947E-02 
849	 0.092207669327551 
850	 9.19637447700962E-02 
851	 9.24780310922929E-02 
852	 0.091842297037982 
853	 0.091074319279753 
854	 9.10334640536232E-02 
855	 9.08170865272162E-02 
856	 9.06930556269248E-02 
857	 9.06317040511447E-02 
858	 9.05452371668153E-02 
859	 0.090409866243924 
860	 9.01263704443061E-02 
861	 8.96735717201899E-02 
862	 0.089139345738059 
863	 8.89066860147733E-02 
864	 8.90235445075218E-02 
865	 8.90100556146549E-02 
866	 8.81701340735594E-02 
867	 8.83989052698682E-02 
868	 8.81039029380771E-02 
869	 8.70198500131584E-02 
870	 8.71248005543642E-02 
871	 8.71921923325328E-02 
872	 8.69128838964369E-02 
873	 8.63220091431568E-02 
874	 8.57499936239042E-02 
875	 8.57498521207138E-02 
876	 0.085521806868932 
877	 8.44523020210343E-02 
878	 8.41869813247403E-02 
879	 8.40295202897254E-02 
880	 8.38320907538034E-02 
881	 0.083649984163968 
882	 8.31493576657732E-02 
883	 8.23912184876567E-02 
884	 0.081776719728239 
885	 8.17736369645184E-02 
886	 8.13913422520065E-02 
887	 8.09837404526432E-02 
888	 8.06739954297523E-02 
889	 0.0801503400541 
890	 7.92371387792064E-02 
891	 7.86057229554857E-02 
892	 7.84463288595792E-02 
893	 7.76957712930558E-02 
894	 7.59225304350333E-02 
895	 7.46433811650112E-02 
896	 7.49023468106784E-02 
897	 7.38694879557431E-02 
898	 7.34353816715948E-02 
899	 7.32150326362865E-02 
900	 0.072422173295187 
901	 7.17135973567326E-02 
902	 0.072340509769668 
903	 7.30061852479528E-02 
904	 7.20837077303238E-02 
905	 7.11734340357232E-02 
906	 7.09942204646365E-02 
907	 7.06719727165636E-02 
908	 6.87834677370475E-02 
909	 6.96266958088214E-02 
910	 6.93531688559927E-02 
911	 6.78705599589407E-02 
912	 6.86936324172915E-02 
913	 6.86513741386136E-02 
914	 6.76515959113905E-02 
915	 6.63666222956977E-02 
916	 6.57269777445905E-02 
917	 6.51790806035566E-02 
918	 6.48829485856402E-02 
919	 6.49076878342848E-02 
920	 6.50745480510081E-02 
921	 6.42866106448446E-02 
922	 6.37677616166656E-02 
923	 6.37544061533686E-02 
924	 6.13833992394121E-02 
925	 6.08490169145512E-02 
926	 6.05779129193811E-02 
927	 5.80408641044929E-02 
928	 5.49712166734531E-02 
929	 5.57735958728971E-02 
930	 5.81442994699853E-02 
931	 5.55376838610748E-02 
932	 5.41078673052973E-02 
933	 5.13549342692095E-02 
934	 4.97984511156314E-02 
935	 5.16213343227799E-02 
936	 4.85540304853991E-02 
937	 5.06825734033619E-02 
938	 5.09745554947557E-02 
939	 4.34718404426911E-02 
940	 4.51949473065464E-02 
941	 4.62480387869357E-02 
942	 4.50833653229468E-02 
943	 0.043979078386782 
944	 3.88008010570413E-02 
945	 4.46415930930502E-02 
946	 5.09387285568869E-02 
947	 3.96433570467903E-02 
948	 4.20191245653049E-02 
949	 4.19602592625343E-02 
950	 4.04422550160349E-02 
951	 4.70565204115448E-02 
952	 4.59240660937556E-02 
953	 4.69770223832799E-02 
954	 4.59746788815431E-02 
955	 0.033886659988009 
956	 4.03451016779126E-02 
957	 4.31839233128344E-02 
958	 4.05889612311687E-02 
959	 4.48585303735085E-02 
960	 0.045556756664592 
961	 4.53358256979076E-02 
962	 4.54493290931532E-02 
963	 4.53564857544087E-02 
964	 0.044503877929887 
965	 4.70091861639144E-02 
966	 5.04994364733683E-02 
967	 4.94333432396066E-02 
968	 4.96541346981004E-02 
969	 4.98884548536001E-02 
970	 5.00172321865247E-02 
971	 0.051060177495273 
972	 5.06028068970432E-02 
973	 4.95497072032451E-02 
974	 4.90526957929735E-02 
975	 4.97564998352165E-02 
976	 4.96218111322907E-02 
977	 0.048889917092043 
978	 4.87462225432273E-02 
979	 5.02379577760516E-02 
980	 4.98992075874102E-02 
981	 4.95570407080904E-02 
982	 5.00684397585121E-02 
983	 5.09900366473678E-02 
984	 5.21775137838353E-02 
985	 0.051024965399705 
986	 4.96115033423329E-02 
987	 5.23701206084795E-02 
988	 5.31451772578622E-02 
989	 5.31543737074967E-02 
990	 5.34621429632561E-02 
991	 5.41206561455197E-02 
992	 5.28007231786823E-02 
993	 5.30903829319809E-02 
994	 5.37598604255191E-02 
995	 5.11676488991172E-02 
996	 4.98908155099573E-02 
997	 5.36268363760285E-02 
998	 5.63730047678833E-02 
999	 5.05683119068744E-02 
1000	 5.25456198884409E-02 
1001	 4.98225372011788E-02 
1002	 5.07515907075107E-02 
1003	 5.11567527927846E-02 
1004	 5.12444511130156E-02 
1005	 5.11531915218631E-02 
1006	 5.08817085020787E-02 
1007	 5.03712558521388E-02 
1008	 4.99677160347602E-02 
1009	 4.92543305053028E-02 
1010	 4.87937380540656E-02 
1011	 4.91302804420451E-02 
1012	 4.99257064770786E-02 
1013	 5.07374420875081E-02 
1014	 0.051003685060031 
1015	 5.10531066283051E-02 
1016	 5.14896923981066E-02 
1017	 5.16109660935365E-02 
1018	 5.17204730910675E-02 
1019	 5.26709868834187E-02 
1020	 5.27252297540561E-02 
1021	 5.16503076836337E-02 
1022	 0.051423575920534 
1023	 5.13604209442025E-02 
1024	 5.11560671454702E-02 
1025	 5.13120261945798E-02 
1026	 5.10272108719891E-02 
1027	 5.13014741000123E-02 
1028	 5.16564068258056E-02 
1029	 5.20767170454011E-02 
1030	 5.31560077433781E-02 
1031	 5.36073483990049E-02 
1032	 5.34747016946538E-02 
1033	 5.36748004050847E-02 
1034	 5.40821053692011E-02 
1035	 0.054165711918402 
1036	 5.39743387758219E-02 
1037	 5.42230249710125E-02 
1038	 5.48337526755349E-02 
1039	 5.47481896528667E-02 
1040	 5.49200398439398E-02 
1041	 5.48013979306293E-02 
1042	 5.48109960834102E-02 
1043	 5.45133446677521E-02 
1044	 5.41983563694925E-02 
1045	 5.39216147706813E-02 
1046	 5.38660863502276E-02 
1047	 5.33910904142502E-02 
1048	 5.35630157178432E-02 
1049	 5.46757680409424E-02 
1050	 5.50671035276233E-02 
1051	 5.50743961725918E-02 
1052	 5.55097934863912E-02 
1053	 0.056334977362898 
1054	 5.65419439635213E-02 
1055	 5.67685701718799E-02 
1056	 5.67839665808151E-02 
1057	 5.64887439602372E-02 
1058	 0.055174750741417 
1059	 5.50885833674864E-02 
1060	 0.055493722067421 
1061	 5.57514669505316E-02 
1062	 5.63530139752483E-02 
1063	 5.68593517310405E-02 
1064	 5.75900236172442E-02 
1065	 5.77996498979105E-02 
1066	 5.79607882485668E-02 
1067	 5.78871551509441E-02 
1068	 5.70670835993504E-02 
1069	 5.66677739398777E-02 
1070	 5.63832993721186E-02 
1071	 5.61558716230814E-02 
1072	 5.58542072162527E-02 
1073	 5.59843913392594E-02 
1074	 0.055981594199654 
1075	 0.056126494595704 
1076	 5.60660690397792E-02 
1077	 5.61435246584626E-02 
1078	 5.57452272743037E-02 
1079	 5.45370488046889E-02 
1080	 5.43739284547523E-02 
1081	 5.45324074485989E-02 
1082	 5.46541897630758E-02 
1083	 5.59094245028206E-02 
1084	 5.61163482207923E-02 
1085	 5.52113870958263E-02 
1086	 5.48433009723897E-02 
1087	 5.44911383275782E-02 
1088	 5.40399134047191E-02 
1089	 5.32928082283136E-02 
1090	 5.37141252815323E-02 
1091	 5.32551812179783E-02 
1092	 5.18627928389313E-02 
1093	 5.19154335173301E-02 
1094	 0.053201798779169 
1095	 0.052751683146728 
1096	 5.19104237635355E-02 
1097	 5.16734958814599E-02 
1098	 5.02782254032187E-02 
1099	 4.95954882008105E-02 
1100	 5.07625592583411E-02 
1101	 5.06145561613021E-02 
1102	 4.86800588744988E-02 
1103	 4.81403374270284E-02 
1104	 4.79730169232427E-02 
1105	 4.86279984697252E-02 
1106	 4.95827179536132E-02 
1107	 4.81862693060178E-02 
1108	 4.62900474660273E-02 
1109	 4.74181048499092E-02 
1110	 4.69712665747379E-02 
1111	 0.046541714666149 
1112	 4.61193366732451E-02 
1113	 4.50799404221452E-02 
1114	 4.31851219615131E-02 
1115	 0.040672694743445 
1116	 4.01202571073226E-02 
1117	 4.09163084766839E-02 
1118	 3.90912979036089E-02 
1119	 3.62127364863543E-02 
1120	 3.47905521332284E-02 
1121	 0.030968592215028 
1122	 2.69912563172649E-02 
1123	 3.10209743329762E-02 
1124	 3.92554892325942E-02 
1125	 3.86012837001597E-02 
1126	 3.17818347263852E-02 
1127	 2.45578839748611E-02 
1128	 2.53749890077637E-02 
1129	 2.51941274005037E-02 
1130	 2.39678392541453E-02 
1131	 2.66133874231017E-02 
1132	 3.64877287335271E-02 
1133	 0.037093296878193 
1134	 3.56315489717641E-02 
1135	 3.81346858144372E-02 
1136	 3.55370985248876E-02 
1137	 3.39998246570691E-02 
1138	 3.44505047229923E-02 
1139	 0.040378770542798 
1140	 3.87334487887642E-02 
1141	 0.0355243967277 
1142	 3.56667006307835E-02 
1143	 3.66746956577023E-02 
1144	 3.45464386902553E-02 
1145	 3.47569146680051E-02 
1146	 3.80218015934527E-02 
1147	 0.034268491804307 
1148	 3.15630289485231E-02 
1149	 3.27892307804688E-02 
1150	 3.26196454074269E-02 
1151	 2.99951470422481E-02 
1152	 3.19614613450017E-02 
1153	 0.037335925858281 
1154	 0.037985305007401 
1155	 3.78420832362202E-02 
1156	 3.81353248461499E-02 
1157	 3.81075704127508E-02 
1158	 3.89025536055776E-02 
1159	 4.02392549875875E-02 
1160	 3.97825737658598E-02 
1161	 3.87555612785802E-02 
1162	 3.85311861164499E-02 
1163	 3.91348877922343E-02 
1164	 0.040937891281911 
1165	 4.27476109127911E-02 
1166	 4.21911512449837E-02 
1167	 0.041179857885742 
1168	 4.21697002263669E-02 
1169	 4.25871981781762E-02 
1170	 0.042474916894266 
1171	 4.29273263724906E-02 
1172	 4.39140848030152E-02 
1173	 4.38252613541673E-02 
1174	 4.29562449858113E-02 
1175	 4.36889749636984E-02 
1176	 4.44803526169527E-02 
1177	 0.044704154167502 
1178	 4.46416314012756E-02 
1179	 4.44447033854209E-02 
1180	 4.41989612464173E-02 
1181	 4.37333439094555E-02 
1182	 4.36491119555907E-02 
1183	 4.46997537721054E-02 
1184	 4.50326470622352E-02 
1185	 4.37582767950045E-02 
1186	 4.36270245604683E-02 
1187	 4.39551974177239E-02 
1188	 4.34196888795724E-02 
1189	 4.43593570689645E-02 
1190	 4.57197026961946E-02 
1191	 4.52308616846816E-02 
1192	 4.50712176998695E-02 
1193	 4.48100975955021E-02 
1194	 4.48756993913443E-02 
1195	 4.44027852082983E-02 
1196	 4.45054465989755E-02 
1197	 4.45770009577662E-02 
1198	 4.45110287787456E-02 
1199	 4.46800241883055E-02 
1200	 4.48189539347939E-02 
1201	 4.52764378707874E-02 
1202	 4.54923220916352E-02 
1203	 4.49605517481487E-02 
1204	 4.43760983745389E-02 
1205	 4.45689102144807E-02 
1206	 4.51335597329125E-02 
1207	 4.55158564956339E-02 
1208	 0.045943987382111 
1209	 4.62246236651903E-02 
1210	 4.60995690876543E-02 
1211	 4.58069034923069E-02 
1212	 4.60569528286072E-02 
1213	 4.65211375016495E-02 
1214	 4.65607910964912E-02 
1215	 4.63114741625757E-02 
1216	 4.61043288485412E-02 
1217	 4.57175779793695E-02 
1218	 4.53450224911418E-02 
1219	 4.56499212016319E-02 
1220	 0.046239061996865 
1221	 4.63915794558762E-02 
1222	 0.046260079966624 
1223	 4.63340874791688E-02 
1224	 0.046493988710413 
1225	 0.046764384538134 
1226	 4.72653160698996E-02 
1227	 4.71991706862824E-02 
1228	 4.68022791019774E-02 
1229	 0.046850756632202 
1230	 4.69424477270995E-02 
1231	 4.68833343833222E-02 
1232	 4.65880896613416E-02 
1233	 0.04650638172502 
1234	 4.67670623903874E-02 
1235	 4.68731855986068E-02 
1236	 4.71827022362807E-02 
1237	 4.74131420261366E-02 
1238	 4.76057343661234E-02 
1239	 4.74502381061204E-02 
1240	 4.76138491508772E-02 
1241	 4.75728641734969E-02 
1242	 4.71793516256144E-02 
1243	 4.74757393563185E-02 
1244	 0.047777470475752 
1245	 4.72870973408707E-02 
1246	 4.72622000855219E-02 
1247	 4.75659890435576E-02 
1248	 4.73291933822552E-02 
1249	 4.75327334855844E-02 
1250	 4.78523603154017E-02 
1251	 4.73128430243254E-02 
1252	 4.70782381342552E-02 
1253	 4.75943755410933E-02 
1254	 4.79166496205525E-02 
1255	 4.76039167514303E-02 
1256	 4.74324879383592E-02 
1257	 4.69632739671722E-02 
1258	 4.68221911522163E-02 
1259	 4.67506507563942E-02 
1260	 4.66486972873445E-02 
1261	 4.66711024720331E-02 
1262	 4.67018638600612E-02 
1263	 4.66198452363626E-02 
1264	 4.68406140016974E-02 
1265	 4.69480019540122E-02 
1266	 4.65822456982908E-02 
1267	 4.63640060771838E-02 
1268	 4.66424335411259E-02 
1269	 4.63751936942663E-02 
1270	 4.57320983950386E-02 
1271	 4.56794304626723E-02 
1272	 4.57032748755135E-02 
1273	 4.56666497011798E-02 
1274	 4.59911681373263E-02 
1275	 4.64079415656648E-02 
1276	 4.62359728228677E-02 
1277	 4.61358921170502E-02 
1278	 4.66265879462684E-02 
1279	 4.68693670107851E-02 
1280	 4.68507200413086E-02 
1281	 4.68174490500545E-02 
1282	 4.74053414817467E-02 
1283	 4.74357770993398E-02 
1284	 4.65628858590615E-02 
1285	 4.61551345424442E-02 
1286	 4.59907806512428E-02 
1287	 4.59858118947774E-02 
1288	 4.60872529614726E-02 
1289	 4.61078251765769E-02 
1290	 4.64897937350498E-02 
1291	 4.64951252415334E-02 
1292	 4.57330303078525E-02 
1293	 4.54675697438172E-02 
1294	 4.54329311391574E-02 
1295	 4.50676414325294E-02 
1296	 4.54878647951813E-02 
1297	 0.046049631250913 
1298	 4.63808368021428E-02 
1299	 4.67780995347307E-02 
1300	 4.63860171103598E-02 
1301	 4.55081578749463E-02 
1302	 4.48176445998348E-02 
1303	 4.43425619598359E-02 
1304	 4.42521273649944E-02 
1305	 4.45049300190959E-02 
1306	 4.44568577432373E-02 
1307	 4.43581831270317E-02 
1308	 4.41502572035178E-02 
1309	 4.40777365322669E-02 
1310	 4.35251734933906E-02 
1311	 4.22352233909408E-02 
1312	 4.19279454028003E-02 
1313	 0.041938245771439 
1314	 4.14263667075555E-02 
1315	 4.11468864596559E-02 
1316	 4.11721480098824E-02 
1317	 4.09215481466698E-02 
1318	 4.07544117122694E-02 
1319	 4.10058805541873E-02 
1320	 4.15233306222275E-02 
1321	 4.22610479903436E-02 
1322	 4.26682499601549E-02 
1323	 4.20625091608556E-02 
1324	 4.22830270243206E-02 
1325	 4.21325940426676E-02 
1326	 3.94837801000573E-02 
1327	 3.80126025737929E-02 
1328	 3.86542933751336E-02 
1329	 4.00338996357013E-02 
1330	 4.04383443499163E-02 
1331	 3.88103798530298E-02 
1332	 3.91003324580239E-02 
1333	 3.85983904504719E-02 
1334	 3.67515946014346E-02 
1335	 3.61644908589059E-02 
1336	 3.75584362147126E-02 
1337	 3.76219672750342E-02 
1338	 3.74636919120855E-02 
1339	 3.76503961097203E-02 
1340	 0.03773023205199 
1341	 0.036589959862244 
1342	 3.37829794456954E-02 
1343	 3.31567923825334E-02 
1344	 0.033848362613187 
1345	 3.39524247632489E-02 
1346	 3.69709939901385E-02 
1347	 3.77031660887677E-02 
1348	 0.032011472315092 
1349	 2.89128659681441E-02 
1350	 2.74651322271207E-02 
1351	 2.59655462254094E-02 
1352	 2.77796004763499E-02 
1353	 3.78436401183164E-02 
1354	 0.100002307566755 
1355	 0.117791016498347 
1356	 9.09767014779171E-02 
1357	 6.22291450234657E-02 
1358	 6.51314939579806E-02 
1359	 0.158897717354232 
1360	 0.222996150838708 
1361	 0.210766725262585 
1362	 0.214184281689436 
1363	 0.204520909883792 
1364	 0.114753096853763 
1365	-5.41706340463166E-02 
1366	-0.260008471709709 
1367	-0.471529186250143 
1368	-0.384481867473871 
1369	 0.425107044822326 
1370	 0.656892422647295 
1371	 0.494533235808017 
1372	 0.684654506866149 
1373	 1.73607170546049 
1374	 1.13266050128691 
1375	 0.177309657859611 
1376	 0.154439524865534 
1377	 0.133108338256197 
1378	 4.09600678779075E-02 
1379	 0.265170271594916 
1380	 0.406833898896756 
1381	 0.453937149074141 
1382	 0.199620455664879 
1383	-0.351539957729456 
1384	-0.315820178546036 
1385	 0.350902586584595 
1386	 0.288390457738899 
1387	 1.11596900316144 
1388	 1.9814121142777 
1389	 1.21052912956134 
1390	 0.660381492063221 
1391	 2.0830410716467 
1392	 2.39666046314825E-02 
1393	 0.220271759581899 
1394	 5.16625032827084 
1395	 0.122615531984716 
1396	-1.38860915915191 
1397	-2.33614527249383 
1398	-0.839823141642782 
1399	-1.20651580780868 
1400	-1.09847224360233 
1401	-0.628435401910507 
1402	-1.42986992894173 
1403	-0.726058458055866 
1404	 0.692827969477065 
1405	 0.730171589551201 
1406	-0.657602524548331 
1407	-0.492837214715493 
1408	-0.657873363168346 
1409	-0.409020435822133 
1410	 0.257377405070694 
1411	 0.204850338344166 
1412	-0.763612176759928 
1413	-0.8232202639808 
1414	-0.558776266069663 
1415	-0.68980166982644 
1416	-0.522593095704434 
1417	-0.315984339175317 
1418	-0.142874588375967 
1419	-0.144471287426942 
1420	-6.12935885197526E-02 
1421	 0.024117602635614 
1422	-5.24071283488404E-03 
1423	-3.52811168666218E-02 
1424	-0.028720426248237 
1425	 5.48749595171815E-02 
1426	 0.165336157885613 
1427	 0.143104657024179 
1428	 0.136804263187389 
1429	 0.132540627101631 
1430	-1.70655819229277E-03 
1431	-0.049198750270137 
1432	-1.70296467894496E-02 
1433	 8.12349592900784E-03 
1434	 8.04498508834078E-02 
1435	 9.14369795396809E-02 
1436	 8.51196147259584E-02 
1437	 6.84746133392739E-02 
1438	 8.24269764370598E-02 
1439	 3.23804145140798E-02 
1440	 2.40971138772042E-02 
1441	 6.64889522264547E-02 
1442	 5.44197442835814E-02 
1443	 3.08985673504158E-02 
1444	 4.04770293942335E-02 
1445	 4.51962688053521E-02 
1446	 3.41450815204532E-02 
1447	 0.033268315724554 
1448	 4.22011693613282E-02 
1449	 4.62638887776863E-02 
1450	 3.48637115590076E-02 
1451	 0.032728430759767 
1452	 3.33992966838245E-02 
1453	 2.19250724547932E-02 
1454	 2.20560342712343E-02 
1455	 3.18286201215179E-02 
1456	 3.32151671404181E-02 
1457	 3.22603125486237E-02 
1458	 3.16008805453284E-02 
1459	 3.14660137316784E-02 
1460	 2.87672223179802E-02 
1461	 2.02010398878034E-02 
1462	 2.11395855242493E-02 
1463	 2.94549137597364E-02 
1464	 2.75546605649733E-02 
1465	 2.28783008009069E-02 
1466	 2.40316195525901E-02 
1467	 2.24923161331839E-02 
1468	 1.85885601011665E-02 
1469	 1.91391218786445E-02 
1470	 2.31178299197177E-02 
1471	 2.16560697784997E-02 
1472	 2.04560462035992E-02 
1473	 0.027579353660698 
1474	 3.09834544349431E-02 
1475	 0.029106427549994 
1476	 2.79062849029639E-02 
1477	 2.83201274614347E-02 
1478	 0.029731898295295 
1479	 0.026943074067337 
1480	 2.82256063421606E-02 
1481	 3.88603960924252E-02 
1482	 0.038049539356761 
1483	 2.89416431864075E-02 
1484	 2.81060666295494E-02 
1485	 2.68817797447854E-02 
1486	 0.026410656864127 
1487	 2.96341820229381E-02 
1488	 3.18747133252385E-02 
1489	 3.29151498101666E-02 
1490	 3.38655929648686E-02 
1491	 3.59629209463897E-02 
1492	 3.66287025475835E-02 
1493	 3.50841581509417E-02 
1494	 3.57167597848176E-02 
1495	 3.79821594282972E-02 
1496	 3.84889643696073E-02 
1497	 3.87114007452085E-02 
1498	 3.94946633001262E-02 
1499	 3.96805482790037E-02 
1500	 3.97438799461177E-02 
1501	 4.02912625398906E-02 
1502	 4.08864847982463E-02 
1503	 4.10030952612635E-02 
1504	 4.12687010138585E-02 
1505	 4.24286949230099E-02 
1506	 4.28831973371912E-02 
1507	 4.20257225150847E-02 
1508	 4.16044735572522E-02 
1509	 4.19642755463094E-02 
1510	 4.19503923767982E-02 
1511	 4.16112985059664E-02 
1512	 4.18033645704054E-02 
1513	 4.22417792223773E-02 
1514	 4.25476088232028E-02 
1515	 0.042569080306511 
1516	 4.27312925821577E-02 
1517	 4.34353041057835E-02 
1518	 4.33027778381384E-02 
1519	 4.30654199766295E-02 
1520	 4.40404093378268E-02 
1521	 4.44927719748121E-02 
1522	 4.41214281974016E-02 
1523	 4.39753987569127E-02 
1524	 4.43954759109868E-02 
1525	 4.47760305364551E-02 
1526	 4.41254724969762E-02 
1527	 4.41041963281614E-02 
1528	 4.49754233119454E-02 
1529	 4.50278758808013E-02 
1530	 4.52284279212476E-02 
1531	 0.045305595151352 
1532	 4.43348127424465E-02 
1533	 4.42380845603435E-02 
1534	 0.045160969352733 
1535	 4.50508136579473E-02 
1536	 4.48593872479032E-02 
1537	 4.52193666284438E-02 
1538	 4.48841577381047E-02 
1539	 4.47447657848287E-02 
1540	 4.51811214010914E-02 
1541	 4.51374785370612E-02 
1542	 4.42869154311711E-02 
1543	 4.42465408319884E-02 
1544	 4.52603758593821E-02 
1545	 4.54248859515679E-02 
1546	 4.55614057664943E-02 
1547	 4.61888634538007E-02 
1548	 4.63897426429531E-02 
1549	 4.63835801171575E-02 
1550	 4.61846319183343E-02 
1551	 4.55626707728828E-02 
1552	 0.045415952965955 
1553	 4.58667048466127E-02 
1554	 4.60408957709923E-02 
1555	 4.66269996518226E-02 
1556	 4.69670032648149E-02 
1557	 4.59857763721448E-02 
1558	 4.55437899907146E-02 
1559	 0.046508482336653 
1560	 4.67623524851492E-02 
1561	 4.59622424003787E-02 
1562	 4.60978504021006E-02 
1563	 4.59260646536553E-02 
1564	 4.48957465603886E-02 
1565	 4.52494919362537E-02 
1566	 4.58573406644253E-02 
1567	 4.56595438796207E-02 
1568	 4.55013539801064E-02 
1569	 4.52813084042907E-02 
1570	 4.55326037155037E-02 
1571	 4.61406465439141E-02 
1572	 4.61380061641427E-02 
1573	 4.58858293415579E-02 
1574	 4.54449067050915E-02 
1575	 4.50488434289629E-02 
1576	 4.54233370249016E-02 
1577	 4.58554417527781E-02 
1578	 4.58671200304638E-02 
1579	 4.56800972590724E-02 
1580	 4.54302183123751E-02 
1581	 4.55872581535893E-02 
1582	 4.61244399029296E-02 
1583	 4.63334054239894E-02 
1584	 4.60946205867084E-02 
1585	 0.046183339469588 
1586	 0.046627946854399 
1587	 4.66740245455407E-02 
1588	 0.046662721838141 
1589	 4.67864332879128E-02 
1590	 4.63832403177003E-02 
1591	 4.60777199586352E-02 
1592	 4.63044794982674E-02 
1593	 4.63324888471621E-02 
1594	 4.62828421190757E-02 
1595	 4.63735758273803E-02 
1596	 4.61111340845274E-02 
1597	 4.57234987842432E-02 
1598	 4.58484412639652E-02 
1599	 4.59781653863782E-02 
1600	 4.60083811301596E-02 
1601	 4.61246217120543E-02 
1602	 4.65037838050978E-02 
1603	 4.72977000362437E-02 
1604	 4.72950847751004E-02 
1605	 4.67933735015074E-02 
1606	 4.67152642586692E-02 
1607	 4.68221137874937E-02 
1608	 4.68454502097646E-02 
1609	 4.66032270082323E-02 
1610	 4.63553738159376E-02 
1611	 4.60786157546546E-02 
1612	 4.58893821940203E-02 
1613	 4.61986479757014E-02 
1614	 4.63830835791801E-02 
1615	 4.59812784843537E-02 
1616	 4.61523636119262E-02 
1617	 4.69925734077004E-02 
1618	 0.04704449027518 
1619	 4.65951561339503E-02 
1620	 4.64499091920602E-02 
1621	 4.61902451973991E-02 
1622	 4.57808734420407E-02 
1623	 4.58040730544335E-02 
1624	 4.62660765676482E-02 
1625	 4.64297424039471E-02 
1626	 4.66650234435281E-02 
1627	 4.70877590008679E-02 
1628	 4.66152319453204E-02 
1629	 4.58682692051269E-02 
1630	 4.60854631040952E-02 
1631	 4.65881810376617E-02 
1632	 4.65058587072303E-02 
1633	 4.66190574366546E-02 
1634	 4.66495524945219E-02 
1635	 4.60551186193532E-02 
1636	 4.62182558928427E-02 
1637	 0.046503272314521 
1638	 4.58721868493917E-02 
1639	 4.58168516279722E-02 
1640	 4.60065584244518E-02 
1641	 4.55597170133857E-02 
1642	 4.54269619501772E-02 
1643	 4.57085959548369E-02 
1644	 4.59538531546808E-02 
1645	 4.62335367926653E-02 
1646	 4.65032828007433E-02 
1647	 4.62343875113461E-02 
1648	 4.59650820388451E-02 
1649	 4.59521251067306E-02 
1650	 4.58210435264466E-02 
1651	 4.61388665296046E-02 
1652	 4.61584630777388E-02 
1653	 4.54466698179702E-02 
1654	 4.57234668172224E-02 
1655	 4.66190393920805E-02 
1656	 4.64607405167303E-02 
1657	 0.045977235397236 
1658	 4.64551162308462E-02 
1659	 4.71428528422656E-02 
1660	 4.70854464636116E-02 
1661	 4.74953459033048E-02 
1662	 4.74909243936587E-02 
1663	 4.61507263027675E-02 
1664	 4.57453975706756E-02 
1665	 4.61607967122784E-02 
1666	 4.59038396187999E-02 
1667	 4.51394099269975E-02 
1668	 4.53611428224822E-02 
1669	 4.60590128628455E-02 
1670	 4.68483151934951E-02 
1671	 4.69390709973778E-02 
1672	 4.70019516468694E-02 
1673	 4.72891361665545E-02 
1674	 4.70298873146031E-02 
1675	 4.65827553289555E-02 
1676	 4.62114319862289E-02 
1677	 4.56636719119595E-02 
1678	 4.58152290193948E-02 
1679	 4.64270638545862E-02 
1680	 4.59400509127987E-02 
1681	 4.58413194781638E-02 
1682	 4.64872875996219E-02 
1683	 4.64448373539307E-02 
1684	 4.68187089795029E-02 
1685	 4.65990730522896E-02 
1686	 4.55262092495743E-02 
1687	 4.58720495749997E-02 
1688	 4.65329878822159E-02 
1689	 4.68693045408558E-02 
1690	 4.77261899721947E-02 
1691	 4.76226325750978E-02 
1692	 0.046419847991271 
1693	 0.046109079611926 
1694	 4.59201347771862E-02 
1695	 4.56435080153174E-02 
1696	 4.64421541522834E-02 
1697	 4.67266801790256E-02 
1698	 4.64271046366423E-02 
1699	 4.64036443489746E-02 
1700	 4.59769904430157E-02 
1701	 0.045534785324872 
1702	 4.56437114199648E-02 
1703	 0.045547251103598 
1704	 4.54290805629878E-02 
1705	 4.59057141452037E-02 
1706	 0.046122936597025 
1707	 4.62386524417085E-02 
1708	 4.62333594713522E-02 
1709	 4.58708377226445E-02 
1710	 4.58335722278463E-02 
1711	 4.58576043128359E-02 
1712	 0.046108221513305 
1713	 4.61012415002211E-02 
1714	 4.59663478150795E-02 
1715	 4.45291420551802E-02 
1716	 4.51070343497451E-02 
1717	 4.63675645203905E-02 
1718	 4.53081507972435E-02 
1719	 4.48939112255499E-02 
1720	 4.53335922909533E-02 
1721	 4.43578355739597E-02 
1722	 4.40669659493518E-02 
1723	 4.49037510620524E-02 
1724	 4.49599829210396E-02 
1725	 0.044542865881428 
1726	 4.46859720522394E-02 
1727	 4.47963415050876E-02 
1728	 4.46101538223545E-02 
1729	 4.44161454919706E-02 
1730	 4.49076489776343E-02 
1731	 4.57381092876462E-02 
1732	 4.56786718824289E-02 
1733	 4.48595177547599E-02 
1734	 4.41360928412811E-02 
1735	 4.43393208600808E-02 
1736	 4.42596998260685E-02 
1737	 0.044264361656546 
1738	 4.49130739007175E-02 
1739	 0.045225015293703 
1740	 4.55358551772546E-02 
1741	 4.56068993014251E-02 
1742	 4.52027981966447E-02 
1743	 4.33428062969497E-02 
1744	 0.041657344797051 
1745	 4.27102288826616E-02 
1746	 4.43308258203329E-02 
1747	 4.46742544724728E-02 
1748	 4.37177243681518E-02 
1749	 4.26965116635392E-02 
1750	 4.12104923545587E-02 
1751	 4.10102667898852E-02 
1752	 4.13754964212718E-02 
1753	 0.041927472979697 
1754	 4.36478165183572E-02 
1755	 4.38745316770591E-02 
1756	 4.31369779392564E-02 
1757	 4.41141976807372E-02 
1758	 4.34892516196486E-02 
1759	 4.27120977703426E-02 
1760	 4.41955531828903E-02 
1761	 4.36973048513351E-02 
1762	 4.19841981759579E-02 
1763	 4.30253156674766E-02 
1764	 0.041974447885602 
1765	 4.01565297518717E-02 
1766	 4.23084647681204E-02 
1767	 4.22903682561934E-02 
1768	 4.10387618714931E-02 
1769	 4.12338004895287E-02 
1770	 3.94761909632681E-02 
1771	 3.91564275420348E-02 
1772	 4.14081000729412E-02 
1773	 4.35375147405508E-02 
1774	 4.42901439679657E-02 
1775	 3.96605249615576E-02 
1776	 3.81693098846079E-02 
1777	 3.52844535457097E-02 
1778	 3.59040304304557E-02 
1779	 4.54034362038461E-02 
1780	 4.62443754808915E-02 
1781	 4.42581864573775E-02 
1782	 4.20654562709821E-02 
1783	 2.96045321405572E-02 
1784	 2.70037875875436E-02 
1785	 3.10818302141341E-02 
1786	 3.13831066199525E-02 
1787	 3.51271302889257E-02 
1788	 3.78826396804794E-02 
1789	 4.17950832310925E-02 
1790	 0.040445566755152 
1791	 3.60841531739776E-02 
1792	 4.01503809118228E-02 
1793	 0.032235601111838 
1794	 3.92086375906338E-02 
1795	 5.96556273670086E-02 
1796	 0.062505350212181 
1797	 7.36778220814044E-02 
1798	 0.071341293897284 
1799	 6.18061224430603E-02 
1800	 3.76062749392174E-02 
1801	 2.84975759423988E-02 
1802	 7.75125500108073E-02 
1803	 6.93813757517527E-02 
1804	 1.12216603898454E-02 
1805	-1.30321856270608E-02 
1806	-0.182726291850661 
1807	-0.293070589332621 
1808	 7.63404040348365E-02 
1809	 0.212067639919023 
1810	 0.130111889712071 
1811	 8.32239392616938E-02 
1812	-0.200160780712621 
1813	-0.284536097785231 
1814	 1.35401722907046 
1815	 0.306590919631917 
1816	 55.7394578516899 
1817	 0.952423546623623 
1818	 0.363566356093782 
1819	 1.29679062312315 
1820	 3.88520291285798 
1821	-0.659882582130805 
1822	-0.647850647768314 
1823	 1.4288756068655 
1824	 0.736438624443842 
1825	 0.325410177332447 
1826	 0.214732667278798 
1827	 1.16650879764426 
1828	-0.765191369621775 
1829	 3.97636234254502 
1830	 2.88105848926317 
1831	 1.97787704143309 
1832	 2.34062493221576 
1833	 1.29653490373964 
1834	 1.39970155032061 
1835	 5.69734132472379 
1836	-18.6047650315179 
1837	 1.21723365188364 
1838	 6.91075049445573 
1839	-0.622823620601842 
1840	-0.32559475932471 
1841	 0.203552416305661 
1842	 0.483871661574542 
1843	 0.514980003225188 
1844	-4.09415252618598E-02 
1845	 0.702539356481609 
1846	 0.974190938638236 
1847	 0.755225918983229 
1848	 1.68874122831063 
1849	 1.07337267294939 
1850	 0.335760045070362 
1851	-0.280072609622685 
1852	-0.333289357412827 
1853	 1.33782846690633 
1854	-1.73160021675028 
1855	-0.460451104316354 
1856	-0.588382730340894 
1857	-1.22823837703655 
1858	-1.31962159363228 
1859	-1.4891789375434 
1860	-1.23985798810139 
1861	-2.42896560372094 
1862	-0.493566461104353 
1863	 0.334116113576133 
1864	-2.86592294356594 
1865	-0.838411416352119 
1866	-0.327553489999222 
1867	-0.488558752232597 
1868	-2.24412706032296 
1869	 5.92603836021992 
1870	 1.44958192260471 
1871	 0.831588864395845 
1872	 0.930952203340977 
1873	 0.821676586723679 
1874	 0.193366810993253 
1875	 4.97205355670545E-02 
1876	-8.25647306931466E-02 
1877	-0.17816657949926 
1878	-0.272278098723508 
1879	-1.13705639031923 
1880	-1.31040277518265 
1881	-0.361942462893695 
1882	-9.72276902432647E-02 
1883	-8.59502321437722E-04 
1884	 9.46100588405144E-02 
1885	-0.147851005466287 
1886	 0.517049337844841 
1887	-0.846163242146573 
1888	-0.908436114947351 
1889	-0.990607544276624 
1890	-0.684597004561438 
1891	-0.446773346496177 
1892	-1.26212818184955 
1893	-0.527084247696521 
1894	-7.10010943507037E-02 
1895	 0.538211326031083 
1896	 1.03709758482562 
1897	 3.3918197530857 
1898	 20.2489768400654 
1899	 16.7909501404604 
1900	 6.58757708511008 
1901	 1.5499653382625 
1902	 1.03178034341124 
1903	 0.203873681068911 
1904	 0.224988232952892 
1905	-2.66277297202646E-02 
1906	-0.437253853613834 
1907	-0.26918910764623 
1908	-0.559636728869728 
1909	-1.95591257954724 
1910	-3.37017026616327 
1911	 1.63059196118357 
1912	 2.51938371138028 
1913	 3.11087725101565 
1914	 2.76722170557412 
1915	 1.75392064790473 
1916	 1.80577819237612 
1917	 0.533634208614206 
1918	 0.266650362807191 
1919	 0.217414979361483 
1920	-0.146225006404761 
1921	-0.121292332407896 
1922	-0.272444981773877 
1923	-0.218884366967456 
1924	-0.391012925737399 
1925	-0.904102922329314 
1926	-1.39504492195247 
1927	-2.61238377154358 
1928	 4.70128537949933 
1929	 1.75919639822543 
1930	 0.660936226996829 
1931	 0.643510070649024 
1932	 0.597392010491486 
1933	 0.160417129919887 
1934	 1.78087216584278 
1935	 3.83620285573696 
1936	 1.85684644240804 
1937	 1.42113451639765 
1938	 1.7104888889927 
1939	 1.84253728134983 
1940	-38.8506954117459 
1941	 2.84732293738119 
1942	 3.82914632254491 
1943	-3.35306332824034 
1944	-1.787690240756 
1945	-0.304660506812832 
1946	 0.273778319498741 
1947	 0.252960305915065 
1948	 0.34812648710776 
1949	 0.375267192379316 
1950	 0.20763604695701 
1951	 7.9733043105481E-03 
1952	-0.113465212078263 
1953	-0.187876512942508 
1954	-0.191957083539568 
1955	-0.251882683326519 
1956	-0.294009682526315 
1957	-0.187747970509655 
1958	-7.59638642334553E-02 
1959	-4.45508855172513E-02 
1960	 3.12857460909254E-03 
1961	 3.10551987311333E-02 
1962	 0.031773321030066 
1963	 4.22711521309277E-02 
1964	 5.00716826751895E-02 
1965	 4.32628664426446E-02 
1966	 3.17406758481246E-02 
1967	 0.010694138728535 
1968	-5.2812007229902E-04 
1969	-5.05315418110213E-03 
1970	 5.26454845587552E-04 
1971	 2.12432236799829E-02 
1972	 2.47913732273644E-02 
1973	 2.32948022957411E-02 
1974	 2.91885249325357E-02 
1975	 2.30029958368869E-02 
1976	 0.026124384047068 
1977	 3.09471142317992E-02 
1978	 2.40278685849084E-02 
1979	 2.46583803346169E-02 
1980	 2.75791719536518E-02 
1981	 2.92954478238891E-02 
1982	 2.92558526554209E-02 
1983	 3.31986287097982E-02 
1984	 3.26734219159566E-02 
1985	 2.73706767358041E-02 
1986	 2.44416528045475E-02 
1987	 2.52341696574086E-02 
1988	 2.87182939347915E-02 
1989	 3.44191390332266E-02 
1990	 3.82656426711167E-02 
1991	 4.01843984033666E-02 
1992	 3.80106771065761E-02 
1993	 3.56477428929106E-02 
1994	 3.51689925094485E-02 
1995	 0.037759736671653 
1996	 3.78185707865424E-02 
1997	 3.75315114646291E-02 
1998	 3.60791028156003E-02 
1999	 3.43456574557479E-02 
2000	 3.87701480891066E-02 
2001	 4.00174953995977E-02 
2002	 3.40460566221295E-02 
2003	 2.06867124272087E-02 
2004	 2.58863001316986E-03 
2005	-0.008032485707006 
2006	-1.65722572109446E-03 
2007	 0.018608895908582 
2008	 3.19423443786377E-02 
2009	 3.65012272205945E-02 
2010	 3.18867399596948E-02 
2011	 3.27454423099235E-02 
2012	 2.87060759298041E-02 
2013	 2.73015182292808E-02 
2014	 2.53375505261685E-02 
2015	 2.48939059295252E-02 
2016	 1.68066916123295E-02 
2017	 1.40055834973177E-02 
2018	 2.19263561872381E-02 
2019	 3.10146261819184E-02 
2020	 3.80010385079275E-02 
2021	 3.49551764895773E-02 
2022	 0.0322386414013 
2023	 3.00368143515547E-02 
2024	 0.028862310379179 
2025	 2.91349842854184E-02 
2026	 3.09057926715398E-02 
2027	 3.37746630891329E-02 
2028	 3.39725521908302E-02 
2029	 3.60340749948311E-02 
2030	 3.80740682768524E-02 
2031	 3.96126386736936E-02 
2032	 4.04798111270246E-02 
2033	 4.28604223927088E-02 
2034	 4.41166330387538E-02 
2035	 4.35275793154241E-02 
2036	 0.044792790638028 
2037	 4.74154649888602E-02 
2038	 4.82734134755069E-02 
2039	 4.73194193553594E-02 
2040	 4.63735537775295E-02 
2041	 0.04452807035247 
2042	 3.65392648236834E-02 
2043	 3.48341266150331E-02 
2044	 3.74903224697576E-02 
2045	 3.79282093312112E-02 
2046	 3.68325256880589E-02 
2047	 3.99549938640492E-02 
2048	 3.81865651200285E-02 
2049	 3.65925452684456E-02 
2050	 3.85374954056343E-02 
2051	 3.63851393785304E-02 
2052	 3.79667012002427E-02 
2053	 3.86526896987054E-02 
2054	 3.55709698168996E-02 
2055	 3.61363272744986E-02 
2056	 3.61890398703064E-02 
2057	 3.40319455651732E-02 
2058	 3.34812246644415E-02 
2059	 3.59532966876079E-02 
2060	 3.62513544465982E-02 
2061	 3.43790542468431E-02 
2062	 3.42067731823145E-02 
2063	 3.74249928155144E-02 
2064	 3.86616439639091E-02 
2065	 4.00001578522022E-02 
2066	 4.04247721061445E-02 
2067	 3.51460147958869E-02 
2068	 3.10473520745538E-02 
2069	 3.55121137688459E-02 
2070	 4.02785014014499E-02 
2071	 4.17446056760275E-02 
2072	 4.32213073802424E-02 
2073	 4.46956624095994E-02 
2074	 4.30220006865048E-02 
2075	 4.18791002766091E-02 
2076	 4.20925540224154E-02 
2077	 0.043237111093494 
2078	 4.26305252721094E-02 
2079	 4.09159429112419E-02 
2080	 3.99836660392465E-02 
2081	 4.10749291431245E-02 
2082	 3.84126951468314E-02 
2083	 3.69127721778421E-02 
2084	 3.81365517499778E-02 
2085	 3.73746884566181E-02 
2086	 3.57475563710717E-02 
2087	 3.58043885969527E-02 
2088	 3.66787884460583E-02 
2089	 3.81114739281104E-02 
2090	 3.98847762032312E-02 
2091	 4.25774801028996E-02 
2092	 4.34020848284271E-02 
2093	 4.22182300268348E-02 
2094	 4.23358739882384E-02 
2095	 4.25276178597211E-02 
2096	 4.18051325166192E-02 
2097	 4.16141842924267E-02 
2098	 4.07516826056423E-02 
2099	 3.76317215972976E-02 
2100	 3.70311165078231E-02 
2101	 4.02210375095117E-02 
2102	 0.041006280955807 
2103	 4.15315408611026E-02 
2104	 4.34709544551137E-02 
2105	 4.30168102493813E-02 
2106	 4.38084525364276E-02 
2107	 4.65210976781341E-02 
2108	 4.61195837067131E-02 
2109	 4.44017174580967E-02 
2110	 0.044129569808659 
2111	 4.20779604901364E-02 
2112	 3.76059386504939E-02 
2113	 3.63127423856675E-02 
2114	 3.49643426530218E-02 
2115	 0.034485982379879 
2116	 3.80564043678296E-02 
2117	 3.98516863080607E-02 
2118	 3.95391152042524E-02 
2119	 3.97613029862116E-02 
2120	 4.01614393967704E-02 
2121	 4.15904025436327E-02 
2122	 4.05031230665341E-02 
2123	 4.09600615820303E-02 
2124	 4.41694122185973E-02 
2125	 4.54816268795649E-02 
2126	 4.45600208559276E-02 
2127	 4.50423593656941E-02 
2128	 4.40441872970324E-02 
2129	 4.01335060722282E-02 
2130	 3.87420146694706E-02 
2131	 3.90028812312001E-02 
2132	 4.11774909213098E-02 
2133	 4.49570662117196E-02 
2134	 0.045807775315556 
2135	 4.67910407634564E-02 
2136	 4.71425876563305E-02 
2137	 4.43607707470464E-02 
2138	 4.27915046103137E-02 
2139	 4.17580738553559E-02 
2140	 4.21750819592915E-02 
2141	 4.33751610354476E-02 
2142	 4.38112095624436E-02 
2143	 0.046181195955242 
2144	 4.65733564223703E-02 
2145	 4.28215535866889E-02 
2146	 3.90000350210216E-02 
2147	 3.89292189771954E-02 
2148	 3.81609958382947E-02 
2149	 3.97471609440828E-02 
2150	 4.46290299843805E-02 
2151	 4.40571081746965E-02 
2152	 4.62358729500647E-02 
2153	 4.91021665427332E-02 
2154	 4.48674388985673E-02 
2155	 4.25498107450884E-02 
2156	 4.14654497637874E-02 
2157	 4.07589007590152E-02 
2158	 0.041251925124534 
2159	 4.08783065824015E-02 
2160	 4.09061772395066E-02 
2161	 4.05930781662752E-02 
2162	 3.86539229439755E-02 
2163	 0.037982006964322 
2164	 3.91017736595839E-02 
2165	 3.72857200789667E-02 
2166	 3.31235188923021E-02 
2167	 3.31651928229147E-02 
2168	 0.034811549670156 
2169	 3.51070341719637E-02 
2170	 3.83844676890843E-02 
2171	 3.74331742466812E-02 
2172	 3.46454061123767E-02 
2173	 3.24473683390374E-02 
2174	 0.032859565585462 
2175	 3.50963188154866E-02 
2176	 0.038144117321693 
2177	 4.31852203792179E-02 
2178	 4.61193465904492E-02 
2179	 4.60784106006322E-02 
2180	 4.59017208831821E-02 
2181	 4.28104778161156E-02 
2182	 0.040557149426506 
2183	 4.05769971526171E-02 
2184	 3.64077483863734E-02 
2185	 3.54294795663697E-02 
2186	 3.57179566229272E-02 
2187	 3.69077822904512E-02 
2188	 3.69711384317316E-02 
2189	 4.00205921379752E-02 
2190	 3.96532877238475E-02 
2191	 3.59653854698849E-02 
2192	 3.39524523146366E-02 
2193	 2.86601913467361E-02 
2194	 2.88857836309052E-02 
2195	 3.56365446144087E-02 
2196	 3.63904568784158E-02 
2197	 3.68891205889021E-02 
2198	 3.98418725334079E-02 
2199	 4.06520555049086E-02 
2200	 0.039719155007913 
2201	 4.39157288069759E-02 
2202	 4.55219848080459E-02 
2203	 4.53734654400092E-02 
2204	 4.37696470380006E-02 
2205	 4.29671285079696E-02 
2206	 0.045269708644364 
2207	 4.50472387301273E-02 
2208	 4.24966027149198E-02 
2209	 0.037800585274933 
2210	 3.88941171787679E-02 
2211	 4.28840047319334E-02 
2212	 4.12043328746436E-02 
2213	 4.58484582918496E-02 
2214	 5.11859538004626E-02 
2215	 4.89717357210516E-02 
2216	 4.82474611180723E-02 
2217	 0.046158972146216 
2218	 3.99442289050208E-02 
2219	 3.67342008592949E-02 
2220	 0.034576684014132 
2221	 3.24720862928895E-02 
2222	 3.23590761102981E-02 
2223	 0.031270209059674 
2224	 2.91011183671047E-02 
2225	 2.86158683751732E-02 
2226	 2.76213399451908E-02 
2227	 0.02760014645261 
2228	 3.03087563769516E-02 
2229	 3.20308844755012E-02 
2230	 3.44109519841056E-02 
2231	 3.53030472447595E-02 
2232	 3.41817492612278E-02 
2233	 3.42073472162883E-02 
2234	 0.033002094406377 
2235	 3.46384561115236E-02 
2236	 0.040465242736291 
2237	 4.03321603183889E-02 
2238	 3.87290491501852E-02 
2239	 3.81321196888807E-02 
2240	 3.36315612650661E-02 
2241	 2.96005087138191E-02 
2242	 0.028882554470586 
2243	 3.11784991524782E-02 
2244	 3.37633350591268E-02 
2245	 3.47890520657515E-02 
2246	 3.70553396574653E-02 
2247	 3.53176074079653E-02 
2248	 3.17046143843986E-02 
2249	 3.45417008148628E-02 
2250	 3.79023840853628E-02 
2251	 3.98716541272927E-02 
2252	 4.33529144606599E-02 
2253	 4.15170164658503E-02 
2254	 3.50666065984438E-02 
2255	 3.39827189157834E-02 
2256	 2.89592192136292E-02 
2257	 2.46538814099278E-02 
2258	 2.68604587430034E-02 
2259	 2.34380978167429E-02 
2260	 2.44320778716021E-02 
2261	 0.032452392959179 
2262	 3.52670888553352E-02 
2263	 3.44223833695159E-02 
2264	 3.64144496138137E-02 
2265	 4.03863803883827E-02 
2266	 3.98183387160196E-02 
2267	 3.70170217598348E-02 
2268	 3.81217439063385E-02 
2269	 3.80099251778383E-02 
2270	 0.037094499397429 
2271	 3.95908129960324E-02 
2272	 3.88249658460879E-02 
2273	 3.18032738736035E-02 
2274	 3.10272263944215E-02 
2275	 3.55599814325019E-02 
2276	 3.77794868871074E-02 
2277	 3.96009139751407E-02 
2278	 4.34521291452214E-02 
2279	 5.01861993758333E-02 
2280	 4.95118563842834E-02 
2281	 4.68168930707406E-02 
2282	 4.49002797053848E-02 
2283	 4.11552744074265E-02 
2284	 4.13835293864484E-02 
2285	 4.09972039415277E-02 
2286	 3.93764945917792E-02 
2287	 4.07564806258629E-02 
2288	 3.30859256056626E-02 
2289	 2.39362163098169E-02 
2290	 0.023806901189069 
2291	 2.12337623094271E-02 
2292	 0.018876931136598 
2293	 2.75185681403752E-02 
2294	 4.11082960519334E-02 
2295	 0.048032466435441 
2296	 4.69081462324628E-02 
2297	 3.91057780361377E-02 
2298	 3.62362508525876E-02 
2299	 3.43982129815567E-02 
2300	 2.26309508562152E-02 
2301	 1.60692924689176E-02 
2302	 0.01983505566297 
2303	 2.79876762735063E-02 
2304	 2.94897973962555E-02 
2305	 0.025563272000929 
2306	 3.06965639543853E-02 
2307	 2.91994431622574E-02 
2308	 2.11632245379837E-02 
2309	 2.90606240051951E-02 
2310	 2.83761976408107E-02 
2311	 1.15553278560235E-02 
2312	 1.19315978061606E-02 
2313	 2.33405234706114E-02 
2314	 1.89809556378166E-02 
2315	 4.26821098955107E-03 
2316	 8.09088175827193E-03 
2317	 1.10225097602709E-02 
2318	 2.06582470891902E-03 
2319	 1.41597161027243E-02 
2320	 1.13637305436711E-02 
2321	-7.59318287386528E-03 
2322	 3.82864212561408E-03 
2323	 1.99413658279192E-02 
2324	 3.03093683100446E-02 
2325	 4.32913842515553E-02 
2326	 4.91265910689034E-02 
2327	 5.40262000982146E-02 
2328	 4.20668037518671E-02 
2329	 2.02832295190205E-02 
2330	 2.23106661360616E-02 
2331	 1.38813343903577E-02 
2332	 9.93203535910587E-05 
2333	 0.017867917003793 
2334	 2.84242674027439E-02 
2335	 2.41846673871576E-02 
2336	 2.39617551989991E-02 
2337	 2.29481395347178E-02 
2338	 8.78895981750925E-03 
2339	 4.90711192181453E-03 
2340	 2.93553377195893E-02 
2341	 2.63201183663778E-02 
2342	 5.65213503858574E-03 
2343	-0.012499136859994 
2344	-3.94999080878242E-02 
2345	-3.99218162099194E-02 
2346	-3.59871113476487E-02 
2347	-4.90698536103208E-02 
2348	-6.07836629221222E-02 
2349	-0.062782473107734 
2350	-3.67334155477056E-02 
2351	 2.30613972026363E-04 
2352	 0.029498130906475 
2353	 0.049867027910448 
2354	 7.46617803381478E-02 
2355	 0.105216933338056 
2356	 0.092748669609455 
2357	 4.87851473926741E-02 
2358	 1.09342097825406E-02 
2359	-4.20835964352276E-02 
2360	-6.10195526346034E-02 
2361	-6.34689888959643E-02 
2362	-7.93773365467772E-02 
2363	-7.81308431428337E-02 
2364	-0.077184111249894 
2365	-5.69714465188114E-02 
2366	-6.40717266102338E-02 
2367	-0.109994250791334 
2368	-7.03728113231704E-02 
2369	-2.69090928194233E-02 
2370	-0.025210333890909 
2371	-7.78561982884083E-03 
2372	-1.42633924036622E-02 
2373	-3.35798880911174E-02 
2374	-5.31363160408736E-02 
2375	-4.08192078262869E-02 
2376	 2.11700295155227E-02 
2377	 2.29218088003298E-02 
2378	 3.25635110808864E-02 
2379	 8.91002615402647E-02 
2380	 2.73660714886198E-02 
2381	-5.84753191517771E-02 
2382	-3.34895049832459E-02 
2383	 3.64623119992595E-02 
2384	 5.33217247789778E-02 
2385	 6.49781872806564E-02 
2386	 7.90183844731013E-02 
2387	 5.43588745852717E-03 
2388	-9.66034719684751E-02 
2389	-8.09915193299408E-02 
2390	-7.29453963560789E-02 
2391	-0.185349594081706 
2392	-0.167487369723767 
2393	-0.164027856718775 
2394	-0.275183866302758 
2395	-0.185912849056888 
2396	-9.67346495187573E-02 
2397	-0.178731033037386 
2398	-0.172513163186529 
2399	-5.38183614076666E-02 
2400	-6.19851071390317E-02 
2401	-8.87047215753895E-02 
2402	-1.13403764566843E-02 
2403	-6.03726884621567E-02 
2404	-0.179798612052737 
2405	-0.102144559134409 
2406	 0.023674864163072 
2407	 0.123388128250366 
2408	 0.156920542205317 
2409	 4.17043090521197E-02 
2410	-6.73709524523712E-02 
2411	-0.035722868650223 
2412	-9.06648481469768E-02 
2413	-0.177449346720059 
2414	-0.525756653510891 
2415	-0.832946607730503 
2416	-0.570946974777584 
2417	-0.398544024457921 
2418	-0.404553247768664 
2419	-0.455492724029445 
2420	-0.672450445542248 
2421	-0.522326449937622 
2422	 0.077315501301392 
2423	 1.00537672096154 
2424	 0.717239880119443 
2425	-2.15862763147012E-02 
2426	-0.92963145762476 
2427	-0.720822110284754 
2428	-0.90733373698599 
2429	-0.91259751944085 
2430	-0.559991667415065 
2431	-8.38648300317208E-02 
2432	 0.378400564001551 
2433	 0.136620704304952 
2434	-0.313151983099719 
2435	-1.30068605657034 
2436	-2.79059342603973 
2437	-293.549870557025 
2438	 1.30797767397937 
2439	 4.25743926923104 
2440	-57.2736480151782 
2441	-54.974265492118 
2442	-1.65771429499918 
2443	-1.06269280399734 
2444	 13.5549370917423 
2445	 3.43011049784362 
2446	 1.49319466708764 
2447	 1.02035247032896 
2448	 0.914307463393181 
2449	 0.525909200525816 
2450	 0.303674085186737 
2451	 0.267495427512099 
2452	 6.41838022442879E-02 
2453	 1.08598686341016E-03 
2454	 0.126242036191826 
2455	 0.493693449472109 
2456	 0.710702933148647 
2457	 0.894544621326937 
2458	 1.40801781091784 
2459	 2.3044085347434 
2460	 2.15140614301399 
2461	 1.28249041479594 
2462	 0.382411336899453 
2463	 1.38375229070741E-02 
2464	-7.56989930929396E-02 
2465	-0.242983037001382 
2466	-0.14579347541346 
2467	 0.627335957681057 
2468	 1.58206034127026 
2469	 1.9998174386099 
2470	 0.10261817484626 
2471	 0.554233787012649 
2472	 0.315299254463616 
2473	-0.794469109403533 
2474	-2.58449008552498 
2475	-1.1297101595378 
2476	-1.21417964846018 
2477	-3.04381257439836 
2478	-7.66128572880307 
2479	 1.36912547736563 
2480	 0.103657675578249 
2481	-0.320837581431517 
2482	-0.282215278502307 
2483	-0.410091615839951 
2484	-0.39467735088783 
2485	 3.63602882171824E-02 
2486	 0.526744898910066 
2487	 1.0813778375335 
2488	 1.19648490214054 
2489	 0.616505049687584 
2490	-0.236203590828577 
2491	-0.31916808595678 
2492	-0.149656039294212 
2493	-0.143838158205483 
2494	 0.517802808755516 
2495	 2.46551898628679 
2496	-10.6682183626187 
2497	-3.52416649941666 
2498	-8.46915387642338 
2499	-4.02515175894979 
2500	-3.9326281668348 
