Wavelength	rt0713east_close200006.asd
350	 8.52686720172891E-02 
351	 8.47079332327302E-02 
352	 8.47004898643916E-02 
353	 8.46564778171792E-02 
354	 8.41553059740595E-02 
355	 8.38435497231282E-02 
356	 8.32136744224219E-02 
357	 8.32471915210926E-02 
358	 8.45494237595428E-02 
359	 8.44508516659467E-02 
360	 8.35117830143098E-02 
361	 8.27655136294403E-02 
362	 8.32276763255347E-02 
363	 8.33478827383914E-02 
364	 8.31045586868905E-02 
365	 8.27880985126392E-02 
366	 8.28306426880858E-02 
367	 0.0830101801698 
368	 8.30898128238698E-02 
369	 8.30422993854721E-02 
370	 8.36488786758428E-02 
371	 8.37931732726346E-02 
372	 8.34767920774063E-02 
373	 8.33358875217754E-02 
374	 0.083019763374922 
375	 8.31751893140674E-02 
376	 8.37120001040207E-02 
377	 8.34610243466817E-02 
378	 8.38069591480368E-02 
379	 8.40195396098701E-02 
380	 8.34795018633443E-02 
381	 8.34701653636114E-02 
382	 8.33802877182238E-02 
383	 8.35088902648327E-02 
384	 8.42800334856788E-02 
385	 8.38511940187786E-02 
386	 8.41953167031613E-02 
387	 8.50320749308639E-02 
388	 8.34887774999444E-02 
389	 8.40929263493273E-02 
390	 8.50162753314204E-02 
391	 8.46723529978108E-02 
392	 8.52643268285546E-02 
393	 8.51068200919136E-02 
394	 0.084709721071602 
395	 8.50301171560516E-02 
396	 8.47937149244636E-02 
397	 8.47086329336944E-02 
398	 8.50251330789698E-02 
399	 8.54838083870799E-02 
400	 8.55269036672422E-02 
401	 8.53873402490538E-02 
402	 8.53423782966777E-02 
403	 8.54599461059061E-02 
404	 8.57215789070826E-02 
405	 8.58870633567441E-02 
406	 8.57577725869456E-02 
407	 8.58589887395674E-02 
408	 0.085879897134468 
409	 8.58481726162378E-02 
410	 8.61429127349145E-02 
411	 8.64103999877624E-02 
412	 8.65187134374659E-02 
413	 8.64934370125064E-02 
414	 8.66031908431083E-02 
415	 8.67875227824711E-02 
416	 8.70184652418759E-02 
417	 8.72515363611934E-02 
418	 8.73145098378785E-02 
419	 0.087321868558401 
420	 8.74361576820458E-02 
421	 8.78295769719333E-02 
422	 8.80817038900492E-02 
423	 0.088202297060199 
424	 8.83451779562472E-02 
425	 0.088803201186154 
426	 8.91545221051521E-02 
427	 8.94572694234263E-02 
428	 8.99135454259786E-02 
429	 8.99096917390323E-02 
430	 9.01967926805162E-02 
431	 9.07867016001363E-02 
432	 9.07091596413808E-02 
433	 0.091031778831805 
434	 9.15589480062418E-02 
435	 9.19299819318506E-02 
436	 9.21519774721119E-02 
437	 9.24805577291903E-02 
438	 9.28414464857498E-02 
439	 9.30184750899066E-02 
440	 9.33041339421579E-02 
441	 9.36291545144986E-02 
442	 9.39366698282591E-02 
443	 9.42479201370822E-02 
444	 9.45971497133265E-02 
445	 9.49289316526846E-02 
446	 9.52002135049894E-02 
447	 0.095513982813712 
448	 9.58651737007899E-02 
449	 9.61982220674978E-02 
450	 9.64367809770568E-02 
451	 9.66980825898736E-02 
452	 9.69751668334669E-02 
453	 9.72423979428514E-02 
454	 9.74746371664014E-02 
455	 9.76780474479692E-02 
456	 9.78361512697326E-02 
457	 9.79569985615908E-02 
458	 9.82092034287443E-02 
459	 9.84363597417845E-02 
460	 9.86043923787827E-02 
461	 9.88168189268425E-02 
462	 9.90871176187554E-02 
463	 9.93264923114853E-02 
464	 9.94739372566188E-02 
465	 9.95918109165004E-02 
466	 9.97544416797076E-02 
467	 9.99631807742394E-02 
468	 0.100185417884627 
469	 0.10048232921434 
470	 0.10071352302674 
471	 0.100820301480645 
472	 0.100872957519562 
473	 0.101025328565306 
474	 0.101353503870656 
475	 0.101787693687026 
476	 0.101844063465093 
477	 0.1020716082079 
478	 0.10249469540193 
479	 0.102776765439871 
480	 0.102966153872155 
481	 0.10312800289009 
482	 0.103342928232063 
483	 0.103715543820813 
484	 0.104123575286479 
485	 0.104454599550626 
486	 0.104667353836262 
487	 0.105029632689475 
488	 0.105515258166923 
489	 0.10596878013372 
490	 0.106154035211279 
491	 0.106361676822594 
492	 0.106707321948958 
493	 0.107166287044091 
494	 0.10744725700432 
495	 0.1077565763392 
496	 0.108142299100473 
497	 0.108562115648024 
498	 0.10891887531154 
499	 0.109304981831943 
500	 0.109769957854473 
501	 0.110274033459366 
502	 0.110565543396468 
503	 0.110820456223312 
504	 0.111255590745399 
505	 0.111675425639496 
506	 0.112246016429351 
507	 0.112864692111645 
508	 0.113241501287657 
509	 0.113701386744884 
510	 0.114142375396844 
511	 0.11451639760112 
512	 0.115082593397507 
513	 0.115549812009639 
514	 0.116039193206118 
515	 0.116765246031079 
516	 0.117275349780861 
517	 0.11775715610032 
518	 0.118257682033223 
519	 0.118583261308846 
520	 0.119160171890102 
521	 0.119778615644426 
522	 0.120217532475336 
523	 0.120734234895282 
524	 0.121298018373257 
525	 0.121876817402925 
526	 0.122441566029305 
527	 0.122989160762571 
528	 0.123523191662046 
529	 0.124063389871148 
530	 0.124659574344559 
531	 0.125334748534081 
532	 0.125978834144844 
533	 0.126468746718586 
534	 0.126929212729117 
535	 0.127497567363397 
536	 0.128168300769625 
537	 0.12877580005274 
538	 0.129304430978944 
539	 0.129840986645284 
540	 0.130447251589449 
541	 0.131011253588328 
542	 0.131546694480169 
543	 0.132106783883043 
544	 0.132751705399419 
545	 0.133302872472619 
546	 0.13389557938117 
547	 0.134578264042792 
548	 0.135157799727741 
549	 0.135724680321301 
550	 0.136267979198722 
551	 0.136782643669773 
552	 0.137487854175729 
553	 0.138066883056011 
554	 0.138510408492909 
555	 0.139176892801032 
556	 0.139737479392554 
557	 0.140282979034719 
558	 0.140907974166717 
559	 0.141421212977237 
560	 0.141788913732157 
561	 0.142158477458274 
562	 0.142748587332371 
563	 0.143210093622826 
564	 0.143632794768491 
565	 0.14407123586231 
566	 0.144400097036892 
567	 0.144628039947209 
568	 0.144889018451881 
569	 0.14530873844543 
570	 0.145672624360217 
571	 0.145974590679858 
572	 0.146243346989181 
573	 0.146527295889494 
574	 0.146762027023185 
575	 0.147027731490004 
576	 0.147368264793927 
577	 0.147617314444844 
578	 0.147817898090721 
579	 0.148022638234048 
580	 0.148286218762217 
581	 0.148624933113726 
582	 0.148859879091928 
583	 0.14888273748587 
584	 0.148737001173646 
585	 0.148609115675892 
586	 0.148365367464909 
587	 0.147848253983378 
588	 0.147567310636614 
589	 0.147392054130991 
590	 0.147312068440035 
591	 0.147462375192929 
592	 0.14746955718427 
593	 0.147360193602384 
594	 0.147243705661328 
595	 0.147208180841884 
596	 0.147070921852885 
597	 0.146911559701352 
598	 0.146919337688468 
599	 0.146787678884191 
600	 0.14662435372347 
601	 0.146525438992466 
602	 0.146482578912751 
603	 0.146404705509473 
604	 0.146378242116114 
605	 0.146471374757234 
606	 0.146321325198092 
607	 0.1463427301868 
608	 0.146545061071395 
609	 0.146499308646307 
610	 0.146580251593475 
611	 0.146626240658747 
612	 0.146512703376158 
613	 0.146549430331406 
614	 0.14658626674219 
615	 0.146637062728637 
616	 0.146781825088227 
617	 0.146873831212589 
618	 0.146878039328737 
619	 0.146838246984778 
620	 0.146899552107128 
621	 0.146960346617042 
622	 0.146965934976894 
623	 0.146905809379025 
624	 0.14690827930272 
625	 0.14690849172619 
626	 0.146853541629002 
627	 0.146724200727174 
628	 0.146795715810497 
629	 0.146953537945129 
630	 0.147059872129112 
631	 0.147139328830804 
632	 0.147148024348897 
633	 0.147161395337412 
634	 0.147276948561478 
635	 0.14727570175095 
636	 0.147282904442399 
637	 0.147390426257092 
638	 0.147602887165935 
639	 0.147663636769163 
640	 0.147600871207454 
641	 0.147516941696817 
642	 0.147406405984705 
643	 0.147255072378102 
644	 0.146972963197478 
645	 0.146442740318026 
646	 0.146193983623726 
647	 0.145980521340505 
648	 0.145721162970388 
649	 0.146125070674761 
650	 0.146193929119098 
651	 0.145931760727128 
652	 0.145714806458122 
653	 0.14551734561223 
654	 0.145127438508866 
655	 0.144602827433752 
656	 0.144446137238213 
657	 0.144176567289758 
658	 0.143908559883293 
659	 0.143778219280346 
660	 0.143636883684127 
661	 0.143475224544524 
662	 0.143265733763379 
663	 0.142988091330416 
664	 0.142729090886128 
665	 0.142594217832601 
666	 0.14254390022133 
667	 0.142281817223315 
668	 0.142057066396679 
669	 0.142014352293787 
670	 0.142166113583258 
671	 0.142055317121171 
672	 0.142046397895092 
673	 0.142206373173052 
674	 0.142292148837052 
675	 0.142284198733724 
676	 0.142259723651091 
677	 0.142304609494796 
678	 0.142468281678349 
679	 0.142698477396126 
680	 0.142923497653836 
681	 0.143083812694079 
682	 0.143285915021197 
683	 0.143408167981913 
684	 0.143354936134073 
685	 0.143069014109055 
686	 0.142958405465121 
687	 0.142942026648491 
688	 0.142877371071325 
689	 0.143119785557852 
690	 0.14315253648802 
691	 0.142819001627246 
692	 0.142227779151255 
693	 0.141929452814094 
694	 0.142057314300451 
695	 0.142431848550586 
696	 0.142669941240213 
697	 0.142150625898324 
698	 0.14126762584911 
699	 0.140725840299666 
700	 0.140511654734152 
701	 0.140287471451342 
702	 0.139999131324779 
703	 0.139808503185858 
704	 0.139373992026955 
705	 0.138861520464911 
706	 0.138379454122144 
707	 0.137685477797111 
708	 0.137030579596919 
709	 0.136384015651866 
710	 0.135606627868872 
711	 0.134603137366889 
712	 0.133429074113321 
713	 0.132076460020067 
714	 0.130404699496705 
715	 0.128140023224187 
716	 0.125453305177737 
717	 0.12304174291962 
718	 0.121312426710484 
719	 0.120597415682606 
720	 0.120279372122551 
721	 0.119508676234283 
722	 0.117841408167989 
723	 0.115538298226981 
724	 0.113409002012292 
725	 0.112153660524172 
726	 0.11081608214881 
727	 0.109131697716056 
728	 0.10715122602074 
729	 0.105194419441105 
730	 0.103384450971996 
731	 0.102076191984995 
732	 0.101305110725482 
733	 9.99082904664309E-02 
734	 9.85301770720875E-02 
735	 9.74902968630861E-02 
736	 9.65506077463969E-02 
737	 9.62844163295523E-02 
738	 9.61932134758097E-02 
739	 9.58268161192285E-02 
740	 9.56100177910585E-02 
741	 9.55872331807956E-02 
742	 9.56551366397008E-02 
743	 9.56314792997653E-02 
744	 9.54194040589372E-02 
745	 9.53469764539247E-02 
746	 9.54924446016154E-02 
747	 9.55473757216627E-02 
748	 9.54008143955665E-02 
749	 9.52808677860197E-02 
750	 9.53744163536473E-02 
751	 9.54293662816899E-02 
752	 9.53237871025566E-02 
753	 9.51527736053091E-02 
754	 0.095119316103543 
755	 9.52111902555138E-02 
756	 9.51091852941855E-02 
757	 9.47124264974523E-02 
758	 9.41500917510481E-02 
759	 9.32455056016639E-02 
760	 9.23286991711004E-02 
761	 9.22781357166415E-02 
762	 0.092447167438659 
763	 9.30925414663577E-02 
764	 9.38950060972572E-02 
765	 9.45154407628052E-02 
766	 9.51412882412076E-02 
767	 9.55192781714717E-02 
768	 9.57363688545241E-02 
769	 9.61732610389174E-02 
770	 9.62327512094249E-02 
771	 9.62798297749316E-02 
772	 9.66004710904603E-02 
773	 9.67179562681057E-02 
774	 0.096970516841777 
775	 0.097268136996161 
776	 9.73997308171648E-02 
777	 9.75870276220367E-02 
778	 9.78733364483584E-02 
779	 9.81760316524513E-02 
780	 9.83257591702755E-02 
781	 9.87262287648435E-02 
782	 9.90711631268472E-02 
783	 9.91815496368936E-02 
784	 9.94657659793712E-02 
785	 9.97309808541326E-02 
786	 9.98670912121663E-02 
787	 9.98947274061817E-02 
788	 0.100374315011494 
789	 0.100706592311961 
790	 0.100886759669095 
791	 0.101414129340388 
792	 0.102154956851401 
793	 0.102694379279322 
794	 0.102848147268698 
795	 0.102820128195386 
796	 0.103202537374185 
797	 0.103691516003808 
798	 0.103902269998832 
799	 0.104083844160594 
800	 0.104335642969057 
801	 0.104640105736665 
802	 0.104914390675291 
803	 0.105173261448374 
804	 0.105506829507954 
805	 0.105892949859294 
806	 0.106168958488995 
807	 0.105593485833744 
808	 0.105043951762435 
809	 0.105079658859336 
810	 0.104507924512439 
811	 0.103751138308544 
812	 0.102786148520657 
813	 0.10159892339661 
814	 0.10105304020397 
815	 0.100625445707579 
816	 0.100081542123189 
817	 9.96116676550254E-02 
818	 9.99757836074004E-02 
819	 9.99402252205367E-02 
820	 9.91423445192056E-02 
821	 9.83835271393188E-02 
822	 9.70834026187812E-02 
823	 0.095840108302024 
824	 9.50165440121351E-02 
825	 9.37445349440806E-02 
826	 9.20263276395524E-02 
827	 9.03731853285505E-02 
828	 8.93270174919945E-02 
829	 8.73064511401702E-02 
830	 8.57844726201726E-02 
831	 8.50641773216764E-02 
832	 8.44999278661508E-02 
833	 8.39427971569362E-02 
834	 8.33448729175057E-02 
835	 8.27136686016261E-02 
836	 8.21003432420989E-02 
837	 8.18237301629045E-02 
838	 8.17373928048452E-02 
839	 8.16092800809852E-02 
840	 8.12673573535849E-02 
841	 8.09772286256502E-02 
842	 8.07853780365609E-02 
843	 8.06551274200087E-02 
844	 8.06349023975736E-02 
845	 8.02279685454444E-02 
846	 7.97313599416119E-02 
847	 7.98420170040949E-02 
848	 7.95402158727785E-02 
849	 0.079186297444168 
850	 7.90119242022969E-02 
851	 7.88637675886972E-02 
852	 0.078390726753644 
853	 7.80340173589661E-02 
854	 7.80012125075707E-02 
855	 7.76249499037102E-02 
856	 7.74369333218909E-02 
857	 7.75019550989882E-02 
858	 7.76658437355321E-02 
859	 7.75237702122912E-02 
860	 0.077234369663057 
861	 7.68305642014678E-02 
862	 7.63646046641174E-02 
863	 7.63603038910288E-02 
864	 7.65635576853223E-02 
865	 7.64319752488979E-02 
866	 7.54810771048633E-02 
867	 7.58541490708439E-02 
868	 7.58116620566447E-02 
869	 7.48767082911439E-02 
870	 7.48327929053877E-02 
871	 7.46787660867779E-02 
872	 7.43564103342011E-02 
873	 7.40037698416402E-02 
874	 7.37797178086265E-02 
875	 7.32190189726721E-02 
876	 7.28610927276825E-02 
877	 7.30618515916433E-02 
878	 7.23566700036398E-02 
879	 7.18857305657963E-02 
880	 7.18553993161956E-02 
881	 0.071859143730963 
882	 7.10607525051083E-02 
883	 7.03008654336577E-02 
884	 7.01638221701366E-02 
885	 0.070691790013506 
886	 7.00082167681957E-02 
887	 0.069543244366291 
888	 6.96808205855946E-02 
889	 6.92074075862459E-02 
890	 0.067848009622278 
891	 6.74627569604796E-02 
892	 6.83888299466668E-02 
893	 0.067219708435071 
894	 6.62553977460962E-02 
895	 0.06577972293682 
896	 6.53883370050123E-02 
897	 6.44379900933652E-02 
898	 6.37774132998415E-02 
899	 6.37777695507031E-02 
900	 6.41615390269029E-02 
901	 6.35441343202231E-02 
902	 6.32010108395522E-02 
903	 6.34007065883026E-02 
904	 6.36077134813679E-02 
905	 6.12344330147889E-02 
906	 6.13962944104595E-02 
907	 0.063391639814953 
908	 6.24162094539559E-02 
909	 6.11681304533408E-02 
910	 6.04808034494729E-02 
911	 6.08014061955699E-02 
912	 6.19561949036607E-02 
913	 0.061100136365866 
914	 5.90167080372214E-02 
915	 5.78456280487717E-02 
916	 5.97165972092234E-02 
917	 0.058372455395728 
918	 5.76122666714543E-02 
919	 0.058578612434001 
920	 5.74138385646224E-02 
921	 5.81626280717088E-02 
922	 5.78868407713675E-02 
923	 5.52984938613662E-02 
924	 5.54487922777384E-02 
925	 5.57619112990075E-02 
926	 5.50832759820234E-02 
927	 0.05294569456028 
928	 5.01183143908342E-02 
929	 5.27560634278391E-02 
930	 5.49998571614847E-02 
931	 4.62294904952782E-02 
932	 5.36256460328321E-02 
933	 5.58240636027005E-02 
934	 5.13520177627356E-02 
935	 0.05150462428826 
936	 5.11306201746098E-02 
937	 5.34511001258643E-02 
938	 5.28630971510198E-02 
939	 4.54559871412151E-02 
940	 4.16730043774175E-02 
941	 4.29095990276173E-02 
942	 4.23852347492852E-02 
943	 0.033890671676833 
944	 4.13922960858303E-02 
945	 4.81138284997848E-02 
946	 4.76786980480374E-02 
947	 0.044148327295795 
948	 4.50559429774376E-02 
949	 4.68516361663127E-02 
950	 0.04633969944582 
951	 4.33660236884075E-02 
952	 5.04834366067216E-02 
953	 4.92810836617034E-02 
954	 3.94480686545996E-02 
955	 3.47282736941401E-02 
956	 4.31218396328414E-02 
957	 4.51581620713266E-02 
958	 4.17519726648674E-02 
959	 4.60945525601328E-02 
960	 4.57675853893436E-02 
961	 4.54459088905386E-02 
962	 4.53147615534316E-02 
963	 4.26328042387108E-02 
964	 4.23703982357413E-02 
965	 4.49382995914274E-02 
966	 4.80452759727518E-02 
967	 4.86711309134349E-02 
968	 4.95814548573625E-02 
969	 4.73750212664207E-02 
970	 4.50061151626763E-02 
971	 4.92719354172471E-02 
972	 0.049404720323697 
973	 4.69497062586583E-02 
974	 4.55117999024404E-02 
975	 4.80564049574645E-02 
976	 4.74993323044147E-02 
977	 4.58184862348798E-02 
978	 4.58809055942417E-02 
979	 4.88551199274124E-02 
980	 4.63601812703108E-02 
981	 4.63433769183174E-02 
982	 4.91065162750771E-02 
983	 4.87274109913577E-02 
984	 5.04412128009948E-02 
985	 4.80374764828206E-02 
986	 4.49979457761798E-02 
987	 4.99529001868717E-02 
988	 0.047656391849465 
989	 4.75573840837016E-02 
990	 4.97781892544463E-02 
991	 4.73093222033426E-02 
992	 4.55264521481431E-02 
993	 4.88808431948474E-02 
994	 5.19007023868431E-02 
995	 4.59661487562872E-02 
996	 4.49329170752807E-02 
997	 4.90694213100611E-02 
998	 5.24133936272975E-02 
999	 0.048948945240641 
1000	 4.96053315549072E-02 
1001	 4.19195968484803E-02 
1002	 4.27554796787486E-02 
1003	 4.29272377306262E-02 
1004	 4.32058559367535E-02 
1005	 0.043113698827136 
1006	 0.04243600422729 
1007	 4.16721806558178E-02 
1008	 4.16745329745077E-02 
1009	 0.041398639801615 
1010	 4.05222483939503E-02 
1011	 4.03578789216759E-02 
1012	 4.09000523328636E-02 
1013	 4.12580577504397E-02 
1014	 4.16349218654213E-02 
1015	 0.043074620431961 
1016	 4.33530633727887E-02 
1017	 4.23275553183477E-02 
1018	 4.22347252505002E-02 
1019	 4.24119524000567E-02 
1020	 4.25711297261653E-02 
1021	 4.27021995764486E-02 
1022	 4.35877294180063E-02 
1023	 0.044187950829497 
1024	 0.044076724224449 
1025	 4.40501510167104E-02 
1026	 4.36239554654654E-02 
1027	 0.043393342968337 
1028	 4.26735599534621E-02 
1029	 0.042886950326624 
1030	 4.38307221581895E-02 
1031	 4.41486543524584E-02 
1032	 0.044967693748668 
1033	 4.48621550374219E-02 
1034	 4.34552426583859E-02 
1035	 4.31834433565903E-02 
1036	 4.31585271853954E-02 
1037	 4.31877579661506E-02 
1038	 4.38755641549397E-02 
1039	 4.43566012219338E-02 
1040	 4.46245501080426E-02 
1041	 4.40055445605497E-02 
1042	 4.40409540315267E-02 
1043	 4.40003046776661E-02 
1044	 4.44184566119165E-02 
1045	 0.045506850198665 
1046	 4.57363124273879E-02 
1047	 0.045867030868828 
1048	 4.58431751089673E-02 
1049	 4.48922299970548E-02 
1050	 4.48307910598408E-02 
1051	 4.54301187007059E-02 
1052	 4.56201301152712E-02 
1053	 4.59891191853203E-02 
1054	 4.62296125564013E-02 
1055	 4.61987705172124E-02 
1056	 4.61766004749912E-02 
1057	 4.61447212775004E-02 
1058	 4.62097596721084E-02 
1059	 4.61040330552226E-02 
1060	 4.56205800937099E-02 
1061	 4.57948831593933E-02 
1062	 4.64127866434529E-02 
1063	 4.65677402075395E-02 
1064	 4.71095267698134E-02 
1065	 0.047052419507543 
1066	 4.59498553325807E-02 
1067	 4.57517005911738E-02 
1068	 4.58984831324152E-02 
1069	 4.59348489924621E-02 
1070	 4.64376700222437E-02 
1071	 4.66899780324292E-02 
1072	 4.67275338794632E-02 
1073	 4.67083858798597E-02 
1074	 4.66635852480621E-02 
1075	 4.67019415716203E-02 
1076	 4.64815272389304E-02 
1077	 4.59140858132011E-02 
1078	 4.57298286643533E-02 
1079	 4.55446260980237E-02 
1080	 4.55321750967249E-02 
1081	 4.60459535537162E-02 
1082	 0.045937833494079 
1083	 4.53197295442061E-02 
1084	 4.51135082103932E-02 
1085	 4.48706648145171E-02 
1086	 4.47160104116609E-02 
1087	 4.49033256491322E-02 
1088	 0.045015225790997 
1089	 4.52448600396348E-02 
1090	 4.50656085041364E-02 
1091	 4.47454382899108E-02 
1092	 0.044357065560445 
1093	 4.37515965372444E-02 
1094	 4.23893035081734E-02 
1095	 4.20085081922391E-02 
1096	 4.22250303368169E-02 
1097	 4.22469079429738E-02 
1098	 4.27126638275298E-02 
1099	 4.26120323630542E-02 
1100	 4.20763046501634E-02 
1101	 4.15980277895203E-02 
1102	 4.09015392121134E-02 
1103	 4.06675202263064E-02 
1104	 4.09633151735307E-02 
1105	 4.03595195208652E-02 
1106	 4.03388749206969E-02 
1107	 4.01002604448944E-02 
1108	 4.01651255240993E-02 
1109	 4.01678894612644E-02 
1110	 4.01606185098667E-02 
1111	 4.08594398407004E-02 
1112	 4.09642667976544E-02 
1113	 4.05949527759316E-02 
1114	 3.95545400331807E-02 
1115	 3.59906235826373E-02 
1116	 3.50827324772339E-02 
1117	 3.65676663084745E-02 
1118	 3.56429784500613E-02 
1119	 3.77105011486337E-02 
1120	 3.87054602799276E-02 
1121	 3.41129148111899E-02 
1122	 2.77467656520166E-02 
1123	 3.06139221742684E-02 
1124	 2.35479994406061E-02 
1125	 1.67323498172491E-02 
1126	 0.023019340387466 
1127	 3.22408696479831E-02 
1128	 0.041131080553436 
1129	 4.26799106565833E-02 
1130	 4.04588059092512E-02 
1131	 3.75592368699941E-02 
1132	 2.75830461679021E-02 
1133	 2.83506231669594E-02 
1134	 3.61978907476565E-02 
1135	 3.66477337131893E-02 
1136	 3.73625432773528E-02 
1137	 3.69631311638739E-02 
1138	 3.27294640715582E-02 
1139	 2.90421322818736E-02 
1140	 3.13050286192319E-02 
1141	 3.41942026873986E-02 
1142	 3.39492488152342E-02 
1143	 3.43962476119916E-02 
1144	 3.79125142170209E-02 
1145	 3.70397977712077E-02 
1146	 3.35274642141796E-02 
1147	 3.59949309691851E-02 
1148	 3.37839656731704E-02 
1149	 2.88169536299833E-02 
1150	 2.96266867622177E-02 
1151	 3.67658310503255E-02 
1152	 3.59347338950486E-02 
1153	 3.19548704833847E-02 
1154	 3.37789716367644E-02 
1155	 0.036898845692128 
1156	 3.55398915525272E-02 
1157	 3.61430057636269E-02 
1158	 3.75481924793653E-02 
1159	 3.58036253397821E-02 
1160	 0.035833340994992 
1161	 3.85841086941243E-02 
1162	 3.92164599347916E-02 
1163	 3.87092668005398E-02 
1164	 3.91021017983335E-02 
1165	 3.79928110454623E-02 
1166	 3.76692596696206E-02 
1167	 4.01895988892887E-02 
1168	 4.05524877318154E-02 
1169	 3.88664177199193E-02 
1170	 3.93303093278321E-02 
1171	 3.97733477891152E-02 
1172	 3.90922781078724E-02 
1173	 3.91604138960802E-02 
1174	 4.10699631386657E-02 
1175	 4.13278785528698E-02 
1176	 3.95043464644695E-02 
1177	 3.92783985595514E-02 
1178	 3.94698228843525E-02 
1179	 3.93211778355015E-02 
1180	 4.03545066294892E-02 
1181	 4.10220340847327E-02 
1182	 4.02202432554773E-02 
1183	 3.97631825528346E-02 
1184	 3.97656835052737E-02 
1185	 3.98911580891949E-02 
1186	 4.07423374304373E-02 
1187	 4.12836187630413E-02 
1188	 4.09396351665346E-02 
1189	 4.01513239012075E-02 
1190	 3.99076674634578E-02 
1191	 4.06052253965032E-02 
1192	 4.06870221928105E-02 
1193	 4.08700879720969E-02 
1194	 4.06056443748693E-02 
1195	 4.05843111313135E-02 
1196	 4.04906994017746E-02 
1197	 4.03133500621379E-02 
1198	 4.08052381231988E-02 
1199	 4.13187903999569E-02 
1200	 4.08841078331208E-02 
1201	 4.04960443321564E-02 
1202	 4.05846100268675E-02 
1203	 4.03562629092343E-02 
1204	 4.04181269913247E-02 
1205	 0.04088290838994 
1206	 4.06524279819746E-02 
1207	 4.04374893936322E-02 
1208	 4.07218663442398E-02 
1209	 0.040341482356949 
1210	 0.040338194733362 
1211	 4.14420152513836E-02 
1212	 4.16344629012776E-02 
1213	 4.11665893591026E-02 
1214	 4.11226480989398E-02 
1215	 4.13911176207653E-02 
1216	 0.040941940875414 
1217	 4.06948280603024E-02 
1218	 4.12709027751443E-02 
1219	 4.13959635628978E-02 
1220	 4.13972920442877E-02 
1221	 4.16696736939802E-02 
1222	 4.16967959664323E-02 
1223	 0.041783062277999 
1224	 4.16063457087654E-02 
1225	 4.09033926323854E-02 
1226	 4.08566974825366E-02 
1227	 4.15524487592541E-02 
1228	 4.19910029832824E-02 
1229	 4.19663359183379E-02 
1230	 4.18231078051833E-02 
1231	 4.18151440426825E-02 
1232	 4.17900654691998E-02 
1233	 0.041705327899434 
1234	 4.19793296774074E-02 
1235	 4.21722514075474E-02 
1236	 4.19353887670956E-02 
1237	 4.17805117292476E-02 
1238	 4.18286838734701E-02 
1239	 4.21080667426502E-02 
1240	 4.20293638016511E-02 
1241	 4.17674940501691E-02 
1242	 4.21467631409793E-02 
1243	 4.20965199589608E-02 
1244	 4.12752104795509E-02 
1245	 4.15147522354965E-02 
1246	 4.17227280641472E-02 
1247	 4.14307255311995E-02 
1248	 4.17186267505656E-02 
1249	 4.18189906795289E-02 
1250	 4.16250593518846E-02 
1251	 4.16694219370886E-02 
1252	 4.20077024595293E-02 
1253	 4.22490619155988E-02 
1254	 4.21662411478647E-02 
1255	 4.22298550459608E-02 
1256	 4.23362955769177E-02 
1257	 4.22406469990949E-02 
1258	 0.042229009846714 
1259	 4.25144360712702E-02 
1260	 4.25087561610987E-02 
1261	 4.22429297626825E-02 
1262	 4.19744328508907E-02 
1263	 4.15086638596346E-02 
1264	 4.14563469216633E-02 
1265	 4.14427350844094E-02 
1266	 0.041352486526792 
1267	 4.16644338329514E-02 
1268	 0.04204757152061 
1269	 4.17769469804032E-02 
1270	 4.14256748532849E-02 
1271	 4.20246050475183E-02 
1272	 0.042626540105216 
1273	 4.24762533280741E-02 
1274	 4.26429549354889E-02 
1275	 4.24799407226764E-02 
1276	 4.12951748073984E-02 
1277	 4.10848751500326E-02 
1278	 4.15673634106212E-02 
1279	 4.12734621610872E-02 
1280	 0.041265565456078 
1281	 4.14784967507706E-02 
1282	 0.04205271800908 
1283	 4.21192263916838E-02 
1284	 4.20264457992164E-02 
1285	 4.19656686201306E-02 
1286	 4.16853673839214E-02 
1287	 0.041448835142621 
1288	 4.12156970197436E-02 
1289	 4.13100400905866E-02 
1290	 4.15957516038779E-02 
1291	 4.16572982330292E-02 
1292	 4.12598844070086E-02 
1293	 4.10696046101648E-02 
1294	 4.15509515458383E-02 
1295	 4.11127145755059E-02 
1296	 4.04706464202876E-02 
1297	 4.12104729311097E-02 
1298	 4.16210735081928E-02 
1299	 4.09141675109369E-02 
1300	 4.04647517756454E-02 
1301	 4.04846782388498E-02 
1302	 4.03426700544513E-02 
1303	 3.98231085648686E-02 
1304	 3.89543000736425E-02 
1305	 3.86342906855644E-02 
1306	 3.89537469208854E-02 
1307	 3.95687387353349E-02 
1308	 3.92099948214684E-02 
1309	 3.89162754230941E-02 
1310	 3.93113011017469E-02 
1311	 0.039479509602668 
1312	 3.87596364917382E-02 
1313	 3.85880163141941E-02 
1314	 3.87656491048485E-02 
1315	 3.74740921396514E-02 
1316	 3.64222310753598E-02 
1317	 3.65130089344212E-02 
1318	 3.67474317018891E-02 
1319	 3.62796170109747E-02 
1320	 3.58067866544158E-02 
1321	 3.56136875066112E-02 
1322	 3.73515587880183E-02 
1323	 3.82045341456197E-02 
1324	 3.74746577751507E-02 
1325	 3.73428985251186E-02 
1326	 3.74760952489497E-02 
1327	 3.72100095024833E-02 
1328	 3.55630961483005E-02 
1329	 3.46852073104812E-02 
1330	 3.53215847641579E-02 
1331	 3.41333639470033E-02 
1332	 3.39734316927209E-02 
1333	 3.50576501378036E-02 
1334	 3.53105715923032E-02 
1335	 3.48722522974536E-02 
1336	 3.37911819492954E-02 
1337	 3.34617903379215E-02 
1338	 3.24941869282981E-02 
1339	 3.31339043880816E-02 
1340	 0.036661970286005 
1341	 3.64549768101437E-02 
1342	 3.26172351497706E-02 
1343	 3.29325916739327E-02 
1344	 3.38227803399978E-02 
1345	 3.45500282897768E-02 
1346	 0.043308175061102 
1347	 0.04942573742379 
1348	 4.93497099895956E-02 
1349	 5.26868055527671E-02 
1350	 0.063085160005066 
1351	 6.53389045663036E-02 
1352	 4.41997146574142E-02 
1353	 0.030877845826208 
1354	 4.43482728226842E-02 
1355	-4.03571780497557E-02 
1356	-0.14091734170759 
1357	-0.169642030816262 
1358	-0.15645185292387 
1359	-0.132276570105175 
1360	-0.165138597676771 
1361	-0.256322415055195 
1362	-0.367353009481774 
1363	-0.302437155434107 
1364	-0.253670551821111 
1365	-0.336334055209048 
1366	-0.494804042819176 
1367	-0.342382390111367 
1368	-0.365466965332667 
1369	-0.350502493638205 
1370	-0.148713340285777 
1371	 2.65044591588241E-02 
1372	 0.05210250972567 
1373	 0.256430625375795 
1374	 0.435879740131913 
1375	 0.34001337614931 
1376	 0.323379841328784 
1377	 0.302523485706306 
1378	 0.3375730580893 
1379	 0.376216607861046 
1380	 0.482826533285828 
1381	 0.964279485994134 
1382	 1.01109097452952 
1383	 1.03745754229442 
1384	 1.26271316040566 
1385	 0.263136145598537 
1386	 4.74032894225122E-02 
1387	-0.153778131797881 
1388	-0.281593203656862 
1389	 0.745567015568475 
1390	 0.887306293598798 
1391	 1.7858949032673 
1392	 1.95825154309187 
1393	 1.17519646933802 
1394	-2.71072624340788 
1395	-0.566138763180112 
1396	-7.40635152155878E-02 
1397	-0.753767683339298 
1398	-1.87823009319571E-02 
1399	 0.721633084068385 
1400	 1.48021652904596 
1401	 1.69783822796473 
1402	 2.89057125075942 
1403	 3.48135658838229 
1404	 1.61145754510676 
1405	 1.27136067788708 
1406	 1.35615538308774 
1407	 0.650333993203023 
1408	-0.21003532848973 
1409	-0.310876470156552 
1410	-0.199714802341448 
1411	-0.206031954296972 
1412	 0.145381762018487 
1413	 0.252059865822942 
1414	-0.149031364167164 
1415	 3.34337305841396E-02 
1416	 0.177381024462975 
1417	 0.202037275316528 
1418	 0.373581028076311 
1419	 0.362927001097601 
1420	 0.26548279671334 
1421	 0.183041918582279 
1422	 3.62943337029458E-02 
1423	 3.41278057267987E-02 
1424	 6.33413021803002E-02 
1425	 0.058638830046281 
1426	 0.118441087807338 
1427	 0.12633645543063 
1428	 8.68764266913052E-02 
1429	 5.58346131346544E-02 
1430	-4.49982170923116E-03 
1431	 5.2349549888352E-03 
1432	 7.17843302824974E-02 
1433	 6.09374890886797E-02 
1434	 3.29970539741756E-02 
1435	 4.18942172898887E-02 
1436	-4.15887083119006E-03 
1437	-5.40305772615242E-03 
1438	 7.63838781357557E-02 
1439	 9.58771104610657E-02 
1440	 7.44578044641649E-02 
1441	 7.99542940757379E-02 
1442	 7.13083990133178E-02 
1443	 0.037018627821827 
1444	 2.49629925273501E-02 
1445	 2.77552061838035E-02 
1446	 2.71520048402442E-02 
1447	 2.61735387213292E-02 
1448	 1.61712177186246E-02 
1449	 9.93007478091054E-03 
1450	 8.90980563812679E-03 
1451	 0.010717389530877 
1452	 1.89983935789321E-02 
1453	 1.90695798618249E-02 
1454	 2.17685927623784E-02 
1455	 2.65064284488753E-02 
1456	 2.69178403655846E-02 
1457	 2.37244233944097E-02 
1458	 2.58641692767418E-02 
1459	 2.90474176768771E-02 
1460	 2.94475898023121E-02 
1461	 3.34024186431271E-02 
1462	 3.39332701218622E-02 
1463	 2.64631537004129E-02 
1464	 2.74883482538189E-02 
1465	 3.51868831053914E-02 
1466	 3.66001070304539E-02 
1467	 3.88796786132035E-02 
1468	 0.040178858054883 
1469	 3.73850203103359E-02 
1470	 3.81276909907899E-02 
1471	 0.040161487307872 
1472	 3.97664716773867E-02 
1473	 3.97847591272355E-02 
1474	 0.038328109215274 
1475	 3.52250008963487E-02 
1476	 3.37713804231173E-02 
1477	 3.25877794458714E-02 
1478	 3.16595294187518E-02 
1479	 3.04182676857585E-02 
1480	 3.00635649701733E-02 
1481	 3.13343231951026E-02 
1482	 3.03234205593185E-02 
1483	 2.62915639110382E-02 
1484	 0.028048024830738 
1485	 0.032987876781153 
1486	 3.36247646104461E-02 
1487	 3.43554776195501E-02 
1488	 3.55041396890786E-02 
1489	 3.44929845604225E-02 
1490	 3.46933751341957E-02 
1491	 3.69219599845432E-02 
1492	 3.73139720626242E-02 
1493	 3.58830669299981E-02 
1494	 3.65661643423642E-02 
1495	 0.038668421208771 
1496	 3.87653157058996E-02 
1497	 3.82949266738728E-02 
1498	 3.86579157571206E-02 
1499	 0.03862673024751 
1500	 0.038352050376927 
1501	 3.87449858446467E-02 
1502	 3.91643471794195E-02 
1503	 3.88343737307035E-02 
1504	 0.03861791238416 
1505	 3.91299522103652E-02 
1506	 3.91632719824626E-02 
1507	 3.89086096320478E-02 
1508	 3.87941680624831E-02 
1509	 3.88449682064308E-02 
1510	 0.039022711976808 
1511	 3.92213994265688E-02 
1512	 3.94516367398636E-02 
1513	 3.94232221678119E-02 
1514	 3.94572049688414E-02 
1515	 3.93925918567802E-02 
1516	 3.92216764272614E-02 
1517	 3.99761449523511E-02 
1518	 4.07536228755688E-02 
1519	 4.00501581868137E-02 
1520	 3.97427604519477E-02 
1521	 4.03965254494398E-02 
1522	 4.03389854597347E-02 
1523	 4.04278876216219E-02 
1524	 4.10389564315939E-02 
1525	 4.07402565533424E-02 
1526	 4.02183020234039E-02 
1527	 0.040744946768481 
1528	 4.17050516113954E-02 
1529	 4.18069369292184E-02 
1530	 0.041105562060415 
1531	 4.12821424600606E-02 
1532	 0.041606821002898 
1533	 0.041455686389622 
1534	 4.20336580904968E-02 
1535	 4.25273443525418E-02 
1536	 4.21365255004673E-02 
1537	 4.12968768241341E-02 
1538	 4.11128165020564E-02 
1539	 4.12452002602225E-02 
1540	 0.040885064661997 
1541	 4.13668282094452E-02 
1542	 4.21294888557937E-02 
1543	 4.21200118647611E-02 
1544	 4.20533874284918E-02 
1545	 4.19893542993007E-02 
1546	 0.042299289825959 
1547	 0.042688388643502 
1548	 4.24808903654817E-02 
1549	 4.24827189396201E-02 
1550	 0.042437655061495 
1551	 4.21639187615763E-02 
1552	 4.24630488491872E-02 
1553	 4.27702338979006E-02 
1554	 4.26873335177671E-02 
1555	 4.23478342482745E-02 
1556	 4.21131310474496E-02 
1557	 4.23875297000282E-02 
1558	 4.26523128010244E-02 
1559	 4.29702127308441E-02 
1560	 4.35433589661875E-02 
1561	 4.33231956787199E-02 
1562	 4.26639471355525E-02 
1563	 4.28790358896124E-02 
1564	 4.32163625938628E-02 
1565	 4.32461935142276E-02 
1566	 4.33549287035932E-02 
1567	 4.33536702455328E-02 
1568	 4.32251125814985E-02 
1569	 4.29841397654673E-02 
1570	 4.30118555823695E-02 
1571	 4.34682844540208E-02 
1572	 0.043515273069163 
1573	 4.27358123505348E-02 
1574	 4.25528775111811E-02 
1575	 4.33435472688327E-02 
1576	 4.30672385889787E-02 
1577	 4.23349241240686E-02 
1578	 0.042593911998005 
1579	 4.25229487464058E-02 
1580	 4.23142441906525E-02 
1581	 4.31612749994892E-02 
1582	 4.38243085993508E-02 
1583	 4.32430313986062E-02 
1584	 4.27541244199824E-02 
1585	 4.29149150441911E-02 
1586	 4.31126223774864E-02 
1587	 4.33333107755449E-02 
1588	 4.34730972964016E-02 
1589	 4.35917647402636E-02 
1590	 4.35224093731335E-02 
1591	 4.36564846861537E-02 
1592	 4.39288614235758E-02 
1593	 4.32735018241159E-02 
1594	 0.042930514200038 
1595	 4.33305509600797E-02 
1596	 4.30355019230722E-02 
1597	 4.29291939461856E-02 
1598	 4.32989022961442E-02 
1599	 4.30816892893334E-02 
1600	 4.31199694231678E-02 
1601	 4.35524626457711E-02 
1602	 4.36076915777358E-02 
1603	 0.043348656829617 
1604	 4.29579591909993E-02 
1605	 4.26993726676268E-02 
1606	 4.27710309838038E-02 
1607	 4.36458611381007E-02 
1608	 4.42062105650926E-02 
1609	 4.34540495064092E-02 
1610	 4.31051656998956E-02 
1611	 4.35176569661061E-02 
1612	 4.34984117431563E-02 
1613	 4.33454847922327E-02 
1614	 4.33722598780582E-02 
1615	 4.29247528445545E-02 
1616	 4.26787426947936E-02 
1617	 4.35374757077394E-02 
1618	 4.42479964809554E-02 
1619	 4.37838757488315E-02 
1620	 4.37096965931253E-02 
1621	 4.43126758532929E-02 
1622	 4.42569846376303E-02 
1623	 4.40498152325686E-02 
1624	 4.35910039608656E-02 
1625	 4.29006166743273E-02 
1626	 4.28048039351474E-02 
1627	 4.29901055053643E-02 
1628	 4.31624257414523E-02 
1629	 4.33393953655542E-02 
1630	 4.35647976279365E-02 
1631	 4.36758910942548E-02 
1632	 4.38422894752278E-02 
1633	 4.37084763088947E-02 
1634	 4.30343702227475E-02 
1635	 4.29516726983673E-02 
1636	 4.28199456566017E-02 
1637	 0.04237220742027 
1638	 4.29808566410264E-02 
1639	 4.36237626774818E-02 
1640	 4.33896897490658E-02 
1641	 0.043314913816522 
1642	 4.35188329762439E-02 
1643	 4.36089608665041E-02 
1644	 4.40031194809325E-02 
1645	 4.45062602915087E-02 
1646	 4.40986655281934E-02 
1647	 4.34641058264381E-02 
1648	 4.35557309406603E-02 
1649	 4.33579270826034E-02 
1650	 4.27050235562439E-02 
1651	 4.27739416310302E-02 
1652	 4.34394620367783E-02 
1653	 4.36923221119862E-02 
1654	 4.37147772421527E-02 
1655	 4.30810823777136E-02 
1656	 4.29234216336323E-02 
1657	 4.30344316075277E-02 
1658	 0.043382599142058 
1659	 4.43673120305269E-02 
1660	 4.41417367676554E-02 
1661	 4.30956712126271E-02 
1662	 4.31689918739691E-02 
1663	 4.30736003101961E-02 
1664	 4.29686244803379E-02 
1665	 4.38722639769896E-02 
1666	 4.40061335766792E-02 
1667	 0.04331608032944 
1668	 4.37816776812719E-02 
1669	 4.41160875054806E-02 
1670	 4.43587670071022E-02 
1671	 4.41348753080969E-02 
1672	 4.37494504529564E-02 
1673	 4.37554112748867E-02 
1674	 0.043675048411372 
1675	 4.32950598983142E-02 
1676	 4.34179202275984E-02 
1677	 4.37506656379806E-02 
1678	 4.32436883329069E-02 
1679	 4.29030139498795E-02 
1680	 4.34848051429375E-02 
1681	 4.36224911551655E-02 
1682	 4.31519582455686E-02 
1683	 4.33537979431025E-02 
1684	 4.35359538206429E-02 
1685	 4.32743276853529E-02 
1686	 4.39336497527239E-02 
1687	 4.47084909450711E-02 
1688	 4.39663884472434E-02 
1689	 4.34195606343659E-02 
1690	 4.38823895655778E-02 
1691	 4.40114946264399E-02 
1692	 4.39881631285694E-02 
1693	 4.35063225073854E-02 
1694	 4.26126270629706E-02 
1695	 4.26680408717172E-02 
1696	 4.36384668052654E-02 
1697	 4.42873701601852E-02 
1698	 0.04363012955845 
1699	 4.26598389388203E-02 
1700	 4.27809376473371E-02 
1701	 4.32760149887465E-02 
1702	 4.32553451657556E-02 
1703	 4.29710605357911E-02 
1704	 4.25809678097204E-02 
1705	 4.18599868462414E-02 
1706	 4.16762633425349E-02 
1707	 0.042452391366588 
1708	 0.042696464438574 
1709	 4.20303413410051E-02 
1710	 4.23289708400369E-02 
1711	 0.04253673198798 
1712	 4.14573436563956E-02 
1713	 4.22686226427015E-02 
1714	 4.23592526059174E-02 
1715	 4.26835434270763E-02 
1716	 4.27224252962982E-02 
1717	 4.15704399724612E-02 
1718	 4.20047411704714E-02 
1719	 4.35482228770825E-02 
1720	 4.38557817341547E-02 
1721	 4.44540733355511E-02 
1722	 4.41535310897431E-02 
1723	 4.20929212292403E-02 
1724	 4.15981581577964E-02 
1725	 4.27131861938235E-02 
1726	 4.30820844009944E-02 
1727	 4.33369395825892E-02 
1728	 0.043122576490599 
1729	 4.02843578510544E-02 
1730	 3.90363016269493E-02 
1731	 4.09895649359132E-02 
1732	 4.17176804484417E-02 
1733	 4.25040019707457E-02 
1734	 4.27098365129078E-02 
1735	 3.98556854419218E-02 
1736	 0.038971203669675 
1737	 4.11863408876398E-02 
1738	 4.28642504606744E-02 
1739	 4.36982207974445E-02 
1740	 4.33509583385268E-02 
1741	 4.19584787800625E-02 
1742	 4.17709593208499E-02 
1743	 4.27558648129485E-02 
1744	 4.20106534951826E-02 
1745	 0.041370375811088 
1746	 4.08437793788942E-02 
1747	 4.04667293036586E-02 
1748	 4.28195626091424E-02 
1749	 4.32765507939323E-02 
1750	 4.16273568616905E-02 
1751	 4.14051474816082E-02 
1752	 4.14256869037915E-02 
1753	 4.15090035721819E-02 
1754	 4.22154146321298E-02 
1755	 4.18030264395046E-02 
1756	 4.06859358629562E-02 
1757	 0.040443612001599 
1758	 0.040609131553542 
1759	 4.15502913380098E-02 
1760	 4.26892325898351E-02 
1761	 4.15393980078998E-02 
1762	 3.97954366865884E-02 
1763	 0.039301189544314 
1764	 3.86050923624965E-02 
1765	 3.95016710284977E-02 
1766	 4.10023378445435E-02 
1767	 4.03575132154366E-02 
1768	 4.01462250005877E-02 
1769	 4.04628232530031E-02 
1770	 3.90606170579976E-02 
1771	 3.81788488454671E-02 
1772	 3.80263719799082E-02 
1773	 3.83420532010659E-02 
1774	 4.06142116290502E-02 
1775	 4.63890086781666E-02 
1776	 4.72877575608427E-02 
1777	 4.27707663994237E-02 
1778	 4.14479709019933E-02 
1779	 3.73922464377647E-02 
1780	 3.58989590165179E-02 
1781	 4.06857002143741E-02 
1782	 4.08637788841295E-02 
1783	 3.85667450896651E-02 
1784	 3.73002646510919E-02 
1785	 3.34327259251329E-02 
1786	 3.04219357758936E-02 
1787	 2.75148622506263E-02 
1788	 0.030299053174929 
1789	 0.039301011063465 
1790	 4.54840414988025E-02 
1791	 4.37725475278616E-02 
1792	 3.60803702699445E-02 
1793	 2.56316584410553E-02 
1794	 2.49613893577411E-02 
1795	 3.75329051218887E-02 
1796	 4.84835340859093E-02 
1797	 5.56755236378702E-02 
1798	 0.068026053271936 
1799	 0.079570366950443 
1800	 7.49539951541078E-02 
1801	 5.49763730741483E-02 
1802	-6.22476525020247E-02 
1803	-9.91972409986221E-02 
1804	-4.20923246233035E-02 
1805	-2.34572534964433E-03 
1806	 0.273772218763294 
1807	 0.540125459655671 
1808	 0.665656026485353 
1809	 0.636597558724038 
1810	 0.142390059700959 
1811	 0.061081263749292 
1812	 5.05062143973744E-02 
1813	 2.36072149566027E-02 
1814	-0.923362594476219 
1815	-3.44201968073654E-02 
1816	-79.0284766934213 
1817	-2.82650517012603 
1818	-0.888683345066203 
1819	-0.278235848639794 
1820	 2.17074413244653 
1821	-1.39385476796948 
1822	-1.5573189856399 
1823	 0.678007466777638 
1824	-8.91962573734221E-02 
1825	-8.54999692341126E-02 
1826	-0.164484792500502 
1827	-14.7431131275155 
1828	-2.130973264844 
1829	-0.850464496264412 
1830	-0.670878935755673 
1831	-2.42449569625386 
1832	-2.30392159455632 
1833	-0.717005156951302 
1834	-1.08633923948213 
1835	-13.2695037392147 
1836	 122.727509958678 
1837	 5.9222656242853 
1838	 23.4883086188626 
1839	-0.528817977779807 
1840	 0.222005899201927 
1841	 0.771878964823367 
1842	 1.20808875719506 
1843	 1.44021927817274 
1844	 4.09057985637018 
1845	 13.5026202247248 
1846	 2.95026073773857 
1847	 1.37076240941164 
1848	 0.605553051897493 
1849	 0.316723696799626 
1850	 0.101861203067967 
1851	 2.69265308450714E-02 
1852	-0.346640275799635 
1853	-6.55590833626341 
1854	 7.09535185407977 
1855	 0.943895783029562 
1856	 0.377963896544924 
1857	-1.38538554116486 
1858	-2.62326124067406 
1859	-3.03450278497022 
1860	-2.21424142562435 
1861	-4.81184144277941 
1862	-0.347752561174517 
1863	 1.06511183269457 
1864	-1.3329568763904 
1865	-0.460993027658078 
1866	-0.666786034083854 
1867	-0.838213059844252 
1868	-1.60790206577204 
1869	 2.43809769826669 
1870	 0.198033131862201 
1871	 0.240267640893762 
1872	 0.301657563225004 
1873	 0.555828831987894 
1874	 0.810223598779496 
1875	 0.315125694797962 
1876	 0.210707148221917 
1877	 0.138047386676848 
1878	 0.21434996589933 
1879	 0.983094542633971 
1880	 1.5849703694117 
1881	 1.16743526244785 
1882	 1.41192818262488 
1883	 2.03454951791473 
1884	 0.907320997499521 
1885	 1.47552881826969 
1886	 0.439065700555615 
1887	-1.7982713337426 
1888	-1.03528932356146 
1889	-1.27654079268856 
1890	-1.39645712555498 
1891	-0.816339166962676 
1892	-1.05230554552134 
1893	-0.124405897478881 
1894	 0.242150937792851 
1895	 0.327750306351642 
1896	 0.111584801702277 
1897	-1.59794754804915 
1898	-10.8130783835751 
1899	-3.84851809615135 
1900	-1.05429090408545 
1901	 9.35339500839334E-02 
1902	 0.232106161152265 
1903	 0.545725675307116 
1904	-0.490710839656927 
1905	-0.638381615900001 
1906	-0.535687403551866 
1907	-0.351014161305901 
1908	-0.418287063942466 
1909	-0.634911318500219 
1910	 0.809989428906888 
1911	-0.892700096559916 
1912	-1.72064514710064 
1913	-1.87870559234638 
1914	-1.47233979070502 
1915	-1.08911580827536 
1916	-1.35973978776546 
1917	-0.329462910229485 
1918	-1.41989015462929E-02 
1919	-0.938956729510112 
1920	-1.00478968662579 
1921	-0.42294463669773 
1922	-8.68982777468532E-02 
1923	-0.111630135005559 
1924	 0.206984605740317 
1925	 0.722002217689502 
1926	 0.638757012133689 
1927	-3.74314878537164 
1928	 6.50788799788522 
1929	-2.95639652979553 
1930	-0.392958475840266 
1931	-0.145800654338164 
1932	-0.222463136615865 
1933	-1.11193876770428 
1934	-3.256214660746 
1935	-1.7434177975335 
1936	 2.04287584285672 
1937	 0.364632379450211 
1938	 0.295451947843635 
1939	 0.663383322479087 
1940	-14.9619331046438 
1941	-0.847592897548734 
1942	 1.03948400626299 
1943	-6.81944145749825 
1944	-0.378091888450506 
1945	 1.10628575850829 
1946	 0.791678181878771 
1947	 0.904645740760766 
1948	 1.07371868167029 
1949	 0.564982276112258 
1950	 0.200654727694709 
1951	 5.53761989882222E-02 
1952	-3.76825924320569E-02 
1953	-0.107720626671059 
1954	-0.042389654177843 
1955	-3.02304985771412E-02 
1956	-2.57939998674352E-02 
1957	-2.12563441665451E-02 
1958	-3.21823576142308E-02 
1959	 3.00871402818105E-02 
1960	 3.60047594442532E-02 
1961	 3.63702707577585E-02 
1962	 4.99566056748859E-02 
1963	 1.68599491239828E-02 
1964	 5.1545962155585E-03 
1965	 1.22050157195591E-02 
1966	 1.66676196215974E-02 
1967	 2.06699861363336E-02 
1968	 2.69986077346369E-02 
1969	 2.62912848988594E-02 
1970	 3.02070556544774E-02 
1971	 2.79411066437755E-02 
1972	 2.33525204020984E-02 
1973	 2.90887183449571E-02 
1974	 2.95621133372019E-02 
1975	 3.18365587168836E-02 
1976	 3.39376616495209E-02 
1977	 3.23699864208705E-02 
1978	 3.30784362191117E-02 
1979	 3.49626246649214E-02 
1980	 3.59336978608166E-02 
1981	 4.17410451565906E-02 
1982	 4.48142692170939E-02 
1983	 0.04508705564203 
1984	 4.38828563194247E-02 
1985	 3.78483108194523E-02 
1986	 3.69328133135161E-02 
1987	 3.84119115490339E-02 
1988	 3.68924309900995E-02 
1989	 3.57810509418481E-02 
1990	 3.54849467457794E-02 
1991	 3.24256376247791E-02 
1992	 2.69401225282276E-02 
1993	 2.49777789534032E-02 
1994	 2.43653724902868E-02 
1995	 0.023783266088433 
1996	 0.022473036094361 
1997	 2.66052023981377E-02 
1998	 3.43126643844538E-02 
1999	 3.93356007190573E-02 
2000	 4.76849735434268E-02 
2001	 6.26394815529622E-02 
2002	 6.07751180074191E-02 
2003	 5.25268994164112E-02 
2004	 5.10449686037685E-02 
2005	 4.20040489143841E-02 
2006	 4.31488340671746E-02 
2007	 5.13133886017433E-02 
2008	 5.21612920452347E-02 
2009	 5.09489193889197E-02 
2010	 0.046811625790777 
2011	 4.70597202391193E-02 
2012	 4.92173475054408E-02 
2013	 4.26522409039891E-02 
2014	 4.04815483873316E-02 
2015	 0.033811559274353 
2016	 0.024253918289226 
2017	 2.50928865002012E-02 
2018	 3.17717775757363E-02 
2019	 3.74025406294429E-02 
2020	 3.98117849168322E-02 
2021	 3.99826934905387E-02 
2022	 3.85593710997515E-02 
2023	 0.035600986059908 
2024	 3.72499280761912E-02 
2025	 0.043715163107211 
2026	 4.63522581091124E-02 
2027	 4.98957269869767E-02 
2028	 5.11574769814918E-02 
2029	 0.046811770358055 
2030	 4.13326883744373E-02 
2031	 3.75582530144733E-02 
2032	 3.51984344842721E-02 
2033	 3.62740399103946E-02 
2034	 3.64142619416313E-02 
2035	 3.64549381598342E-02 
2036	 0.035795504576399 
2037	 0.035955945803894 
2038	 3.67850176962845E-02 
2039	 3.73554227875083E-02 
2040	 3.91483666208826E-02 
2041	 3.98232718948966E-02 
2042	 0.038624757955119 
2043	 3.91123811182799E-02 
2044	 4.06729970098894E-02 
2045	 3.96789081201017E-02 
2046	 4.01025748212053E-02 
2047	 4.25322601594958E-02 
2048	 4.34509245546834E-02 
2049	 4.38261022794212E-02 
2050	 4.34701076579716E-02 
2051	 4.26684902241152E-02 
2052	 4.20900538946179E-02 
2053	 4.16914732989594E-02 
2054	 4.20309568302774E-02 
2055	 4.23701024450057E-02 
2056	 4.04991124289874E-02 
2057	 3.49274739454238E-02 
2058	 3.31323644790206E-02 
2059	 3.04419291694484E-02 
2060	 3.07280123707336E-02 
2061	 3.50654980452029E-02 
2062	 3.82421995173659E-02 
2063	 3.87110486587013E-02 
2064	 3.90855634753265E-02 
2065	 3.76622987804314E-02 
2066	 3.62844116521363E-02 
2067	 3.69873208534675E-02 
2068	 3.80160698632703E-02 
2069	 3.71043881459633E-02 
2070	 3.72365858769262E-02 
2071	 4.05258861494911E-02 
2072	 4.21318405417793E-02 
2073	 4.14258637885249E-02 
2074	 3.90273022591206E-02 
2075	 0.039012504306726 
2076	 3.78614083956351E-02 
2077	 3.80231399096164E-02 
2078	 4.06121654677123E-02 
2079	 4.29368673834911E-02 
2080	 4.57101205775245E-02 
2081	 4.55404246843505E-02 
2082	 4.70538992807575E-02 
2083	 4.93129059555562E-02 
2084	 4.71785743217858E-02 
2085	 4.50685556322734E-02 
2086	 4.09936275315914E-02 
2087	 3.82257241147506E-02 
2088	 3.78570197895274E-02 
2089	 3.63455058978906E-02 
2090	 3.99136163098244E-02 
2091	 4.15979544586105E-02 
2092	 4.20810780864099E-02 
2093	 4.36769577649316E-02 
2094	 4.34567388445509E-02 
2095	 3.93304790852709E-02 
2096	 3.75373733589237E-02 
2097	 3.56332182513217E-02 
2098	 3.41530638673674E-02 
2099	 3.18114357610332E-02 
2100	 3.40401591971264E-02 
2101	 3.69021194548174E-02 
2102	 3.60579146727378E-02 
2103	 3.73107386292546E-02 
2104	 3.96675652194747E-02 
2105	 4.00207173078905E-02 
2106	 4.41115401594554E-02 
2107	 4.77781003378006E-02 
2108	 4.74347324556467E-02 
2109	 4.81399956095422E-02 
2110	 4.54074279471524E-02 
2111	 4.07605809475744E-02 
2112	 3.93771619343669E-02 
2113	 3.75713206113171E-02 
2114	 3.53064354635918E-02 
2115	 3.54899577328532E-02 
2116	 0.037792993008848 
2117	 3.80755727940492E-02 
2118	 3.82282808683079E-02 
2119	 3.98773733035527E-02 
2120	 4.15299908926925E-02 
2121	 4.34079638422572E-02 
2122	 0.046521597044688 
2123	 4.82172407725903E-02 
2124	 4.39757717795819E-02 
2125	 4.24943850178354E-02 
2126	 4.47454581520662E-02 
2127	 4.37596876713314E-02 
2128	 4.56819311054899E-02 
2129	 4.72547067064205E-02 
2130	 4.48039390842936E-02 
2131	 4.35933490934743E-02 
2132	 4.10773765719235E-02 
2133	 3.80342621844838E-02 
2134	 3.75269694027123E-02 
2135	 3.78626647631694E-02 
2136	 3.82964184836912E-02 
2137	 4.17240347830252E-02 
2138	 4.29430035483965E-02 
2139	 4.26347207820404E-02 
2140	 0.042504218160317 
2141	 4.13570105086084E-02 
2142	 4.16554759429755E-02 
2143	 4.14584434878117E-02 
2144	 4.39418472521207E-02 
2145	 4.73772541794534E-02 
2146	 5.14240717934079E-02 
2147	 5.21849313485628E-02 
2148	 4.88695934821573E-02 
2149	 4.52093224775331E-02 
2150	 3.94933059787686E-02 
2151	 3.57889402663843E-02 
2152	 3.64359342312441E-02 
2153	 3.91648939380298E-02 
2154	 4.13344793141562E-02 
2155	 4.29184246475086E-02 
2156	 4.32244103615388E-02 
2157	 4.41642653045624E-02 
2158	 4.58272802679117E-02 
2159	 4.46160061768865E-02 
2160	 0.042088438413495 
2161	 4.07941087383629E-02 
2162	 3.48787506439832E-02 
2163	 3.24913075947793E-02 
2164	 3.34728485833529E-02 
2165	 3.53677696594155E-02 
2166	 4.00570348948384E-02 
2167	 4.26560789600972E-02 
2168	 4.69017922427673E-02 
2169	 4.79761172051999E-02 
2170	 4.58332562057953E-02 
2171	 4.34211770254779E-02 
2172	 4.19452545322888E-02 
2173	 4.19758738352513E-02 
2174	 3.83101469798712E-02 
2175	 3.53687180328929E-02 
2176	 3.50083406813381E-02 
2177	 3.33332255698594E-02 
2178	 3.63123251958802E-02 
2179	 4.36944234605969E-02 
2180	 4.81351883188608E-02 
2181	 4.80162495921791E-02 
2182	 4.62718504827266E-02 
2183	 4.32399270770021E-02 
2184	 3.87890571398109E-02 
2185	 3.74027121836299E-02 
2186	 3.80087357211292E-02 
2187	 4.20571347566098E-02 
2188	 4.25300902428176E-02 
2189	 4.39888922103728E-02 
2190	 4.49871468902093E-02 
2191	 4.28835743885029E-02 
2192	 4.29952542595146E-02 
2193	 4.66483722646255E-02 
2194	 4.65447215290294E-02 
2195	 4.45799318756641E-02 
2196	 4.18500230297532E-02 
2197	 3.34871791807673E-02 
2198	 0.031448838957901 
2199	 3.03873770947603E-02 
2200	 3.55754485881878E-02 
2201	 4.14126383706474E-02 
2202	 4.81827658750195E-02 
2203	 4.96723292225946E-02 
2204	 4.78839908724251E-02 
2205	 5.17141481328241E-02 
2206	 4.96124084460286E-02 
2207	 4.70770673073368E-02 
2208	 0.05056898799451 
2209	 4.67870480274397E-02 
2210	 4.30778639870072E-02 
2211	 4.17161965353006E-02 
2212	 3.61728156323646E-02 
2213	 3.57613505597761E-02 
2214	 3.87280058886041E-02 
2215	 3.97633011874817E-02 
2216	 4.20391712307714E-02 
2217	 4.30961086906677E-02 
2218	 4.18895170717002E-02 
2219	 4.11486010668902E-02 
2220	 4.10467071467007E-02 
2221	 0.041511153888951 
2222	 4.16641427741386E-02 
2223	 3.87499651376018E-02 
2224	 0.034274144957391 
2225	 0.032891148372452 
2226	 3.00941080735709E-02 
2227	 2.98099229517734E-02 
2228	 3.44242952407375E-02 
2229	 3.62250646197536E-02 
2230	 3.60717349357928E-02 
2231	 3.61855024865425E-02 
2232	 3.62246733937245E-02 
2233	 3.78554567977276E-02 
2234	 3.85956708627673E-02 
2235	 4.33106574317774E-02 
2236	 0.046603520468303 
2237	 4.25088662040708E-02 
2238	 3.86450443440574E-02 
2239	 3.83564343291533E-02 
2240	 4.18185656282059E-02 
2241	 4.92733490910866E-02 
2242	 5.34030633340253E-02 
2243	 5.00641788815487E-02 
2244	 0.045294890929256 
2245	 4.26857595521626E-02 
2246	 0.042355625645475 
2247	 0.042404087236766 
2248	 4.27045055122757E-02 
2249	 4.16556943997933E-02 
2250	 0.04201093004678 
2251	 4.52811155248124E-02 
2252	 4.54670871150175E-02 
2253	 4.80076387272378E-02 
2254	 4.82961186372456E-02 
2255	 4.20087850367459E-02 
2256	 3.62960723492039E-02 
2257	 2.72368686831756E-02 
2258	 2.05507307586923E-02 
2259	 2.32354768616154E-02 
2260	 2.56049619206211E-02 
2261	 3.39196230278269E-02 
2262	 4.09338107790925E-02 
2263	 0.048204545249288 
2264	 0.053890262440293 
2265	 6.11173286759501E-02 
2266	 6.19038666969954E-02 
2267	 6.14015828752894E-02 
2268	 5.84903179505969E-02 
2269	 4.68337165286246E-02 
2270	 4.36152639673948E-02 
2271	 4.32919290633383E-02 
2272	 4.36644739418789E-02 
2273	 4.78147180353925E-02 
2274	 4.92380492023796E-02 
2275	 4.91623840091667E-02 
2276	 4.99896446868558E-02 
2277	 0.05359532891997 
2278	 5.48903980456927E-02 
2279	 5.50450858822904E-02 
2280	 5.42249973451309E-02 
2281	 5.08365559795812E-02 
2282	 4.55025505839469E-02 
2283	 4.11605170354073E-02 
2284	 4.00115038777065E-02 
2285	 4.05443635220216E-02 
2286	 0.038333342457339 
2287	 3.70903556279214E-02 
2288	 3.67583432105854E-02 
2289	 2.61469610903207E-02 
2290	 2.06213357725523E-02 
2291	 2.59886284859338E-02 
2292	 2.04426331203184E-02 
2293	 1.99970073197706E-02 
2294	 2.89223188566186E-02 
2295	 2.92398729264457E-02 
2296	 3.09607478525934E-02 
2297	 0.03144569026444 
2298	 2.84390827025308E-02 
2299	 0.029170885622307 
2300	 3.78913139727205E-02 
2301	 4.85362952207466E-02 
2302	 5.31398146291128E-02 
2303	 5.62541812127394E-02 
2304	 0.046309639791581 
2305	 3.97821336670536E-02 
2306	 3.86501601023643E-02 
2307	 2.41484939692448E-02 
2308	 2.63392679816557E-02 
2309	 3.70846360869774E-02 
2310	 3.53156185200282E-02 
2311	 3.64544775630009E-02 
2312	 0.036630336389707 
2313	 3.36786665348494E-02 
2314	 3.82578379475084E-02 
2315	 4.47654220838715E-02 
2316	 4.67636760728669E-02 
2317	 4.90130190750092E-02 
2318	 4.41292556493821E-02 
2319	 4.73305480606554E-02 
2320	 6.14847148522103E-02 
2321	 4.58080334788289E-02 
2322	 2.75479276764851E-02 
2323	 3.13052243467983E-02 
2324	 2.56672211024247E-02 
2325	 2.53730189491612E-02 
2326	 5.57458815646731E-02 
2327	 6.43044283856303E-02 
2328	 4.07247624489287E-02 
2329	 4.10136409249161E-02 
2330	 3.54336710297158E-02 
2331	 1.95735980956958E-02 
2332	 0.03622361294465 
2333	 4.70787785325599E-02 
2334	 3.70488893489785E-02 
2335	 2.29040822035315E-02 
2336	 1.97417736977134E-02 
2337	 3.33339401993964E-02 
2338	 4.04916802316327E-02 
2339	 6.02719888329381E-02 
2340	 0.064054072083657 
2341	 3.74778441342785E-02 
2342	 4.36255180503178E-02 
2343	 4.14607135367281E-02 
2344	 4.03175055761542E-02 
2345	 0.065581542852614 
2346	 6.86014340999655E-02 
2347	 4.65407931884782E-02 
2348	 4.33187988306997E-02 
2349	 5.71599572177741E-02 
2350	 2.74066521282312E-02 
2351	 4.43642403250639E-02 
2352	 9.73239326830217E-02 
2353	 8.19346037572297E-02 
2354	 9.71712485186392E-02 
2355	 0.113373389642739 
2356	 7.78543688766859E-02 
2357	 0.077522068734515 
2358	 0.107898110662506 
2359	 0.104977689760872 
2360	 0.073166596501362 
2361	 5.30347591036356E-02 
2362	 5.46947723983543E-02 
2363	 5.12227822268387E-02 
2364	 6.16880511937967E-02 
2365	 6.37630180422847E-02 
2366	 3.18069998850322E-02 
2367	 4.11750698401159E-02 
2368	 6.59174090662771E-02 
2369	 8.52521945573412E-02 
2370	 0.139545360419084 
2371	 0.139472703307357 
2372	 5.35626329636185E-02 
2373	-1.13358391960437E-02 
2374	-3.62856763480055E-02 
2375	-4.45852603054295E-02 
2376	 3.03378340657383E-02 
2377	 0.107080961127926 
2378	 0.120696633365267 
2379	 8.10636517445534E-02 
2380	-2.33919383947653E-02 
2381	-2.59347375485912E-02 
2382	 2.19702892670201E-03 
2383	 1.76443287432002E-02 
2384	 6.22069279479391E-02 
2385	 5.49283730187141E-02 
2386	-8.76530301266433E-03 
2387	-7.01703211245744E-02 
2388	-0.116409016796692 
2389	-7.20919302153183E-02 
2390	 3.17161083508955E-02 
2391	 0.128712526224285 
2392	 0.262704446121763 
2393	 0.338943567933975 
2394	 0.198132797763527 
2395	 0.097732376074051 
2396	 4.59430232965251E-02 
2397	 4.53545638217563E-02 
2398	 0.162177074373501 
2399	 0.250695554244903 
2400	 0.289964731427315 
2401	 0.357538921554819 
2402	 0.400697968132234 
2403	 0.297395880237099 
2404	 0.138402953918066 
2405	 0.067909322786268 
2406	 1.03081638206212E-02 
2407	-8.96253474452354E-03 
2408	 0.177672748915161 
2409	 0.405710369377747 
2410	 0.38940145776639 
2411	 0.435816023439637 
2412	 0.676327149442885 
2413	 0.290026604945592 
2414	-0.26699842876916 
2415	-0.431816024127698 
2416	-0.609108128382718 
2417	-0.441687941971117 
2418	-0.427923038499209 
2419	-0.466806255544735 
2420	-0.268924300747791 
2421	 0.546678941937317 
2422	 1.52760834166349 
2423	 3.98808418074294 
2424	 2.23984281901819 
2425	-1.51724125240325 
2426	-4.73398834861175 
2427	-0.481893867372602 
2428	-1.39580872284218E-02 
2429	 0.311674430274153 
2430	 0.413099969580616 
2431	 0.310616745620054 
2432	 6.11037366931642E-02 
2433	 6.62356038008113E-02 
2434	-0.302918656776193 
2435	-1.25577031654029 
2436	-2.24905173879862 
2437	-173.374919387658 
2438	 8.70466127206204E-02 
2439	-0.937461728454281 
2440	 31.6836603256883 
2441	 3.12734400248167 
2442	-0.47937141772114 
2443	-7.81266865732862E-02 
2444	-2.19698538656304 
2445	-1.1131248054161 
2446	-7.84768204924941E-02 
2447	 0.82869161814117 
2448	 0.713115226110579 
2449	-0.285314591511445 
2450	-0.543151443207549 
2451	-0.858145953586004 
2452	-0.638694511711857 
2453	-0.346264807976595 
2454	-0.131579566956179 
2455	-0.357428187265127 
2456	-0.255202804734631 
2457	 0.116254851961846 
2458	-0.130152453068183 
2459	-0.449513929998164 
2460	 0.13256542530619 
2461	-0.763031052056778 
2462	-0.675497109965523 
2463	-0.133986223212539 
2464	 0.106129635368689 
2465	 0.109508930744618 
2466	 0.586946403094434 
2467	 1.01736789370598 
2468	-0.716428183779614 
2469	-6.27165872947016 
2470	 3.3134155015385 
2471	 3.84251511143493 
2472	 1.56784082326335 
2473	 0.169770802895474 
2474	 1.18501789311941 
2475	 0.570448285866208 
2476	 0.432896423569642 
2477	 0.892346494413697 
2478	 0.606142620371109 
2479	 0.146846195698933 
2480	 0.221584677792969 
2481	-8.86539957095626E-02 
2482	-0.473314991176064 
2483	-0.516771583682498 
2484	-0.715520089029327 
2485	-0.342569670158347 
2486	 0.273864032615883 
2487	 1.0655969448079 
2488	 0.85475053251104 
2489	 0.388192534817022 
2490	 0.180309986139247 
2491	 0.016935629567674 
2492	-6.18664499935512E-02 
2493	 0.327739379069124 
2494	 1.16454295949316 
2495	 3.77789188246554 
2496	-26.1131915992102 
2497	-7.63748596861794 
2498	-12.333835061018 
2499	-8.02380596727491 
2500	-4.57227147782539 
