Wavelength	rt0713west_far_cloud300006.asd
350	 7.63392128206861E-02 
351	 0.075796133429451 
352	 7.62753365434489E-02 
353	 7.67589922532253E-02 
354	 0.076578170040407 
355	 7.67151828944295E-02 
356	 7.65245640767566E-02 
357	 0.076537897101921 
358	 7.72235582261539E-02 
359	 7.72943603241987E-02 
360	 7.70094737343522E-02 
361	 7.70696465685837E-02 
362	 7.81609011969111E-02 
363	 7.81402708092691E-02 
364	 7.78773913382706E-02 
365	 7.79777664811605E-02 
366	 7.80410395771964E-02 
367	 7.84100123724855E-02 
368	 7.85410605768637E-02 
369	 0.078170168980164 
370	 7.88351639691358E-02 
371	 7.93967982918948E-02 
372	 7.96220629016313E-02 
373	 0.079806146244949 
374	 7.96331656668901E-02 
375	 7.95643436274128E-02 
376	 7.98712664718472E-02 
377	 8.04439131676118E-02 
378	 8.05955943069121E-02 
379	 8.05248578456188E-02 
380	 8.05962807344286E-02 
381	 8.08663023172904E-02 
382	 8.16688479420356E-02 
383	 8.23830180027492E-02 
384	 8.21897041179026E-02 
385	 8.23639756839098E-02 
386	 8.22865140848041E-02 
387	 8.20690505169631E-02 
388	 8.27414518428448E-02 
389	 8.35884761586685E-02 
390	 8.38958090006182E-02 
391	 8.35863526944116E-02 
392	 8.40200433735191E-02 
393	 8.43535421702701E-02 
394	 8.45394787867199E-02 
395	 8.48307105394876E-02 
396	 8.54153757872815E-02 
397	 8.56743175268311E-02 
398	 8.56538485016108E-02 
399	 8.59644676924083E-02 
400	 8.62269279666047E-02 
401	 0.086302647192677 
402	 0.086287767233128 
403	 8.67218768210789E-02 
404	 8.70938921840893E-02 
405	 8.73000201542296E-02 
406	 8.73938449912096E-02 
407	 8.73303570924565E-02 
408	 8.75188687062557E-02 
409	 8.79319554244225E-02 
410	 8.81124684304467E-02 
411	 0.088163111707468 
412	 8.82821799303521E-02 
413	 8.85803705049981E-02 
414	 8.89299316668753E-02 
415	 8.92900785267653E-02 
416	 8.95566334206202E-02 
417	 8.96601278054373E-02 
418	 8.98214753577434E-02 
419	 9.01628341076424E-02 
420	 9.06009578282659E-02 
421	 9.08565659961617E-02 
422	 9.10344707691512E-02 
423	 9.13088028671379E-02 
424	 9.17302906275697E-02 
425	 9.19589731021149E-02 
426	 9.22660201822908E-02 
427	 9.26834541668469E-02 
428	 9.31288660566814E-02 
429	 9.36312924569398E-02 
430	 9.41189796069241E-02 
431	 9.45559853154679E-02 
432	 9.49608959624241E-02 
433	 9.51946642899104E-02 
434	 9.55176940356023E-02 
435	 9.60832856671669E-02 
436	 9.64694973800866E-02 
437	 9.69346802979316E-02 
438	 9.74460548733163E-02 
439	 9.78337886772635E-02 
440	 9.82556214504913E-02 
441	 9.86473826665712E-02 
442	 9.89824329352294E-02 
443	 9.93180298980971E-02 
444	 9.97973042314163E-02 
445	 0.100265300902567 
446	 0.100575622583442 
447	 0.100971637535154 
448	 0.101288912676743 
449	 0.101595590541446 
450	 0.102098927600343 
451	 0.102395387175596 
452	 0.102656629909185 
453	 0.103000966173748 
454	 0.103262481334868 
455	 0.103455027326491 
456	 0.103656406669355 
457	 0.103949802566529 
458	 0.104291388981689 
459	 0.104593806096904 
460	 0.104803729257574 
461	 0.104913789554322 
462	 0.105122542164002 
463	 0.105357425076083 
464	 0.105540284406278 
465	 0.105744593735487 
466	 0.105902893458687 
467	 0.106093940382075 
468	 0.106436608198803 
469	 0.106796582743771 
470	 0.106991029091462 
471	 0.107068831845297 
472	 0.107382544860826 
473	 0.107732721256281 
474	 0.108044483886043 
475	 0.108292973550537 
476	 0.108514148339947 
477	 0.108745754791091 
478	 0.109018090137476 
479	 0.109341181422456 
480	 0.10957075148726 
481	 0.109802296994353 
482	 0.110158533635767 
483	 0.110772119350765 
484	 0.11121487213284 
485	 0.111534354422774 
486	 0.111919343315993 
487	 0.112200129501513 
488	 0.112563580499416 
489	 0.113045717172755 
490	 0.113520688879885 
491	 0.113888631094191 
492	 0.114335474237258 
493	 0.114935505537727 
494	 0.115292206501954 
495	 0.11576866754302 
496	 0.116347857410063 
497	 0.116845030960803 
498	 0.117405350851977 
499	 0.118072210956824 
500	 0.118771592606235 
501	 0.119269079353496 
502	 0.119753398381468 
503	 0.120276000633119 
504	 0.120860957012317 
505	 0.121590816322415 
506	 0.122336263340458 
507	 0.122991245476281 
508	 0.123501972777117 
509	 0.124222397624916 
510	 0.125003734004684 
511	 0.125710957169623 
512	 0.126463148797436 
513	 0.127099696786542 
514	 0.127793901476555 
515	 0.128774959303627 
516	 0.129569051887453 
517	 0.130425478842074 
518	 0.131355302292227 
519	 0.132008572946619 
520	 0.132833675045348 
521	 0.13372915913384 
522	 0.134536844804881 
523	 0.135348868416014 
524	 0.136170554402436 
525	 0.137002764048081 
526	 0.137844662431391 
527	 0.138687293428217 
528	 0.139522718793809 
529	 0.140311937045406 
530	 0.140931140740694 
531	 0.141706603089386 
532	 0.142573761457653 
533	 0.143341032017974 
534	 0.144056173191914 
535	 0.144841529701278 
536	 0.145664308678081 
537	 0.14631174321711 
538	 0.147108752862251 
539	 0.147960107439315 
540	 0.148710460447596 
541	 0.149352649387806 
542	 0.150070384456309 
543	 0.15085702762596 
544	 0.151587843699943 
545	 0.152239646003054 
546	 0.152962411272953 
547	 0.153777643105265 
548	 0.154411184508742 
549	 0.155143429822031 
550	 0.155911617901774 
551	 0.156573827087707 
552	 0.157280317582959 
553	 0.157917562962312 
554	 0.158504935891167 
555	 0.159218507743983 
556	 0.159869801222273 
557	 0.160439920249427 
558	 0.16096498148735 
559	 0.161542231353048 
560	 0.162043767157529 
561	 0.162516935866523 
562	 0.163089281455734 
563	 0.163467041177673 
564	 0.163758287498114 
565	 0.164082357883433 
566	 0.164486449022223 
567	 0.164764673204135 
568	 0.165020458042265 
569	 0.165397549942305 
570	 0.165548968616816 
571	 0.165735226452609 
572	 0.165982896520377 
573	 0.166038373667356 
574	 0.166304266047536 
575	 0.166597228512667 
576	 0.166696537592595 
577	 0.166707005526033 
578	 0.166834212383175 
579	 0.166970389089333 
580	 0.166855069820645 
581	 0.166840254216277 
582	 0.16682069363796 
583	 0.166687637308995 
584	 0.166413967891072 
585	 0.166279176288461 
586	 0.166113796825802 
587	 0.165670198740194 
588	 0.165371784897956 
589	 0.165105846701809 
590	 0.164861051456625 
591	 0.164736757676511 
592	 0.164414085938264 
593	 0.163965038232118 
594	 0.163499575694956 
595	 0.162929705459112 
596	 0.162446556840238 
597	 0.161930162264327 
598	 0.161148182420031 
599	 0.160581526014777 
600	 0.160069865158303 
601	 0.159545216866567 
602	 0.159230413678648 
603	 0.159073833529921 
604	 0.158941911684601 
605	 0.158739024250416 
606	 0.158722037004782 
607	 0.158756739307755 
608	 0.158754166809051 
609	 0.158695006520487 
610	 0.158627391007337 
611	 0.158500865051624 
612	 0.158339435181587 
613	 0.158469381834433 
614	 0.158465465630717 
615	 0.158320023851843 
616	 0.158257258817728 
617	 0.158229275856263 
618	 0.158119605985702 
619	 0.157976804430371 
620	 0.158150585968681 
621	 0.157985213602298 
622	 0.157684575782858 
623	 0.157649372552313 
624	 0.157726993406202 
625	 0.157794051187885 
626	 0.157742149289968 
627	 0.157500292259523 
628	 0.157387418278707 
629	 0.157349697993914 
630	 0.157283346304686 
631	 0.157168603860485 
632	 0.15710406534132 
633	 0.156982036671461 
634	 0.156659110731544 
635	 0.15656743929653 
636	 0.156312645995773 
637	 0.155842010586194 
638	 0.155695736073769 
639	 0.155474006928262 
640	 0.155091116369364 
641	 0.15462130959198 
642	 0.154376157171599 
643	 0.154129975598815 
644	 0.153743936560381 
645	 0.153185833617572 
646	 0.152816690279719 
647	 0.152525520779029 
648	 0.152215547151537 
649	 0.152069634997278 
650	 0.151636403134855 
651	 0.151214837218701 
652	 0.151235090519106 
653	 0.150795539570029 
654	 0.150389267493867 
655	 0.150142169145221 
656	 0.149587222685209 
657	 0.149087628408376 
658	 0.148703176641383 
659	 0.148390161937682 
660	 0.148057636409489 
661	 0.147695798088455 
662	 0.14734389397989 
663	 0.147069032755845 
664	 0.146791077254493 
665	 0.146507578252853 
666	 0.146261965519738 
667	 0.146178313088902 
668	 0.145986943707486 
669	 0.145828080736508 
670	 0.145876019495778 
671	 0.145736799349235 
672	 0.145639472052383 
673	 0.145613071816094 
674	 0.145493849489367 
675	 0.145644622707684 
676	 0.145863495108061 
677	 0.145982413085532 
678	 0.146216607961877 
679	 0.146289890322061 
680	 0.146423175370158 
681	 0.146950769374631 
682	 0.147270608911602 
683	 0.147661960604631 
684	 0.14825204499255 
685	 0.148927290788164 
686	 0.149510807868951 
687	 0.150156250838433 
688	 0.150925084383614 
689	 0.151304726829375 
690	 0.151761053559748 
691	 0.152299940957339 
692	 0.152689480303405 
693	 0.153413290082764 
694	 0.154005900828811 
695	 0.15420430148126 
696	 0.15429226999874 
697	 0.154633013792278 
698	 0.154901364313837 
699	 0.15469203682455 
700	 0.154647450708536 
701	 0.154556691035001 
702	 0.154315067178947 
703	 0.153937784948509 
704	 0.153531418937791 
705	 0.153019908434623 
706	 0.152372673806525 
707	 0.151699304657856 
708	 0.150735286083404 
709	 0.149577831240774 
710	 0.148412795289932 
711	 0.147069252289706 
712	 0.145580722721388 
713	 0.14395903028324 
714	 0.142136389174175 
715	 0.140380946384268 
716	 0.13847355723302 
717	 0.136294792871397 
718	 0.133858634117653 
719	 0.131471401999116 
720	 0.129562166360723 
721	 0.127880298410325 
722	 0.126087210964527 
723	 0.123879580018726 
724	 0.121456082717548 
725	 0.118976510281207 
726	 0.116706681065017 
727	 0.114271217521082 
728	 0.111464644276206 
729	 0.108931153918262 
730	 0.106088895842356 
731	 0.103304148718918 
732	 0.101030073343145 
733	 9.90593613689255E-02 
734	 9.73293716776469E-02 
735	 9.59279360637803E-02 
736	 9.50625427682467E-02 
737	 9.40906876483012E-02 
738	 9.33858110558299E-02 
739	 0.093201532946427 
740	 9.26233703127521E-02 
741	 9.22702334516702E-02 
742	 9.21391278611796E-02 
743	 9.19341057871474E-02 
744	 9.18924022231948E-02 
745	 9.18029461436325E-02 
746	 9.16252468333555E-02 
747	 9.15976597536656E-02 
748	 9.15839880915994E-02 
749	 9.15402894040505E-02 
750	 9.14473928580938E-02 
751	 0.091275589273946 
752	 9.12097617006832E-02 
753	 9.12502903567961E-02 
754	 9.12917338003289E-02 
755	 9.13386094335766E-02 
756	 0.091293080521079 
757	 9.12119162258492E-02 
758	 9.14470309821165E-02 
759	 9.15358787939898E-02 
760	 9.13422648028366E-02 
761	 9.12627370155134E-02 
762	 9.16923974484499E-02 
763	 9.15475394945282E-02 
764	 9.13253279324917E-02 
765	 9.16812634079165E-02 
766	 9.17156369029747E-02 
767	 9.16892040160945E-02 
768	 9.17719607357094E-02 
769	 9.20236844744224E-02 
770	 9.21724994707665E-02 
771	 9.21866627072661E-02 
772	 9.21972282455406E-02 
773	 9.26498382340069E-02 
774	 9.29094739768145E-02 
775	 9.30262660505698E-02 
776	 9.32886162114308E-02 
777	 9.33633345898208E-02 
778	 9.36685259053134E-02 
779	 9.41434485789573E-02 
780	 9.42472250251958E-02 
781	 9.46787253375854E-02 
782	 9.51275103516952E-02 
783	 9.53803457328969E-02 
784	 9.58733917815578E-02 
785	 9.63200681733064E-02 
786	 9.67001613833776E-02 
787	 9.70882742566795E-02 
788	 9.75473016126499E-02 
789	 0.097959521395347 
790	 9.83019284395124E-02 
791	 9.86585742501024E-02 
792	 9.91927459713634E-02 
793	 9.97624753074556E-02 
794	 0.100241318254037 
795	 0.10057026327344 
796	 0.100974686719979 
797	 0.101513323738109 
798	 0.102082533964626 
799	 0.10210981696771 
800	 0.102505345979506 
801	 0.10304773842028 
802	 0.103019882433859 
803	 0.103285225989247 
804	 0.103722254001291 
805	 0.10402155101553 
806	 0.103816812799304 
807	 0.10378292491815 
808	 0.103821992916701 
809	 0.103730826511432 
810	 0.103452380563552 
811	 0.103155747482896 
812	 0.102846393805147 
813	 0.102432334678768 
814	 0.101717345575655 
815	 0.101106299800291 
816	 0.100754122676321 
817	 0.100478016190851 
818	 0.099987564232659 
819	 9.93356999577566E-02 
820	 9.85476679939997E-02 
821	 9.75927375012099E-02 
822	 9.61701291925214E-02 
823	 9.45602664558002E-02 
824	 9.31429944825972E-02 
825	 9.20281865864668E-02 
826	 9.02137366969156E-02 
827	 8.81244619859476E-02 
828	 8.66991288862676E-02 
829	 8.50624293257271E-02 
830	 8.38359182218541E-02 
831	 8.29393783431439E-02 
832	 8.18332724074152E-02 
833	 8.08164327237095E-02 
834	 0.080194210189273 
835	 7.97871040824348E-02 
836	 7.88597779331715E-02 
837	 7.84203333939603E-02 
838	 7.83169098511939E-02 
839	 7.82029668684551E-02 
840	 7.79152524527052E-02 
841	 7.77258592777907E-02 
842	 7.75373795699541E-02 
843	 7.71885523659015E-02 
844	 7.68799451370536E-02 
845	 7.66336733102593E-02 
846	 7.63792015486091E-02 
847	 7.60340528748234E-02 
848	 7.59825317473441E-02 
849	 0.075910958862239 
850	 7.57609429236649E-02 
851	 7.58628749020009E-02 
852	 7.53902677272751E-02 
853	 7.48841134793013E-02 
854	 7.47096501922637E-02 
855	 7.41874706259208E-02 
856	 7.42190108504231E-02 
857	 7.43360387075029E-02 
858	 0.074000652122781 
859	 0.073824337423784 
860	 7.36131756410597E-02 
861	 7.34525716334161E-02 
862	 7.34994204980319E-02 
863	 7.35183410438919E-02 
864	 0.073227280265246 
865	 7.28580379776963E-02 
866	 7.30092459636039E-02 
867	 7.30158740619254E-02 
868	 7.28169364976698E-02 
869	 7.25209543999821E-02 
870	 0.072321591438134 
871	 7.18139670730128E-02 
872	 0.071429650784696 
873	 7.14793489662871E-02 
874	 7.16224212662315E-02 
875	 7.15558055494473E-02 
876	 7.10142672163801E-02 
877	 0.070132084051556 
878	 7.02392198413058E-02 
879	 7.03275333466504E-02 
880	 7.00381104682158E-02 
881	 6.94666882379355E-02 
882	 6.90792976708983E-02 
883	 6.90972208274683E-02 
884	 6.91525544088072E-02 
885	 0.0686437430288 
886	 6.88330408835839E-02 
887	 6.89127080236896E-02 
888	 6.85587272580097E-02 
889	 6.82421572301942E-02 
890	 6.76539461316518E-02 
891	 6.74743221334955E-02 
892	 6.77970792656767E-02 
893	 6.72551913778349E-02 
894	 6.71494643228748E-02 
895	 6.73368077603678E-02 
896	 6.73877570643976E-02 
897	 6.75342967110159E-02 
898	 6.69102183067181E-02 
899	 0.066459051862121 
900	 6.69998351974071E-02 
901	 6.68058666980355E-02 
902	 6.60660721205405E-02 
903	 0.065547112842362 
904	 6.58160770004673E-02 
905	 6.53965451086464E-02 
906	 0.065442250572099 
907	 0.06576646035306 
908	 6.51929636331543E-02 
909	 6.39178134845276E-02 
910	 6.25419933125077E-02 
911	 6.28533134029127E-02 
912	 6.65116545805009E-02 
913	 0.065886668548112 
914	 6.34877538953968E-02 
915	 6.23033510132552E-02 
916	 6.35586050609436E-02 
917	 6.36518766375912E-02 
918	 6.31931233223483E-02 
919	 0.063068527486933 
920	 6.35658573375185E-02 
921	 0.062575035705648 
922	 6.15008889626256E-02 
923	 6.14660356354313E-02 
924	 0.061520103649867 
925	 6.16624631254571E-02 
926	 6.10463652183444E-02 
927	 5.96083459423251E-02 
928	 6.16274754668233E-02 
929	 6.00963487454242E-02 
930	 5.54136232866496E-02 
931	 5.37945408789443E-02 
932	 5.91866299122224E-02 
933	 5.59348454611166E-02 
934	 5.34885728830983E-02 
935	 6.44070390672951E-02 
936	 5.12681125954851E-02 
937	 5.22256511334129E-02 
938	 0.061175651288193 
939	 0.062091207542141 
940	 5.84641435121081E-02 
941	 6.02856775593111E-02 
942	 6.50132190193628E-02 
943	 6.41086992979688E-02 
944	 5.50158771804173E-02 
945	 5.80150581140535E-02 
946	 6.53021565341411E-02 
947	 5.74165755434077E-02 
948	 5.88577481241812E-02 
949	 5.73786537452667E-02 
950	 5.35236446764726E-02 
951	 5.49832502253713E-02 
952	 5.36824853034624E-02 
953	 6.00951306764683E-02 
954	 0.066659434903296 
955	 5.88800768863375E-02 
956	 0.060136248357371 
957	 6.01917513970437E-02 
958	 5.84731798971263E-02 
959	 6.09838876481073E-02 
960	 5.90190428115259E-02 
961	 5.89686301390766E-02 
962	 5.90025442087245E-02 
963	 5.36574436878509E-02 
964	 5.66180367279685E-02 
965	 5.80585447305492E-02 
966	 5.67978783074318E-02 
967	 5.80355910293249E-02 
968	 5.74318479248905E-02 
969	 5.86542822519369E-02 
970	 6.05308298602325E-02 
971	 5.85274923240199E-02 
972	 6.04241832247404E-02 
973	 0.059954373286622 
974	 5.60864444891447E-02 
975	 0.054306857829888 
976	 5.54130873964379E-02 
977	 5.84082506299573E-02 
978	 5.95112891386827E-02 
979	 5.53901604543199E-02 
980	 5.82299374816299E-02 
981	 5.93660283020882E-02 
982	 5.73573652047465E-02 
983	 5.76573624649242E-02 
984	 5.91975373042272E-02 
985	 5.90251809017899E-02 
986	 5.71853834064423E-02 
987	 5.64261016632438E-02 
988	 6.00512693900196E-02 
989	 5.98535483056453E-02 
990	 5.69467454729253E-02 
991	 5.83977841951947E-02 
992	 0.056103921994365 
993	 5.56141799382297E-02 
994	 5.76762767603138E-02 
995	 5.88183059110325E-02 
996	 5.68782364682815E-02 
997	 5.90334550094161E-02 
998	 6.18121727545618E-02 
999	 5.77061624546368E-02 
1000	 5.73357316395721E-02 
1001	 5.00503362383723E-02 
1002	 5.14057197427712E-02 
1003	 5.15173997590041E-02 
1004	 5.08646082334557E-02 
1005	 5.08393289744174E-02 
1006	 5.08399895328534E-02 
1007	 5.05397116244909E-02 
1008	 4.99982970289213E-02 
1009	 5.04497169865543E-02 
1010	 0.050226303955376 
1011	 4.99529295912721E-02 
1012	 5.07550398999876E-02 
1013	 5.12718152833365E-02 
1014	 5.16146560098005E-02 
1015	 5.19160708438851E-02 
1016	 5.21829124213555E-02 
1017	 5.26297634829454E-02 
1018	 5.23067403770028E-02 
1019	 5.11899193151248E-02 
1020	 5.08650385912073E-02 
1021	 5.05015102600336E-02 
1022	 4.97427330368735E-02 
1023	 5.04668878118461E-02 
1024	 5.12391200154749E-02 
1025	 5.15382807933753E-02 
1026	 0.052365295809645 
1027	 5.23642070877982E-02 
1028	 5.17991079308725E-02 
1029	 5.17888966928244E-02 
1030	 5.14525611356949E-02 
1031	 5.16262416258741E-02 
1032	 0.052536600461341 
1033	 0.052807536517744 
1034	 5.28662023676189E-02 
1035	 5.29697991855531E-02 
1036	 5.30556495938402E-02 
1037	 5.30309978006606E-02 
1038	 5.32084530560449E-02 
1039	 5.27547895510568E-02 
1040	 5.21301314319652E-02 
1041	 5.19278235008285E-02 
1042	 5.21838467764658E-02 
1043	 5.29069513154976E-02 
1044	 5.34138628409495E-02 
1045	 5.46998363980187E-02 
1046	 5.47393051700256E-02 
1047	 5.39124873542568E-02 
1048	 5.35089572802996E-02 
1049	 5.22859067337715E-02 
1050	 5.20679341597001E-02 
1051	 5.26715401206336E-02 
1052	 5.30175343685645E-02 
1053	 5.41218422032092E-02 
1054	 5.43875109659665E-02 
1055	 5.36762698793379E-02 
1056	 5.36356902710653E-02 
1057	 5.36907844892365E-02 
1058	 5.35117538462879E-02 
1059	 5.36711813083983E-02 
1060	 5.46638861096798E-02 
1061	 5.47050011204943E-02 
1062	 5.41634392852155E-02 
1063	 5.39723201824311E-02 
1064	 5.39009478305577E-02 
1065	 5.33362534148116E-02 
1066	 5.19617937632239E-02 
1067	 5.17968520350917E-02 
1068	 5.22823260367396E-02 
1069	 5.21238853227219E-02 
1070	 5.21925255089545E-02 
1071	 5.26215381852553E-02 
1072	 5.31434582849099E-02 
1073	 0.052668759439127 
1074	 5.29643946851997E-02 
1075	 5.44864956403942E-02 
1076	 5.45294522290591E-02 
1077	 0.053409732719965 
1078	 5.33083823171486E-02 
1079	 5.34389990646521E-02 
1080	 5.32059236851069E-02 
1081	 5.31832379804512E-02 
1082	 5.30700700394638E-02 
1083	 5.21242463262354E-02 
1084	 5.19755103249519E-02 
1085	 5.29267637470315E-02 
1086	 5.30182545485153E-02 
1087	 5.28772288688406E-02 
1088	 5.28636250323166E-02 
1089	 5.25933814444138E-02 
1090	 5.17030949781472E-02 
1091	 0.051832632851147 
1092	 5.29165991775204E-02 
1093	 5.28396369690123E-02 
1094	 5.26448709438645E-02 
1095	 5.24839197086858E-02 
1096	 5.13582989232911E-02 
1097	 5.09553303410443E-02 
1098	 5.12562259956291E-02 
1099	 5.12923374467251E-02 
1100	 0.051339328051708 
1101	 5.15080554728719E-02 
1102	 5.20790395499398E-02 
1103	 0.051975786607362 
1104	 5.13730270800136E-02 
1105	 5.07016168627796E-02 
1106	 5.06150291366897E-02 
1107	 5.15374184899951E-02 
1108	 5.11620683836215E-02 
1109	 5.03515410233738E-02 
1110	 4.95803181976562E-02 
1111	 4.59423616904641E-02 
1112	 4.53172251473898E-02 
1113	 4.85889645014248E-02 
1114	 4.91637247371974E-02 
1115	 0.049190860514878 
1116	 4.95134502959499E-02 
1117	 4.76753211867842E-02 
1118	 4.73348812800874E-02 
1119	 0.051612575964067 
1120	 0.052730287440619 
1121	 5.34838026121026E-02 
1122	 4.69887392425413E-02 
1123	 0.035451998302489 
1124	 2.96642091565861E-02 
1125	 2.85051908359146E-02 
1126	 2.83927341792639E-02 
1127	 3.46300114645801E-02 
1128	 4.29314440422668E-02 
1129	 4.62079871568107E-02 
1130	 5.06406349651676E-02 
1131	 4.71206347384494E-02 
1132	 3.32140361799442E-02 
1133	 0.033991506723564 
1134	 0.039855968101561 
1135	 4.05608922828087E-02 
1136	 4.41900715759039E-02 
1137	 0.046294060100728 
1138	 4.53778196837972E-02 
1139	 4.27406807018905E-02 
1140	 4.36283572922993E-02 
1141	 5.22114374901543E-02 
1142	 5.10694876140547E-02 
1143	 4.59191480538595E-02 
1144	 4.52830744802366E-02 
1145	 4.51312444119008E-02 
1146	 4.66477284724034E-02 
1147	 4.63718500867558E-02 
1148	 4.70740737608265E-02 
1149	 4.50434445714076E-02 
1150	 4.44467689090574E-02 
1151	 0.045326948271974 
1152	 4.75524426966091E-02 
1153	 4.95822460903893E-02 
1154	 5.03459342283009E-02 
1155	 5.17988491925237E-02 
1156	 5.19585878279112E-02 
1157	 4.98646610317862E-02 
1158	 4.96183454508331E-02 
1159	 5.04321618533874E-02 
1160	 5.09748235031576E-02 
1161	 5.20675172961843E-02 
1162	 0.052915174305442 
1163	 5.23545360724899E-02 
1164	 5.16941933598762E-02 
1165	 0.051559912230049 
1166	 5.08360521016035E-02 
1167	 5.12347793599737E-02 
1168	 5.26970105507962E-02 
1169	 5.25387023369681E-02 
1170	 5.23817077144577E-02 
1171	 5.28187280451984E-02 
1172	 5.31785593297769E-02 
1173	 5.29970282389331E-02 
1174	 5.29954542888977E-02 
1175	 5.33997818330611E-02 
1176	 0.053033983214208 
1177	 0.052909613318577 
1178	 5.31895468641895E-02 
1179	 5.34426691484138E-02 
1180	 5.33532926798996E-02 
1181	 5.25964249887445E-02 
1182	 5.24977954761871E-02 
1183	 5.32900474531881E-02 
1184	 5.30384988760398E-02 
1185	 5.28848726639099E-02 
1186	 5.33345975859863E-02 
1187	 5.30711969786444E-02 
1188	 5.29918711619124E-02 
1189	 5.31287694540713E-02 
1190	 5.26344865941448E-02 
1191	 5.21714548618247E-02 
1192	 5.22625663854895E-02 
1193	 5.29524114637377E-02 
1194	 5.34719902714905E-02 
1195	 5.35924190924985E-02 
1196	 5.33946199947374E-02 
1197	 5.27830072526638E-02 
1198	 5.28159621598179E-02 
1199	 5.28834168157516E-02 
1200	 5.28085723121922E-02 
1201	 5.28926001131361E-02 
1202	 5.27071384758411E-02 
1203	 5.31424210417782E-02 
1204	 5.39196579436038E-02 
1205	 5.41087363845487E-02 
1206	 5.38864790164615E-02 
1207	 5.34117619586167E-02 
1208	 5.32271835111979E-02 
1209	 5.33213240471047E-02 
1210	 0.053492434280688 
1211	 5.38816124164746E-02 
1212	 5.37250272415976E-02 
1213	 5.33806536927371E-02 
1214	 5.34309603332364E-02 
1215	 5.37786176289952E-02 
1216	 5.37567755738485E-02 
1217	 5.38235488079765E-02 
1218	 5.41469200236837E-02 
1219	 5.40005021288784E-02 
1220	 0.053926901060716 
1221	 5.40399230099658E-02 
1222	 0.053947094037034 
1223	 0.053644575737724 
1224	 5.35010284972366E-02 
1225	 5.38898469914562E-02 
1226	 5.42020630046783E-02 
1227	 5.41490106162851E-02 
1228	 5.38569595011044E-02 
1229	 0.053282080865485 
1230	 5.29230671045913E-02 
1231	 5.32146751176924E-02 
1232	 0.053955113363176 
1233	 5.42309774848063E-02 
1234	 5.41056662462991E-02 
1235	 5.41983954124297E-02 
1236	 5.42117356601384E-02 
1237	 5.41041556689914E-02 
1238	 5.40906534943174E-02 
1239	 5.39882685784122E-02 
1240	 0.053570479193896 
1241	 5.33473141005371E-02 
1242	 5.32934512574161E-02 
1243	 5.36879869982026E-02 
1244	 5.39177312733031E-02 
1245	 0.05320362890371 
1246	 5.28023108267063E-02 
1247	 0.05315411582627 
1248	 5.31085530899558E-02 
1249	 5.32011642911457E-02 
1250	 5.37374303023621E-02 
1251	 5.35254684201255E-02 
1252	 5.32701491479936E-02 
1253	 0.053715205400899 
1254	 0.053791461404306 
1255	 5.31758301374937E-02 
1256	 5.30265579196767E-02 
1257	 5.31464241469177E-02 
1258	 5.31921317126307E-02 
1259	 5.35273705773765E-02 
1260	 5.35897467349862E-02 
1261	 5.32287889616123E-02 
1262	 5.30098854475497E-02 
1263	 5.27094794091863E-02 
1264	 5.26177149832168E-02 
1265	 5.25925942706936E-02 
1266	 5.29691869087103E-02 
1267	 5.32256748857188E-02 
1268	 5.32519217607321E-02 
1269	 5.33381825875666E-02 
1270	 5.31431420217385E-02 
1271	 5.29183917617585E-02 
1272	 5.31126738171964E-02 
1273	 5.31267842075834E-02 
1274	 5.31939373072652E-02 
1275	 5.37763961458377E-02 
1276	 5.39145079513444E-02 
1277	 5.37688151355269E-02 
1278	 5.39167955261831E-02 
1279	 5.36518238066706E-02 
1280	 5.30319962904735E-02 
1281	 5.29322493495011E-02 
1282	 5.32571348845557E-02 
1283	 5.32936484247315E-02 
1284	 5.33425979153671E-02 
1285	 5.34990125306485E-02 
1286	 0.05379811612379 
1287	 5.35437366577935E-02 
1288	 5.27860396214864E-02 
1289	 5.28830648165564E-02 
1290	 5.31506172332323E-02 
1291	 5.31959062411326E-02 
1292	 5.34526876944976E-02 
1293	 5.37004743231082E-02 
1294	 5.38760425479103E-02 
1295	 0.053545115946852 
1296	 5.28544819340983E-02 
1297	 0.053105771551625 
1298	 5.36717401973542E-02 
1299	 5.35525719761756E-02 
1300	 5.35333153479286E-02 
1301	 5.36348575570252E-02 
1302	 5.31650988167156E-02 
1303	 5.24282957663719E-02 
1304	 5.25661331297338E-02 
1305	 5.31524959417602E-02 
1306	 5.31807262977611E-02 
1307	 5.24892434746425E-02 
1308	 0.05229594302323 
1309	 5.24278922080984E-02 
1310	 5.20469776357665E-02 
1311	 5.12059147002258E-02 
1312	 5.06294593070908E-02 
1313	 4.97025497447236E-02 
1314	 4.96069633386995E-02 
1315	 5.06296736142876E-02 
1316	 5.07244335011245E-02 
1317	 5.04509731213287E-02 
1318	 5.06453014769854E-02 
1319	 5.07346135454296E-02 
1320	 5.04387872736264E-02 
1321	 5.00349753624104E-02 
1322	 0.050779390084038 
1323	 5.02872629418563E-02 
1324	 4.93244207453884E-02 
1325	 5.00232723328021E-02 
1326	 0.050124028279074 
1327	 0.049986842153344 
1328	 5.01281924141378E-02 
1329	 4.86698154694071E-02 
1330	 4.80594439040317E-02 
1331	 4.77157410812495E-02 
1332	 4.78031936300524E-02 
1333	 0.051081422646351 
1334	 5.26707383068946E-02 
1335	 5.30091339544747E-02 
1336	 5.17905902239776E-02 
1337	 5.12727438749312E-02 
1338	 5.03006861943344E-02 
1339	 4.82699681385755E-02 
1340	 0.043329610615595 
1341	 4.23868685777031E-02 
1342	 4.27259973991186E-02 
1343	 4.21909483293958E-02 
1344	 4.79494921273499E-02 
1345	 5.01100205886053E-02 
1346	 4.63333625693792E-02 
1347	 0.043140129685969 
1348	 3.64003189783962E-02 
1349	 3.03032272238639E-02 
1350	 1.93803349619923E-02 
1351	 3.72152012277769E-03 
1352	 8.15158014956893E-03 
1353	-6.8870065668013E-03 
1354	-6.40942751115725E-02 
1355	-0.151653044200289 
1356	-0.115142746558158 
1357	-0.265478721510853 
1358	-0.383635115065693 
1359	-0.239066647337386 
1360	-0.247935040066899 
1361	-0.19717375481001 
1362	-8.80297274229137E-02 
1363	-0.171124356724481 
1364	-0.776336652909639 
1365	-1.17836972705755 
1366	-0.7781385141071 
1367	-0.52788936052883 
1368	-0.610226029664571 
1369	-0.574801222509108 
1370	-0.456171934240344 
1371	-0.448699612172709 
1372	-0.67510703673023 
1373	-0.620525460781557 
1374	-0.186050966875931 
1375	-0.166120868192929 
1376	-0.294567424786577 
1377	 5.68137742344746E-02 
1378	 0.205887388250574 
1379	-0.614478117806668 
1380	-1.55364125861191 
1381	-0.926565068088087 
1382	-0.903323490037872 
1383	-2.24446047520715 
1384	-2.40561913935489 
1385	-2.51873391143421E-04 
1386	 0.397530354055871 
1387	-1.34871812139203 
1388	-1.38577889693527 
1389	 1.27047228440756 
1390	-1.96123200515226 
1391	-2.30999939750456E-05 
1392	 0.109245647835858 
1393	-0.128646549699522 
1394	-0.157022036537486 
1395	-0.296637231709488 
1396	-6.00604733479817E-02 
1397	-0.121578624078637 
1398	-1.23179326555409 
1399	-0.457440818006474 
1400	 5.16745438877294E-02 
1401	 0.144025720623884 
1402	-0.361718461631922 
1403	-0.360093321020751 
1404	 1.03213586024266E-02 
1405	 0.199129922164784 
1406	 0.955275246294494 
1407	 0.726430790589369 
1408	 0.26825462437905 
1409	 0.201728971850445 
1410	 1.53025129008022E-02 
1411	-3.45250273173877E-02 
1412	 6.48449883000893E-02 
1413	 0.179460793899779 
1414	 0.193333225801361 
1415	 0.131656384122221 
1416	 3.19882267635953E-02 
1417	 0.008276619035863 
1418	-2.76109122106988E-02 
1419	-6.10670701506381E-02 
1420	-9.65566385158716E-02 
1421	-4.44496679982037E-02 
1422	 7.58442493487815E-02 
1423	 4.14736006256527E-02 
1424	-5.91402584705505E-02 
1425	-2.37379379873765E-02 
1426	 1.25012407662004E-02 
1427	 6.08641455345485E-03 
1428	 6.37669668067151E-02 
1429	 8.65041482868621E-02 
1430	 4.04532266284856E-02 
1431	 1.21711701703007E-02 
1432	 6.86673156141608E-04 
1433	 4.44259195329922E-03 
1434	 7.07215552344909E-03 
1435	 3.54669738081775E-03 
1436	-7.83759040284005E-03 
1437	 2.65105051715866E-02 
1438	 0.049216844789549 
1439	 5.18104828513088E-02 
1440	 2.08290790260504E-02 
1441	 1.94176331755935E-02 
1442	 6.79862531248106E-02 
1443	 0.065675142094226 
1444	 4.44874628809101E-02 
1445	 4.29897232118339E-02 
1446	 4.39556398469069E-02 
1447	 3.99155606696036E-02 
1448	 0.038494286689965 
1449	 5.18411866844453E-02 
1450	 5.13986149523528E-02 
1451	 0.040862876953275 
1452	 0.040901341425566 
1453	 4.13769143064701E-02 
1454	 4.25824686738161E-02 
1455	 3.66300118531117E-02 
1456	 0.038068544905353 
1457	 4.87620851710255E-02 
1458	 4.81673702864262E-02 
1459	 0.040652205821193 
1460	 0.041963963558016 
1461	 4.48974385577753E-02 
1462	 4.49676835865101E-02 
1463	 4.69907398022987E-02 
1464	 5.07146648396481E-02 
1465	 0.054100056306959 
1466	 5.41110044639352E-02 
1467	 5.88474416890814E-02 
1468	 5.80407535931061E-02 
1469	 4.47423320003978E-02 
1470	 4.08979678728922E-02 
1471	 4.06808760353423E-02 
1472	 4.18775538046558E-02 
1473	 4.64317027845894E-02 
1474	 4.98161430739204E-02 
1475	 5.77089960593554E-02 
1476	 5.74324305972278E-02 
1477	 5.01403299098043E-02 
1478	 4.98973212241576E-02 
1479	 5.03779883699946E-02 
1480	 4.96853739580422E-02 
1481	 5.24311870619858E-02 
1482	 5.25940261135544E-02 
1483	 4.95747733498883E-02 
1484	 4.83591770439473E-02 
1485	 4.70053762345723E-02 
1486	 4.78639360833187E-02 
1487	 4.97032512726192E-02 
1488	 5.08455823190205E-02 
1489	 5.32264909345867E-02 
1490	 5.43617339543229E-02 
1491	 5.39535028272324E-02 
1492	 5.45354118065836E-02 
1493	 5.60669714625898E-02 
1494	 5.62880029305235E-02 
1495	 5.65698155685515E-02 
1496	 5.64040170947447E-02 
1497	 0.054511834915894 
1498	 5.42625429541625E-02 
1499	 5.50658817812408E-02 
1500	 5.50067061567015E-02 
1501	 5.49418118492479E-02 
1502	 0.05556035513929 
1503	 0.056436950952859 
1504	 5.66424584596071E-02 
1505	 5.72542552979887E-02 
1506	 5.72174754887894E-02 
1507	 5.67431575582911E-02 
1508	 5.61715971669716E-02 
1509	 5.61153933710029E-02 
1510	 5.65446992681836E-02 
1511	 5.66865119296182E-02 
1512	 5.63893539450792E-02 
1513	 5.66054840511328E-02 
1514	 5.74721981982024E-02 
1515	 5.75786588264491E-02 
1516	 5.73698486942591E-02 
1517	 5.72779230768699E-02 
1518	 5.67332275935037E-02 
1519	 5.65832412706602E-02 
1520	 5.71501783837255E-02 
1521	 5.76289874150939E-02 
1522	 5.74436589290041E-02 
1523	 5.67489245150358E-02 
1524	 5.65003442269812E-02 
1525	 5.64867309374806E-02 
1526	 5.64415854213928E-02 
1527	 5.69238999286687E-02 
1528	 5.70870401631979E-02 
1529	 5.66968045923039E-02 
1530	 5.63178127462315E-02 
1531	 5.63234453781442E-02 
1532	 5.67230444541807E-02 
1533	 5.67800035640958E-02 
1534	 5.69851411061836E-02 
1535	 5.70437417578722E-02 
1536	 5.66879785139704E-02 
1537	 5.69787685556554E-02 
1538	 5.71122580814711E-02 
1539	 5.70747960775741E-02 
1540	 5.70574836120317E-02 
1541	 5.63817208751918E-02 
1542	 5.62146956348585E-02 
1543	 5.66763451192127E-02 
1544	 5.68341805245581E-02 
1545	 5.70899063856716E-02 
1546	 5.72650667723625E-02 
1547	 5.69946741240987E-02 
1548	 5.69312894128226E-02 
1549	 5.70873886245417E-02 
1550	 5.71876264722907E-02 
1551	 5.73901809900157E-02 
1552	 0.057484608617521 
1553	 5.73197115807738E-02 
1554	 5.73065632493506E-02 
1555	 5.73101193628447E-02 
1556	 5.70601973725149E-02 
1557	 5.70339837490685E-02 
1558	 5.74502710379011E-02 
1559	 5.77916946952223E-02 
1560	 5.77091882838045E-02 
1561	 5.73063265989864E-02 
1562	 5.67440960814514E-02 
1563	 5.67374923379556E-02 
1564	 5.70485797516848E-02 
1565	 5.72108320941389E-02 
1566	 5.75506042481348E-02 
1567	 5.77278096830624E-02 
1568	 0.057571696367563 
1569	 5.73846762152739E-02 
1570	 5.78174229832064E-02 
1571	 5.84714614415632E-02 
1572	 5.83402123996306E-02 
1573	 5.79262788412508E-02 
1574	 5.77360027479083E-02 
1575	 5.70139206412555E-02 
1576	 5.63187464240861E-02 
1577	 5.68999701588959E-02 
1578	 5.75356175590143E-02 
1579	 5.72328388979259E-02 
1580	 5.70595055038724E-02 
1581	 0.057447626699803 
1582	 5.73968000657928E-02 
1583	 5.73832085316982E-02 
1584	 5.76955863689666E-02 
1585	 5.74742452376251E-02 
1586	 5.70679424287465E-02 
1587	 5.63988823605111E-02 
1588	 5.60891449517893E-02 
1589	 5.66572499279027E-02 
1590	 5.67961340754981E-02 
1591	 5.64815127667768E-02 
1592	 5.65081191930445E-02 
1593	 5.63103067302034E-02 
1594	 0.055986558373003 
1595	 5.64466507643779E-02 
1596	 5.71095543727046E-02 
1597	 5.72922232592696E-02 
1598	 5.72462369135089E-02 
1599	 5.72542420320352E-02 
1600	 5.71700397496612E-02 
1601	 5.70784594734791E-02 
1602	 5.69409864213762E-02 
1603	 5.69608488729317E-02 
1604	 5.73863356043736E-02 
1605	 0.057517185341802 
1606	 5.73595255774722E-02 
1607	 5.73386853561457E-02 
1608	 5.73993998133534E-02 
1609	 5.72043695068073E-02 
1610	 5.71615070469519E-02 
1611	 0.057638869149674 
1612	 5.77754407421283E-02 
1613	 5.76515217313189E-02 
1614	 5.78583643653089E-02 
1615	 5.78434554605973E-02 
1616	 5.76834567165651E-02 
1617	 5.75087789546275E-02 
1618	 5.71840268617587E-02 
1619	 5.69026339265663E-02 
1620	 5.59859077161474E-02 
1621	 5.52255170781934E-02 
1622	 5.56111677586958E-02 
1623	 5.62926941379948E-02 
1624	 5.68048938921976E-02 
1625	 5.72126211566949E-02 
1626	 5.75159522545097E-02 
1627	 5.73433446559933E-02 
1628	 5.69655246669418E-02 
1629	 5.69140712128957E-02 
1630	 5.71027861377925E-02 
1631	 5.71741944497015E-02 
1632	 5.73943419281134E-02 
1633	 5.82602711086236E-02 
1634	 5.82785195789295E-02 
1635	 5.74607122158805E-02 
1636	 5.74537779671156E-02 
1637	 5.74465585089135E-02 
1638	 5.75590516519402E-02 
1639	 5.81488617615173E-02 
1640	 5.80814189800466E-02 
1641	 5.81017690394373E-02 
1642	 5.82424597974427E-02 
1643	 5.82550501811004E-02 
1644	 5.85738145153275E-02 
1645	 0.058122925674255 
1646	 5.73584883088425E-02 
1647	 5.74614133508767E-02 
1648	 5.78605933095229E-02 
1649	 0.058003280848278 
1650	 5.82574509026661E-02 
1651	 5.83768981994763E-02 
1652	 5.84312859711268E-02 
1653	 5.89507654911173E-02 
1654	 5.88877708611165E-02 
1655	 5.82268780697796E-02 
1656	 5.80001454057211E-02 
1657	 5.75726767995341E-02 
1658	 5.77084106413278E-02 
1659	 5.86762299047118E-02 
1660	 5.88365841836683E-02 
1661	 5.85785060689829E-02 
1662	 5.87990032838886E-02 
1663	 0.059065565191067 
1664	 5.87556144287463E-02 
1665	 5.84577006930199E-02 
1666	 5.85626616839554E-02 
1667	 5.85734708772989E-02 
1668	 5.81033109475689E-02 
1669	 0.057529930611627 
1670	 5.73554982358307E-02 
1671	 5.71199160761197E-02 
1672	 5.73278428368106E-02 
1673	 5.84445398324768E-02 
1674	 5.86151010611746E-02 
1675	 5.77531976391792E-02 
1676	 5.74361692633203E-02 
1677	 5.75516996176953E-02 
1678	 5.77958258713666E-02 
1679	 5.80868223920494E-02 
1680	 5.79511580855148E-02 
1681	 5.75231158202908E-02 
1682	 5.75058926277253E-02 
1683	 5.79799891307696E-02 
1684	 5.83310384718575E-02 
1685	 5.83392594279653E-02 
1686	 5.79065930705905E-02 
1687	 5.78803824208094E-02 
1688	 5.84023459462878E-02 
1689	 5.74978891640868E-02 
1690	 5.67724838527417E-02 
1691	 5.75406169188954E-02 
1692	 5.72346507537829E-02 
1693	 5.65606058140905E-02 
1694	 5.71254127805417E-02 
1695	 5.76463343323783E-02 
1696	 5.69654355580921E-02 
1697	 5.69196456874279E-02 
1698	 0.058573723854326 
1699	 5.79637195656478E-02 
1700	 5.63663531865621E-02 
1701	 5.83466221758425E-02 
1702	 5.98789557381112E-02 
1703	 5.88437115414845E-02 
1704	 5.90322349863425E-02 
1705	 5.92249852258593E-02 
1706	 5.78904011120624E-02 
1707	 5.82513414199447E-02 
1708	 5.96593576763644E-02 
1709	 5.97645007962205E-02 
1710	 5.88017730473137E-02 
1711	 5.78626129021189E-02 
1712	 5.85757769754418E-02 
1713	 5.86632516933403E-02 
1714	 5.88295568718785E-02 
1715	 0.058552588219726 
1716	 5.90875734793853E-02 
1717	 6.03224395748138E-02 
1718	 0.060765357024175 
1719	 0.060320321688521 
1720	 5.94547843479501E-02 
1721	 5.95040935186461E-02 
1722	 6.02074973310561E-02 
1723	 6.00327283794666E-02 
1724	 5.97615298537173E-02 
1725	 5.99601579187421E-02 
1726	 5.94570006763373E-02 
1727	 5.95880974697384E-02 
1728	 6.07334156944913E-02 
1729	 5.97033539471688E-02 
1730	 0.058533241248233 
1731	 5.95753227934997E-02 
1732	 5.91968202958542E-02 
1733	 5.82354115329107E-02 
1734	 5.90972280241874E-02 
1735	 5.88637305282018E-02 
1736	 5.83328220481825E-02 
1737	 6.03027149276544E-02 
1738	 6.04858920294049E-02 
1739	 5.80042144343672E-02 
1740	 5.77662018009805E-02 
1741	 5.81555640139857E-02 
1742	 5.90769772956221E-02 
1743	 6.20772378020187E-02 
1744	 6.20952828141954E-02 
1745	 5.99376136450277E-02 
1746	 5.90603172341909E-02 
1747	 5.82940559011765E-02 
1748	 5.81683572450986E-02 
1749	 5.88626036361266E-02 
1750	 6.01318444519553E-02 
1751	 0.059996781920216 
1752	 6.01066199256869E-02 
1753	 6.00296261095704E-02 
1754	 5.85254740933929E-02 
1755	 5.80648141291143E-02 
1756	 0.058202790211145 
1757	 5.75541778458775E-02 
1758	 5.76962399745786E-02 
1759	 5.74675215049066E-02 
1760	 5.90646835996794E-02 
1761	 6.09292760592151E-02 
1762	 0.061732235078597 
1763	 6.08063253121624E-02 
1764	 5.80186026028588E-02 
1765	 5.75498915295126E-02 
1766	 5.76346780215109E-02 
1767	 5.82179550940364E-02 
1768	 6.15963333510469E-02 
1769	 6.32944191727044E-02 
1770	 6.23378297271802E-02 
1771	 6.04117926766068E-02 
1772	 5.94331097988882E-02 
1773	 5.99945254224696E-02 
1774	 0.059301365889478 
1775	 5.91817835272401E-02 
1776	 6.00117756136712E-02 
1777	 5.97430878108762E-02 
1778	 6.01183626967719E-02 
1779	 0.064565998379497 
1780	 6.54548541145726E-02 
1781	 6.24363675694059E-02 
1782	 6.04367519429629E-02 
1783	 5.55188368905887E-02 
1784	 5.40724717047927E-02 
1785	 0.056348093442883 
1786	 5.67607683461505E-02 
1787	 5.94187324483178E-02 
1788	 5.86855888356942E-02 
1789	 5.19846994921064E-02 
1790	 5.00451284102565E-02 
1791	 5.71101986766007E-02 
1792	 5.59193289004628E-02 
1793	 0.055895351077804 
1794	 6.15911640110311E-02 
1795	 4.73081227776802E-02 
1796	 5.30324171226471E-02 
1797	 0.074781859539981 
1798	 0.071436860050688 
1799	 8.09512610353862E-02 
1800	 4.76589850967987E-02 
1801	 3.05547669854057E-02 
1802	 1.99933353123449E-02 
1803	 1.8288802762844E-04 
1804	 1.64833772622912E-02 
1805	 1.84623033244491E-02 
1806	-2.32498389957615E-02 
1807	-4.97934264694956E-02 
1808	-5.75460524318766E-02 
1809	-9.90459010003693E-02 
1810	-0.143871218148112 
1811	-0.171432525556993 
1812	-0.134607506552241 
1813	-0.16524421695633 
1814	-0.448838312943991 
1815	-0.182866383941286 
1816	 0.501271010251777 
1817	 5.54998156609963E-02 
1818	 8.03219888371276E-02 
1819	 0.338391329898493 
1820	-0.331511592997568 
1821	 2.9699531988326 
1822	-2.96794816441839 
1823	-0.739764671454396 
1824	-0.18551219219934 
1825	-8.8456641758731 
1826	-3.10273005865958 
1827	-1.3297018308332 
1828	-1.08885204904957 
1829	-1.73762510730722 
1830	-0.493460630726449 
1831	 1.2687575006907 
1832	 0.934172145349083 
1833	-1.26312874440189 
1834	-0.39620116678604 
1835	 0.864372344834037 
1836	 0.553425298449925 
1837	-0.783366660986247 
1838	-1.46052494558784 
1839	-78.9266966236804 
1840	 4.26398657746003 
1841	 3.81658899247768 
1842	 8.30688900696796 
1843	 20.2050100479914 
1844	-0.768586928473814 
1845	-0.642297934515509 
1846	 0.528844242089809 
1847	 0.628963064188161 
1848	-2.04840962638864 
1849	-0.576354671532935 
1850	 0.378202471167743 
1851	 0.531557382627444 
1852	 3.8144689337974 
1853	-7.68184732058196 
1854	-3.56527048454329 
1855	-18.6592397111568 
1856	-21.6052975114114 
1857	-6.3455387850944 
1858	-3.97940057506184 
1859	-2.35380276257983 
1860	-0.471255514024623 
1861	-0.518949096984408 
1862	-1.71002159462947 
1863	 1.96263925989067 
1864	 0.907309829695949 
1865	 0.751547788127555 
1866	 3.28991268896203 
1867	 2.55301722187381 
1868	 0.644867247902258 
1869	 0.59704312322019 
1870	 8.26513149060965 
1871	 6.40134680248053E-02 
1872	 0.512770468798552 
1873	 0.631742064503343 
1874	 1.36466973157622 
1875	 1.35664606508751 
1876	 1.04160655005652 
1877	 0.20399641532112 
1878	 0.109727900182023 
1879	 0.319937244216386 
1880	 0.313644819368137 
1881	-0.154461962324146 
1882	-1.40834211134514 
1883	-4.53664522194465E-02 
1884	 1.76055044142274 
1885	 3.79856144975754 
1886	 4.90107378979074 
1887	 3.23580264101061 
1888	 2.13487512603479 
1889	 2.00340041686937 
1890	 1.06469749963737 
1891	 0.943568560148873 
1892	-3.44447278759617 
1893	 0.436130138479323 
1894	 0.581685282022894 
1895	 0.606468892501418 
1896	-0.564312387062723 
1897	-0.165446215081697 
1898	-0.414395915554812 
1899	-8.05375275214129 
1900	 62.6907020530178 
1901	 5.10981906834934 
1902	 2.78304534607513 
1903	 8.47767037377234 
1904	-4.07767827208723 
1905	 36.5403223860377 
1906	-8.34155298326642 
1907	-1.87012171669787 
1908	 2.77026266441368 
1909	 1.86062664358054 
1910	 1.07520952374366 
1911	 0.731114537111262 
1912	 0.576236708932665 
1913	 0.257124097482118 
1914	-0.395416470223354 
1915	-0.854066187574909 
1916	-3.29212440968314 
1917	 4.21503846949178 
1918	 5.68844899029449 
1919	 1.83045758908186 
1920	 1.55085033565511 
1921	 27.3784297919842 
1922	-0.501319880170603 
1923	-0.298175659883434 
1924	-0.422663857764193 
1925	-0.491891341236505 
1926	-0.408584976573757 
1927	-0.195933448741871 
1928	-0.139566179877707 
1929	-0.074415778191705 
1930	 0.750417248840714 
1931	 0.234083297644344 
1932	-0.63581403218155 
1933	-0.60923313709361 
1934	-0.362572683826211 
1935	 3.29401623463921E-02 
1936	 0.397408522268236 
1937	 0.679528327063469 
1938	 0.550880957631757 
1939	 0.466580198097188 
1940	 0.246590565529356 
1941	 0.129195394934103 
1942	 0.081632102701604 
1943	 8.16970893275559E-02 
1944	-6.55573917564804E-03 
1945	-0.101539700685445 
1946	-0.223334540428735 
1947	-0.254368681927888 
1948	-5.97355892685289E-03 
1949	 4.88492127669689E-02 
1950	-0.037509624845807 
1951	-4.15667852240428E-02 
1952	-3.57701955051254E-02 
1953	-9.60843540082204E-02 
1954	-9.59706000649962E-02 
1955	-7.59563531980279E-02 
1956	-2.70820295731353E-02 
1957	 2.12300238231227E-02 
1958	 2.65147217807384E-02 
1959	 4.71527566482739E-02 
1960	 3.41520734938486E-02 
1961	 3.18527324835219E-02 
1962	 5.16248414015028E-02 
1963	 4.80470447063969E-02 
1964	 5.64955251273321E-02 
1965	 6.06041259991223E-02 
1966	 6.05198353307039E-02 
1967	 5.12830320675611E-02 
1968	 5.61870324524393E-02 
1969	 5.47397780104189E-02 
1970	 0.053787787906224 
1971	 5.42317194685266E-02 
1972	 5.35234561955472E-02 
1973	 5.65153633346911E-02 
1974	 5.50029171206938E-02 
1975	 5.46806925827719E-02 
1976	 5.18213721111328E-02 
1977	 5.09784435844304E-02 
1978	 5.88465214453858E-02 
1979	 5.94699446511809E-02 
1980	 5.69328682807741E-02 
1981	 5.49822866414086E-02 
1982	 5.45183434193703E-02 
1983	 4.88000674368774E-02 
1984	 4.95982005731727E-02 
1985	 5.14196527456338E-02 
1986	 5.18779818662457E-02 
1987	 5.57591082187431E-02 
1988	 5.20127453923565E-02 
1989	 5.09851486254931E-02 
1990	 5.36511443914666E-02 
1991	 4.90860466513937E-02 
1992	 5.27520077302838E-02 
1993	 6.06348302461741E-02 
1994	 6.22927598282156E-02 
1995	 6.00704190892882E-02 
1996	 6.04165461339406E-02 
1997	 6.00185959612023E-02 
1998	 5.37812307891144E-02 
1999	 5.36974121303293E-02 
2000	 6.19311393367738E-02 
2001	 6.16467565466119E-02 
2002	 5.29945006298836E-02 
2003	 5.10303685123591E-02 
2004	 5.93856869837444E-02 
2005	 6.84137092450283E-02 
2006	 7.65020663759865E-02 
2007	 7.54873484440179E-02 
2008	 0.063582935885509 
2009	 6.16825214558204E-02 
2010	 6.26536391000981E-02 
2011	 0.063694562197527 
2012	 7.02904455270497E-02 
2013	 7.55313439180179E-02 
2014	 0.077719426425363 
2015	 8.07463860821376E-02 
2016	 7.99377458828265E-02 
2017	 8.20715352014644E-02 
2018	 7.61902323005279E-02 
2019	 6.01294023675604E-02 
2020	 5.72247694865968E-02 
2021	 5.82671482510889E-02 
2022	 5.74017187151554E-02 
2023	 6.07108155975869E-02 
2024	 6.07414789796716E-02 
2025	 5.73342105578919E-02 
2026	 5.62973818126224E-02 
2027	 5.47835730039709E-02 
2028	 5.59257404260511E-02 
2029	 5.89232332215693E-02 
2030	 5.75881262725482E-02 
2031	 5.58941309429207E-02 
2032	 5.65513022082913E-02 
2033	 5.72363226559054E-02 
2034	 5.82864743168625E-02 
2035	 5.76908097819933E-02 
2036	 5.60229874651936E-02 
2037	 5.40431588115674E-02 
2038	 5.43488731685341E-02 
2039	 5.53140412455488E-02 
2040	 5.98265102552084E-02 
2041	 6.04954680825938E-02 
2042	 5.90518883412452E-02 
2043	 0.059579197188972 
2044	 5.97811149934346E-02 
2045	 6.11121611923838E-02 
2046	 6.12425060063234E-02 
2047	 5.94235851216469E-02 
2048	 5.72584092746132E-02 
2049	 5.52669137869662E-02 
2050	 5.82505386656331E-02 
2051	 6.14676759598871E-02 
2052	 6.08523955164708E-02 
2053	 5.98621567568805E-02 
2054	 5.70380176963421E-02 
2055	 5.44786244989655E-02 
2056	 5.34238318422804E-02 
2057	 5.45240263722624E-02 
2058	 0.054239874420955 
2059	 0.054433729954015 
2060	 5.45818530885789E-02 
2061	 0.05530144471273 
2062	 5.28070113376129E-02 
2063	 5.15712311569911E-02 
2064	 4.98646706745039E-02 
2065	 4.68713339778551E-02 
2066	 4.96310923026131E-02 
2067	 5.14685540272973E-02 
2068	 5.23326415212074E-02 
2069	 5.65658360158624E-02 
2070	 5.81679311409995E-02 
2071	 5.92350050690043E-02 
2072	 6.20690952061523E-02 
2073	 6.17831198984492E-02 
2074	 0.056745848017061 
2075	 5.63316902432578E-02 
2076	 5.68618307574496E-02 
2077	 5.71520415600271E-02 
2078	 5.93586644479683E-02 
2079	 6.07733524883839E-02 
2080	 6.17691369705675E-02 
2081	 6.29635135047972E-02 
2082	 6.27947244902942E-02 
2083	 6.33107978850445E-02 
2084	 6.30914374127283E-02 
2085	 6.08534863566597E-02 
2086	 6.02559964673741E-02 
2087	 6.01169624395173E-02 
2088	 5.83358482809525E-02 
2089	 5.90561383011858E-02 
2090	 5.92237697601726E-02 
2091	 0.055667383106404 
2092	 0.0540735147325 
2093	 5.17957820817057E-02 
2094	 5.14642212881401E-02 
2095	 5.26015602677164E-02 
2096	 0.053656480031596 
2097	 5.72826445117366E-02 
2098	 5.84353199335488E-02 
2099	 5.78974284489547E-02 
2100	 5.80034797225484E-02 
2101	 5.87218978768537E-02 
2102	 5.68185604478618E-02 
2103	 0.056444024309956 
2104	 5.73185779918029E-02 
2105	 5.63280331798844E-02 
2106	 5.62946675593143E-02 
2107	 5.69445175904433E-02 
2108	 5.74092192920415E-02 
2109	 5.90310729763522E-02 
2110	 5.96282992560913E-02 
2111	 5.90230788116188E-02 
2112	 6.08383322916049E-02 
2113	 6.15265584983286E-02 
2114	 6.23116498462046E-02 
2115	 6.18864576873774E-02 
2116	 6.05204383638296E-02 
2117	 5.92349359413157E-02 
2118	 5.64400263221871E-02 
2119	 5.59098757043498E-02 
2120	 0.056527315693645 
2121	 5.76457388091618E-02 
2122	 5.84871581155867E-02 
2123	 0.059100722778178 
2124	 6.00520671384619E-02 
2125	 5.88245757195683E-02 
2126	 5.67025654183243E-02 
2127	 5.79497816228595E-02 
2128	 5.78876061817234E-02 
2129	 0.056671466264889 
2130	 5.73935763230364E-02 
2131	 5.65031240779251E-02 
2132	 5.48907825691037E-02 
2133	 5.39488000600634E-02 
2134	 5.41232254784028E-02 
2135	 5.52450686062489E-02 
2136	 5.56223607589583E-02 
2137	 5.70249324236794E-02 
2138	 5.79901536302745E-02 
2139	 5.75794771185895E-02 
2140	 5.71667760992086E-02 
2141	 5.73535549337295E-02 
2142	 5.77868731743454E-02 
2143	 5.69779503632089E-02 
2144	 5.84162663011671E-02 
2145	 6.17180483507133E-02 
2146	 6.18504625604051E-02 
2147	 6.02506656636473E-02 
2148	 0.058926132652526 
2149	 0.057186942744396 
2150	 5.61661948117424E-02 
2151	 5.61676431450445E-02 
2152	 5.79453928558869E-02 
2153	 5.88149948277668E-02 
2154	 5.96926856197268E-02 
2155	 5.97393791268397E-02 
2156	 5.66131824669998E-02 
2157	 5.62263828517461E-02 
2158	 5.57607146799693E-02 
2159	 5.52661295358396E-02 
2160	 5.82736386788462E-02 
2161	 5.81770293643044E-02 
2162	 5.48471291300291E-02 
2163	 5.33240240836168E-02 
2164	 5.11391178253298E-02 
2165	 4.95770105904042E-02 
2166	 4.87529275064089E-02 
2167	 4.86688677725669E-02 
2168	 4.74028711533022E-02 
2169	 4.95246445392416E-02 
2170	 5.53659378735955E-02 
2171	 5.92906582514791E-02 
2172	 6.24595795123461E-02 
2173	 6.42796579926215E-02 
2174	 6.22439305202938E-02 
2175	 6.15050850673144E-02 
2176	 6.28468335229128E-02 
2177	 6.58488889238687E-02 
2178	 6.79327053365776E-02 
2179	 6.78031097736592E-02 
2180	 6.50196247556276E-02 
2181	 5.94579905324236E-02 
2182	 5.60224620256317E-02 
2183	 5.22005613819494E-02 
2184	 4.89726058373838E-02 
2185	 0.049089232039679 
2186	 4.93214039835495E-02 
2187	 5.03914852889889E-02 
2188	 4.99597031573798E-02 
2189	 4.99082742424469E-02 
2190	 5.15603046137757E-02 
2191	 5.25988894995703E-02 
2192	 5.31332302086283E-02 
2193	 5.70795469353895E-02 
2194	 5.74252022552472E-02 
2195	 5.27246450453394E-02 
2196	 5.11055837982946E-02 
2197	 4.84097863393322E-02 
2198	 4.88462040932079E-02 
2199	 0.051131022633925 
2200	 5.70393671351559E-02 
2201	 6.10265871809031E-02 
2202	 6.52961632189975E-02 
2203	 6.51292260070356E-02 
2204	 0.061289818267943 
2205	 6.01713777343705E-02 
2206	 6.00576690823796E-02 
2207	 6.30598625816619E-02 
2208	 6.39916790018669E-02 
2209	 5.81379259459703E-02 
2210	 0.055947278385232 
2211	 5.10673053086924E-02 
2212	 4.55253428583367E-02 
2213	 5.02653400453719E-02 
2214	 4.91761685232167E-02 
2215	 4.74201787056353E-02 
2216	 5.32625935767928E-02 
2217	 5.49377262580725E-02 
2218	 5.47124457981129E-02 
2219	 5.66318789002875E-02 
2220	 5.91193865603301E-02 
2221	 5.81931729499486E-02 
2222	 5.56552353172266E-02 
2223	 5.56743505585691E-02 
2224	 5.57887602157593E-02 
2225	 0.055307330752567 
2226	 5.76803429815172E-02 
2227	 5.57113842386802E-02 
2228	 4.66723621244165E-02 
2229	 4.33578750604584E-02 
2230	 4.13229268803229E-02 
2231	 4.31783086055244E-02 
2232	 5.25655804471225E-02 
2233	 5.74227354168281E-02 
2234	 6.62980523368234E-02 
2235	 6.24953607740161E-02 
2236	 5.65831962502355E-02 
2237	 5.18409088583902E-02 
2238	 4.97285843965353E-02 
2239	 5.40849881438728E-02 
2240	 5.71880233467304E-02 
2241	 6.10228454493063E-02 
2242	 6.56718549589137E-02 
2243	 6.41075887376368E-02 
2244	 6.10934527510828E-02 
2245	 6.27022154095993E-02 
2246	 6.50511055485404E-02 
2247	 6.51830498651562E-02 
2248	 6.34570298757914E-02 
2249	 0.062703960573182 
2250	 6.05392033307817E-02 
2251	 5.05378400932547E-02 
2252	 4.84890868869075E-02 
2253	 5.31112852312049E-02 
2254	 4.94923942998918E-02 
2255	 4.97988680662914E-02 
2256	 5.34958757585337E-02 
2257	 5.51688076701606E-02 
2258	 6.10985498428581E-02 
2259	 6.78473547188203E-02 
2260	 6.94031861403943E-02 
2261	 6.76909888083353E-02 
2262	 6.60331203650806E-02 
2263	 5.72918792725629E-02 
2264	 5.40270208666919E-02 
2265	 5.49200176077901E-02 
2266	 5.49316920300633E-02 
2267	 5.61379029234285E-02 
2268	 5.80831121756602E-02 
2269	 6.37347665213975E-02 
2270	 6.43986776487004E-02 
2271	 0.059898540130035 
2272	 5.85821308676623E-02 
2273	 5.39439371374905E-02 
2274	 0.052096079523292 
2275	 0.054893891470324 
2276	 0.058552101726252 
2277	 6.84367987465227E-02 
2278	 6.95982339553567E-02 
2279	 6.32072659978665E-02 
2280	 6.04359177610218E-02 
2281	 5.39066528234194E-02 
2282	 5.13994282669132E-02 
2283	 5.38382979866569E-02 
2284	 6.48872260855981E-02 
2285	 6.58651492887651E-02 
2286	 0.065264435330339 
2287	 7.11016388597824E-02 
2288	 6.22319283581608E-02 
2289	 5.40099862931527E-02 
2290	 0.054002722010563 
2291	 0.04789312102795 
2292	 5.27161023350978E-02 
2293	 6.63165484180221E-02 
2294	 6.77163089577153E-02 
2295	 7.00028802159848E-02 
2296	 6.82847628767855E-02 
2297	 6.25953430005802E-02 
2298	 6.09606890850838E-02 
2299	 5.90300827034817E-02 
2300	 6.31179930915123E-02 
2301	 6.58871836382959E-02 
2302	 0.065092775115881 
2303	 5.69295870363103E-02 
2304	 4.73038984031311E-02 
2305	 4.59903252805311E-02 
2306	 4.65729167914657E-02 
2307	 5.21205772938578E-02 
2308	 5.85129861996878E-02 
2309	 6.00843363981046E-02 
2310	 6.22468482427709E-02 
2311	 7.22897681478586E-02 
2312	 7.66645007022157E-02 
2313	 6.44379069842597E-02 
2314	 6.52452408310355E-02 
2315	 6.84207888798423E-02 
2316	 5.85896266812025E-02 
2317	 5.20080909044951E-02 
2318	 4.82866609700792E-02 
2319	 4.19677589327116E-02 
2320	 2.97974487148023E-02 
2321	 4.16338783748373E-02 
2322	 4.98845410228998E-02 
2323	 3.57852200568652E-02 
2324	 4.62452241902054E-02 
2325	 4.22807832879105E-02 
2326	 1.81186322762061E-02 
2327	 2.05668826652072E-02 
2328	 1.85299161813576E-02 
2329	 0.015797694193165 
2330	 3.08229176436295E-02 
2331	 3.37647979762198E-02 
2332	 2.65610488665133E-02 
2333	 2.76446478383039E-02 
2334	 3.54566490419721E-02 
2335	 0.04101544647008 
2336	 4.41501493550545E-02 
2337	 5.32226731981188E-02 
2338	 0.048261225446794 
2339	 4.29191009458424E-02 
2340	 5.84400987558244E-02 
2341	 0.061840297652401 
2342	 5.61508974222248E-02 
2343	 0.050040410553738 
2344	 4.98041905126833E-02 
2345	 5.87376810891087E-02 
2346	 5.78349013634019E-02 
2347	 5.62655130507103E-02 
2348	 5.24461659433934E-02 
2349	 3.44361735281354E-02 
2350	 0.036430519683843 
2351	 5.12565707612096E-02 
2352	 6.85722178706011E-02 
2353	 8.70800042458354E-02 
2354	 7.07598781401492E-02 
2355	 5.19932512282488E-02 
2356	 4.10565835111286E-02 
2357	 3.87817891457872E-02 
2358	 7.37942534293359E-02 
2359	 0.124636983523944 
2360	 0.148300630404956 
2361	 0.118157892032284 
2362	 0.100011208906122 
2363	 9.47572181348436E-02 
2364	 5.60747912615983E-02 
2365	 8.26352153965422E-02 
2366	 9.57335986854988E-02 
2367	 6.22678250533031E-02 
2368	 7.51498960296798E-02 
2369	 0.07146620960314 
2370	 0.088137530011256 
2371	 0.102258204292981 
2372	 8.25903204494762E-02 
2373	 5.98925108913055E-02 
2374	-8.29835114587097E-03 
2375	-4.03115911022565E-02 
2376	-2.82692383255013E-02 
2377	 2.16230256300132E-02 
2378	 9.08339465901019E-02 
2379	 0.119934072958145 
2380	 0.14370252728525 
2381	 0.137899894633385 
2382	 0.130978424026809 
2383	 0.212637418887945 
2384	 0.321937501922019 
2385	 0.234167216696049 
2386	 7.75489503655751E-02 
2387	 4.20556231548655E-03 
2388	-0.107168854684038 
2389	-3.22646197151941E-02 
2390	 7.12250441356548E-02 
2391	 6.41780257478682E-03 
2392	 4.60378090826874E-03 
2393	 2.31770325118082E-02 
2394	-1.88014652900146E-02 
2395	 4.82518910756977E-02 
2396	 1.04310784239245E-02 
2397	-8.13419333992341E-02 
2398	 9.15596729085928E-03 
2399	-0.047857251344401 
2400	-8.55301095966714E-02 
2401	 2.68882633845035E-02 
2402	-4.83034872019808E-02 
2403	 2.39896132173045E-02 
2404	 0.177299236381832 
2405	-1.30876548233433E-02 
2406	-0.108717899062616 
2407	-7.90698091920256E-02 
2408	-9.02771233603859E-02 
2409	 2.46059790518997E-02 
2410	 0.066566094857044 
2411	-0.140844349923754 
2412	-0.460921583205417 
2413	-0.63162523415754 
2414	-0.676886562104965 
2415	-0.26819626482074 
2416	 3.28485681790976E-02 
2417	 0.204247457859546 
2418	 0.307995392118338 
2419	 0.149484521489188 
2420	 0.147791599761527 
2421	 0.434353616967558 
2422	 0.395552768050399 
2423	 0.450428076980207 
2424	 0.289153168660813 
2425	-0.616954971507951 
2426	-0.615069267259611 
2427	-0.664169223375548 
2428	-0.778502031968498 
2429	-0.41217696632197 
2430	 4.91877633291119E-02 
2431	-1.70411994780798E-02 
2432	-0.33748567120108 
2433	-0.989691804291585 
2434	-3.17771033235683 
2435	-2.13844007399168 
2436	-0.669195218248602 
2437	-0.334250358560479 
2438	-0.337228790847816 
2439	 0.14501843092011 
2440	 0.880983670455094 
2441	 3.47323226212533 
2442	-1.72986765456927 
2443	 0.103749107007098 
2444	 0.659255434789036 
2445	-3.64063780270954 
2446	 13.5370552634291 
2447	 7.34001135825368 
2448	 5.59734320277837 
2449	 0.654984356485906 
2450	 0.207254973453073 
2451	 2.86184338131142 
2452	-0.561534757073519 
2453	-0.96485035322296 
2454	-0.684493755744455 
2455	-0.357894062726291 
2456	-0.476175651503043 
2457	-0.587635872089795 
2458	-0.488468828286687 
2459	-0.14678552712353 
2460	-0.17158357990368 
2461	 3.96631682352313 
2462	 6.95638794502167 
2463	 4.76615793489393 
2464	-7.23413498161719E-02 
2465	 0.363578662090875 
2466	 0.433503157639253 
2467	-0.114236744023091 
2468	 2.28711782572011 
2469	-0.578370654187109 
2470	 0.752481413804537 
2471	-0.104587592159457 
2472	-1.68404717923926 
2473	-1.78876324492233 
2474	-1.92775608731619 
2475	-0.904911755961511 
2476	 1.62402543685525 
2477	-4.77949668117024 
2478	-1.81542989081844 
2479	-1.48375857780325 
2480	-0.398751941402871 
2481	 0.551052813429392 
2482	 0.305039528399127 
2483	-0.559338015344789 
2484	 9.72395636172722E-02 
2485	-0.060443741579575 
2486	-1.35624546141813 
2487	 17.0575869243311 
2488	 3.0038238725719 
2489	 0.292136912146459 
2490	-0.331182302953278 
2491	-0.508510868916928 
2492	-0.25838977828764 
2493	 14.9993734899051 
2494	-6.33767642834834 
2495	 1.87790743214654 
2496	-26.4451605490552 
2497	-1711.22356807375 
2498	 3.67493503423022 
2499	 9.2099516997661 
2500	 1.40820817847016 
