Wavelength	rt0713east_far200003.asd
350	 9.41703395821624E-02 
351	 9.36918596653416E-02 
352	 9.32010022490883E-02 
353	 9.32131794924972E-02 
354	 9.34958150124653E-02 
355	 9.24618406891934E-02 
356	 9.23394777667687E-02 
357	 9.26880735872604E-02 
358	 9.25184531881387E-02 
359	 9.24043964696823E-02 
360	 9.21196804021219E-02 
361	 9.19002079517239E-02 
362	 9.22026295057728E-02 
363	 9.23874954113524E-02 
364	 9.19937559327908E-02 
365	 9.13087654692326E-02 
366	 9.16739876010797E-02 
367	 9.14978866564518E-02 
368	 9.14770124223344E-02 
369	 9.22321207178282E-02 
370	 9.19326532777174E-02 
371	 9.18132687607451E-02 
372	 9.20224655767801E-02 
373	 9.20523416251925E-02 
374	 9.18537276338035E-02 
375	 9.16708118252499E-02 
376	 9.17678989346459E-02 
377	 9.23620296433669E-02 
378	 9.27197981808313E-02 
379	 9.25012925796338E-02 
380	 9.18031640626434E-02 
381	 9.15532311357141E-02 
382	 9.18274085156409E-02 
383	 9.24172399352365E-02 
384	 9.28990170494065E-02 
385	 0.092636847059421 
386	 9.27357320187891E-02 
387	 9.32723746924349E-02 
388	 9.30869190622669E-02 
389	 9.31929044196707E-02 
390	 9.31157213370081E-02 
391	 9.27012145300793E-02 
392	 9.32849337488971E-02 
393	 9.36541770437745E-02 
394	 9.37282966616856E-02 
395	 9.37957274569286E-02 
396	 9.35178284329287E-02 
397	 0.093572948873968 
398	 9.38820721306407E-02 
399	 9.37383926409819E-02 
400	 9.38249957848821E-02 
401	 9.39889138168717E-02 
402	 9.40076608950716E-02 
403	 9.37242234523889E-02 
404	 0.093941691010672 
405	 9.43392363081021E-02 
406	 9.43324188573512E-02 
407	 9.45358372814472E-02 
408	 9.45898815253392E-02 
409	 9.44875029221352E-02 
410	 9.45988373215804E-02 
411	 0.094660781140355 
412	 0.094772795305116 
413	 9.49885803211763E-02 
414	 9.51019353070622E-02 
415	 9.52320171086783E-02 
416	 9.53720770053999E-02 
417	 0.095493519650363 
418	 9.57432299533455E-02 
419	 9.60572693339685E-02 
420	 9.62973032961207E-02 
421	 9.62836083888499E-02 
422	 9.65826683657569E-02 
423	 9.68977249395748E-02 
424	 9.69865268707591E-02 
425	 9.72833246451659E-02 
426	 9.75733076756584E-02 
427	 9.78958631062702E-02 
428	 9.83426458489039E-02 
429	 9.84696527969075E-02 
430	 9.88474045912544E-02 
431	 9.94059168581764E-02 
432	 9.92473384602052E-02 
433	 0.09952008190357 
434	 0.100078032820524 
435	 0.10053838460261 
436	 0.100723384483218 
437	 0.100948281064007 
438	 0.101303975101533 
439	 0.101726322887709 
440	 0.102034781572963 
441	 0.102333282407283 
442	 0.102682022148034 
443	 0.103031157121624 
444	 0.103314889067914 
445	 0.103580994623294 
446	 0.103883648728003 
447	 0.104162582616433 
448	 0.104472815268174 
449	 0.104778941278324 
450	 0.104998668499422 
451	 0.105351608258947 
452	 0.105671787087374 
453	 0.105855732935288 
454	 0.106020689704714 
455	 0.106367015798734 
456	 0.106697795855997 
457	 0.106787689215247 
458	 0.10715066892465 
459	 0.107360936849801 
460	 0.107374121144256 
461	 0.107564379440804 
462	 0.10785526703245 
463	 0.108071465848492 
464	 0.108159885675915 
465	 0.108485496899202 
466	 0.108640962282098 
467	 0.108710451916887 
468	 0.10898417557709 
469	 0.109324304298061 
470	 0.109504782086955 
471	 0.109538086668754 
472	 0.109758094962233 
473	 0.109905131818027 
474	 0.110085576468793 
475	 0.110413805790666 
476	 0.11071007425784 
477	 0.110917538828373 
478	 0.111174661509562 
479	 0.111688838360318 
480	 0.111846833232937 
481	 0.111926803681553 
482	 0.112196995737425 
483	 0.112677871819866 
484	 0.112969933633593 
485	 0.113210587384063 
486	 0.113659730180797 
487	 0.114005592189133 
488	 0.114386745792303 
489	 0.114805391632066 
490	 0.115120147843577 
491	 0.115440199871473 
492	 0.11581182214975 
493	 0.116216034616986 
494	 0.116489267033443 
495	 0.116830373105771 
496	 0.117256182410425 
497	 0.117692913623154 
498	 0.118162716107704 
499	 0.118593565907122 
500	 0.118978276155772 
501	 0.119425094729895 
502	 0.119724012266721 
503	 0.120026731377286 
504	 0.120514777326593 
505	 0.121043704552112 
506	 0.121598126324717 
507	 0.122107939859916 
508	 0.122481453576458 
509	 0.122983057109757 
510	 0.1235081361288 
511	 0.123984782091804 
512	 0.12458663232908 
513	 0.125048947519197 
514	 0.125520033518737 
515	 0.126255550805719 
516	 0.126906804639779 
517	 0.127467572861375 
518	 0.127939597201972 
519	 0.128297878250914 
520	 0.128876436936928 
521	 0.129543333388138 
522	 0.130108858935738 
523	 0.130572383721944 
524	 0.131089088159135 
525	 0.131689834779454 
526	 0.132311004935412 
527	 0.132908506622196 
528	 0.133446048730899 
529	 0.133977771459391 
530	 0.13475267399373 
531	 0.135438179147088 
532	 0.136022193089096 
533	 0.136598936886632 
534	 0.137106998725195 
535	 0.137680563674469 
536	 0.138342733578342 
537	 0.138976933816345 
538	 0.13945956731822 
539	 0.140005044779496 
540	 0.140755218120714 
541	 0.141340199847013 
542	 0.141882895023746 
543	 0.142487818885017 
544	 0.143214148682344 
545	 0.143730031163676 
546	 0.144362497352729 
547	 0.145194138176953 
548	 0.145662828822176 
549	 0.146273723402567 
550	 0.146933606482022 
551	 0.147429056164299 
552	 0.148129504585075 
553	 0.148777239110387 
554	 0.149271061924525 
555	 0.149725887621109 
556	 0.150383114423366 
557	 0.151097126880394 
558	 0.151689641679126 
559	 0.152274557247457 
560	 0.152635697382213 
561	 0.152938913669248 
562	 0.153540021247431 
563	 0.154072509072436 
564	 0.154509738130515 
565	 0.154867600792018 
566	 0.155147490254459 
567	 0.155442228056488 
568	 0.155789538155356 
569	 0.156180909840058 
570	 0.156518513010194 
571	 0.156794717421482 
572	 0.157065416060083 
573	 0.157438495624431 
574	 0.157659217881457 
575	 0.157887452935032 
576	 0.158253670916978 
577	 0.158477404602298 
578	 0.15869681212059 
579	 0.158963145688447 
580	 0.159259363659269 
581	 0.159468409717049 
582	 0.159666078635743 
583	 0.159828317317669 
584	 0.159687816635737 
585	 0.159554428218617 
586	 0.159303197999146 
587	 0.158743433864653 
588	 0.158305682030988 
589	 0.158073789861855 
590	 0.158054993261161 
591	 0.158171616746122 
592	 0.158046300784933 
593	 0.157844713999413 
594	 0.157757330472256 
595	 0.157660826452396 
596	 0.157582770337561 
597	 0.157504335464133 
598	 0.157373594951124 
599	 0.157059052602697 
600	 0.156817916239553 
601	 0.156777488766122 
602	 0.156770733121604 
603	 0.156744626930817 
604	 0.156730196118408 
605	 0.156743183804711 
606	 0.156499445814829 
607	 0.156539241436974 
608	 0.156830008391494 
609	 0.156730825318474 
610	 0.156637035446984 
611	 0.156684754509732 
612	 0.156851784731515 
613	 0.156799395238218 
614	 0.156867076067425 
615	 0.156987198317794 
616	 0.15691007331356 
617	 0.156988222126016 
618	 0.157064971868584 
619	 0.157038551094677 
620	 0.156979825706773 
621	 0.156897214184663 
622	 0.156887417707611 
623	 0.157018797567922 
624	 0.157133862696769 
625	 0.157032289590635 
626	 0.156776405127148 
627	 0.156676846130892 
628	 0.156784130588731 
629	 0.157006676215103 
630	 0.157185586177526 
631	 0.157052565039089 
632	 0.157089910904846 
633	 0.157220205182536 
634	 0.157149770589011 
635	 0.157209082859727 
636	 0.157288313801244 
637	 0.157347119041052 
638	 0.157510719319979 
639	 0.157465554634826 
640	 0.157384884040267 
641	 0.157462913282956 
642	 0.157370809454836 
643	 0.157085139809095 
644	 0.15661709880218 
645	 0.156033563815798 
646	 0.155812870660206 
647	 0.155732571511375 
648	 0.155625984997402 
649	 0.155858982005055 
650	 0.15568354571222 
651	 0.155354852566024 
652	 0.15538904289467 
653	 0.15517281292405 
654	 0.154718901509019 
655	 0.154172037543663 
656	 0.153869558115873 
657	 0.153582838220204 
658	 0.153337559728722 
659	 0.153167493250105 
660	 0.152996054494337 
661	 0.15276608821744 
662	 0.152498839325884 
663	 0.152262878414394 
664	 0.151973280772382 
665	 0.151770715168713 
666	 0.151696197383653 
667	 0.151579581940776 
668	 0.151362106028797 
669	 0.151222692821349 
670	 0.151320932876262 
671	 0.151275785716393 
672	 0.151236940670132 
673	 0.151281136393292 
674	 0.151389073661875 
675	 0.151491898249808 
676	 0.151479520477648 
677	 0.151377189825949 
678	 0.151551686916395 
679	 0.15184421734596 
680	 0.152075403639387 
681	 0.152123231947385 
682	 0.152389444222504 
683	 0.152622970106649 
684	 0.152595903893409 
685	 0.152156136724264 
686	 0.151806959009649 
687	 0.151720403439065 
688	 0.151873859905458 
689	 0.152241672295558 
690	 0.15225539324786 
691	 0.151794986269099 
692	 0.151072839129398 
693	 0.150772677574493 
694	 0.150947037888202 
695	 0.151348148706193 
696	 0.151621299233803 
697	 0.151096549481017 
698	 0.150171039615166 
699	 0.149561119190464 
700	 0.149187224283718 
701	 0.148987793520525 
702	 0.148824933188432 
703	 0.148520695063357 
704	 0.148010846054313 
705	 0.147547943385531 
706	 0.1471485085622 
707	 0.1461300144157 
708	 0.145331412250534 
709	 0.144689134643136 
710	 0.143847831456697 
711	 0.14288058815416 
712	 0.141735716633872 
713	 0.140368412260019 
714	 0.138682060644644 
715	 0.136096668058767 
716	 0.133071329291617 
717	 0.130679202579521 
718	 0.128845716867612 
719	 0.128162999460033 
720	 0.1278634110142 
721	 0.126921450469814 
722	 0.125217940284171 
723	 0.122801695336084 
724	 0.120458478514269 
725	 0.119165590813369 
726	 0.117868837312526 
727	 0.11614620703374 
728	 0.113982734841288 
729	 0.11189361935707 
730	 0.110234335378256 
731	 0.109034975093156 
732	 0.107982417651277 
733	 0.106801409212501 
734	 0.105445001258057 
735	 0.104126656130065 
736	 0.103376623709874 
737	 0.103065376935155 
738	 0.102907050231814 
739	 0.102680249778325 
740	 0.102427346585565 
741	 0.102475380970257 
742	 0.102619892133521 
743	 0.102450862235023 
744	 0.102330126783299 
745	 0.102292501781775 
746	 0.102354760234471 
747	 0.102552771689613 
748	 0.102480196024436 
749	 0.102290239043546 
750	 0.102226765357781 
751	 0.10232219709501 
752	 0.102206765079587 
753	 0.102035425680082 
754	 0.102175552631196 
755	 0.102140208361675 
756	 0.101994935724774 
757	 0.101720217564221 
758	 0.100918759442689 
759	 9.98393252188271E-02 
760	 9.89367545940666E-02 
761	 9.88823614582122E-02 
762	 9.87218345561326E-02 
763	 9.95272368830226E-02 
764	 0.100585739889537 
765	 0.10104836473595 
766	 0.101868647745007 
767	 0.102283627339523 
768	 0.102335608741713 
769	 0.102804034516185 
770	 0.102860540411551 
771	 0.103019891191865 
772	 0.103574575419119 
773	 0.10344767585992 
774	 0.103687312560366 
775	 0.104074832156231 
776	 0.10401502359512 
777	 0.104214376219591 
778	 0.104588179128469 
779	 0.104930668896649 
780	 0.105010732818381 
781	 0.105375986097795 
782	 0.105779681286824 
783	 0.105991639279936 
784	 0.106166645848259 
785	 0.10620858275942 
786	 0.106240350090492 
787	 0.106433632182111 
788	 0.106742697297342 
789	 0.107165774039396 
790	 0.107608197911057 
791	 0.107956786973429 
792	 0.108670916982354 
793	 0.109101775724539 
794	 0.109098572542414 
795	 0.10953285783964 
796	 0.109887272950936 
797	 0.110184654546546 
798	 0.110539123043494 
799	 0.110844294999841 
800	 0.110802486702823 
801	 0.110730804027408 
802	 0.11118960671405 
803	 0.111676610134872 
804	 0.11210683644618 
805	 0.112448990240795 
806	 0.112677523009418 
807	 0.112236988258591 
808	 0.111622246476139 
809	 0.111277101970594 
810	 0.110951649852782 
811	 0.110059507887778 
812	 0.108834933408033 
813	 0.107923867453677 
814	 0.10747350726688 
815	 0.106840516064168 
816	 0.106073941978651 
817	 0.105795804983102 
818	 0.105870072280289 
819	 0.105994598048027 
820	 0.105699940993631 
821	 0.104231396160308 
822	 0.103264535544855 
823	 0.102384719838592 
824	 0.101060269327772 
825	 9.97882573046354E-02 
826	 0.097984636461901 
827	 9.62994061796602E-02 
828	 9.55841502633479E-02 
829	 9.40519063383832E-02 
830	 0.092123873875743 
831	 9.08050597780501E-02 
832	 9.10902105033373E-02 
833	 9.03872254118844E-02 
834	 8.96037918069542E-02 
835	 8.91621424772681E-02 
836	 8.83394547982287E-02 
837	 8.83072863499703E-02 
838	 8.82931071120399E-02 
839	 8.77146343113482E-02 
840	 8.75307557463256E-02 
841	 8.74504307679006E-02 
842	 8.74096531882663E-02 
843	 8.73567435963669E-02 
844	 8.70212935984989E-02 
845	 0.086565744733053 
846	 8.63137719966274E-02 
847	 8.65458020971356E-02 
848	 8.63490143604354E-02 
849	 8.57833983627544E-02 
850	 8.52683676944076E-02 
851	 8.54351043732188E-02 
852	 8.51946938719609E-02 
853	 8.49525507827013E-02 
854	 8.49374502525743E-02 
855	 8.43163730292851E-02 
856	 8.38883198517526E-02 
857	 8.38367680219574E-02 
858	 0.0840287457579 
859	 8.39409216380912E-02 
860	 8.37400181007081E-02 
861	 0.083411974108855 
862	 0.082951894685539 
863	 8.29396037701867E-02 
864	 8.30000866283067E-02 
865	 8.27006279541279E-02 
866	 8.18389545363507E-02 
867	 0.082278763524923 
868	 8.22101277063233E-02 
869	 8.12454027125981E-02 
870	 8.14067593360329E-02 
871	 8.15148330869905E-02 
872	 8.11902945111839E-02 
873	 0.080532187635601 
874	 8.03134765159793E-02 
875	 8.01844226113744E-02 
876	 7.97971914925066E-02 
877	 7.90602327002792E-02 
878	 7.87657672724403E-02 
879	 7.85368585429029E-02 
880	 7.82751252233784E-02 
881	 7.80128666746536E-02 
882	 7.77242775560592E-02 
883	 7.72338821732608E-02 
884	 0.07679325373594 
885	 7.68338478329558E-02 
886	 7.64394291355779E-02 
887	 7.60348159692632E-02 
888	 7.58563732986313E-02 
889	 7.56939269329433E-02 
890	 7.43920598296143E-02 
891	 0.074031662693924 
892	 7.50068301578364E-02 
893	 7.32840300805099E-02 
894	 7.20404618954653E-02 
895	 7.14485675568842E-02 
896	 7.08550341108143E-02 
897	 6.99581549961507E-02 
898	 7.01545997260108E-02 
899	 7.02528354323125E-02 
900	 6.91034904778791E-02 
901	 0.068862017884905 
902	 6.93789007077842E-02 
903	 6.99255575099149E-02 
904	 6.96192066688729E-02 
905	 6.76585254104443E-02 
906	 6.77914006030004E-02 
907	 6.91834851697606E-02 
908	 6.80054538908673E-02 
909	 6.80095527024663E-02 
910	 6.69172980781339E-02 
911	 6.53348830849936E-02 
912	 6.63823862466426E-02 
913	 6.71505096378334E-02 
914	 6.58394347385254E-02 
915	 6.37352638820245E-02 
916	 6.46293315625974E-02 
917	 6.31052104182143E-02 
918	 6.31739626476225E-02 
919	 6.50779564497066E-02 
920	 6.30416932929515E-02 
921	 6.33853332436715E-02 
922	 6.34949429771156E-02 
923	 6.14756626774431E-02 
924	 0.060610168741159 
925	 0.060580388442648 
926	 6.08271942732141E-02 
927	 6.03754651377678E-02 
928	 5.74890830648255E-02 
929	 5.59613778158343E-02 
930	 5.70336409630369E-02 
931	 5.92871054164383E-02 
932	 5.66913383520306E-02 
933	 5.85027068801642E-02 
934	 6.04300700942796E-02 
935	 5.53459891243572E-02 
936	 5.98994268864078E-02 
937	 5.72388848801635E-02 
938	 5.01187289788438E-02 
939	 4.58626013901332E-02 
940	 4.56034884841294E-02 
941	 5.02908083751459E-02 
942	 5.38898574605568E-02 
943	 5.00194652936865E-02 
944	 5.39419095780961E-02 
945	 0.051506316998184 
946	 4.58278282615228E-02 
947	 4.83094105758898E-02 
948	 4.85757799845809E-02 
949	 4.81267405978702E-02 
950	 4.84206408095988E-02 
951	 0.050226856350575 
952	 5.39325902028001E-02 
953	 5.30837101336798E-02 
954	 4.78939351422103E-02 
955	 4.41860324880252E-02 
956	 4.96301834559028E-02 
957	 4.95280743905393E-02 
958	 4.55557299946057E-02 
959	 4.91492544599489E-02 
960	 5.06423629454041E-02 
961	 5.19317975248013E-02 
962	 0.053469630412765 
963	 5.37339130367327E-02 
964	 4.78503609060851E-02 
965	 4.70081729497793E-02 
966	 5.15233323485248E-02 
967	 5.40451191612185E-02 
968	 5.47112964580993E-02 
969	 5.38828021378191E-02 
970	 5.33536732184145E-02 
971	 0.055176837092391 
972	 0.054079848888602 
973	 0.05130884872783 
974	 5.04048537339314E-02 
975	 5.45121244971608E-02 
976	 5.17358527064237E-02 
977	 5.03999202025709E-02 
978	 5.25734480277947E-02 
979	 5.33025378984096E-02 
980	 5.45051459926805E-02 
981	 5.38786360200739E-02 
982	 5.25476593023224E-02 
983	 5.39372131595189E-02 
984	 5.66434244011414E-02 
985	 5.46156409135279E-02 
986	 5.07998984426231E-02 
987	 5.34313498484192E-02 
988	 5.48313790507687E-02 
989	 5.52578212662697E-02 
990	 5.51712082075337E-02 
991	 5.46217724766861E-02 
992	 0.052692635259322 
993	 5.38632415902728E-02 
994	 5.56439374668359E-02 
995	 5.24980836155365E-02 
996	 5.22092246477137E-02 
997	 5.70322888343107E-02 
998	 5.98426740188295E-02 
999	 5.30841688284801E-02 
1000	 5.62896709959861E-02 
1001	 5.02360258390313E-02 
1002	 5.04300111616138E-02 
1003	 5.04323125838819E-02 
1004	 5.07111388771547E-02 
1005	 5.06458308937255E-02 
1006	 5.04680682896185E-02 
1007	 4.94486664386861E-02 
1008	 4.89807171813062E-02 
1009	 4.89887111524826E-02 
1010	 4.90935748015856E-02 
1011	 4.95858122337819E-02 
1012	 4.99093117395524E-02 
1013	 5.01903730770099E-02 
1014	 5.03902272882986E-02 
1015	 5.03001950605586E-02 
1016	 5.06473712204612E-02 
1017	 5.13134068434785E-02 
1018	 5.16227316420683E-02 
1019	 0.0523113259276 
1020	 5.23743342084052E-02 
1021	 5.19100363243754E-02 
1022	 5.12915848408269E-02 
1023	 5.09615065311022E-02 
1024	 0.050725596776682 
1025	 5.12697013511982E-02 
1026	 5.20591624869732E-02 
1027	 5.26485160020526E-02 
1028	 5.37504329303831E-02 
1029	 5.38407853166622E-02 
1030	 5.32322843351663E-02 
1031	 5.30959043318231E-02 
1032	 5.24869833824411E-02 
1033	 5.22738830356341E-02 
1034	 5.25141977810046E-02 
1035	 5.26776798837513E-02 
1036	 5.30174808994335E-02 
1037	 5.29633540974968E-02 
1038	 5.27441034178497E-02 
1039	 5.26530767430484E-02 
1040	 5.19323498767524E-02 
1041	 5.20496002224676E-02 
1042	 5.24438652814487E-02 
1043	 5.36134201342778E-02 
1044	 5.38668899290351E-02 
1045	 5.41171913351638E-02 
1046	 5.42338973652441E-02 
1047	 5.35970964518535E-02 
1048	 5.37346693148271E-02 
1049	 5.45432360564904E-02 
1050	 5.48140199398684E-02 
1051	 0.055217427199354 
1052	 0.055233865874081 
1053	 5.43030479292069E-02 
1054	 5.42657867929615E-02 
1055	 5.49141494221856E-02 
1056	 5.50427506889208E-02 
1057	 5.51497045129576E-02 
1058	 5.56482740744489E-02 
1059	 5.57314622046563E-02 
1060	 5.51828375193291E-02 
1061	 5.50619125218581E-02 
1062	 5.51877712435404E-02 
1063	 5.52418527770361E-02 
1064	 5.52125177355957E-02 
1065	 5.52351992032286E-02 
1066	 0.055460687430712 
1067	 5.55086970529805E-02 
1068	 5.56208248214006E-02 
1069	 5.54126876124731E-02 
1070	 5.46096436943577E-02 
1071	 5.43653447758926E-02 
1072	 5.43031348299675E-02 
1073	 5.40063903481703E-02 
1074	 5.41873312744613E-02 
1075	 5.51429443339079E-02 
1076	 5.52325688440972E-02 
1077	 5.51658380850949E-02 
1078	 0.054869569148719 
1079	 5.38074690817719E-02 
1080	 5.36320563081023E-02 
1081	 5.37887568943696E-02 
1082	 5.38203566745632E-02 
1083	 5.46223114592372E-02 
1084	 0.05454850215206 
1085	 0.053393305322279 
1086	 5.31046775582215E-02 
1087	 5.32634051729799E-02 
1088	 5.29507451488107E-02 
1089	 5.26254835606973E-02 
1090	 5.27195212872637E-02 
1091	 5.24172142535535E-02 
1092	 5.12192259728386E-02 
1093	 5.09067124303706E-02 
1094	 5.10828650013892E-02 
1095	 5.12698821436343E-02 
1096	 5.19107502708681E-02 
1097	 5.21827700327442E-02 
1098	 5.29457272377586E-02 
1099	 5.25791420257829E-02 
1100	 5.04163551046345E-02 
1101	 4.99430988476602E-02 
1102	 5.03108662812014E-02 
1103	 4.99120749718582E-02 
1104	 5.05146193710844E-02 
1105	 5.01139154254252E-02 
1106	 4.82748310863909E-02 
1107	 4.70539107717128E-02 
1108	 4.66240416682791E-02 
1109	 0.047925754297587 
1110	 4.81338261710877E-02 
1111	 4.82388661900185E-02 
1112	 4.76782659936922E-02 
1113	 4.61794061659887E-02 
1114	 4.55102064640313E-02 
1115	 4.54407349806098E-02 
1116	 0.044632427092571 
1117	 0.042655105412113 
1118	 4.16361485084048E-02 
1119	 4.13981260342892E-02 
1120	 4.15353715297762E-02 
1121	 4.87396271416028E-02 
1122	 4.53261803374913E-02 
1123	 4.47139358106259E-02 
1124	 3.94655529533012E-02 
1125	 2.81455203440562E-02 
1126	 3.64962476223507E-02 
1127	 5.20592339057296E-02 
1128	 5.19578318544386E-02 
1129	 4.81858717055786E-02 
1130	 4.13859832219862E-02 
1131	 4.10310679270261E-02 
1132	 3.62346822511931E-02 
1133	 3.50304706096908E-02 
1134	 0.040769890205487 
1135	 4.19042561516609E-02 
1136	 3.89059018453682E-02 
1137	 3.81423599810857E-02 
1138	 4.00709396968178E-02 
1139	 3.81271690597943E-02 
1140	 3.58194818808059E-02 
1141	 3.86543656403906E-02 
1142	 0.038071626263689 
1143	 3.84199980361036E-02 
1144	 4.19893814236108E-02 
1145	 3.66107654656765E-02 
1146	 3.35297068771031E-02 
1147	 3.74501049283921E-02 
1148	 3.60144730435023E-02 
1149	 3.55528983834069E-02 
1150	 3.67789782934114E-02 
1151	 3.94223665315074E-02 
1152	 3.84689442994804E-02 
1153	 3.70748281376789E-02 
1154	 3.76357095714177E-02 
1155	 3.77448135933732E-02 
1156	 3.70496740585798E-02 
1157	 3.91291973602055E-02 
1158	 4.04569584413189E-02 
1159	 4.02523058882054E-02 
1160	 4.19793036816386E-02 
1161	 4.33673570231796E-02 
1162	 4.31350436806221E-02 
1163	 0.043655532640352 
1164	 4.40460530947848E-02 
1165	 4.34680899008169E-02 
1166	 4.34189856531385E-02 
1167	 4.39221671514445E-02 
1168	 4.43429780741953E-02 
1169	 4.45588864426739E-02 
1170	 4.50724091521036E-02 
1171	 4.53995468208761E-02 
1172	 4.53338377355478E-02 
1173	 4.49560055932233E-02 
1174	 4.43115903954721E-02 
1175	 4.44031200939879E-02 
1176	 4.44762701989779E-02 
1177	 0.045427016720912 
1178	 4.66776561202642E-02 
1179	 4.61917673109859E-02 
1180	 4.52319461636067E-02 
1181	 4.53384149119877E-02 
1182	 4.54932994984184E-02 
1183	 4.60148149238137E-02 
1184	 4.67214278892044E-02 
1185	 4.59893089842219E-02 
1186	 4.50213655069649E-02 
1187	 4.55964667516738E-02 
1188	 4.64579729136977E-02 
1189	 4.62680613903082E-02 
1190	 4.63673156942696E-02 
1191	 4.67677048297496E-02 
1192	 4.65841207865252E-02 
1193	 4.57630254896085E-02 
1194	 0.045860224553176 
1195	 4.65159879709157E-02 
1196	 4.64166576097649E-02 
1197	 4.64357519757166E-02 
1198	 4.64786031363989E-02 
1199	 4.61832333845399E-02 
1200	 4.60638922439235E-02 
1201	 4.58094413388652E-02 
1202	 4.59115746455944E-02 
1203	 4.60429882773655E-02 
1204	 0.045705038338747 
1205	 4.63467594680144E-02 
1206	 4.72107453125738E-02 
1207	 4.70972768809169E-02 
1208	 4.63884866213999E-02 
1209	 4.57845357342599E-02 
1210	 4.59576924202978E-02 
1211	 4.66034739673677E-02 
1212	 4.70628345444188E-02 
1213	 4.69896308107933E-02 
1214	 4.72848781145183E-02 
1215	 4.73390216615019E-02 
1216	 4.73635452352565E-02 
1217	 4.72870806380128E-02 
1218	 4.78687443424244E-02 
1219	 4.78075773421925E-02 
1220	 0.047004524487202 
1221	 4.71738447497863E-02 
1222	 4.78556306070979E-02 
1223	 4.77516340883863E-02 
1224	 4.74471601226411E-02 
1225	 4.74308158763084E-02 
1226	 4.71080202138459E-02 
1227	 4.70025619475967E-02 
1228	 4.73655058645893E-02 
1229	 4.76840056318857E-02 
1230	 4.77466716174755E-02 
1231	 4.77809423218051E-02 
1232	 4.80805536492961E-02 
1233	 4.80871756318228E-02 
1234	 4.78999421881514E-02 
1235	 4.79175940354881E-02 
1236	 4.78455762279346E-02 
1237	 4.77401311632255E-02 
1238	 4.77593798355901E-02 
1239	 4.79334866605837E-02 
1240	 4.76567510766632E-02 
1241	 4.74832515859177E-02 
1242	 4.75870468125122E-02 
1243	 4.76281183256878E-02 
1244	 4.75674724476772E-02 
1245	 4.74112640123663E-02 
1246	 4.75951853487642E-02 
1247	 4.77433140859459E-02 
1248	 4.77701671802359E-02 
1249	 4.80044053661751E-02 
1250	 4.79193704668694E-02 
1251	 4.75682666837913E-02 
1252	 4.74620185623431E-02 
1253	 4.77574007075578E-02 
1254	 4.78773419487404E-02 
1255	 4.74666753428318E-02 
1256	 4.75732106069785E-02 
1257	 4.83020376532314E-02 
1258	 4.82130725363414E-02 
1259	 0.047719157654169 
1260	 4.77252210632623E-02 
1261	 4.72689829366203E-02 
1262	 4.69666934501444E-02 
1263	 4.69455944026062E-02 
1264	 4.76182025654399E-02 
1265	 0.047603256166915 
1266	 4.72347203272299E-02 
1267	 4.71731422037556E-02 
1268	 4.72137563336011E-02 
1269	 0.047179197278134 
1270	 4.74460201945861E-02 
1271	 0.047330384952231 
1272	 4.67794953274617E-02 
1273	 4.69505456303205E-02 
1274	 4.72354095995728E-02 
1275	 4.67224677502063E-02 
1276	 4.65866343383085E-02 
1277	 4.71241083658351E-02 
1278	 4.70343334247778E-02 
1279	 4.69016663995624E-02 
1280	 4.74209078939988E-02 
1281	 4.77731501739419E-02 
1282	 4.76278106179159E-02 
1283	 4.74488674973081E-02 
1284	 4.75621025865764E-02 
1285	 4.75482135254062E-02 
1286	 4.67593884495335E-02 
1287	 4.66238243124603E-02 
1288	 4.76248671620745E-02 
1289	 4.77979122416412E-02 
1290	 4.76851841406235E-02 
1291	 4.71622913755393E-02 
1292	 4.68572882727102E-02 
1293	 4.62159298733336E-02 
1294	 0.04627468476492 
1295	 0.046621588257043 
1296	 4.60906043734718E-02 
1297	 4.60386886907417E-02 
1298	 4.59721762769717E-02 
1299	 0.045172444880162 
1300	 4.50815966598273E-02 
1301	 4.54568504481742E-02 
1302	 4.56702570625558E-02 
1303	 4.56548376833576E-02 
1304	 4.57071289938477E-02 
1305	 4.56212497684289E-02 
1306	 4.54019772665146E-02 
1307	 4.47450888272508E-02 
1308	 4.46947919033033E-02 
1309	 4.49339059823649E-02 
1310	 4.47611558077068E-02 
1311	 4.47968573847123E-02 
1312	 4.40829850710137E-02 
1313	 4.21114508172595E-02 
1314	 4.19522645826225E-02 
1315	 4.25284705287809E-02 
1316	 4.25334951743665E-02 
1317	 4.36926027772565E-02 
1318	 4.45364750560637E-02 
1319	 4.48613497765922E-02 
1320	 4.46716579773368E-02 
1321	 4.47373477076512E-02 
1322	 4.41186217233916E-02 
1323	 4.27640296401926E-02 
1324	 4.21307797627089E-02 
1325	 4.17929714633773E-02 
1326	 4.10412227518068E-02 
1327	 4.13666443629618E-02 
1328	 4.14801363511071E-02 
1329	 0.041186326042368 
1330	 4.16050920136456E-02 
1331	 4.16767322093315E-02 
1332	 4.13135866685813E-02 
1333	 4.12175331391843E-02 
1334	 4.32200226560592E-02 
1335	 4.39760325471694E-02 
1336	 4.24355100836676E-02 
1337	 4.13634410211551E-02 
1338	 4.16582970011668E-02 
1339	 4.13080687916889E-02 
1340	 3.91144534027529E-02 
1341	 3.84386709967115E-02 
1342	 3.75818366011572E-02 
1343	 0.039101610361285 
1344	 4.71215669288718E-02 
1345	 4.71479804020256E-02 
1346	 3.94615180474168E-02 
1347	 4.12280832677857E-02 
1348	 4.34948782139435E-02 
1349	 4.16235935208972E-02 
1350	 5.62510808845044E-02 
1351	 7.34996702134381E-02 
1352	 6.69742143245657E-02 
1353	 5.58410268599626E-02 
1354	 5.72372574227066E-02 
1355	 7.74541974128743E-02 
1356	 7.20855464947214E-02 
1357	 6.92197759441724E-02 
1358	 0.162092877230422 
1359	 0.278234235782997 
1360	 0.215008599066514 
1361	 0.107466053247356 
1362	 1.97509730131685E-02 
1363	 0.108816363234488 
1364	 0.18273718995856 
1365	 0.087041737927487 
1366	 0.387158914805251 
1367	 0.408200975286141 
1368	 0.348434835935404 
1369	 0.315123998080945 
1370	 0.283415552883115 
1371	 5.16439634027564E-02 
1372	-7.70243728704778E-02 
1373	-0.453834469567837 
1374	-7.68100839590583E-02 
1375	 0.366383571075745 
1376	 0.3737021523214 
1377	 0.537906712239168 
1378	 0.472388281832419 
1379	 5.91043362979129E-02 
1380	-0.112952829170601 
1381	-0.255740036374591 
1382	-0.202908372095481 
1383	-5.35474747976283E-02 
1384	-0.316610295321981 
1385	-0.405520227238925 
1386	-7.46525546383477E-02 
1387	-8.01577797103979E-02 
1388	-9.89710616722646E-02 
1389	 0.710565055902345 
1390	 0.932965765202008 
1391	 1.21685116430391 
1392	 2.53374160914785 
1393	 3.68005220464704 
1394	 3.19353067708939 
1395	-0.243299727034247 
1396	-0.874000559884087 
1397	-1.03507709118437 
1398	-0.263360344853479 
1399	-0.108788682280347 
1400	 0.435287733127496 
1401	 1.10665168756765 
1402	 1.29712494194174 
1403	 0.695652188224257 
1404	 0.601603632162068 
1405	 0.228455759918988 
1406	-0.454808513955409 
1407	-0.306493889420036 
1408	-7.48360212736413E-02 
1409	-0.053214278974062 
1410	 5.86176875756738E-02 
1411	 1.61593310254322E-02 
1412	-0.535099628163867 
1413	-0.474073081632719 
1414	-0.3830036167825 
1415	-4.59383990835643E-02 
1416	 0.417232447564431 
1417	 0.4533821761259 
1418	 0.564427165938352 
1419	 0.425850630872893 
1420	 0.062751873034762 
1421	 6.15782889351467E-02 
1422	 0.185732434345672 
1423	 0.129765346977502 
1424	 9.12879344246516E-02 
1425	 9.23286843179696E-02 
1426	 8.39282580052625E-03 
1427	-2.11079644198226E-02 
1428	 4.29242475563842E-02 
1429	 5.17738834654348E-02 
1430	-5.51130514140689E-03 
1431	-1.74811681763653E-02 
1432	-9.33119489824052E-04 
1433	 1.56801406078712E-02 
1434	 0.063517235476895 
1435	 6.76214763900976E-02 
1436	 6.19819588682352E-02 
1437	 3.70730896711988E-02 
1438	 2.73498187898538E-02 
1439	 3.42481255744779E-02 
1440	 3.34131927764532E-02 
1441	 1.70573952723726E-02 
1442	-1.29870897410327E-03 
1443	 1.70511635793565E-02 
1444	 2.81639494909008E-02 
1445	 3.13765504068481E-02 
1446	 5.77402861859129E-02 
1447	 6.45547899669301E-02 
1448	 6.39659102559822E-02 
1449	 0.06679880122621 
1450	 5.70199661951089E-02 
1451	 0.037720383463343 
1452	 0.022186661874806 
1453	 2.68883980902825E-02 
1454	 2.79012116966596E-02 
1455	 2.62018401044248E-02 
1456	 2.70067256371634E-02 
1457	 3.50884191560245E-02 
1458	 3.39305499954339E-02 
1459	 2.47205271479808E-02 
1460	 2.62165479302012E-02 
1461	 3.30952731123882E-02 
1462	 3.29911431141995E-02 
1463	 3.35267947038757E-02 
1464	 3.68386114716286E-02 
1465	 3.81751765045742E-02 
1466	 3.53587639730105E-02 
1467	 3.14874249778174E-02 
1468	 3.50615236406305E-02 
1469	 0.039678486119476 
1470	 3.59883229362456E-02 
1471	 3.67343149513256E-02 
1472	 3.88056121996147E-02 
1473	 3.01401121447642E-02 
1474	 2.54247720333114E-02 
1475	 2.86043514043282E-02 
1476	 3.13978360955625E-02 
1477	 3.03064452432581E-02 
1478	 3.01323072672993E-02 
1479	 3.69844307704529E-02 
1480	 3.69997676474322E-02 
1481	 2.91904902335881E-02 
1482	 2.80398705783184E-02 
1483	 2.86378695211707E-02 
1484	 2.94166775332998E-02 
1485	 3.12530182837954E-02 
1486	 3.36673641437557E-02 
1487	 3.79634440951514E-02 
1488	 3.84403434873061E-02 
1489	 3.72535279583124E-02 
1490	 3.74463770445176E-02 
1491	 3.64465926467434E-02 
1492	 3.64604816378698E-02 
1493	 3.81947001488505E-02 
1494	 3.85199815998083E-02 
1495	 3.74179808873034E-02 
1496	 3.79316721444832E-02 
1497	 3.96094308292026E-02 
1498	 3.97863796976139E-02 
1499	 3.93750518636574E-02 
1500	 3.98513924767468E-02 
1501	 4.05749388882915E-02 
1502	 4.04328051336891E-02 
1503	 3.99644935911256E-02 
1504	 4.04786153885305E-02 
1505	 4.08453114932189E-02 
1506	 0.041019265314464 
1507	 4.15255895257168E-02 
1508	 4.18825646457066E-02 
1509	 4.12868515138612E-02 
1510	 4.08128614989511E-02 
1511	 4.14032030012322E-02 
1512	 0.041922813799637 
1513	 4.20231722740172E-02 
1514	 4.18483985739503E-02 
1515	 4.16514137055844E-02 
1516	 4.20331541563346E-02 
1517	 4.24001943717282E-02 
1518	 0.042482361300281 
1519	 4.27013293533105E-02 
1520	 0.043066868890022 
1521	 4.32624256606006E-02 
1522	 4.29717446788939E-02 
1523	 4.25502524942913E-02 
1524	 4.27129171829731E-02 
1525	 4.32560547961163E-02 
1526	 4.36133576908611E-02 
1527	 4.36866565434532E-02 
1528	 4.36713041886669E-02 
1529	 4.38087072676482E-02 
1530	 4.37334207611345E-02 
1531	 4.37704114724714E-02 
1532	 0.044047830577405 
1533	 4.37547154476224E-02 
1534	 4.35675652715963E-02 
1535	 4.39159648515498E-02 
1536	 0.04427914650667 
1537	 4.45909578144115E-02 
1538	 0.044768489052073 
1539	 4.50086352860361E-02 
1540	 4.52023905627179E-02 
1541	 4.50305129312502E-02 
1542	 4.44202255591699E-02 
1543	 4.37718861086401E-02 
1544	 4.37015570423559E-02 
1545	 4.38468729856954E-02 
1546	 4.42516958661795E-02 
1547	 4.50233885228429E-02 
1548	 4.51721525930414E-02 
1549	 4.45679413047344E-02 
1550	 4.43931343089515E-02 
1551	 4.49938989950501E-02 
1552	 4.52113936595483E-02 
1553	 4.50598406570151E-02 
1554	 4.54322808936061E-02 
1555	 4.55371806915138E-02 
1556	 4.50486889458999E-02 
1557	 4.48499001538332E-02 
1558	 4.48420045131114E-02 
1559	 0.04498722432081 
1560	 4.52833295131304E-02 
1561	 4.54932826669237E-02 
1562	 0.045645800603888 
1563	 4.49902264278584E-02 
1564	 0.044366207802042 
1565	 0.044880080033159 
1566	 0.045159679617941 
1567	 4.50412158379018E-02 
1568	 4.53321908187481E-02 
1569	 4.53302657068489E-02 
1570	 4.48905882075234E-02 
1571	 4.48542564670566E-02 
1572	 4.52422500792606E-02 
1573	 4.56246892283879E-02 
1574	 4.57301429329222E-02 
1575	 4.54746956116146E-02 
1576	 4.54519169564328E-02 
1577	 0.045543041800901 
1578	 0.045107436198632 
1579	 0.044840663746598 
1580	 4.50703438719106E-02 
1581	 4.51858925434711E-02 
1582	 4.50653938628737E-02 
1583	 4.53033343908398E-02 
1584	 4.56388651214438E-02 
1585	 4.55141190725965E-02 
1586	 4.56603562407259E-02 
1587	 4.66882240767845E-02 
1588	 4.74427332777292E-02 
1589	 4.67675471215372E-02 
1590	 4.64027404646087E-02 
1591	 4.65718359268341E-02 
1592	 0.045830476572129 
1593	 4.57778768989857E-02 
1594	 4.62049342184787E-02 
1595	 4.54018129831839E-02 
1596	 4.46120008499274E-02 
1597	 4.48167046742013E-02 
1598	 4.56441043097833E-02 
1599	 4.60474900515849E-02 
1600	 4.54806945833117E-02 
1601	 4.50380812776427E-02 
1602	 4.48614829012918E-02 
1603	 4.46456892107455E-02 
1604	 4.47996662640693E-02 
1605	 4.51252887121983E-02 
1606	 4.53562615278474E-02 
1607	 4.50231353107928E-02 
1608	 4.48559907581612E-02 
1609	 4.53602774626865E-02 
1610	 4.53929515725261E-02 
1611	 0.045752388857643 
1612	 4.61895851795274E-02 
1613	 0.045863175991136 
1614	 4.58481472821125E-02 
1615	 4.57133998957269E-02 
1616	 4.57880571870123E-02 
1617	 4.63591682761646E-02 
1618	 4.60294264590999E-02 
1619	 4.54228172298645E-02 
1620	 4.54617086836934E-02 
1621	 4.59417423509109E-02 
1622	 4.59906721334652E-02 
1623	 4.54410826877607E-02 
1624	 4.57676460833905E-02 
1625	 4.64046768070897E-02 
1626	 4.60405158112713E-02 
1627	 0.045474714455986 
1628	 4.54045792617483E-02 
1629	 4.57557467630211E-02 
1630	 4.65600531356608E-02 
1631	 4.73535852427116E-02 
1632	 4.71984087579061E-02 
1633	 4.65267825383335E-02 
1634	 4.62229917164047E-02 
1635	 4.62053691571955E-02 
1636	 4.66860388224313E-02 
1637	 4.68919875723348E-02 
1638	 4.60238283987635E-02 
1639	 4.49560151730241E-02 
1640	 4.47061691204118E-02 
1641	 4.56462835087549E-02 
1642	 4.59107296071637E-02 
1643	 4.55329091862684E-02 
1644	 4.62960703074348E-02 
1645	 4.64334277357375E-02 
1646	 4.59555841245556E-02 
1647	 4.64905117398395E-02 
1648	 4.68531781552994E-02 
1649	 4.62397780815468E-02 
1650	 4.56261041298771E-02 
1651	 0.046102759969642 
1652	 4.69069791850395E-02 
1653	 4.67196386966044E-02 
1654	 4.69540927666221E-02 
1655	 4.67890984385937E-02 
1656	 0.046451797310007 
1657	 4.65216033848932E-02 
1658	 4.66236706664351E-02 
1659	 4.62431889049795E-02 
1660	 4.61661725399301E-02 
1661	 4.65902181145571E-02 
1662	 4.68014710546007E-02 
1663	 4.68716094218026E-02 
1664	 4.69562104029383E-02 
1665	 4.69409176725065E-02 
1666	 4.70948292227769E-02 
1667	 4.76266397692599E-02 
1668	 4.64247563610533E-02 
1669	 4.62917890208445E-02 
1670	 4.74683232406371E-02 
1671	 4.74361674288518E-02 
1672	 4.65391673193039E-02 
1673	 4.59052725872118E-02 
1674	 4.55316373552211E-02 
1675	 4.53765406903451E-02 
1676	 4.58112874175881E-02 
1677	 4.65573731490082E-02 
1678	 4.66897360074863E-02 
1679	 0.046305290990152 
1680	 4.65822576797752E-02 
1681	 4.68164130218412E-02 
1682	 4.60798268739025E-02 
1683	 4.51941366850554E-02 
1684	 4.49188332997317E-02 
1685	 4.54891747389092E-02 
1686	 4.58057853540579E-02 
1687	 4.56443172049455E-02 
1688	 4.56503290644318E-02 
1689	 0.045441419493513 
1690	 4.55588637071025E-02 
1691	 4.59538493551963E-02 
1692	 4.55548885980991E-02 
1693	 4.49113357177144E-02 
1694	 4.47597065239293E-02 
1695	 4.44003434715058E-02 
1696	 4.42975057181525E-02 
1697	 4.49750674389148E-02 
1698	 4.47990651163528E-02 
1699	 4.52580724045687E-02 
1700	 4.68398668963751E-02 
1701	 4.58888220301144E-02 
1702	 4.49223071545961E-02 
1703	 4.55095068697811E-02 
1704	 4.41392443102355E-02 
1705	 4.40200094193819E-02 
1706	 4.58350204139192E-02 
1707	 0.04548043769933 
1708	 4.45340264189069E-02 
1709	 4.48148967572881E-02 
1710	 4.54537460958615E-02 
1711	 4.52305611698459E-02 
1712	 0.04573829536824 
1713	 4.55391720838618E-02 
1714	 4.56969434271872E-02 
1715	 4.75272772978341E-02 
1716	 4.73302266904986E-02 
1717	 4.70859916909053E-02 
1718	 4.67519099652298E-02 
1719	 4.45197202733813E-02 
1720	 4.36306192920227E-02 
1721	 4.37555900428327E-02 
1722	 4.38027838848532E-02 
1723	 4.52611885864048E-02 
1724	 4.56147830066599E-02 
1725	 0.044641802631515 
1726	 4.42361315734469E-02 
1727	 4.37734825512564E-02 
1728	 4.41235518250774E-02 
1729	 4.57802037026481E-02 
1730	 4.65728242731277E-02 
1731	 4.55544344171033E-02 
1732	 4.45216271225207E-02 
1733	 4.39029236512131E-02 
1734	 4.42719125031532E-02 
1735	 4.56485860302319E-02 
1736	 4.57099738510465E-02 
1737	 4.55302087851066E-02 
1738	 4.56519632777879E-02 
1739	 0.044648812434667 
1740	 4.40304947274979E-02 
1741	 4.48468546625828E-02 
1742	 4.55117650182692E-02 
1743	 4.54838884266622E-02 
1744	 0.045414857582258 
1745	 4.54649391967072E-02 
1746	 0.045649577397364 
1747	 4.44854037655754E-02 
1748	 4.31545942406441E-02 
1749	 4.34001855096144E-02 
1750	 4.24500834665254E-02 
1751	 4.20650528003707E-02 
1752	 4.43920977377884E-02 
1753	 4.53449976146307E-02 
1754	 4.55813235682397E-02 
1755	 4.50055881990482E-02 
1756	 4.29672136855906E-02 
1757	 4.29512171716986E-02 
1758	 4.30440940433218E-02 
1759	 4.40466696933763E-02 
1760	 4.70007328880194E-02 
1761	 4.69520591712611E-02 
1762	 4.49288594146183E-02 
1763	 4.39523501704088E-02 
1764	 4.24177117061928E-02 
1765	 4.13144053455676E-02 
1766	 4.13857156498667E-02 
1767	 0.041994551468319 
1768	 4.52734883249816E-02 
1769	 4.57272407093437E-02 
1770	 0.042809972218516 
1771	 0.041086583486387 
1772	 3.70750188309863E-02 
1773	 3.76520988268408E-02 
1774	 4.40862716047433E-02 
1775	 4.59935558354385E-02 
1776	 4.67330662012521E-02 
1777	 4.30018328475684E-02 
1778	 4.04834475725688E-02 
1779	 3.90289731663646E-02 
1780	 3.92848156689357E-02 
1781	 3.96963172480403E-02 
1782	 3.96176706987834E-02 
1783	 4.16149023618975E-02 
1784	 4.11547793420998E-02 
1785	 3.75537153203086E-02 
1786	 0.038736296545786 
1787	 4.29568353726408E-02 
1788	 4.57513357916448E-02 
1789	 5.17960084590075E-02 
1790	 4.95770318059835E-02 
1791	 0.046027072867219 
1792	 3.56710992732092E-02 
1793	 0.027662535558012 
1794	 3.35425760530219E-02 
1795	 4.07711859299463E-02 
1796	 4.84934717738809E-02 
1797	 5.18827251178437E-02 
1798	 3.77038272250118E-02 
1799	 1.61617764529184E-02 
1800	 2.85584458806524E-02 
1801	 4.86167692385693E-02 
1802	 0.120048096177032 
1803	 0.148026177453112 
1804	 0.129583207351205 
1805	 0.130712793921005 
1806	 3.48447011781687E-02 
1807	-5.37358070267247E-03 
1808	 0.145388968017914 
1809	 0.26297277920827 
1810	 0.338553947767824 
1811	 0.432887929087592 
1812	 0.40609301605445 
1813	 0.579245452713725 
1814	-4.96064307612156 
1815	-2.25518873777465 
1816	 133.159007600847 
1817	 1.5580840159041 
1818	 0.263177658228154 
1819	 1.00950700423856 
1820	 2.51812344284236 
1821	-9.99214549287799E-03 
1822	 9.55101234347648E-02 
1823	-1.40092479652596 
1824	-1.04762835654425 
1825	-0.102463495699304 
1826	 0.118805425887168 
1827	-13.0466476135465 
1828	-1.95431065018622 
1829	 1.28313734144041 
1830	 0.805052238403717 
1831	-2.19617229932734 
1832	-1.79547703828275 
1833	 2.93433858636817E-02 
1834	 0.573298407096575 
1835	-0.340079842813468 
1836	-19.6388962567059 
1837	-4.12893741316312 
1838	-22.5585215907039 
1839	 1.60062325413109 
1840	 1.13031546785429 
1841	 0.84225642439658 
1842	 0.523252298607828 
1843	 0.274297876009123 
1844	-0.694504978545096 
1845	-4.16109050070351 
1846	-1.40595236074284 
1847	-1.36443661693945 
1848	-0.944415138183764 
1849	 0.113597235025249 
1850	 0.123093196099041 
1851	 0.118024831274735 
1852	-0.253030253213323 
1853	-4.06163416049366 
1854	 5.0902778775525 
1855	 1.35845529216037 
1856	 0.889679916887111 
1857	 0.3817302120148 
1858	-0.470139767719195 
1859	-2.21521669993262 
1860	-2.52515549337202 
1861	-4.14956587627576 
1862	-6.82848456895768E-02 
1863	-1.1621566287788 
1864	 6.56691790361614 
1865	 1.44376048546915 
1866	-0.303327015190591 
1867	-0.358557447584672 
1868	-0.129080754418952 
1869	-1.19407079696362 
1870	-0.574269548092761 
1871	-0.643872749579327 
1872	-1.19366745114196 
1873	-1.06011041561654 
1874	-0.267276490353074 
1875	-3.92087719309288E-02 
1876	-8.88240568658444E-02 
1877	-0.157741646032761 
1878	-0.246555118131506 
1879	-1.98834661713743 
1880	-2.70613736556768 
1881	-0.985837789702817 
1882	-0.881300689696744 
1883	-1.29415176699719 
1884	-0.87695199135985 
1885	-2.78596420321893 
1886	 1.46073008870747 
1887	-3.93353564346636 
1888	-3.4208396422996 
1889	-2.96777754924489 
1890	-2.46678850096401 
1891	-1.30183179335859 
1892	 1.36672475484113 
1893	 2.15886230113058 
1894	 1.05413694028977 
1895	 1.00588844505334 
1896	 0.892036272219475 
1897	 0.616547400441699 
1898	 3.62791013759202 
1899	 4.74429830270077 
1900	 1.66732913572297 
1901	 0.264153350465739 
1902	 0.582856244276721 
1903	 1.67372494678267 
1904	 1.2489377641314 
1905	 0.869894485204696 
1906	 0.980730939253424 
1907	 0.603961762470615 
1908	 3.71077545554332E-02 
1909	 0.234584551388697 
1910	-1.63010261294156 
1911	 0.549310490083055 
1912	 0.326406829856833 
1913	 0.345486137152118 
1914	 0.711644009343049 
1915	 0.2087009811325 
1916	-1.01515196559783 
1917	-0.321961505273498 
1918	-0.58731366817664 
1919	-2.59269143315256 
1920	-1.48670041337255 
1921	-0.679387059184656 
1922	-0.200885087744455 
1923	 0.110172247693944 
1924	 0.217556133410765 
1925	 0.552513810616129 
1926	 0.803509666346831 
1927	 0.915311588578969 
1928	 1.65521990031357 
1929	-5.21416496357403 
1930	-0.898672345119276 
1931	-0.472050632154161 
1932	-0.44594030931414 
1933	-0.533088055030722 
1934	-0.748964726486365 
1935	-3.21263710154748 
1936	-2.31562321444818 
1937	-0.535157736917586 
1938	 0.930640847635751 
1939	 3.10203390271309 
1940	-228.488904525574 
1941	 5.33719681267959 
1942	 8.69264833997526 
1943	-14.5643747154014 
1944	-3.4802447969469 
1945	-0.89897307373262 
1946	-0.424506239145074 
1947	-0.319651523881217 
1948	-0.314692864529176 
1949	-0.345396721737432 
1950	-0.349126974388621 
1951	-0.253021396514393 
1952	-0.181298066641417 
1953	-0.10961443001753 
1954	-9.60280995818338E-02 
1955	-5.50547747985923E-02 
1956	-0.103493891217604 
1957	-0.130577613513282 
1958	-8.88616776073068E-02 
1959	-2.28673337591832E-03 
1960	 8.25541464784232E-02 
1961	 0.104119994002192 
1962	 0.121437519841884 
1963	 0.101185695033849 
1964	 4.61279336322192E-02 
1965	 2.52944778482887E-02 
1966	 2.01963565202541E-02 
1967	 1.83200133688347E-02 
1968	 2.10316732760538E-02 
1969	 0.034852551878756 
1970	 4.14735699377646E-02 
1971	 4.11258682345511E-02 
1972	 3.52356861419016E-02 
1973	 2.84626136723973E-02 
1974	 2.64069756394201E-02 
1975	 2.34261272072677E-02 
1976	 2.18534603099309E-02 
1977	 2.42337743714412E-02 
1978	 2.50143274452571E-02 
1979	 2.33251562942287E-02 
1980	 1.80661659564384E-02 
1981	 1.81612524193193E-02 
1982	 2.07986547666426E-02 
1983	 2.06401519633918E-02 
1984	 2.76107453510324E-02 
1985	 2.76254074814393E-02 
1986	 2.28497761116457E-02 
1987	 2.68442758535825E-02 
1988	 2.79705760579642E-02 
1989	 2.85932103528498E-02 
1990	 2.97229042677155E-02 
1991	 2.77356057158385E-02 
1992	 2.81482994806202E-02 
1993	 3.15179489656617E-02 
1994	 3.24342569052902E-02 
1995	 3.62586101325236E-02 
1996	 3.39766489536031E-02 
1997	 2.85626920150729E-02 
1998	 2.69858805674974E-02 
1999	 2.54916120713421E-02 
2000	 2.83250383933404E-02 
2001	 2.95948023107006E-02 
2002	 0.020251385393144 
2003	 1.67160588386536E-02 
2004	 0.020058570198728 
2005	 2.24132997839521E-02 
2006	 2.92520763107543E-02 
2007	 2.34644408606817E-02 
2008	 1.52388274100851E-02 
2009	 1.71369689861052E-02 
2010	 2.62164231292251E-02 
2011	 2.59386658998557E-02 
2012	 2.81245080198129E-02 
2013	 2.98652978598117E-02 
2014	 2.92930429282703E-02 
2015	 3.34337761122799E-02 
2016	 3.40281383995701E-02 
2017	 0.040382478280746 
2018	 4.38121443288074E-02 
2019	 4.09693384119566E-02 
2020	 0.043424032981061 
2021	 3.93725261025699E-02 
2022	 3.48573120275293E-02 
2023	 3.80852986491618E-02 
2024	 3.61706880624346E-02 
2025	 0.031593367255635 
2026	 3.20732918344946E-02 
2027	 3.34105568122319E-02 
2028	 3.30639751204921E-02 
2029	 3.60327622865471E-02 
2030	 4.23210625506334E-02 
2031	 4.43068140811198E-02 
2032	 3.99177198146155E-02 
2033	 3.76668000701794E-02 
2034	 0.035795522553395 
2035	 0.032886830307869 
2036	 3.42688173877502E-02 
2037	 0.033884592957107 
2038	 3.23045574787399E-02 
2039	 3.23673125018371E-02 
2040	 3.36584026286152E-02 
2041	 3.34101036037265E-02 
2042	 3.33639388823033E-02 
2043	 0.033235526951234 
2044	 3.19356737551362E-02 
2045	 3.19441600979445E-02 
2046	 3.26427492257186E-02 
2047	 0.033716221894082 
2048	 3.40458822121544E-02 
2049	 3.15484415335167E-02 
2050	 3.03935437639196E-02 
2051	 3.07927973084725E-02 
2052	 3.51501103662524E-02 
2053	 4.03838516393638E-02 
2054	 4.00284113514082E-02 
2055	 4.24695331146603E-02 
2056	 4.40336705516165E-02 
2057	 4.20216665195161E-02 
2058	 4.16658437073397E-02 
2059	 4.38119893263038E-02 
2060	 4.43690196425895E-02 
2061	 4.26115843026289E-02 
2062	 4.36266554007461E-02 
2063	 4.60521725103974E-02 
2064	 4.46996340691443E-02 
2065	 4.26874272847865E-02 
2066	 4.09999702338341E-02 
2067	 4.16648680430837E-02 
2068	 4.28458077330961E-02 
2069	 4.11777272653473E-02 
2070	 4.08698555336141E-02 
2071	 3.83507918842893E-02 
2072	 3.73766069531339E-02 
2073	 3.78420857184395E-02 
2074	 4.15428758813896E-02 
2075	 4.13051672115292E-02 
2076	 3.96113163164578E-02 
2077	 3.85878884479561E-02 
2078	 3.49602687632835E-02 
2079	 0.035085507320909 
2080	 3.78530901222153E-02 
2081	 4.12658353981378E-02 
2082	 4.02840328522271E-02 
2083	 3.74773001930741E-02 
2084	 0.03510217691683 
2085	 3.24871342507632E-02 
2086	 3.36454039543868E-02 
2087	 0.038480237593528 
2088	 4.14685644846998E-02 
2089	 4.18581829868964E-02 
2090	 4.28658498953823E-02 
2091	 4.28937391905906E-02 
2092	 4.26710985156359E-02 
2093	 4.14891541257979E-02 
2094	 4.21553095709206E-02 
2095	 4.44203878915016E-02 
2096	 0.044540176529519 
2097	 4.36705308384286E-02 
2098	 4.35708548768278E-02 
2099	 4.31458491681585E-02 
2100	 4.09999091717217E-02 
2101	 4.02744576715524E-02 
2102	 4.21669729535442E-02 
2103	 4.09082035899334E-02 
2104	 4.01317366873588E-02 
2105	 3.99122146290156E-02 
2106	 0.040417985721689 
2107	 4.23440507942477E-02 
2108	 4.23975401219702E-02 
2109	 4.24419511168365E-02 
2110	 4.08552966688787E-02 
2111	 3.90625863727296E-02 
2112	 3.75718877738066E-02 
2113	 3.67427193496689E-02 
2114	 3.73791251701167E-02 
2115	 3.81404667308466E-02 
2116	 0.03827990190393 
2117	 3.91659934582308E-02 
2118	 4.22165255225822E-02 
2119	 4.29219528063957E-02 
2120	 4.18279483639916E-02 
2121	 4.28241867572539E-02 
2122	 0.044985604406876 
2123	 4.41940634556292E-02 
2124	 4.51973349407743E-02 
2125	 4.79696686320072E-02 
2126	 4.55618576065105E-02 
2127	 4.29255818423638E-02 
2128	 4.31741019190922E-02 
2129	 0.041778522807433 
2130	 4.17166143042715E-02 
2131	 4.26607468918284E-02 
2132	 4.08616802189289E-02 
2133	 4.02025422417467E-02 
2134	 3.95814984497253E-02 
2135	 3.92702632261485E-02 
2136	 3.97637874377261E-02 
2137	 0.040460957495573 
2138	 4.09059928604975E-02 
2139	 4.18648219904569E-02 
2140	 4.29922286491672E-02 
2141	 4.53451774616461E-02 
2142	 4.61596756021336E-02 
2143	 4.67182526826592E-02 
2144	 4.68337295264734E-02 
2145	 4.58890245576717E-02 
2146	 0.04242743514809 
2147	 3.88246843697308E-02 
2148	 3.81631611045873E-02 
2149	 3.90831037917078E-02 
2150	 4.07909119502495E-02 
2151	 4.19343436874944E-02 
2152	 4.06878271219185E-02 
2153	 4.11318295727859E-02 
2154	 3.87926303780117E-02 
2155	 3.57138590926635E-02 
2156	 0.038352344944594 
2157	 3.94165919675147E-02 
2158	 3.90238342831919E-02 
2159	 4.03128878138626E-02 
2160	 4.40716078153072E-02 
2161	 4.48918623666729E-02 
2162	 4.41737420200277E-02 
2163	 4.46418224485892E-02 
2164	 4.51652815504922E-02 
2165	 4.64265751966672E-02 
2166	 4.84473236348062E-02 
2167	 4.89121770103371E-02 
2168	 4.86996835134093E-02 
2169	 4.85807053426713E-02 
2170	 4.68009930055193E-02 
2171	 4.83284421761862E-02 
2172	 0.04920058487115 
2173	 0.048103593985778 
2174	 4.77335083648652E-02 
2175	 4.57850466658544E-02 
2176	 4.43109875329783E-02 
2177	 4.40013111370458E-02 
2178	 0.043194268707913 
2179	 3.94161287305737E-02 
2180	 3.46601220167339E-02 
2181	 3.23740915796124E-02 
2182	 3.18765200021679E-02 
2183	 3.41997201678918E-02 
2184	 4.08949358769528E-02 
2185	 4.63460604692753E-02 
2186	 4.73840735106331E-02 
2187	 4.54829736862682E-02 
2188	 4.44222248027076E-02 
2189	 3.75685548953622E-02 
2190	 3.50437578807885E-02 
2191	 3.42462320603068E-02 
2192	 3.61631214845616E-02 
2193	 4.36833811802309E-02 
2194	 4.63343106873422E-02 
2195	 4.93192601610536E-02 
2196	 4.96970163450896E-02 
2197	 4.23092504448057E-02 
2198	 4.17525967401012E-02 
2199	 4.57971694881276E-02 
2200	 4.76409759649609E-02 
2201	 5.00534029423101E-02 
2202	 5.08129476115024E-02 
2203	 4.62323275708613E-02 
2204	 4.50487636927443E-02 
2205	 4.33073919448883E-02 
2206	 3.76951620632426E-02 
2207	 0.038151389260406 
2208	 3.74193193525723E-02 
2209	 3.30052493509127E-02 
2210	 3.45407395034042E-02 
2211	 3.31594472906813E-02 
2212	 3.33920039027153E-02 
2213	 3.74854198603998E-02 
2214	 3.71537638492285E-02 
2215	 3.91216710319231E-02 
2216	 0.034442839726972 
2217	 3.18778162098651E-02 
2218	 3.00525446425878E-02 
2219	 3.08478431441254E-02 
2220	 3.10242517332253E-02 
2221	 3.35974891241699E-02 
2222	 4.05821050070954E-02 
2223	 4.19129072116694E-02 
2224	 4.07797173498077E-02 
2225	 4.23122610913294E-02 
2226	 4.20487801054908E-02 
2227	 4.25854226052674E-02 
2228	 4.71483065701957E-02 
2229	 4.67166291911821E-02 
2230	 4.12258434778284E-02 
2231	 4.14889375275293E-02 
2232	 0.04441268723501 
2233	 4.41895581477507E-02 
2234	 4.50434892640584E-02 
2235	 0.046087203672604 
2236	 4.20302319175348E-02 
2237	 3.81459506160539E-02 
2238	 3.73797302054584E-02 
2239	 3.49993754078099E-02 
2240	 3.73489283890791E-02 
2241	 3.94520807485139E-02 
2242	 3.96101532268229E-02 
2243	 4.14275702222731E-02 
2244	 3.88773461542716E-02 
2245	 3.78331289174725E-02 
2246	 4.24623026299065E-02 
2247	 4.15700683261232E-02 
2248	 3.62101458545326E-02 
2249	 3.11128464597798E-02 
2250	 2.57615356232817E-02 
2251	 2.67358582396243E-02 
2252	 3.61058998588664E-02 
2253	 4.18301909371372E-02 
2254	 3.98142988169465E-02 
2255	 3.71984469453582E-02 
2256	 0.035028834756084 
2257	 3.55240191171879E-02 
2258	 0.038452494598077 
2259	 3.72211590937774E-02 
2260	 3.76658331879946E-02 
2261	 3.60768042125449E-02 
2262	 0.033663376900793 
2263	 3.21299539579116E-02 
2264	 3.41775479905898E-02 
2265	 3.54790946316845E-02 
2266	 3.64909195620647E-02 
2267	 4.19476142346622E-02 
2268	 0.043623420579993 
2269	 3.90042725016568E-02 
2270	 3.56714465205449E-02 
2271	 3.56259821152858E-02 
2272	 3.49157801802528E-02 
2273	 3.41481047431975E-02 
2274	 3.28895717812905E-02 
2275	 2.99690486973263E-02 
2276	 2.60907072233426E-02 
2277	 2.05998398045458E-02 
2278	 1.64859814060013E-02 
2279	 9.14440383985286E-03 
2280	 7.99009171537807E-03 
2281	 9.10992661045963E-03 
2282	 1.48409322279376E-02 
2283	 2.09387311771348E-02 
2284	 2.88987953090948E-02 
2285	 4.11296520745115E-02 
2286	 4.30304808611798E-02 
2287	 4.05460463111801E-02 
2288	 4.96203231605609E-02 
2289	 4.46396718809348E-02 
2290	 3.82992117568325E-02 
2291	 4.69573824947235E-02 
2292	 4.54579640974682E-02 
2293	 3.86455367083214E-02 
2294	 3.96841539263254E-02 
2295	 3.97827061151905E-02 
2296	 4.10134867312921E-02 
2297	 4.63783562329633E-02 
2298	 4.50750693200775E-02 
2299	 4.11388496873483E-02 
2300	 4.19118628332502E-02 
2301	 4.98286488151569E-02 
2302	 5.99181688215923E-02 
2303	 5.83704818561673E-02 
2304	 5.49635301903919E-02 
2305	 5.42207230616613E-02 
2306	 4.14147618059673E-02 
2307	 2.85625072670748E-02 
2308	 2.41364707125276E-02 
2309	 1.11368374601765E-02 
2310	 8.59090796525006E-03 
2311	 1.82579701549319E-02 
2312	 2.06357958041138E-02 
2313	 3.51428824787231E-02 
2314	 4.92746032880257E-02 
2315	 5.48358419154572E-02 
2316	 6.03185768070067E-02 
2317	 4.70369982242974E-02 
2318	 4.54769988336567E-02 
2319	 6.41352619986278E-02 
2320	 7.58464006099345E-02 
2321	 9.12989976290629E-02 
2322	 8.60763215894481E-02 
2323	 6.67820062441232E-02 
2324	 6.00199141011492E-02 
2325	 5.58436420677902E-02 
2326	 5.86397060836956E-02 
2327	 6.66389871922222E-02 
2328	 0.067503594023264 
2329	 6.16291932125258E-02 
2330	 6.24702217157333E-02 
2331	 5.77815282930692E-02 
2332	 3.75350932517258E-02 
2333	 1.55258733595861E-02 
2334	 8.91034641340144E-03 
2335	 0.01605710946089 
2336	 1.91078049032216E-02 
2337	 3.04770200086351E-02 
2338	 4.03910737626143E-02 
2339	 3.87720219173409E-02 
2340	 4.75270372729546E-02 
2341	 4.72990276709255E-02 
2342	 2.88921865999563E-02 
2343	 7.11489392692378E-03 
2344	 5.38931951051466E-03 
2345	 2.11724647705009E-02 
2346	 3.09999612533719E-02 
2347	 2.38799834582447E-02 
2348	 0.009506151236184 
2349	-6.17126190645196E-03 
2350	-2.67490176001999E-02 
2351	-1.24358741004985E-02 
2352	 0.020490266007603 
2353	 3.38618211525718E-02 
2354	 3.60988614006961E-02 
2355	 2.13422040285894E-02 
2356	 1.94870270234236E-02 
2357	 2.18589204217785E-02 
2358	-1.74588259581676E-02 
2359	-1.90501461424132E-02 
2360	 8.93624939602315E-03 
2361	-9.99214001415957E-03 
2362	 1.78370933370804E-02 
2363	 3.68585701206321E-02 
2364	-1.93631553188098E-02 
2365	-5.24927800805026E-02 
2366	-7.04976186790406E-02 
2367	-6.81740253417726E-02 
2368	-3.84086044398359E-02 
2369	-1.79939364818255E-02 
2370	 1.40179231469653E-02 
2371	 4.39013873643846E-02 
2372	 5.68664607485172E-02 
2373	 4.73363798301685E-02 
2374	 5.49269647359745E-03 
2375	-0.108565552055983 
2376	-0.214331909180549 
2377	-0.178498671098178 
2378	-0.143543780225026 
2379	-8.02864121516608E-03 
2380	 7.06048628961778E-02 
2381	-0.110226705395458 
2382	-0.160600992900855 
2383	-0.135089215067213 
2384	-0.162051652227309 
2385	-0.136077245532286 
2386	-0.04070456026667 
2387	-7.45655429763452E-02 
2388	-9.35886878973026E-02 
2389	 1.87362841639163E-02 
2390	 1.58446047319999E-02 
2391	 1.49064417409559E-03 
2392	-4.00539194160848E-02 
2393	-0.205058767129459 
2394	-0.239405750403501 
2395	-0.264444142695182 
2396	-0.307090284700023 
2397	-0.292800733440619 
2398	-0.216876714288852 
2399	-0.144646418372861 
2400	-0.140727844079044 
2401	-7.79871484665032E-02 
2402	-5.58083117012111E-03 
2403	-3.44222970078857E-03 
2404	 2.85876424770125E-02 
2405	 9.12552228168553E-02 
2406	 0.065468028693799 
2407	 7.28674256774247E-02 
2408	 5.12529205934603E-02 
2409	-3.71473128412736E-03 
2410	 7.90145812111533E-02 
2411	-0.16197323265615 
2412	-0.306291401608417 
2413	-0.144294369289997 
2414	-0.216175579389339 
2415	 7.61159357613445E-02 
2416	 0.184217891170628 
2417	 0.109591266793655 
2418	 5.91884667510708E-02 
2419	-0.171906482073221 
2420	-0.19494383634756 
2421	-0.154807186017017 
2422	-0.628881630215734 
2423	-1.58071052440684 
2424	-0.577883677076029 
2425	-0.452384006547734 
2426	-1.10283606070926 
2427	-0.111378259503344 
2428	-0.461538142439433 
2429	-0.583549066377232 
2430	-0.135253824942146 
2431	-4.70139862996735E-02 
2432	 0.116811094024884 
2433	 0.786735683360227 
2434	 0.188347529210354 
2435	-0.60100340378935 
2436	-0.789852848385715 
2437	-327.548954691309 
2438	 1.60463867559794 
2439	 1.78510769436676 
2440	-24.1570544589838 
2441	 3.30496960624092 
2442	 0.620677417022974 
2443	 0.396601077650672 
2444	-1.39005907502154 
2445	 1.21285641778739 
2446	 1.06734614286854 
2447	 0.683130197444812 
2448	 0.663911198157454 
2449	 0.728912703990473 
2450	 0.62681268692298 
2451	 0.382176502205622 
2452	 0.396694742825603 
2453	 0.218278821640779 
2454	 0.453111004850148 
2455	 0.773648492939583 
2456	 0.522747128413257 
2457	 0.582595595516279 
2458	 0.612724071541526 
2459	-0.574219060046318 
2460	-0.521692921896603 
2461	 0.114095576290971 
2462	-7.31629550636064E-02 
2463	-0.123441110059767 
2464	-0.194506813610694 
2465	-0.403261073245517 
2466	-0.397424689285422 
2467	-5.01399067314406E-03 
2468	-0.30981506489604 
2469	-0.305404969237063 
2470	 1.36239165522295 
2471	 7.13515955871134 
2472	 4.95002920274728 
2473	 1.93023453567997 
2474	 1.967428675872 
2475	 0.101516623712078 
2476	-0.152165977391284 
2477	-0.701171389678477 
2478	-4.9621207358923 
2479	 0.841945624234479 
2480	 0.470203094798338 
2481	 1.01416910744052 
2482	 0.588745773264301 
2483	 0.515269218495965 
2484	 0.929138969890552 
2485	 0.830268084991938 
2486	 1.08909419820655 
2487	 2.84844575464253 
2488	 1.06443886591667 
2489	-9.60997181836227E-03 
2490	-6.30030676981907E-02 
2491	-0.481535416665141 
2492	-0.41377760629672 
2493	-0.251021588020279 
2494	-0.4804387130846 
2495	-0.45779074093557 
2496	 2.17244043607052 
2497	 1.2956617001447 
2498	 0.231669693455534 
2499	-0.686463499898769 
2500	-0.412036920737475 
