Wavelength	rt0713west_far_sunny200008.asd
350	 5.14730631063882E-02 
351	 5.10850190143367E-02 
352	 0.050928981797623 
353	 5.08046148478788E-02 
354	 5.05170502063545E-02 
355	 5.00210983017583E-02 
356	 5.03068330347958E-02 
357	 5.07015553109031E-02 
358	 5.03825388126594E-02 
359	 5.02398523011076E-02 
360	 5.01154193547806E-02 
361	 0.050054358303547 
362	 5.01915233111916E-02 
363	 4.99656388984237E-02 
364	 0.049592414188616 
365	 4.93325978576982E-02 
366	 4.93532276199405E-02 
367	 4.95049217320361E-02 
368	 4.97342448130546E-02 
369	 4.99424148809787E-02 
370	 4.98104930725249E-02 
371	 4.94615889968658E-02 
372	 4.91770645377549E-02 
373	 4.92459384297518E-02 
374	 4.92146187953009E-02 
375	 4.92465988824776E-02 
376	 4.94502787876117E-02 
377	 0.049767890308504 
378	 4.95600098331697E-02 
379	 4.93554431623952E-02 
380	 4.95776007373733E-02 
381	 4.93897404079116E-02 
382	 4.95628506633052E-02 
383	 4.99276422353756E-02 
384	 4.99690415659366E-02 
385	 5.01977040999187E-02 
386	 5.04138354916787E-02 
387	 5.04433419276831E-02 
388	 5.02260083156284E-02 
389	 0.050196681270693 
390	 5.03789544193839E-02 
391	 5.06411784753766E-02 
392	 5.07195264774879E-02 
393	 5.08974419456492E-02 
394	 5.10504817367877E-02 
395	 5.10043597140366E-02 
396	 5.11474512753086E-02 
397	 5.11801873447679E-02 
398	 5.11523064431075E-02 
399	 5.14091490598848E-02 
400	 5.15401310850535E-02 
401	 5.15416012385571E-02 
402	 5.15064580143105E-02 
403	 5.15637156678709E-02 
404	 5.18018838323147E-02 
405	 5.20124139093441E-02 
406	 5.19730905988462E-02 
407	 5.20572282206546E-02 
408	 5.22303658075173E-02 
409	 5.23914022115641E-02 
410	 5.24163938609826E-02 
411	 5.24927361956433E-02 
412	 5.26424216710771E-02 
413	 5.28296172230959E-02 
414	 5.29605641976977E-02 
415	 5.31386534583147E-02 
416	 5.32938801469697E-02 
417	 5.33406301208137E-02 
418	 5.35259414258181E-02 
419	 5.38303566544268E-02 
420	 5.41354327677751E-02 
421	 5.42528220604525E-02 
422	 5.43661916282689E-02 
423	 5.45483140590485E-02 
424	 5.48317688776117E-02 
425	 5.52344194345948E-02 
426	 5.55257995972167E-02 
427	 5.57598064009319E-02 
428	 5.61084567789165E-02 
429	 5.64741704294896E-02 
430	 5.68695522434505E-02 
431	 5.72524169715091E-02 
432	 5.75136933865176E-02 
433	 5.77479317100066E-02 
434	 5.80253083504223E-02 
435	 5.83726141879177E-02 
436	 5.87203038680106E-02 
437	 5.90591200649632E-02 
438	 5.93894271590507E-02 
439	 0.059716143883559 
440	 6.00227511475792E-02 
441	 6.04101862965762E-02 
442	 6.08475357883941E-02 
443	 6.10959350309441E-02 
444	 6.13565739208622E-02 
445	 6.16574037813274E-02 
446	 6.19744170611076E-02 
447	 6.22834231980934E-02 
448	 6.25775297665501E-02 
449	 6.28689804289169E-02 
450	 0.063177623811409 
451	 6.34211597350581E-02 
452	 6.36254834431634E-02 
453	 6.38439881318169E-02 
454	 0.064163633908072 
455	 6.43501791267852E-02 
456	 6.44600051323541E-02 
457	 6.46379364783169E-02 
458	 6.48639229153174E-02 
459	 6.50739542125041E-02 
460	 0.065259170128758 
461	 6.54639122758714E-02 
462	 6.55909739046687E-02 
463	 0.065705522156262 
464	 6.58629687240346E-02 
465	 6.59926721970149E-02 
466	 6.61902965875229E-02 
467	 6.64380344502332E-02 
468	 6.66540265525191E-02 
469	 6.67382031772993E-02 
470	 6.69221871914847E-02 
471	 6.72356427242952E-02 
472	 6.74040527615905E-02 
473	 6.74824981697396E-02 
474	 6.76109335296273E-02 
475	 6.78873589018615E-02 
476	 6.81799220065392E-02 
477	 6.84075800408319E-02 
478	 6.86197034644403E-02 
479	 6.89344463025315E-02 
480	 6.91357161144315E-02 
481	 6.93676464823824E-02 
482	 6.97027284053898E-02 
483	 6.99635782910152E-02 
484	 7.03377695792932E-02 
485	 7.07351194631928E-02 
486	 7.10201908837722E-02 
487	 0.071397418286291 
488	 7.17682157573387E-02 
489	 7.20896651386391E-02 
490	 7.23941685469282E-02 
491	 7.28046929271383E-02 
492	 7.32410128704087E-02 
493	 7.36193359797819E-02 
494	 7.39557671953463E-02 
495	 7.43762955830424E-02 
496	 0.07488146656706 
497	 7.54005350401279E-02 
498	 7.59052638542919E-02 
499	 7.62757223416606E-02 
500	 7.65542119365871E-02 
501	 7.70363202365731E-02 
502	 7.74956603566829E-02 
503	 7.79397518884448E-02 
504	 7.84241099900194E-02 
505	 7.89106763020788E-02 
506	 7.94467591842072E-02 
507	 8.00051897482497E-02 
508	 8.05043131606661E-02 
509	 0.080984721010353 
510	 8.15223704924415E-02 
511	 8.21429716939028E-02 
512	 8.27650564123695E-02 
513	 8.32789967795039E-02 
514	 8.38176798344177E-02 
515	 8.45587213802938E-02 
516	 8.51564846720664E-02 
517	 8.58000258606275E-02 
518	 8.65093300381058E-02 
519	 8.70474395441556E-02 
520	 0.087719867761785 
521	 8.83802224376587E-02 
522	 8.89106289825595E-02 
523	 8.96589608623951E-02 
524	 9.03140200643645E-02 
525	 9.08693266735629E-02 
526	 9.15351173666207E-02 
527	 9.22909986076589E-02 
528	 9.29897196848504E-02 
529	 9.35812821768997E-02 
530	 9.42416750641853E-02 
531	 9.48871137027993E-02 
532	 9.55370111553114E-02 
533	 9.62275722609414E-02 
534	 9.68848260066757E-02 
535	 9.75774022109691E-02 
536	 9.82982405930527E-02 
537	 0.098943698843687 
538	 9.96254592200154E-02 
539	 0.100290691537385 
540	 0.100901588201125 
541	 0.101601006095406 
542	 0.102295589520234 
543	 0.102948011174699 
544	 0.103569120407907 
545	 0.104234213640072 
546	 0.104938150888399 
547	 0.105647106561066 
548	 0.106295750574425 
549	 0.106962183901712 
550	 0.107620175789869 
551	 0.108234838440416 
552	 0.108941192345488 
553	 0.109584413981895 
554	 0.110158843673802 
555	 0.11083599874277 
556	 0.111437908719911 
557	 0.112032596580849 
558	 0.112682232336914 
559	 0.113261474805317 
560	 0.113781822093143 
561	 0.114279960614261 
562	 0.114802220516437 
563	 0.115271461187043 
564	 0.115710691630558 
565	 0.116120034293217 
566	 0.116424935304597 
567	 0.116749816597396 
568	 0.117085078192398 
569	 0.117386981973393 
570	 0.117741668843893 
571	 0.118032952520904 
572	 0.118237961184021 
573	 0.118444528175636 
574	 0.118662645868369 
575	 0.11886197087319 
576	 0.119016190178653 
577	 0.119156553541297 
578	 0.119268704191277 
579	 0.119327855644855 
580	 0.11931319906907 
581	 0.119308299137188 
582	 0.1192253719973 
583	 0.119039377554493 
584	 0.118884257603411 
585	 0.11860914869718 
586	 0.118206929688573 
587	 0.11773729947326 
588	 0.117336679436629 
589	 0.1169786289991 
590	 0.116669882856233 
591	 0.11643091762591 
592	 0.116087799555532 
593	 0.115603080105689 
594	 0.115004775986267 
595	 0.114378957764978 
596	 0.113696224369471 
597	 0.112960055748097 
598	 0.112193535957521 
599	 0.111365913250132 
600	 0.110655639310026 
601	 0.11014672289375 
602	 0.109718804723328 
603	 0.1094631637907 
604	 0.109310698369621 
605	 0.109164089286051 
606	 0.109052465523629 
607	 0.108967956161225 
608	 0.108907629327837 
609	 0.108876045459136 
610	 0.108926048955951 
611	 0.108933704917862 
612	 0.108824046103602 
613	 0.108767795714471 
614	 0.108724908010907 
615	 0.108692353680706 
616	 0.108673503811699 
617	 0.108562527438529 
618	 0.108495533755827 
619	 0.108511014450683 
620	 0.108455680834336 
621	 0.108321051281968 
622	 0.108252231557625 
623	 0.108344586476729 
624	 0.108183446590824 
625	 0.108036872118995 
626	 0.107972530453862 
627	 0.107849233774638 
628	 0.10777489078813 
629	 0.107751925449635 
630	 0.107745246056015 
631	 0.107682763973912 
632	 0.107596761424617 
633	 0.10752581918831 
634	 0.107492396578153 
635	 0.107369645062633 
636	 0.107223338118307 
637	 0.107089003532511 
638	 0.106929753904434 
639	 0.106764934608462 
640	 0.106551281629987 
641	 0.106275016935567 
642	 0.106105909921243 
643	 0.105886235356183 
644	 0.105528826256879 
645	 0.105032952816708 
646	 0.104721137760073 
647	 0.10450684839508 
648	 0.104281399148768 
649	 0.104088728169868 
650	 0.103800512944723 
651	 0.10345977243717 
652	 0.103164961722958 
653	 0.102813074034851 
654	 0.10232510445558 
655	 0.101684104526891 
656	 0.101049648947001 
657	 0.10067631827446 
658	 0.10030534799895 
659	 9.97524899730734E-02 
660	 9.94049781824173E-02 
661	 0.09913179382448 
662	 9.88298755351859E-02 
663	 0.098448914676345 
664	 9.82669406500683E-02 
665	 9.81004353764264E-02 
666	 9.78498090578139E-02 
667	 0.097675766686534 
668	 9.75233673096387E-02 
669	 9.73655513916361E-02 
670	 9.71994066635379E-02 
671	 9.70988717674486E-02 
672	 9.70600383047422E-02 
673	 9.70337515192786E-02 
674	 0.096942350389607 
675	 9.69004666923472E-02 
676	 9.69235366618225E-02 
677	 9.69863664439167E-02 
678	 9.70134176074277E-02 
679	 9.70727316881988E-02 
680	 9.71427852973834E-02 
681	 9.71829273536674E-02 
682	 0.097321059526716 
683	 0.097462361759794 
684	 9.75424240576533E-02 
685	 9.75659485978989E-02 
686	 9.74959783480512E-02 
687	 9.75246316850435E-02 
688	 9.77447764967146E-02 
689	 9.77344655396187E-02 
690	 9.77119033536387E-02 
691	 9.75786799457084E-02 
692	 9.70842286388427E-02 
693	 9.66769077734178E-02 
694	 9.65217344022143E-02 
695	 9.65095786016849E-02 
696	 9.62295418261443E-02 
697	 9.56392920987488E-02 
698	 0.094813867211242 
699	 9.39688706307229E-02 
700	 9.33885442886858E-02 
701	 9.28077292650238E-02 
702	 9.21041737283265E-02 
703	 0.091282705835129 
704	 9.03218504627985E-02 
705	 8.93136989175124E-02 
706	 8.83237785018783E-02 
707	 8.72554097103881E-02 
708	 8.60323606158118E-02 
709	 8.46783291047934E-02 
710	 0.083248868232553 
711	 8.17237198388536E-02 
712	 8.00322433922394E-02 
713	 7.81764570253725E-02 
714	 0.076181126837968 
715	 7.40271272766403E-02 
716	 7.16161244385383E-02 
717	 6.91524184759353E-02 
718	 6.69338873770353E-02 
719	 0.06510118686672 
720	 6.37141645219523E-02 
721	 6.23814537946963E-02 
722	 6.06708428938456E-02 
723	 5.85448848723361E-02 
724	 5.63819134425475E-02 
725	 5.43926728318352E-02 
726	 5.25915123613267E-02 
727	 5.06843829226998E-02 
728	 4.85058367352204E-02 
729	 4.63382199251382E-02 
730	 4.42988010294132E-02 
731	 4.26064534467419E-02 
732	 4.12830919335865E-02 
733	 4.00565243089657E-02 
734	 3.89355521749247E-02 
735	 0.037960901042931 
736	 3.71647294378483E-02 
737	 3.67078347270579E-02 
738	 3.64534872367193E-02 
739	 3.62362448791549E-02 
740	 0.036005650097623 
741	 3.58726289043911E-02 
742	 3.58263185532065E-02 
743	 3.57896588467801E-02 
744	 3.57519548437464E-02 
745	 3.57138026600208E-02 
746	 3.56538941731431E-02 
747	 3.55184935781024E-02 
748	 0.035434725005369 
749	 3.54501552252213E-02 
750	 3.55304462048382E-02 
751	 3.54612586478985E-02 
752	 3.54230507653993E-02 
753	 3.54145358070393E-02 
754	 3.53461100108227E-02 
755	 3.53035659841629E-02 
756	 3.52641867842596E-02 
757	 3.51695068406274E-02 
758	 3.48540885364567E-02 
759	 3.43362687748667E-02 
760	 3.38872160899013E-02 
761	 3.39481588104565E-02 
762	 3.39105391684779E-02 
763	 3.41315798188964E-02 
764	 0.034515960068997 
765	 3.48611982921624E-02 
766	 3.51969264198556E-02 
767	 3.53996271754618E-02 
768	 3.54999925899014E-02 
769	 3.56610791200487E-02 
770	 3.58155318830106E-02 
771	 3.59512338288073E-02 
772	 0.036086415018436 
773	 3.63076376680937E-02 
774	 0.036440526917524 
775	 3.65207001450928E-02 
776	 3.66623951510604E-02 
777	 0.03681274861295 
778	 0.037000034037486 
779	 3.72060315161636E-02 
780	 3.73702933022422E-02 
781	 3.75914838250858E-02 
782	 3.78673166516449E-02 
783	 3.81466676771144E-02 
784	 3.83101024321001E-02 
785	 3.85063405385043E-02 
786	 3.87300310817287E-02 
787	 3.89270039262973E-02 
788	 3.91097813976484E-02 
789	 3.93223109614347E-02 
790	 0.039623051595395 
791	 4.00612578286487E-02 
792	 4.05117090188492E-02 
793	 4.08790919585451E-02 
794	 4.11290465334268E-02 
795	 0.041294415022632 
796	 4.14981977057513E-02 
797	 4.17764727573896E-02 
798	 4.21145751898991E-02 
799	 4.24337425691927E-02 
800	 4.25607899326578E-02 
801	 4.26795906227435E-02 
802	 4.30906210017374E-02 
803	 4.33116000423254E-02 
804	 4.34902090526311E-02 
805	 4.36608322087058E-02 
806	 4.36786598877907E-02 
807	 4.35755503437534E-02 
808	 4.34162017426721E-02 
809	 4.32343649781228E-02 
810	 4.29639056742758E-02 
811	 4.25340408281033E-02 
812	 4.20219014298326E-02 
813	 4.15843731272661E-02 
814	 4.12942429321353E-02 
815	 4.09378411623909E-02 
816	 0.040446969126162 
817	 3.99346123565262E-02 
818	 0.039677792036747 
819	 3.94421006278491E-02 
820	 3.89863889654634E-02 
821	 3.81147961698546E-02 
822	 3.72096127842775E-02 
823	 3.62916769254771E-02 
824	 3.53581659782703E-02 
825	 3.45358486721219E-02 
826	 3.34244265355027E-02 
827	 3.21684586872324E-02 
828	 3.11491266686695E-02 
829	 3.01247084088566E-02 
830	 2.92106685873579E-02 
831	 2.84790981749395E-02 
832	 2.79694854037293E-02 
833	 2.76419321717077E-02 
834	 0.027324940687405 
835	 2.69823987850302E-02 
836	 2.67670317345592E-02 
837	 2.66390980793433E-02 
838	 2.65449086941323E-02 
839	 2.64615052581306E-02 
840	 2.64778203542314E-02 
841	 0.026326486830751 
842	 2.60784364773815E-02 
843	 0.025932723798201 
844	 2.60300259545303E-02 
845	 2.58974955105339E-02 
846	 2.55965606463784E-02 
847	 2.55289844775386E-02 
848	 0.025445482664852 
849	 2.53840593090293E-02 
850	 2.53214831290516E-02 
851	 2.51358328847306E-02 
852	 2.51019145654698E-02 
853	 2.50042541432072E-02 
854	 2.47251382291608E-02 
855	 2.45504334251245E-02 
856	 2.46354080391297E-02 
857	 2.47055169342327E-02 
858	 2.45137692823931E-02 
859	 2.43473639902938E-02 
860	 2.42843407412478E-02 
861	 0.024249760470223 
862	 2.41123263765738E-02 
863	 2.39436087541841E-02 
864	 0.02392405037803 
865	 2.39458109076276E-02 
866	 2.36935531297397E-02 
867	 2.36161476261293E-02 
868	 2.35579095335649E-02 
869	 2.34123657975018E-02 
870	 2.32500190300309E-02 
871	 2.31972486616596E-02 
872	 2.30932920777944E-02 
873	 2.28711464472455E-02 
874	 0.022823373012385 
875	 2.25972205031221E-02 
876	 2.24743241090069E-02 
877	 2.26565915227989E-02 
878	 2.23425296186535E-02 
879	 0.022088129403718 
880	 2.20505840921399E-02 
881	 2.21306222508324E-02 
882	 2.21019016710589E-02 
883	 2.18421069052299E-02 
884	 2.15719971814153E-02 
885	 2.16620206332023E-02 
886	 2.15278241469723E-02 
887	 2.12899819313599E-02 
888	 2.11085341863753E-02 
889	 2.10753896053229E-02 
890	 2.09977260557834E-02 
891	 2.07293267676546E-02 
892	 2.02358364022968E-02 
893	 1.96813985055583E-02 
894	 1.97588753145381E-02 
895	 1.96373468904793E-02 
896	 1.87325809296153E-02 
897	 1.88769421673825E-02 
898	 0.018973179972966 
899	 0.018904529276958 
900	 1.88079926791638E-02 
901	 1.82879810267187E-02 
902	 1.86710307814489E-02 
903	 1.91201971210969E-02 
904	 1.84708505164763E-02 
905	 1.82371243857976E-02 
906	 1.80844999012727E-02 
907	 0.017921426663432 
908	 1.78098360331971E-02 
909	 1.73233786282126E-02 
910	 1.73944877618028E-02 
911	 1.79340896508028E-02 
912	 1.78972550458129E-02 
913	 1.74584092264569E-02 
914	 1.71295427274961E-02 
915	 1.71195977939251E-02 
916	 1.72012682701688E-02 
917	 1.73272833432587E-02 
918	 1.72692508118077E-02 
919	 0.016936713625003 
920	 1.64433243205257E-02 
921	 1.66089214635715E-02 
922	 1.68145328243786E-02 
923	 1.66117974991259E-02 
924	 1.65318262240013E-02 
925	 1.58252794616427E-02 
926	 1.54116017925084E-02 
927	 1.59662196278863E-02 
928	 1.49317395380971E-02 
929	 1.36592667879346E-02 
930	 1.33675640479242E-02 
931	 1.44793862455026E-02 
932	 1.11314152758333E-02 
933	 1.09567872440093E-02 
934	 1.23933215790096E-02 
935	 1.02090332956047E-02 
936	 1.13814017570603E-02 
937	 1.13526852657233E-02 
938	 1.05809939646327E-02 
939	 1.09813140679513E-02 
940	 1.39994125991642E-02 
941	 1.35396308301009E-02 
942	 1.15735165168679E-02 
943	 1.28799574211227E-02 
944	 1.16659243167102E-02 
945	 1.10744944211995E-02 
946	 1.06335677825947E-02 
947	 8.58308876514872E-03 
948	 1.07074415654022E-02 
949	 1.20393715294322E-02 
950	 1.18230538095276E-02 
951	 1.21200032083613E-02 
952	 1.24195047509077E-02 
953	 1.03944609830985E-02 
954	 8.27828117393433E-03 
955	 1.02759055339562E-02 
956	 1.28368280666024E-02 
957	 1.37451406788543E-02 
958	 1.30233075415594E-02 
959	 1.21567899433195E-02 
960	 1.15214701836326E-02 
961	 1.31290759406101E-02 
962	 1.51062476785571E-02 
963	 1.40028960020725E-02 
964	 1.31303768465899E-02 
965	 1.24877734752827E-02 
966	 1.23332613842868E-02 
967	 0.01301076085868 
968	 0.012766815561946 
969	 1.24422581262997E-02 
970	 1.25358737673679E-02 
971	 1.30748797809746E-02 
972	 0.014826897979082 
973	 1.46181245668284E-02 
974	 1.33665682603651E-02 
975	 1.53299282490782E-02 
976	 1.46076759593536E-02 
977	 1.43900479799079E-02 
978	 1.48000418344295E-02 
979	 1.32617302750294E-02 
980	 1.46858027502494E-02 
981	 0.015211293798624 
982	 1.45382709579576E-02 
983	 1.53126794780392E-02 
984	 1.43531344194601E-02 
985	 1.46833147294126E-02 
986	 1.59507947095749E-02 
987	 1.53081440612274E-02 
988	 1.49476922660118E-02 
989	 1.57523897004008E-02 
990	 1.61920203257508E-02 
991	 1.40795323365345E-02 
992	 1.41962204963487E-02 
993	 1.57527852117134E-02 
994	 1.66896453910595E-02 
995	 1.53729055015518E-02 
996	 1.55016212775162E-02 
997	 1.65679946638615E-02 
998	 1.73618135580112E-02 
999	 1.67900901306234E-02 
1000	 1.55151170508291E-02 
1001	 1.56196104734756E-02 
1002	 1.62866069805596E-02 
1003	 1.64597106600373E-02 
1004	 1.64214527413484E-02 
1005	 1.65188491831132E-02 
1006	 1.64977356538323E-02 
1007	 1.66155881428253E-02 
1008	 1.68827682263164E-02 
1009	 1.70228096186683E-02 
1010	 1.71808668652351E-02 
1011	 0.01719178659819 
1012	 0.017159615269777 
1013	 0.017219380417928 
1014	 1.71497789475813E-02 
1015	 1.70023929726329E-02 
1016	 1.68939874222024E-02 
1017	 1.66026992904829E-02 
1018	 1.65701783747109E-02 
1019	 1.67562442123598E-02 
1020	 1.67705810568729E-02 
1021	 1.67855931723083E-02 
1022	 1.68912450082643E-02 
1023	 1.69444650660368E-02 
1024	 1.69273737158173E-02 
1025	 1.73263453579933E-02 
1026	 1.75150308120984E-02 
1027	 1.73928804176792E-02 
1028	 1.69538710604582E-02 
1029	 1.69257430231901E-02 
1030	 1.67200064126617E-02 
1031	 1.67628224446803E-02 
1032	 1.73654873787032E-02 
1033	 1.74273839474742E-02 
1034	 1.70821467424428E-02 
1035	 1.70727025321679E-02 
1036	 1.70702261395285E-02 
1037	 1.71113467016007E-02 
1038	 1.74129658055127E-02 
1039	 1.75767517874039E-02 
1040	 1.75472123036117E-02 
1041	 1.74644675620265E-02 
1042	 1.74607806449999E-02 
1043	 0.017420368690956 
1044	 1.74540175527031E-02 
1045	 1.76044102486194E-02 
1046	 1.75877982488855E-02 
1047	 1.75474545810552E-02 
1048	 1.74473428881342E-02 
1049	 1.70918612490264E-02 
1050	 1.70442168299421E-02 
1051	 1.70923003606084E-02 
1052	 1.71900365181663E-02 
1053	 1.76499021387278E-02 
1054	 1.78169837897351E-02 
1055	 1.79019905918114E-02 
1056	 1.78778286061924E-02 
1057	 0.017738866915487 
1058	 1.73034329066311E-02 
1059	 1.72562816380335E-02 
1060	 1.72922052995369E-02 
1061	 1.73095207264673E-02 
1062	 0.017583666346028 
1063	 1.75916117887124E-02 
1064	 1.73644785248886E-02 
1065	 1.73146754891384E-02 
1066	 1.73239078459317E-02 
1067	 1.72496535098825E-02 
1068	 1.71700760583788E-02 
1069	 1.71242390884772E-02 
1070	 1.69990375841623E-02 
1071	 1.69361793633863E-02 
1072	 1.70546591115568E-02 
1073	 1.69800106350961E-02 
1074	 1.70058225438277E-02 
1075	 1.70623697713961E-02 
1076	 1.70182383160714E-02 
1077	 1.69034066447776E-02 
1078	 1.69014816235334E-02 
1079	 1.69875365397388E-02 
1080	 1.68832503148029E-02 
1081	 0.016653610669422 
1082	 1.66201199100434E-02 
1083	 1.63876678417795E-02 
1084	 1.63997122587975E-02 
1085	 1.71100469296336E-02 
1086	 1.72068408588591E-02 
1087	 1.68327289002551E-02 
1088	 1.67445043535828E-02 
1089	 1.67133779461068E-02 
1090	 1.62009848413446E-02 
1091	 1.59723107977702E-02 
1092	 1.60796933911921E-02 
1093	 1.59346087336844E-02 
1094	 0.015480737135026 
1095	 1.53518478939291E-02 
1096	 0.0154273631387 
1097	 1.53540027899647E-02 
1098	 1.54964233786315E-02 
1099	 1.52693519670064E-02 
1100	 1.44457726030599E-02 
1101	 1.42416152075534E-02 
1102	 1.41638893569663E-02 
1103	 1.40939611595916E-02 
1104	 0.014633896661631 
1105	 1.50634187611712E-02 
1106	 1.42571751846151E-02 
1107	 1.34976593912721E-02 
1108	 1.29972295041507E-02 
1109	 1.28796826276393E-02 
1110	 1.29992597357044E-02 
1111	 1.45229836776014E-02 
1112	 1.45906591479277E-02 
1113	 1.37348854824269E-02 
1114	 0.013161969124966 
1115	 1.11562362122515E-02 
1116	 1.06835246391391E-02 
1117	 1.27077889431414E-02 
1118	 1.28439718844452E-02 
1119	 1.32835500041855E-02 
1120	 1.23185360995733E-02 
1121	 6.07497240536404E-03 
1122	 1.23989413224333E-03 
1123	 2.85594283492464E-03 
1124	 6.77809273340061E-03 
1125	 1.48983266119813E-02 
1126	 1.71463673864278E-02 
1127	 9.76164790180187E-03 
1128	 7.15173205110586E-03 
1129	 6.87820175006088E-03 
1130	 7.99491416824383E-03 
1131	 8.48532510200416E-03 
1132	 1.18977218327326E-02 
1133	 0.010609451480554 
1134	 4.40886606925571E-03 
1135	 4.94866815419984E-03 
1136	 8.84460606014204E-03 
1137	 9.4223794385764E-03 
1138	 1.13445150162642E-02 
1139	 1.22173451787636E-02 
1140	 0.010379365529554 
1141	 8.20919467038171E-03 
1142	 7.57186145917478E-03 
1143	 7.87393110344924E-03 
1144	 8.07682149315641E-03 
1145	 8.51925108749626E-03 
1146	 8.0703593130103E-03 
1147	 7.70620860137142E-03 
1148	 8.63735944782106E-03 
1149	 8.70968871748652E-03 
1150	 9.22438647861181E-03 
1151	 0.011567768311193 
1152	 1.19822563922326E-02 
1153	 1.02242513278082E-02 
1154	 1.05961703650433E-02 
1155	 1.18161650382119E-02 
1156	 1.20833345519023E-02 
1157	 0.011538250244808 
1158	 1.15729013846287E-02 
1159	 1.11523287654735E-02 
1160	 1.09968359856608E-02 
1161	 0.01172798563604 
1162	 1.23694619217723E-02 
1163	 1.24476008340223E-02 
1164	 1.24251205619268E-02 
1165	 1.24673722414639E-02 
1166	 1.27811234175777E-02 
1167	 1.31858949695507E-02 
1168	 1.31344275112818E-02 
1169	 1.31873121914243E-02 
1170	 1.35312105263853E-02 
1171	 1.36114237395621E-02 
1172	 1.35828060979336E-02 
1173	 1.36951585224275E-02 
1174	 1.38371721593847E-02 
1175	 1.37176794982978E-02 
1176	 1.38280843490527E-02 
1177	 1.40587082397602E-02 
1178	 1.39070738814055E-02 
1179	 1.37787797102059E-02 
1180	 1.36129392825354E-02 
1181	 1.34345186481052E-02 
1182	 1.36214697061986E-02 
1183	 1.39517901183545E-02 
1184	 1.40463815635316E-02 
1185	 1.39976975268279E-02 
1186	 1.41714481162227E-02 
1187	 1.41789399884668E-02 
1188	 1.38887508476316E-02 
1189	 1.39819423827034E-02 
1190	 1.42183348789825E-02 
1191	 1.41585049410761E-02 
1192	 1.41847802781372E-02 
1193	 1.44467220198082E-02 
1194	 1.46254432594632E-02 
1195	 1.42205341740005E-02 
1196	 1.40955454114707E-02 
1197	 1.42916837706097E-02 
1198	 1.42210122710731E-02 
1199	 0.014370839280322 
1200	 1.45028235546939E-02 
1201	 0.014311790079701 
1202	 1.43459996528285E-02 
1203	 0.014496291185011 
1204	 1.44696033037939E-02 
1205	 1.44389395140184E-02 
1206	 1.45024774535964E-02 
1207	 1.44257018415874E-02 
1208	 1.45005995407653E-02 
1209	 1.48148638466606E-02 
1210	 1.47027766865782E-02 
1211	 1.44964218274623E-02 
1212	 1.46502525563843E-02 
1213	 1.46280468693102E-02 
1214	 1.45463433155689E-02 
1215	 1.44770609678548E-02 
1216	 1.46874553976524E-02 
1217	 0.014676625602854 
1218	 1.44978641354006E-02 
1219	 1.45808444682505E-02 
1220	 1.48719129870539E-02 
1221	 1.49731768874472E-02 
1222	 1.48509649222976E-02 
1223	 1.49159555623658E-02 
1224	 1.51351393018828E-02 
1225	 1.50818049387633E-02 
1226	 1.49442161921946E-02 
1227	 1.51497813853971E-02 
1228	 0.01527191723911 
1229	 1.52424344049108E-02 
1230	 1.53801789442071E-02 
1231	 1.53212369970348E-02 
1232	 1.51699056523954E-02 
1233	 1.52153153806941E-02 
1234	 1.53721849382317E-02 
1235	 1.54482410893796E-02 
1236	 1.55151383546406E-02 
1237	 1.55561795461425E-02 
1238	 1.54869248340962E-02 
1239	 1.56069121672025E-02 
1240	 1.56647618601219E-02 
1241	 0.015696171316287 
1242	 1.57301406166314E-02 
1243	 1.56406137641486E-02 
1244	 1.55166923452613E-02 
1245	 1.55473083475542E-02 
1246	 0.015600818413952 
1247	 0.015467666129256 
1248	 1.55230344336255E-02 
1249	 1.57934564875416E-02 
1250	 1.57764517134069E-02 
1251	 1.56454776806179E-02 
1252	 1.56704104758365E-02 
1253	 1.54556804849709E-02 
1254	 1.51122472466741E-02 
1255	 1.51296592758558E-02 
1256	 1.51551109554607E-02 
1257	 1.52407229087096E-02 
1258	 1.52376230290849E-02 
1259	 1.53445765287865E-02 
1260	 1.53248895926505E-02 
1261	 1.51254929898118E-02 
1262	 0.015025726657518 
1263	 1.49449588516048E-02 
1264	 1.49333104374369E-02 
1265	 1.49043361035019E-02 
1266	 1.48970279118291E-02 
1267	 1.50211501237557E-02 
1268	 1.52231524330579E-02 
1269	 1.53381449344532E-02 
1270	 1.52909822335327E-02 
1271	 1.52184546864065E-02 
1272	 1.51585181613986E-02 
1273	 1.51331119557848E-02 
1274	 1.51897802390808E-02 
1275	 1.53768684211301E-02 
1276	 1.53741465774934E-02 
1277	 0.015107111169843 
1278	 0.015096667371395 
1279	 1.51307696883266E-02 
1280	 1.50684084899138E-02 
1281	 1.50011161652577E-02 
1282	 1.49767638974995E-02 
1283	 1.49646710661142E-02 
1284	 1.49203205533948E-02 
1285	 1.48887704819545E-02 
1286	 1.49497720003425E-02 
1287	 1.49572572658086E-02 
1288	 1.48147699177294E-02 
1289	 1.47687156828186E-02 
1290	 1.47403821655326E-02 
1291	 1.49117645118194E-02 
1292	 1.51021092419837E-02 
1293	 0.015033797278692 
1294	 1.48275365393314E-02 
1295	 1.47863726822377E-02 
1296	 1.47206460641146E-02 
1297	 1.45852979175929E-02 
1298	 1.44981594312071E-02 
1299	 0.014394115073762 
1300	 1.42443230735556E-02 
1301	 1.40967158209866E-02 
1302	 1.39990037684606E-02 
1303	 1.40559834516413E-02 
1304	 1.41512440565178E-02 
1305	 1.39690856382186E-02 
1306	 1.37626790209477E-02 
1307	 1.34288426171573E-02 
1308	 1.34598861485403E-02 
1309	 1.37101237387501E-02 
1310	 1.35258133683964E-02 
1311	 1.32163408039878E-02 
1312	 1.33580354787437E-02 
1313	 1.36171434791416E-02 
1314	 1.33016778528593E-02 
1315	 1.29122440362826E-02 
1316	 1.30109111962153E-02 
1317	 1.28109418571765E-02 
1318	 1.24362441543246E-02 
1319	 1.26739506421627E-02 
1320	 0.012953492163421 
1321	 1.28328045439491E-02 
1322	 1.23906946624463E-02 
1323	 0.012324268954889 
1324	 1.22840506617209E-02 
1325	 1.20280308473842E-02 
1326	 1.16688606149274E-02 
1327	 0.011441520979293 
1328	 1.16806538144097E-02 
1329	 1.20913829328827E-02 
1330	 1.15385641102056E-02 
1331	 1.14899790402619E-02 
1332	 1.22771155433136E-02 
1333	 1.13612570626095E-02 
1334	 1.03791083680886E-02 
1335	 1.04340084883306E-02 
1336	 1.16411651269468E-02 
1337	 1.16323663428926E-02 
1338	 1.19390793801389E-02 
1339	 0.012007252658927 
1340	 1.10267775042792E-02 
1341	 0.010182078270353 
1342	 8.65160304189826E-03 
1343	 8.65020154585807E-03 
1344	 1.05111690332953E-02 
1345	 1.03347014364714E-02 
1346	 1.02009510176129E-02 
1347	 1.12877082791829E-02 
1348	 9.65857789725716E-03 
1349	 7.32895567353714E-03 
1350	 0.010657381580413 
1351	 1.11799586877371E-02 
1352	-4.04320238631298E-03 
1353	-1.25293375602529E-02 
1354	 5.18704921571057E-03 
1355	-6.33563217689347E-04 
1356	-6.06608597785015E-03 
1357	-2.29633184231541E-02 
1358	-6.07472990939304E-02 
1359	 9.3214441001819E-03 
1360	 8.63589552324513E-02 
1361	 0.038466354734504 
1362	-0.01353663304044 
1363	 9.02838953770857E-03 
1364	 1.59435401945193E-02 
1365	 2.70680904327941E-02 
1366	 9.05744163734998E-02 
1367	 9.24213839859874E-02 
1368	 7.97060936374012E-02 
1369	 0.124873370238641 
1370	 0.306937022090556 
1371	 0.303641494151309 
1372	 0.196755536802659 
1373	 0.284804347509771 
1374	 0.343816782733003 
1375	 3.98704459475128E-02 
1376	 3.22903536620117E-02 
1377	 0.248775394662913 
1378	 0.302404755710703 
1379	 0.464700509072204 
1380	 0.401291473280355 
1381	 6.01621306491719E-02 
1382	 9.10038106166184E-02 
1383	 0.405778737819542 
1384	 0.342692656216681 
1385	 0.206763244267637 
1386	 0.314108526192643 
1387	 0.340638580683623 
1388	 0.229476993451706 
1389	 0.51390459316216 
1390	 0.618661061103816 
1391	 0.182553872737077 
1392	-0.217249775046469 
1393	-0.128162281497725 
1394	 0.217805355838305 
1395	 0.296606619599805 
1396	 0.285189256189687 
1397	 0.249472003887735 
1398	 2.13104711170593E-02 
1399	 0.116123393737242 
1400	 0.29067422083216 
1401	 0.143775034486653 
1402	 0.103191020055957 
1403	 0.225314008222737 
1404	 0.146985452156409 
1405	 5.14668486843602E-02 
1406	 4.77281384076301E-02 
1407	 9.04863866967428E-02 
1408	-4.98831394796605E-03 
1409	-1.24968831768837E-02 
1410	 0.145807624774947 
1411	 0.15241858652595 
1412	 5.70022302225169E-02 
1413	 2.94128888977218E-02 
1414	 1.23162247706658E-02 
1415	 1.71580570735607E-02 
1416	 2.96598161402636E-03 
1417	 7.20637465195175E-03 
1418	 6.83990016782874E-02 
1419	 5.74164092823368E-02 
1420	 1.23405242520929E-02 
1421	 6.4596768938732E-03 
1422	-2.70292552286134E-03 
1423	 5.27840329617005E-03 
1424	 4.35949469757895E-02 
1425	 3.63670206131044E-02 
1426	-4.22992257601598E-03 
1427	-4.67066191883456E-04 
1428	 2.21542069533309E-02 
1429	 1.49775645959953E-02 
1430	 8.94663679411937E-03 
1431	 1.25581457228065E-02 
1432	-9.39215308938006E-03 
1433	-1.43731122654732E-02 
1434	 1.73551428717013E-02 
1435	 2.80401294749326E-02 
1436	 2.68046202527809E-02 
1437	 2.08922440722725E-02 
1438	 2.41895861183075E-02 
1439	 1.92143953647024E-02 
1440	 4.69538842301491E-03 
1441	 3.43746030685253E-03 
1442	 5.46471247864927E-03 
1443	 5.15010372504548E-03 
1444	 1.26554495745078E-02 
1445	 1.41213133022135E-02 
1446	 6.73855093849344E-03 
1447	 7.3754216761076E-03 
1448	 1.27734510857298E-02 
1449	 1.16324851418378E-02 
1450	 9.08113955041865E-03 
1451	 8.79826400603575E-03 
1452	 1.03149254143795E-02 
1453	 1.09246281520485E-02 
1454	 9.65600220808125E-03 
1455	 8.53108100761708E-03 
1456	 9.4724404911789E-03 
1457	 9.85229091983266E-03 
1458	 8.91183388128409E-03 
1459	 9.38997344815963E-03 
1460	 9.47220171355452E-03 
1461	 6.90808516674155E-03 
1462	 6.13523595825788E-03 
1463	 7.48053837885374E-03 
1464	 8.39969922670013E-03 
1465	 8.78395374534764E-03 
1466	 9.11385460696957E-03 
1467	 1.09058456371776E-02 
1468	 1.17327449665616E-02 
1469	 1.03932255509364E-02 
1470	 1.03795476805498E-02 
1471	 1.25295223741943E-02 
1472	 1.21414845413307E-02 
1473	 9.93390141322896E-03 
1474	 9.11769261244701E-03 
1475	 7.60148600489835E-03 
1476	 7.4215824006581E-03 
1477	 8.56946702583422E-03 
1478	 8.99222903881046E-03 
1479	 9.65568381537643E-03 
1480	 9.50738956505784E-03 
1481	 9.04715878448552E-03 
1482	 8.74502689067356E-03 
1483	 7.2512768427683E-03 
1484	 7.91971646305554E-03 
1485	 1.06367331442314E-02 
1486	 1.04989209685493E-02 
1487	 9.4204456807774E-03 
1488	 9.5557699191571E-03 
1489	 8.84526460378569E-03 
1490	 8.82068463820426E-03 
1491	 1.00393503520618E-02 
1492	 1.05719521004505E-02 
1493	 1.07113735053082E-02 
1494	 1.07879444472157E-02 
1495	 1.07392543186915E-02 
1496	 1.09759141553717E-02 
1497	 1.12693494375177E-02 
1498	 1.13754361125927E-02 
1499	 1.16246268751432E-02 
1500	 1.18660241022288E-02 
1501	 0.0119678795624 
1502	 0.011929355405346 
1503	 1.19365595532743E-02 
1504	 1.19527345733067E-02 
1505	 1.16917477331313E-02 
1506	 1.16198860374846E-02 
1507	 1.21509046381982E-02 
1508	 1.25064073151344E-02 
1509	 1.24023012897752E-02 
1510	 1.23607942393787E-02 
1511	 1.23642880521417E-02 
1512	 1.22042219159896E-02 
1513	 1.22600903673738E-02 
1514	 0.012551397780131 
1515	 1.26244615539356E-02 
1516	 1.25224898637317E-02 
1517	 1.26247005424458E-02 
1518	 1.29142137029908E-02 
1519	 1.29235044693193E-02 
1520	 0.012708414272581 
1521	 1.27334962184038E-02 
1522	 1.28537357012119E-02 
1523	 1.28608929732413E-02 
1524	 1.29972569619839E-02 
1525	 1.33622808357908E-02 
1526	 1.34927903359211E-02 
1527	 1.32778752119666E-02 
1528	 1.33353357222702E-02 
1529	 1.34534590580128E-02 
1530	 1.32805080584653E-02 
1531	 1.33854888998856E-02 
1532	 1.36691093295355E-02 
1533	 1.35972597261187E-02 
1534	 1.34324970385925E-02 
1535	 1.35783237341865E-02 
1536	 1.37973665760605E-02 
1537	 1.37398952710037E-02 
1538	 1.37355522646392E-02 
1539	 1.38820664251712E-02 
1540	 1.38691087080766E-02 
1541	 1.39182745366672E-02 
1542	 1.39777253673144E-02 
1543	 0.013734029284831 
1544	 1.35966882249227E-02 
1545	 1.37946829600044E-02 
1546	 0.013818113614425 
1547	 1.37321303362289E-02 
1548	 1.38867424579329E-02 
1549	 1.40105242945456E-02 
1550	 1.39409065090385E-02 
1551	 1.39335001810544E-02 
1552	 1.40917577267989E-02 
1553	 1.40260662325659E-02 
1554	 0.013833472017689 
1555	 1.39311300927254E-02 
1556	 1.40602923152496E-02 
1557	 1.40063799194794E-02 
1558	 1.39562029593185E-02 
1559	 1.39418514966403E-02 
1560	 1.38697532438748E-02 
1561	 1.39308686893135E-02 
1562	 1.41169306554306E-02 
1563	 1.41616995995658E-02 
1564	 1.40571208403924E-02 
1565	 1.38976758091205E-02 
1566	 1.38517546432773E-02 
1567	 1.38884941751773E-02 
1568	 1.38121494953248E-02 
1569	 1.36905993715972E-02 
1570	 1.36625746543508E-02 
1571	 1.38516175544105E-02 
1572	 1.40159334596208E-02 
1573	 1.39696220652477E-02 
1574	 1.40085071282008E-02 
1575	 1.39787671685757E-02 
1576	 1.38814472178405E-02 
1577	 0.013929496590465 
1578	 1.39542268623985E-02 
1579	 1.42410040659882E-02 
1580	 1.44099363097368E-02 
1581	 1.40708460956273E-02 
1582	 1.40593294380029E-02 
1583	 1.42423576206499E-02 
1584	 1.40779877892855E-02 
1585	 1.38802875408365E-02 
1586	 0.013919700772048 
1587	 0.014168071727204 
1588	 1.42244506174268E-02 
1589	 1.41220496060097E-02 
1590	 1.41636131394454E-02 
1591	 0.013918210601903 
1592	 0.013638612754158 
1593	 1.39575066716418E-02 
1594	 1.43280686845772E-02 
1595	 1.42203662244755E-02 
1596	 1.40108672299703E-02 
1597	 1.40195097082092E-02 
1598	 1.41367404895642E-02 
1599	 0.014163323523027 
1600	 1.41346608910264E-02 
1601	 1.42059852353324E-02 
1602	 1.41795676145874E-02 
1603	 0.014134361479098 
1604	 1.42942077109681E-02 
1605	 1.42815765003258E-02 
1606	 1.41440573383638E-02 
1607	 1.42878804880711E-02 
1608	 1.43805057092661E-02 
1609	 1.43088320536789E-02 
1610	 0.014253442004797 
1611	 1.40622727612215E-02 
1612	 1.39163652680557E-02 
1613	 1.40875594356628E-02 
1614	 1.43675506099615E-02 
1615	 1.43993026534869E-02 
1616	 1.42942378460703E-02 
1617	 1.41768687048846E-02 
1618	 1.40349853859619E-02 
1619	 1.41092642332525E-02 
1620	 1.43052113514013E-02 
1621	 1.42636926683087E-02 
1622	 1.40816878652805E-02 
1623	 1.41403488465652E-02 
1624	 1.42850150190038E-02 
1625	 1.43163761941205E-02 
1626	 1.43886642416163E-02 
1627	 1.45367134521414E-02 
1628	 1.45645096811001E-02 
1629	 1.44120045724301E-02 
1630	 1.44578586246998E-02 
1631	 1.45767200792763E-02 
1632	 1.44728514205468E-02 
1633	 1.44205651084106E-02 
1634	 1.44508118719572E-02 
1635	 1.44058540682848E-02 
1636	 1.43118606361706E-02 
1637	 1.43931700065701E-02 
1638	 1.46142327574469E-02 
1639	 1.45165960218778E-02 
1640	 1.42705109950946E-02 
1641	 0.014234319171974 
1642	 1.43070547594388E-02 
1643	 1.42699036441155E-02 
1644	 1.42865084633513E-02 
1645	 1.46585141451589E-02 
1646	 1.46438920124158E-02 
1647	 1.41093942489861E-02 
1648	 0.014096064129476 
1649	 1.42343202409319E-02 
1650	 1.41882892271842E-02 
1651	 1.44945676534223E-02 
1652	 1.43587351073822E-02 
1653	 1.40967668370774E-02 
1654	 1.40668366297713E-02 
1655	 1.43686841630176E-02 
1656	 1.44382858158106E-02 
1657	 1.42500501528865E-02 
1658	 0.01421211910996 
1659	 1.41650685915785E-02 
1660	 1.42599206197537E-02 
1661	 1.46050448254186E-02 
1662	 1.45576412124901E-02 
1663	 1.43564354701501E-02 
1664	 1.43378954048443E-02 
1665	 1.41696972982148E-02 
1666	 1.40850599604569E-02 
1667	 1.41704289874104E-02 
1668	 0.014490568551469 
1669	 1.43281712891974E-02 
1670	 1.41016702729686E-02 
1671	 1.43596524523833E-02 
1672	 1.44891555037157E-02 
1673	 1.43652382827694E-02 
1674	 1.44522271082267E-02 
1675	 1.44360894207454E-02 
1676	 0.014331617073522 
1677	 1.45874881125714E-02 
1678	 1.46642760141908E-02 
1679	 1.45254014800453E-02 
1680	 1.45599072624308E-02 
1681	 1.44873419249806E-02 
1682	 1.43847284182912E-02 
1683	 1.43488417585576E-02 
1684	 1.41143161862664E-02 
1685	 1.39600927271969E-02 
1686	 1.41402937475978E-02 
1687	 1.41824060375123E-02 
1688	 1.41048358549825E-02 
1689	 1.40750005113953E-02 
1690	 1.40126137552283E-02 
1691	 1.42276227191703E-02 
1692	 1.43626870347172E-02 
1693	 1.42192610160033E-02 
1694	 1.42540550550058E-02 
1695	 1.41131929943817E-02 
1696	 1.39439951556093E-02 
1697	 1.40663045304118E-02 
1698	 1.41697639350074E-02 
1699	 1.43642955410315E-02 
1700	 1.42700133751106E-02 
1701	 1.39280939537967E-02 
1702	 1.39530392394833E-02 
1703	 1.40160064430902E-02 
1704	 1.40701779180375E-02 
1705	 1.43221787846113E-02 
1706	 1.45021329299335E-02 
1707	 1.41955231739825E-02 
1708	 1.37403595144342E-02 
1709	 1.37416984535721E-02 
1710	 0.013653305882369 
1711	 1.35536781301583E-02 
1712	 1.38587907979496E-02 
1713	 1.39443549638129E-02 
1714	 1.39514077674966E-02 
1715	 1.35698283046013E-02 
1716	 1.35416594583962E-02 
1717	 1.37142198606226E-02 
1718	 1.35969715336567E-02 
1719	 1.35593266937692E-02 
1720	 1.35319552558675E-02 
1721	 1.31542981237267E-02 
1722	 1.28700577049159E-02 
1723	 1.26652054840958E-02 
1724	 1.28341061995129E-02 
1725	 1.32139643400719E-02 
1726	 1.31021427648467E-02 
1727	 0.013453451169289 
1728	 1.34981297327424E-02 
1729	 0.012415719074684 
1730	 1.20959942089095E-02 
1731	 1.22547185886838E-02 
1732	 1.24353452496002E-02 
1733	 1.32159971216372E-02 
1734	 1.37104153658025E-02 
1735	 1.37132965339882E-02 
1736	 0.013129974953791 
1737	 0.012745715834291 
1738	 1.31942541878887E-02 
1739	 1.28997198494343E-02 
1740	 1.27535493617776E-02 
1741	 1.36157960921478E-02 
1742	 1.35913023208843E-02 
1743	 1.31055847931679E-02 
1744	 1.29278210675338E-02 
1745	 1.24032923623046E-02 
1746	 1.30226310018919E-02 
1747	 1.31693616612846E-02 
1748	 0.013214386074869 
1749	 1.30861840133513E-02 
1750	 1.20971199603431E-02 
1751	 1.21158135649144E-02 
1752	 1.33626861746885E-02 
1753	 1.33455390024655E-02 
1754	 1.28576144347746E-02 
1755	 0.012525946086419 
1756	 1.10214548358526E-02 
1757	 1.15759236624467E-02 
1758	 1.30794036485636E-02 
1759	 1.33071875762935E-02 
1760	 1.31915135490476E-02 
1761	 1.27958382962947E-02 
1762	 1.16542226912714E-02 
1763	 1.17382589301822E-02 
1764	 1.20173002180834E-02 
1765	 1.15370483316121E-02 
1766	 0.011760427567792 
1767	 1.15946975241002E-02 
1768	 1.12097519363484E-02 
1769	 1.19194566727844E-02 
1770	 1.18108963643922E-02 
1771	 1.10804776756805E-02 
1772	 1.15079305338205E-02 
1773	 0.011451361240312 
1774	 1.09492450991695E-02 
1775	 1.07454557625449E-02 
1776	 1.06775713503223E-02 
1777	 1.08286219753079E-02 
1778	 1.09277354380684E-02 
1779	 1.15353507939814E-02 
1780	 1.10789895264814E-02 
1781	 8.9492070720369E-03 
1782	 8.41459282167076E-03 
1783	 8.70050813978969E-03 
1784	 9.09592279416144E-03 
1785	 1.11536916233093E-02 
1786	 1.06059966632761E-02 
1787	 7.15232163182208E-03 
1788	 6.93153663280886E-03 
1789	 7.88915400891845E-03 
1790	 9.85364192462019E-03 
1791	 1.10069260793596E-02 
1792	 7.65695727926645E-03 
1793	 2.41564345165427E-03 
1794	 2.52194702219831E-03 
1795	 6.17167244965213E-03 
1796	 1.26139194798469E-02 
1797	 2.11701976777292E-02 
1798	 1.89816571401379E-02 
1799	 1.14846740025643E-02 
1800	-5.28544803434441E-04 
1801	-8.05039208782529E-03 
1802	-6.77309088081741E-03 
1803	-8.55109214290015E-03 
1804	 6.47539965328421E-04 
1805	 2.30427559125692E-03 
1806	-9.97917382289857E-03 
1807	-1.63858272841031E-02 
1808	-3.63863160986597E-02 
1809	-3.61999542977244E-02 
1810	 2.20495581387632E-02 
1811	 4.91177764810967E-02 
1812	 0.069520527883298 
1813	 0.112885120680607 
1814	 0.122841678683468 
1815	 0.112932885694443 
1816	 0.153500306507471 
1817	-0.117846074316967 
1818	-0.473285703750639 
1819	-0.566188042649983 
1820	-0.363632070057391 
1821	 0.483005076116106 
1822	 0.735071235922625 
1823	-5.21796042500529E-02 
1824	-0.163452978438433 
1825	-0.389470226142413 
1826	-0.373008705447243 
1827	 0.56446807273201 
1828	 1.37477268187282 
1829	-1.99835586366971 
1830	-1.5735846176567 
1831	 9.92872168632798E-02 
1832	 0.274856121205659 
1833	-0.808247710950956 
1834	-3.91224989947474 
1835	 8.37276906311791 
1836	 11.6271818484838 
1837	-0.328513828706243 
1838	-0.322509735060283 
1839	 3.27247837569673 
1840	-0.78600882271639 
1841	 1.21470306989429 
1842	 1.15601052968017 
1843	 0.766536526684605 
1844	-0.47023113315848 
1845	-0.754723667647724 
1846	-0.249028035473251 
1847	-0.576097891174624 
1848	-0.91529896978041 
1849	-0.495013584080851 
1850	 1.05014418756691 
1851	 2.61174431466389 
1852	-1.54794875906859 
1853	-7.63482547080013 
1854	 8.63115132096203 
1855	 1.65444221258968 
1856	 1.03923719288493 
1857	 2.21115155337974E-02 
1858	-0.112686841215508 
1859	 0.375268798642219 
1860	 1.13026179798465 
1861	-0.137289611683142 
1862	 0.26937518623011 
1863	 0.868242714009067 
1864	 1.60421148328555 
1865	 1.39169444381364 
1866	 2.32805242217528 
1867	 3.51937076171964 
1868	 0.137231666436879 
1869	 8.61848962828552E-02 
1870	 0.352997722599891 
1871	 1.3973025806131 
1872	 1.94278340299435 
1873	 1.96317751471854 
1874	 17.6698802551375 
1875	-7.7927395786908 
1876	-8.79002879661557 
1877	 4.34797722018505 
1878	 2.60857743433478 
1879	 1.42147879461285 
1880	 1.47299090173322 
1881	 7.17055679890329 
1882	-33.7305245891351 
1883	-5.1816206159214 
1884	 148.642521752728 
1885	 0.935273534181565 
1886	-0.836582720737254 
1887	-65.6288924409393 
1888	-170.76871239635 
1889	 14.5493996958885 
1890	 4.39341846113626 
1891	 5.01428585136993 
1892	 6.65584340716088 
1893	 3.80442298986705 
1894	 1.40234176807962 
1895	 2.44248964922819 
1896	 0.982846996640854 
1897	 0.233720188181911 
1898	 1.76808529879085 
1899	 5.14206631477913 
1900	 11.3561908998295 
1901	-3.4741864598169 
1902	-5.62067213712469 
1903	 4.13398437612457 
1904	 1.01021227684168 
1905	 0.605200178308706 
1906	 0.545089122245458 
1907	 0.562337509893633 
1908	 1.11907736229609 
1909	-0.629644657210608 
1910	-0.491051098256555 
1911	-0.76077535738339 
1912	-0.377409182275612 
1913	-0.410895642597502 
1914	-40.0016284838512 
1915	 3.13193771000143 
1916	 1.59708231869812 
1917	 2.09865727897054 
1918	 2.77653010758666 
1919	 3.71068238021852 
1920	-12.645314787139 
1921	-19.218643120377 
1922	-8.40828976276979 
1923	-1.17161906735147 
1924	-0.743654751841673 
1925	-1.0574179317606 
1926	-1.33041516521592 
1927	-1.94543322521217 
1928	-1.82485350385371 
1929	-4.51483216236868 
1930	 0.63212658747956 
1931	 0.524566764173523 
1932	 0.421851772738588 
1933	 4.20495169542186E-02 
1934	-0.339942999228038 
1935	-0.929686839467183 
1936	-0.741881091837858 
1937	-0.412945296911119 
1938	-0.12836611455468 
1939	-5.05775832845885E-02 
1940	-4.87847434823523E-02 
1941	-5.0377179054072E-04 
1942	 5.27061094116908E-02 
1943	 8.16744028218764E-02 
1944	 0.121573439405992 
1945	 0.126944188212367 
1946	 8.97473043036618E-02 
1947	 3.58727065182833E-02 
1948	 3.50647841093282E-02 
1949	 4.43313448254535E-02 
1950	 9.69455576327405E-03 
1951	 1.57979508467243E-02 
1952	 1.85513676045529E-02 
1953	 2.37125672045357E-02 
1954	 5.48632145558889E-03 
1955	 9.46693570317553E-03 
1956	-1.28639325523372E-02 
1957	-4.25775833961694E-02 
1958	-2.85316660451968E-02 
1959	-1.25033650666821E-02 
1960	-5.47266122535886E-03 
1961	 1.09083613802472E-02 
1962	 1.53059798931056E-02 
1963	 1.03599453572367E-02 
1964	 1.34502525239143E-02 
1965	 1.71107843074563E-02 
1966	 1.69968708711594E-02 
1967	 1.57107336317181E-02 
1968	 1.41459382553164E-02 
1969	 1.28618292418847E-02 
1970	 1.01100496476619E-02 
1971	 7.42596899924129E-03 
1972	 9.40020896394696E-03 
1973	 1.07537487604048E-02 
1974	 1.19661472471522E-02 
1975	 1.44804997491218E-02 
1976	 1.40657960144537E-02 
1977	 0.013193744577036 
1978	 1.19761553010518E-02 
1979	 1.08267491579155E-02 
1980	 8.65797367648434E-03 
1981	 8.92244353434094E-03 
1982	 1.00225577383684E-02 
1983	 9.91474069150586E-03 
1984	 9.98298007585785E-03 
1985	 1.04100769275088E-02 
1986	 1.00882809651271E-02 
1987	 1.00444274699481E-02 
1988	 1.07681798321996E-02 
1989	 0.010513704969155 
1990	 9.84792798716168E-03 
1991	 8.73124712225323E-03 
1992	 6.99350678781772E-03 
1993	 6.57303030929586E-03 
1994	 6.46121762687954E-03 
1995	 6.42349890892733E-03 
1996	 7.19695148417483E-03 
1997	 9.4672398466321E-03 
1998	 1.17023327960835E-02 
1999	 1.30972595274367E-02 
2000	 1.26790188917137E-02 
2001	 1.21796263641933E-02 
2002	 9.49585107958666E-03 
2003	 6.44422878837654E-03 
2004	 7.28450544841516E-03 
2005	 7.41544373455244E-03 
2006	 8.14370671562685E-03 
2007	 8.72885250240615E-03 
2008	 7.4617182931253E-03 
2009	 7.6627338152673E-03 
2010	 9.29139339354886E-03 
2011	 9.3868080888616E-03 
2012	 8.88900146439674E-03 
2013	 9.74156153909537E-03 
2014	 8.94678580690293E-03 
2015	 8.85332754410471E-03 
2016	 8.8999746790006E-03 
2017	 8.60022082759524E-03 
2018	 9.64532259490715E-03 
2019	 1.04549541129464E-02 
2020	 1.08191059400314E-02 
2021	 0.010819156915074 
2022	 1.13123413838153E-02 
2023	 1.24051575864965E-02 
2024	 1.23810226569655E-02 
2025	 1.16956740250526E-02 
2026	 1.22861347371737E-02 
2027	 1.35121078518454E-02 
2028	 1.27993177788521E-02 
2029	 1.22216901175666E-02 
2030	 1.25132207158801E-02 
2031	 1.16168429196189E-02 
2032	 1.18260424319902E-02 
2033	 1.35660516427795E-02 
2034	 1.40739588812059E-02 
2035	 1.38274636530736E-02 
2036	 1.34167136432385E-02 
2037	 1.26140198426331E-02 
2038	 1.24921902579661E-02 
2039	 1.22878029567919E-02 
2040	 1.22429366759479E-02 
2041	 0.012191638029803 
2042	 0.012315289304246 
2043	 1.20831020574135E-02 
2044	 0.011821836925212 
2045	 1.15764791377504E-02 
2046	 1.07080929417068E-02 
2047	 1.01611661585356E-02 
2048	 1.00111160770564E-02 
2049	 9.40895579473497E-03 
2050	 9.62809916900833E-03 
2051	 9.90328142334395E-03 
2052	 1.02865693231077E-02 
2053	 1.15673626289315E-02 
2054	 1.27220635385203E-02 
2055	 1.36005015934807E-02 
2056	 1.37848878932965E-02 
2057	 1.31766534424762E-02 
2058	 1.30381352559638E-02 
2059	 1.23210630823491E-02 
2060	 1.17635112648707E-02 
2061	 0.011446753903639 
2062	 1.12998557935964E-02 
2063	 1.08638602305842E-02 
2064	 1.15055579613385E-02 
2065	 0.012797002301994 
2066	 1.35189347666364E-02 
2067	 1.29213000860243E-02 
2068	 1.14260896666699E-02 
2069	 1.05373047785853E-02 
2070	 1.03580280622179E-02 
2071	 1.06183504240287E-02 
2072	 0.010446706327882 
2073	 1.04888254234409E-02 
2074	 1.00951385425886E-02 
2075	 1.04639874024963E-02 
2076	 1.15805196031297E-02 
2077	 1.20793140625244E-02 
2078	 1.25819067068664E-02 
2079	 1.26208872153538E-02 
2080	 1.19892226683787E-02 
2081	 1.20971305343277E-02 
2082	 1.21867717235185E-02 
2083	 1.19439245405605E-02 
2084	 1.20477709413761E-02 
2085	 1.22543842281131E-02 
2086	 1.16361525841859E-02 
2087	 1.10634748289411E-02 
2088	 1.06390644613967E-02 
2089	 1.07297850214838E-02 
2090	 1.18528999585795E-02 
2091	 0.012617808128181 
2092	 1.27625512776654E-02 
2093	 1.19311913814855E-02 
2094	 0.012069260718512 
2095	 1.26679214270441E-02 
2096	 1.28048584347196E-02 
2097	 1.29554095396068E-02 
2098	 1.32765396345252E-02 
2099	 1.33371899878446E-02 
2100	 1.31458574175533E-02 
2101	 1.34353500482263E-02 
2102	 1.47389566708239E-02 
2103	 1.53525881026605E-02 
2104	 1.43072922787192E-02 
2105	 0.013341570324394 
2106	 1.29773037365385E-02 
2107	 1.27937357433188E-02 
2108	 1.31518764098871E-02 
2109	 1.36227887710975E-02 
2110	 1.35580285537782E-02 
2111	 1.29041425809929E-02 
2112	 1.21940873536395E-02 
2113	 1.20435276144837E-02 
2114	 1.23281102618784E-02 
2115	 1.24231382131979E-02 
2116	 1.31338965103303E-02 
2117	 1.33137190253298E-02 
2118	 1.28862753551845E-02 
2119	 1.28869194291972E-02 
2120	 1.34121505961286E-02 
2121	 1.25303861819023E-02 
2122	 1.20702776604917E-02 
2123	 0.012337669781279 
2124	 1.21804405206381E-02 
2125	 0.012269364269697 
2126	 1.18159004766985E-02 
2127	 0.011691809125641 
2128	 0.012241246583273 
2129	 1.23206504807588E-02 
2130	 1.24857323523831E-02 
2131	 1.26475769678503E-02 
2132	 1.18493219226124E-02 
2133	 1.12360656951591E-02 
2134	 1.14390378634439E-02 
2135	 1.28509773051451E-02 
2136	 1.33072555024692E-02 
2137	 0.013848636292115 
2138	 1.38143227057808E-02 
2139	 1.27897991922645E-02 
2140	 1.26016123144262E-02 
2141	 1.27530090159425E-02 
2142	 1.29189310601707E-02 
2143	 1.34650907436193E-02 
2144	 1.40327040540063E-02 
2145	 1.41460615158039E-02 
2146	 1.33951710521309E-02 
2147	 1.22917040019021E-02 
2148	 1.17755679695568E-02 
2149	 1.23011876719149E-02 
2150	 0.012894596274078 
2151	 1.35376358460206E-02 
2152	 1.39524210979188E-02 
2153	 1.33521939133788E-02 
2154	 1.31090901105177E-02 
2155	 1.38483034699043E-02 
2156	 1.43415846539148E-02 
2157	 1.42422379087917E-02 
2158	 1.33289724195639E-02 
2159	 1.31034103350466E-02 
2160	 1.24612834729386E-02 
2161	 1.27995489431478E-02 
2162	 1.44329774146548E-02 
2163	 1.50036688207903E-02 
2164	 1.59235461116214E-02 
2165	 1.59002233534085E-02 
2166	 1.47324102134756E-02 
2167	 1.38178335055299E-02 
2168	 0.012168949042727 
2169	 1.12059634276849E-02 
2170	 1.02433693889678E-02 
2171	 9.97369203728481E-03 
2172	 1.02986491244231E-02 
2173	 1.09962186983844E-02 
2174	 0.011976510766167 
2175	 1.31415231518115E-02 
2176	 1.28500674699184E-02 
2177	 0.012485286520897 
2178	 1.31853674821609E-02 
2179	 1.30306284631836E-02 
2180	 1.30089779613991E-02 
2181	 1.34354329803491E-02 
2182	 1.31391122350862E-02 
2183	 1.22020569390489E-02 
2184	 1.22268683378479E-02 
2185	 1.28716537278825E-02 
2186	 1.28946818941714E-02 
2187	 1.25492063621689E-02 
2188	 1.25551472647726E-02 
2189	 1.21477553979197E-02 
2190	 1.24121244841145E-02 
2191	 1.36822928474247E-02 
2192	 1.40021620352636E-02 
2193	 1.43367665812636E-02 
2194	 1.40098959654279E-02 
2195	 1.24227167667941E-02 
2196	 1.17612588029907E-02 
2197	 1.14540278873402E-02 
2198	 0.01109740575924 
2199	 1.13666415845894E-02 
2200	 1.04183118803706E-02 
2201	 1.02330166389393E-02 
2202	 1.12116588027258E-02 
2203	 1.20425074515921E-02 
2204	 1.28999057042694E-02 
2205	 1.39073659555581E-02 
2206	 1.39864979789242E-02 
2207	 0.014036042372852 
2208	 1.38692606981725E-02 
2209	 1.22521021683173E-02 
2210	 1.17476864435834E-02 
2211	 1.20950620833875E-02 
2212	 1.16801921535664E-02 
2213	 1.25965241480507E-02 
2214	 0.013441047540317 
2215	 1.25247720122909E-02 
2216	 1.29174325213147E-02 
2217	 1.30419912819951E-02 
2218	 0.01271189773338 
2219	 1.20103850172775E-02 
2220	 1.16826125589714E-02 
2221	 1.14243619808385E-02 
2222	 1.02591934884507E-02 
2223	 1.03125052814568E-02 
2224	 1.12364394577435E-02 
2225	 1.17396639875901E-02 
2226	 1.27889197954777E-02 
2227	 1.35716760130786E-02 
2228	 1.46605956258884E-02 
2229	 1.46280498177936E-02 
2230	 1.36420510352962E-02 
2231	 1.27568794454861E-02 
2232	 1.06754791194898E-02 
2233	 0.010501711087494 
2234	 1.20545961988276E-02 
2235	 1.17420853892877E-02 
2236	 1.13471914138586E-02 
2237	 1.07805078621276E-02 
2238	 9.61758134946544E-03 
2239	 1.02908200890526E-02 
2240	 1.13904398148794E-02 
2241	 0.012245729936774 
2242	 1.23611697333038E-02 
2243	 1.22490015533436E-02 
2244	 1.40888376410105E-02 
2245	 1.40898062035208E-02 
2246	 1.32986897715308E-02 
2247	 1.24687270962583E-02 
2248	 1.10329387212052E-02 
2249	 1.23033210034041E-02 
2250	 1.07880309699926E-02 
2251	 9.80567716265176E-03 
2252	 1.18427552454798E-02 
2253	 9.78940419823863E-03 
2254	 9.3788202874513E-03 
2255	 1.12880364219565E-02 
2256	 1.12030891144498E-02 
2257	 1.22125707856764E-02 
2258	 1.19031810186918E-02 
2259	 9.90437086565656E-03 
2260	 9.70059020259276E-03 
2261	 8.75645487764024E-03 
2262	 9.24162640016424E-03 
2263	 1.26077006928172E-02 
2264	 1.35137798667584E-02 
2265	 1.35555649065619E-02 
2266	 1.34999296402368E-02 
2267	 0.012708003627481 
2268	 1.24998440892402E-02 
2269	 1.16886931547133E-02 
2270	 1.10344071362742E-02 
2271	 1.06226507858097E-02 
2272	 1.14851166841734E-02 
2273	 1.35885555138903E-02 
2274	 1.45135484833574E-02 
2275	 1.63680726745378E-02 
2276	 0.01602308246777 
2277	 1.24747059765803E-02 
2278	 1.14376506743228E-02 
2279	 1.10614901603347E-02 
2280	 1.06693810711255E-02 
2281	 1.07029298312938E-02 
2282	 1.18917472671703E-02 
2283	 1.31604438919382E-02 
2284	 1.29730247791373E-02 
2285	 1.33373506859632E-02 
2286	 1.42748637007305E-02 
2287	 1.33334057181388E-02 
2288	 1.16926164957211E-02 
2289	 1.31829232797274E-02 
2290	 0.013453886736141 
2291	 1.30542596768585E-02 
2292	 1.43133658410748E-02 
2293	 1.22680536824211E-02 
2294	 1.03994703973609E-02 
2295	 8.71452132046245E-03 
2296	 9.15065059209885E-03 
2297	 0.012364398661055 
2298	 1.40046751101614E-02 
2299	 1.73565019969452E-02 
2300	 0.020398501930022 
2301	 1.68519771312155E-02 
2302	 1.17191984419075E-02 
2303	 1.13411131898451E-02 
2304	 1.04977642040773E-02 
2305	 1.10125852475729E-02 
2306	 1.60018491896085E-02 
2307	 1.56086620770617E-02 
2308	 0.012487254663967 
2309	 1.57795472572722E-02 
2310	 1.50645231343492E-02 
2311	 1.08326276850642E-02 
2312	 1.47560676735436E-02 
2313	 1.78738537206507E-02 
2314	 1.62465723793638E-02 
2315	 1.77095037968118E-02 
2316	 1.69772259001043E-02 
2317	 9.74619028562604E-03 
2318	 9.46429665186369E-03 
2319	 1.19700509825833E-02 
2320	 9.82621332298057E-03 
2321	 1.12555818484458E-02 
2322	 1.26108053313053E-02 
2323	 1.34565981476044E-02 
2324	 0.012155029568815 
2325	 1.33634286357074E-02 
2326	 1.53879611654066E-02 
2327	 1.10083106190417E-02 
2328	 1.52514567979356E-02 
2329	 2.02356363397199E-02 
2330	 1.51012520817107E-02 
2331	 1.62689034811836E-02 
2332	 1.82626890609717E-02 
2333	 1.14720421824427E-02 
2334	 7.78043565014351E-03 
2335	 6.27765922045933E-03 
2336	 6.59590197823265E-03 
2337	 9.5591604611406E-03 
2338	 8.02574671452685E-03 
2339	 7.07958979484049E-03 
2340	 5.92403814339965E-03 
2341	 8.21502616437649E-03 
2342	 1.30338617514005E-02 
2343	 1.31786860019687E-02 
2344	 1.24723386885838E-02 
2345	 8.84817227792528E-03 
2346	 1.29983892470299E-02 
2347	 1.93127041266292E-02 
2348	 1.88858915576855E-02 
2349	 2.14402116251599E-02 
2350	 1.93569811107629E-02 
2351	 1.81138032186648E-02 
2352	 2.06264184435998E-02 
2353	 1.68790396731237E-02 
2354	 1.01072413199954E-02 
2355	 6.92896725219849E-03 
2356	 9.03877328135836E-03 
2357	 1.18391548409298E-02 
2358	 1.10089996694882E-02 
2359	-5.77482168687313E-04 
2360	-8.57754958967135E-03 
2361	-3.59552560681837E-03 
2362	-4.39303614221064E-03 
2363	-2.90592582748815E-03 
2364	 6.70012856306173E-03 
2365	 6.30323418763902E-03 
2366	-8.84002462794666E-04 
2367	 2.67404703867524E-03 
2368	 9.21476971347305E-03 
2369	 1.07185528702738E-03 
2370	-1.69226758894311E-03 
2371	 1.23801794013308E-02 
2372	 9.06429762968846E-03 
2373	 4.40067152764641E-03 
2374	 2.34940291000223E-02 
2375	 3.13175703883479E-02 
2376	 3.16816828770015E-02 
2377	 0.043394545194174 
2378	 5.13944839913954E-02 
2379	 3.71465560315515E-02 
2380	 1.84892190702818E-02 
2381	 0.011920073657033 
2382	-9.42680875202045E-03 
2383	-1.47351298319136E-02 
2384	-1.63867876943062E-03 
2385	-2.98529750744966E-02 
2386	-3.28944686667463E-02 
2387	 3.1917860265702E-03 
2388	 7.31029597579308E-03 
2389	 2.22818025290099E-02 
2390	 3.32348424391156E-02 
2391	 1.58458538788577E-02 
2392	 1.86543717008396E-02 
2393	 1.64013805808343E-02 
2394	 7.05354615975303E-03 
2395	 1.07492817955319E-03 
2396	-1.63606353910636E-02 
2397	-1.38525412008346E-02 
2398	 3.63194896456822E-03 
2399	 9.07732807717895E-03 
2400	 1.59564884985948E-02 
2401	 2.73830604423941E-02 
2402	 2.93827432471722E-02 
2403	 4.21997871039809E-02 
2404	 0.050806855533769 
2405	 3.48711532822364E-02 
2406	 1.59281512982403E-02 
2407	 6.31804419526206E-03 
2408	 3.33524159520265E-03 
2409	-2.96590209289503E-02 
2410	-3.68227093798657E-02 
2411	-3.77037520460533E-02 
2412	-2.17981464313226E-02 
2413	 0.06270830334198 
2414	 7.93415300022743E-02 
2415	 4.55020627326636E-02 
2416	-4.10492005757944E-02 
2417	-0.102478347225068 
2418	-4.96694540960824E-02 
2419	 2.53358008634644E-02 
2420	 3.23484561254395E-02 
2421	 6.15427099303292E-02 
2422	 0.11767634079802 
2423	 0.11368109899802 
2424	 0.123719284007238 
2425	 0.102908595651812 
2426	 4.15783085602527E-02 
2427	 6.36874315817694E-02 
2428	 0.130478022312304 
2429	 0.181183960671009 
2430	 0.103538066333798 
2431	 3.62830815497602E-02 
2432	 7.74174839077375E-02 
2433	 2.87920671968392E-02 
2434	 7.41122190810184E-02 
2435	 0.140013769177399 
2436	 0.050042406432659 
2437	 2.37660066489741E-02 
2438	 6.42126485966883E-02 
2439	 6.87894357601801E-02 
2440	 8.45986468688954E-02 
2441	 4.34661359529847E-02 
2442	-8.03557824077945E-03 
2443	-4.64074543644777E-02 
2444	-0.126803746789717 
2445	-7.72480113478909E-02 
2446	 0.100787780131506 
2447	 0.191620001923202 
2448	 0.296762905567896 
2449	 0.375275551149188 
2450	 0.358820028469519 
2451	 0.226785228382397 
2452	 0.216158411726498 
2453	-9.85521577327532E-02 
2454	-9.32316598157906E-02 
2455	 9.57181844027741E-02 
2456	 8.71143360554531E-02 
2457	 0.05841289864197 
2458	 8.25191431297227E-03 
2459	-0.169326260081655 
2460	-0.267979356396194 
2461	-0.384381071828256 
2462	-0.476060866435704 
2463	-0.435435208301639 
2464	-0.511961993650331 
2465	-0.37134402627936 
2466	-8.32839804334271E-02 
2467	 0.098728908826052 
2468	-5.26396031958694E-02 
2469	-0.106753006907703 
2470	-0.205277727758404 
2471	-0.312363324345252 
2472	 0.127956215387848 
2473	 0.658070051222276 
2474	 0.353707175341902 
2475	 0.793943733670197 
2476	 1.30058096544741 
2477	 0.443165822806619 
2478	-0.115811641824758 
2479	 0.219102261638933 
2480	 0.460312406567797 
2481	-0.439240428245291 
2482	-0.448643703144488 
2483	-0.437162231217639 
2484	-2.415184782702 
2485	-1.73533610410162 
2486	-1.39557051602709 
2487	-1.88928670709744 
2488	-1.35662856712814 
2489	-1.88430401299062 
2490	-1.18367956824588 
2491	-1.85866836986718 
2492	 1.04425626626663 
2493	-2.87477983194653 
2494	 0.195283098335942 
2495	 1.58312275130546 
2496	-7.3322278788468 
2497	 2.20429560960768 
2498	-7.38551112745645 
2499	-0.999035280868515 
2500	-0.429080083118151 
