Wavelength	rt0713east_far200007.asd
350	 9.87135641699713E-02 
351	 9.83894696315663E-02 
352	 9.76374873266032E-02 
353	 9.72094551659811E-02 
354	 9.72506995969308E-02 
355	 9.67651052837386E-02 
356	 9.64406311629464E-02 
357	 9.65230345478432E-02 
358	 9.68780147291045E-02 
359	 9.64324353795852E-02 
360	 9.62284136253045E-02 
361	 0.096322489023444 
362	 9.61468716890887E-02 
363	 9.67022103224133E-02 
364	 9.65067647530735E-02 
365	 9.53935493559975E-02 
366	 9.55624152619741E-02 
367	 9.57345855358368E-02 
368	 9.58487970803998E-02 
369	 9.60510860268569E-02 
370	 9.61459815145392E-02 
371	 9.60602715673942E-02 
372	 9.59669893179019E-02 
373	 9.60907176381188E-02 
374	 9.57599663296166E-02 
375	 9.54348148288594E-02 
376	 9.54530786727805E-02 
377	 9.58035620576315E-02 
378	 9.58797486166415E-02 
379	 9.61565360422352E-02 
380	 9.67801508473545E-02 
381	 9.59908759408191E-02 
382	 9.57781304068688E-02 
383	 9.60432824752554E-02 
384	 9.58101528238674E-02 
385	 9.58259806326711E-02 
386	 9.60390440546046E-02 
387	 9.62803408054756E-02 
388	 0.096340765292065 
389	 9.63576183577623E-02 
390	 9.63970581650143E-02 
391	 9.64693886064141E-02 
392	 9.64867104942881E-02 
393	 9.64952598958033E-02 
394	 9.66586783326985E-02 
395	 9.70106297422536E-02 
396	 9.67061939143813E-02 
397	 9.66467577292074E-02 
398	 9.69455142455129E-02 
399	 9.69882394762414E-02 
400	 9.70150827347745E-02 
401	 9.70025534143508E-02 
402	 9.69734977206611E-02 
403	 9.71479975596077E-02 
404	 9.72978675763412E-02 
405	 9.73806916642532E-02 
406	 9.74407522632323E-02 
407	 9.75985937125227E-02 
408	 9.75610229389977E-02 
409	 9.74526141755623E-02 
410	 9.77825426741706E-02 
411	 9.79607307866199E-02 
412	 9.79290005564381E-02 
413	 0.097840218763326 
414	 9.81012770275431E-02 
415	 9.83558333598615E-02 
416	 9.84891961269121E-02 
417	 9.85359792240946E-02 
418	 9.87608353164264E-02 
419	 9.90547029964817E-02 
420	 9.92894946162315E-02 
421	 9.93597298051503E-02 
422	 9.94985574880883E-02 
423	 9.96150969980068E-02 
424	 9.97076154663554E-02 
425	 0.100251499799383 
426	 0.100638613213924 
427	 0.100878740394467 
428	 0.101220067249371 
429	 0.101204592349744 
430	 0.101501703590877 
431	 0.102109783534915 
432	 0.10215153614258 
433	 0.102459300428372 
434	 0.102845025060308 
435	 0.103073791585923 
436	 0.10346858011913 
437	 0.10381669758051 
438	 0.104100488195813 
439	 0.10440280565933 
440	 0.104667276745082 
441	 0.104962353872795 
442	 0.105338774216423 
443	 0.105818464986612 
444	 0.105915461326988 
445	 0.106038870007269 
446	 0.106585213999157 
447	 0.106894035894141 
448	 0.107146199689675 
449	 0.107409079336318 
450	 0.107664008583201 
451	 0.108035790149037 
452	 0.108261179033742 
453	 0.108280206965521 
454	 0.108551480109031 
455	 0.108847837104244 
456	 0.109082334990698 
457	 0.109240768652778 
458	 0.10945217689603 
459	 0.109676517730333 
460	 0.109873363517085 
461	 0.110015889745362 
462	 0.110220191602918 
463	 0.110473233162388 
464	 0.110712615057495 
465	 0.110806475998548 
466	 0.110980301326319 
467	 0.111209781748426 
468	 0.111366419749983 
469	 0.111562866498207 
470	 0.111808454073633 
471	 0.11202595051602 
472	 0.112037813150497 
473	 0.112117123089792 
474	 0.112402183071709 
475	 0.112861396139534 
476	 0.113034333927954 
477	 0.113210430677837 
478	 0.113500629626766 
479	 0.113856312304199 
480	 0.113960649000047 
481	 0.114102556302795 
482	 0.114467258840262 
483	 0.114872196015566 
484	 0.115235914012682 
485	 0.115535722215611 
486	 0.115812280028072 
487	 0.116239314628312 
488	 0.116593968946504 
489	 0.116864414219963 
490	 0.117251079151934 
491	 0.117522062720606 
492	 0.117854213992319 
493	 0.118346573358301 
494	 0.118681163819776 
495	 0.119000666748371 
496	 0.119378406794316 
497	 0.119831882658999 
498	 0.120176236585419 
499	 0.120594053667871 
500	 0.121108929542648 
501	 0.121447615935377 
502	 0.121684944514848 
503	 0.122035343752206 
504	 0.122609997557829 
505	 0.122916024174355 
506	 0.123416674530657 
507	 0.124096270151729 
508	 0.124560500941373 
509	 0.124962883185811 
510	 0.125425733454429 
511	 0.125994872630961 
512	 0.126559397332969 
513	 0.127137057387428 
514	 0.127652075700355 
515	 0.128048061517096 
516	 0.128701759341969 
517	 0.129322750634873 
518	 0.129772204923741 
519	 0.130177193009239 
520	 0.130746516502743 
521	 0.131388286300416 
522	 0.131974300691116 
523	 0.132524475099326 
524	 0.132982591714008 
525	 0.133486314504219 
526	 0.13425813149888 
527	 0.134772285026026 
528	 0.135274436997367 
529	 0.135935253127106 
530	 0.136571856963883 
531	 0.137137880308737 
532	 0.137702133919363 
533	 0.138337930848922 
534	 0.138812027305873 
535	 0.139391349378113 
536	 0.140109337809657 
537	 0.140701421194425 
538	 0.141122054781632 
539	 0.141633618030285 
540	 0.142388899224356 
541	 0.142924267699702 
542	 0.143474192943955 
543	 0.144098859671888 
544	 0.144741527563745 
545	 0.145317898731282 
546	 0.145948755619472 
547	 0.146660975864022 
548	 0.147257575996458 
549	 0.147767090350424 
550	 0.148291891301611 
551	 0.148939259499102 
552	 0.149654592758957 
553	 0.150254409994031 
554	 0.150743654122275 
555	 0.15133905946376 
556	 0.151944873831407 
557	 0.152517149491009 
558	 0.153038839423481 
559	 0.153567406870506 
560	 0.154094542360135 
561	 0.154577423374024 
562	 0.154969595445174 
563	 0.155391801389763 
564	 0.155872910911505 
565	 0.156333018345638 
566	 0.156489793180051 
567	 0.156785281942215 
568	 0.157171826328993 
569	 0.157466562160951 
570	 0.157865280988662 
571	 0.158235467841456 
572	 0.158547541074348 
573	 0.158896491489606 
574	 0.159076866897973 
575	 0.159275351835323 
576	 0.159642119306799 
577	 0.159916806130252 
578	 0.16019266564791 
579	 0.16046271707596 
580	 0.160675507328966 
581	 0.160972938013457 
582	 0.161243205341801 
583	 0.161359040269452 
584	 0.16120886143622 
585	 0.160981948193852 
586	 0.160672788202583 
587	 0.160222764597415 
588	 0.159708115403159 
589	 0.159422558199402 
590	 0.159445797813725 
591	 0.159582594126939 
592	 0.159651395249881 
593	 0.159541407042577 
594	 0.15929542702551 
595	 0.159333079303529 
596	 0.15933262171595 
597	 0.159258212815629 
598	 0.159217977965133 
599	 0.159032073898228 
600	 0.158917615541022 
601	 0.158925441367458 
602	 0.158738851501906 
603	 0.1585914104909 
604	 0.15859436771991 
605	 0.158750330553155 
606	 0.158713369635002 
607	 0.158776719440346 
608	 0.158928263009159 
609	 0.158825735818522 
610	 0.158771148918897 
611	 0.158836957906051 
612	 0.158972210988812 
613	 0.158901119443916 
614	 0.158977596182335 
615	 0.159125098346336 
616	 0.159060364948932 
617	 0.159022724890249 
618	 0.159126809346726 
619	 0.15932453648261 
620	 0.159337451119922 
621	 0.159235371524457 
622	 0.159143220354342 
623	 0.159174301967654 
624	 0.159260706992934 
625	 0.159236794066631 
626	 0.159074819618935 
627	 0.158899309608187 
628	 0.159078155840455 
629	 0.159332138127398 
630	 0.159382333566613 
631	 0.15927422480488 
632	 0.159337661448839 
633	 0.159448873413793 
634	 0.159339999348864 
635	 0.159547346082055 
636	 0.159652740360093 
637	 0.159570616263371 
638	 0.159822393428452 
639	 0.159796689982247 
640	 0.159689510441033 
641	 0.159781416275328 
642	 0.159685748019717 
643	 0.159530487701176 
644	 0.159176044948685 
645	 0.158323123650071 
646	 0.157994418646386 
647	 0.157904736015243 
648	 0.157792651631491 
649	 0.158143009178437 
650	 0.158093554794803 
651	 0.157766337131122 
652	 0.15761141449891 
653	 0.157398391058084 
654	 0.157006020451201 
655	 0.156524697651229 
656	 0.156376741800237 
657	 0.15619683338515 
658	 0.155991949046647 
659	 0.155810984969829 
660	 0.155595024658022 
661	 0.155318546648818 
662	 0.155069780704286 
663	 0.15497274776216 
664	 0.154652264651668 
665	 0.154415882858109 
666	 0.154409963938506 
667	 0.154358597132098 
668	 0.154145325445932 
669	 0.153979900170202 
670	 0.154062835129009 
671	 0.153901322919229 
672	 0.153878031286338 
673	 0.154045898402957 
674	 0.154121057132665 
675	 0.154138200853265 
676	 0.154154190136276 
677	 0.154232464435108 
678	 0.154437676706755 
679	 0.154635977360095 
680	 0.154863891824765 
681	 0.155182875932754 
682	 0.155240069172701 
683	 0.155306660561227 
684	 0.155407915194254 
685	 0.155158888243939 
686	 0.154831319707661 
687	 0.154641187588519 
688	 0.154716239109135 
689	 0.155022583459234 
690	 0.155080673359525 
691	 0.15474426505296 
692	 0.1541233440858 
693	 0.153823146694619 
694	 0.153943634566671 
695	 0.154317248543384 
696	 0.154668096354547 
697	 0.154200175990854 
698	 0.153364699138791 
699	 0.152924972825371 
700	 0.152552490638172 
701	 0.15240111157969 
702	 0.152330890197334 
703	 0.151995309075517 
704	 0.151563748828313 
705	 0.151129410215979 
706	 0.150698119301932 
707	 0.150082816686478 
708	 0.149279366956035 
709	 0.14847264113499 
710	 0.147824076333285 
711	 0.146948468657745 
712	 0.145823714482107 
713	 0.144438737708895 
714	 0.142710289729275 
715	 0.140193772446391 
716	 0.137239039751497 
717	 0.13479854678922 
718	 0.133055467381384 
719	 0.132496010861674 
720	 0.132363020367171 
721	 0.131652879473061 
722	 0.129810183542189 
723	 0.127410414302131 
724	 0.125373699027256 
725	 0.124087798702797 
726	 0.122563412740983 
727	 0.120842585208059 
728	 0.119120152671461 
729	 0.117169677417056 
730	 0.115385256784647 
731	 0.114168692989167 
732	 0.113497403313378 
733	 0.112193897789485 
734	 0.110912943467439 
735	 0.109956637352857 
736	 0.109032812428998 
737	 0.108756233903136 
738	 0.108665458248876 
739	 0.108334104617509 
740	 0.108168434869574 
741	 0.108331850999137 
742	 0.108512460706564 
743	 0.108255875226641 
744	 0.108084503773213 
745	 0.108123059926473 
746	 0.108297151607353 
747	 0.108329442201474 
748	 0.108241497133055 
749	 0.108177158469767 
750	 0.108215653302192 
751	 0.108087678503586 
752	 0.108051781142104 
753	 0.108056182722293 
754	 0.107928536772088 
755	 0.108057169888254 
756	 0.108035098026262 
757	 0.107613022688835 
758	 0.106642679719744 
759	 0.105369064702004 
760	 0.10424198076203 
761	 0.104120495929215 
762	 0.104449660328465 
763	 0.105220658630399 
764	 0.106075527229623 
765	 0.106758274612628 
766	 0.107606367776421 
767	 0.108174307771057 
768	 0.108460206595377 
769	 0.10884171894287 
770	 0.108939691022683 
771	 0.109064760996957 
772	 0.109409759776887 
773	 0.109470742635902 
774	 0.109578122140023 
775	 0.109816832803942 
776	 0.110130527700466 
777	 0.110274908888563 
778	 0.110629136504816 
779	 0.111105224466138 
780	 0.111153849925962 
781	 0.111449911095984 
782	 0.111688001847704 
783	 0.111707129703638 
784	 0.112097535252734 
785	 0.112375824220313 
786	 0.112384374192405 
787	 0.112215965145568 
788	 0.112544628787887 
789	 0.113030587121558 
790	 0.113477518048292 
791	 0.113893819963033 
792	 0.114592682079032 
793	 0.115100054866235 
794	 0.115205820312139 
795	 0.115259606884087 
796	 0.115566633304937 
797	 0.116001638329071 
798	 0.116375617029706 
799	 0.116789203036132 
800	 0.116820841002971 
801	 0.11675133652118 
802	 0.117147689284196 
803	 0.117363215285686 
804	 0.117737479057175 
805	 0.118276407072786 
806	 0.118551042847344 
807	 0.118344834029022 
808	 0.117792766501559 
809	 0.117118576860803 
810	 0.116542625275875 
811	 0.1158048756775 
812	 0.114768048965291 
813	 0.113505052887577 
814	 0.112851388164415 
815	 0.112414005293125 
816	 0.111904611932826 
817	 0.111328712988338 
818	 0.111482695220415 
819	 0.111812958921885 
820	 0.11166283768307 
821	 0.110296831894814 
822	 0.109195706785076 
823	 0.108232237129053 
824	 0.107040516209432 
825	 0.105705804469782 
826	 0.104136015056869 
827	 0.102608901433448 
828	 0.101457790222341 
829	 9.96985645654229E-02 
830	 9.79853387050816E-02 
831	 9.68623687341728E-02 
832	 9.65886167644524E-02 
833	 9.59628162912668E-02 
834	 9.54108375578414E-02 
835	 0.095044362018129 
836	 9.43451673013227E-02 
837	 9.42204374939729E-02 
838	 9.42378097620323E-02 
839	 0.093954750943552 
840	 9.36544216094239E-02 
841	 9.33205941439181E-02 
842	 9.31791654296082E-02 
843	 9.33648198320008E-02 
844	 9.33172592559985E-02 
845	 9.27471400404329E-02 
846	 9.22000395580173E-02 
847	 9.25630932434417E-02 
848	 9.24745687781913E-02 
849	 9.19457797005337E-02 
850	 9.13942502723526E-02 
851	 9.14590148839168E-02 
852	 0.091010184486099 
853	 9.08081976972039E-02 
854	 9.11281581659456E-02 
855	 9.03749939313493E-02 
856	 9.03667887764941E-02 
857	 9.05238586117889E-02 
858	 9.00581560184865E-02 
859	 8.99341813619548E-02 
860	 8.96928523381178E-02 
861	 8.93864180986142E-02 
862	 8.92524395568782E-02 
863	 0.08892671883225 
864	 0.088942711972517 
865	 8.89288336134244E-02 
866	 0.087930004927339 
867	 8.83118223864072E-02 
868	 8.83893322146432E-02 
869	 8.75322396175606E-02 
870	 8.71655845411968E-02 
871	 8.72025808807569E-02 
872	 8.71096572821452E-02 
873	 8.66570483610789E-02 
874	 8.65748986807293E-02 
875	 8.62631378250052E-02 
876	 8.57058362882212E-02 
877	 8.51036850958817E-02 
878	 8.46591258096558E-02 
879	 8.46837188297705E-02 
880	 8.46367955892317E-02 
881	 8.38578131430511E-02 
882	 0.083462116337546 
883	 8.28145030610127E-02 
884	 0.082184829952895 
885	 8.23783628237335E-02 
886	 8.21178774897999E-02 
887	 8.20248593063575E-02 
888	 8.21091571781742E-02 
889	 8.15078396832754E-02 
890	 8.05064580751241E-02 
891	 7.99656512758575E-02 
892	 8.00019598427434E-02 
893	 0.079064409074863 
894	 7.78143809129394E-02 
895	 7.67327592420101E-02 
896	 7.60144669520266E-02 
897	 7.48727851470446E-02 
898	 0.075024243913332 
899	 7.53510946345726E-02 
900	 7.46670074619631E-02 
901	 0.075287713868119 
902	 7.55278451692748E-02 
903	 7.50562066222886E-02 
904	 7.40821609317413E-02 
905	 7.23816226372153E-02 
906	 7.28596401397974E-02 
907	 7.40217544030341E-02 
908	 7.18199642279667E-02 
909	 7.13248378556578E-02 
910	 7.14126230413357E-02 
911	 7.12595650954461E-02 
912	 7.09802230315783E-02 
913	 7.14261464480553E-02 
914	 7.08681443726438E-02 
915	 6.92675905923708E-02 
916	 6.86941267105415E-02 
917	 6.84445097694108E-02 
918	 6.88571202682207E-02 
919	 6.92025066187179E-02 
920	 6.74561482466576E-02 
921	 6.73128751873102E-02 
922	 6.73549660423343E-02 
923	 6.61793491714892E-02 
924	 0.064556810704454 
925	 6.39570006717975E-02 
926	 0.064186491317656 
927	 6.38460029150068E-02 
928	 0.059268756290881 
929	 5.93678789738987E-02 
930	 6.07666230048148E-02 
931	 5.42702115119608E-02 
932	 5.82460850887411E-02 
933	 6.29139602725976E-02 
934	 6.03424521870944E-02 
935	 5.19230545339547E-02 
936	 5.29819669853558E-02 
937	 5.46316182537966E-02 
938	 5.68149119403876E-02 
939	 0.059598114395798 
940	 4.98859083115714E-02 
941	 4.71108352020553E-02 
942	 0.051119351289867 
943	 5.19700712101319E-02 
944	 4.95496870904607E-02 
945	 5.05656917448025E-02 
946	 5.14308008310928E-02 
947	 4.60287962285848E-02 
948	 5.17485502061425E-02 
949	 5.28816861677257E-02 
950	 4.94933446161219E-02 
951	 5.13753229805121E-02 
952	 5.56985730494675E-02 
953	 0.054968875907421 
954	 5.03017878235734E-02 
955	 0.048288875061362 
956	 4.80477018495076E-02 
957	 4.66845431604713E-02 
958	 4.62140743249828E-02 
959	 5.03163319453094E-02 
960	 5.01261383458245E-02 
961	 5.32998326404208E-02 
962	 5.62109680560241E-02 
963	 5.03695452442906E-02 
964	 0.049136221097864 
965	 0.052136847366049 
966	 5.58600725926976E-02 
967	 5.65403840336515E-02 
968	 5.71840964569334E-02 
969	 5.49790235830473E-02 
970	 5.27006795552518E-02 
971	 5.64150700916073E-02 
972	 5.57079299824218E-02 
973	 5.34945320715221E-02 
974	 0.053202228175557 
975	 5.60649568215013E-02 
976	 5.45311490621258E-02 
977	 5.35366534471498E-02 
978	 5.48157326833294E-02 
979	 5.58175023870366E-02 
980	 5.40195245528208E-02 
981	 5.60281775084859E-02 
982	 5.99253191905853E-02 
983	 5.81035689037855E-02 
984	 5.73013394963609E-02 
985	 5.66516898789004E-02 
986	 5.65143358198581E-02 
987	 5.80377472821589E-02 
988	 0.057384751907627 
989	 5.78289413104245E-02 
990	 5.92970482055682E-02 
991	 5.88185832735249E-02 
992	 5.45277509249914E-02 
993	 5.66332724059826E-02 
994	 6.17008782466092E-02 
995	 5.87786212022852E-02 
996	 5.61124833726355E-02 
997	 5.84687844871823E-02 
998	 0.061173128254602 
999	 0.057124933761148 
1000	 5.85490620777986E-02 
1001	 5.17272287639254E-02 
1002	 5.10847644542376E-02 
1003	 5.11443194258808E-02 
1004	 5.22409960598544E-02 
1005	 5.22776490890575E-02 
1006	 5.21555222751814E-02 
1007	 5.16456295391303E-02 
1008	 5.09306924793528E-02 
1009	 5.02513662019476E-02 
1010	 4.94390615329046E-02 
1011	 5.00441968991872E-02 
1012	 5.05807763760818E-02 
1013	 5.06750717282852E-02 
1014	 5.12592585143066E-02 
1015	 0.052364720287349 
1016	 5.29903024224803E-02 
1017	 5.39779496078174E-02 
1018	 0.054304816555904 
1019	 5.40221959659034E-02 
1020	 5.40479319969105E-02 
1021	 5.40952336645808E-02 
1022	 5.34105559348882E-02 
1023	 5.33387109894897E-02 
1024	 0.053600956528043 
1025	 5.33430143420202E-02 
1026	 5.38154888667941E-02 
1027	 5.39765775967948E-02 
1028	 5.40280348079942E-02 
1029	 5.45469037346298E-02 
1030	 5.54999482237401E-02 
1031	 5.56059271111016E-02 
1032	 5.57988551868364E-02 
1033	 0.055588611864957 
1034	 5.41864533469502E-02 
1035	 5.38371044348022E-02 
1036	 5.41021463422526E-02 
1037	 5.40979440171121E-02 
1038	 5.39568616884645E-02 
1039	 5.45643031531904E-02 
1040	 5.47090646860822E-02 
1041	 5.46107631829008E-02 
1042	 5.51855247423081E-02 
1043	 5.63592566927375E-02 
1044	 5.67784212931443E-02 
1045	 5.75697731272595E-02 
1046	 5.74543790191116E-02 
1047	 5.60348285482615E-02 
1048	 5.58620544012549E-02 
1049	 5.58831676143973E-02 
1050	 5.58856868217252E-02 
1051	 5.66552370259352E-02 
1052	 5.69258366983139E-02 
1053	 5.65993205475008E-02 
1054	 5.66617555314015E-02 
1055	 5.69209643929326E-02 
1056	 0.057123666558221 
1057	 5.73734086761545E-02 
1058	 5.79233681323239E-02 
1059	 5.78759789802645E-02 
1060	 5.73797791044236E-02 
1061	 5.74031826263349E-02 
1062	 5.73385030609814E-02 
1063	 5.73790770267385E-02 
1064	 0.058024118321906 
1065	 5.80567252546475E-02 
1066	 5.76217673139331E-02 
1067	 5.73784645307558E-02 
1068	 5.67009338403675E-02 
1069	 5.66031828433714E-02 
1070	 5.72991327881338E-02 
1071	 5.73005411565888E-02 
1072	 5.67990807778907E-02 
1073	 5.69806796071013E-02 
1074	 5.71260223096749E-02 
1075	 0.05695471982832 
1076	 5.69066416636735E-02 
1077	 5.75415176711621E-02 
1078	 5.74670890375879E-02 
1079	 5.67135665028868E-02 
1080	 5.63546612001122E-02 
1081	 5.56526029788099E-02 
1082	 5.57411672072839E-02 
1083	 0.057066642566725 
1084	 0.056914502096683 
1085	 5.59351766244416E-02 
1086	 5.58619501076572E-02 
1087	 0.055166208075599 
1088	 0.054681958836327 
1089	 0.055054888112995 
1090	 5.62255620951885E-02 
1091	 5.58687367850212E-02 
1092	 5.41128895288619E-02 
1093	 0.053723008353666 
1094	 5.33056893525796E-02 
1095	 5.30559851039581E-02 
1096	 5.37662860445892E-02 
1097	 5.37704752533482E-02 
1098	 5.32272815014519E-02 
1099	 5.30991454629406E-02 
1100	 5.30169714222094E-02 
1101	 5.27232816285072E-02 
1102	 5.27089639527404E-02 
1103	 5.24003332539394E-02 
1104	 5.13367226397637E-02 
1105	 5.11164622436268E-02 
1106	 5.11990105978797E-02 
1107	 0.049454809672431 
1108	 4.88844073952763E-02 
1109	 4.93050371510596E-02 
1110	 0.048767049534553 
1111	 4.80439373832201E-02 
1112	 0.048106883960174 
1113	 4.79314663096162E-02 
1114	 4.74805758135619E-02 
1115	 4.90727634426679E-02 
1116	 4.86013082112334E-02 
1117	 0.043181302790335 
1118	 4.13575306653573E-02 
1119	 4.30388540762687E-02 
1120	 4.07063231556068E-02 
1121	 0.035985402679074 
1122	 3.84387678673193E-02 
1123	 3.24218742802019E-02 
1124	 2.87204284576409E-02 
1125	 3.69734650569407E-02 
1126	 4.20070014798814E-02 
1127	 4.49185229988099E-02 
1128	 4.73444636940945E-02 
1129	 4.57772154442924E-02 
1130	 4.01098957405614E-02 
1131	 3.73225839046578E-02 
1132	 3.19305083381237E-02 
1133	 3.12678905580517E-02 
1134	 3.45832167216158E-02 
1135	 3.42867309899745E-02 
1136	 3.31327388254496E-02 
1137	 3.48794966271628E-02 
1138	 3.72843777575335E-02 
1139	 3.68111089661571E-02 
1140	 3.99429359833304E-02 
1141	 4.46042749389576E-02 
1142	 4.57316847012379E-02 
1143	 4.47095650525045E-02 
1144	 4.34679749893217E-02 
1145	 3.93418608214043E-02 
1146	 3.64925771030265E-02 
1147	 3.88722047428633E-02 
1148	 4.26258570367204E-02 
1149	 4.52762532671782E-02 
1150	 4.50272300860966E-02 
1151	 4.17579815839833E-02 
1152	 4.08489385707743E-02 
1153	 3.91964511758123E-02 
1154	 3.98944795886978E-02 
1155	 4.22728758116058E-02 
1156	 4.25341970692248E-02 
1157	 4.45485476336865E-02 
1158	 0.044956574438474 
1159	 0.043159098224678 
1160	 4.41733836094499E-02 
1161	 4.58010880121361E-02 
1162	 4.60994569456573E-02 
1163	 4.68660446159216E-02 
1164	 4.73214265666665E-02 
1165	 4.67422791422166E-02 
1166	 4.71540630153024E-02 
1167	 4.78748283876507E-02 
1168	 4.76249595278179E-02 
1169	 4.79089385751661E-02 
1170	 4.84712475449831E-02 
1171	 4.85208278425486E-02 
1172	 4.85184406736632E-02 
1173	 4.86383173250696E-02 
1174	 4.87738598904299E-02 
1175	 4.81032468108637E-02 
1176	 4.77413276933963E-02 
1177	 4.85748638476779E-02 
1178	 4.92254765657621E-02 
1179	 4.88384593634185E-02 
1180	 4.91748241920384E-02 
1181	 4.95382592808295E-02 
1182	 4.86165915260552E-02 
1183	 4.84816628881876E-02 
1184	 4.89882972815944E-02 
1185	 4.85678208812839E-02 
1186	 4.85600566448279E-02 
1187	 4.94465416322535E-02 
1188	 4.98206701121229E-02 
1189	 4.94985663445393E-02 
1190	 4.94888829031357E-02 
1191	 4.93908479887809E-02 
1192	 4.93123945237584E-02 
1193	 4.88470294220036E-02 
1194	 0.049363973449069 
1195	 5.00183515155179E-02 
1196	 5.00586844863907E-02 
1197	 4.99547724240059E-02 
1198	 4.94432193204918E-02 
1199	 4.93242819824736E-02 
1200	 4.95886258133788E-02 
1201	 4.94036099819687E-02 
1202	 4.96158809322243E-02 
1203	 4.96013813890588E-02 
1204	 4.91760537000571E-02 
1205	 4.93556959415495E-02 
1206	 4.99746257871719E-02 
1207	 5.05558500782759E-02 
1208	 5.06055466637575E-02 
1209	 0.050610919346845 
1210	 5.08221972119562E-02 
1211	 5.08000046456124E-02 
1212	 5.05421973096566E-02 
1213	 5.04868300096507E-02 
1214	 5.05244991902794E-02 
1215	 5.04513846690122E-02 
1216	 4.99237504248301E-02 
1217	 5.01659244534707E-02 
1218	 5.11307755492411E-02 
1219	 5.13268928987959E-02 
1220	 5.09313598818962E-02 
1221	 5.07365014438135E-02 
1222	 5.06607270088532E-02 
1223	 5.05799958644104E-02 
1224	 5.10532098005424E-02 
1225	 5.14798030036387E-02 
1226	 5.11452657866786E-02 
1227	 5.11217740687441E-02 
1228	 0.051660605683011 
1229	 5.18944357813071E-02 
1230	 5.17418654032795E-02 
1231	 5.17288889649961E-02 
1232	 5.17283768775679E-02 
1233	 5.15347387163374E-02 
1234	 5.14262253635783E-02 
1235	 5.14628957786507E-02 
1236	 5.13173467221266E-02 
1237	 5.13430105283916E-02 
1238	 5.17109682842394E-02 
1239	 5.18312685673689E-02 
1240	 5.14583506225938E-02 
1241	 5.13057343836152E-02 
1242	 5.11624051443891E-02 
1243	 5.09788864725541E-02 
1244	 5.15534131957365E-02 
1245	 5.21272490251833E-02 
1246	 5.17311196633113E-02 
1247	 0.051673361690145 
1248	 5.20883074516158E-02 
1249	 5.17374431357214E-02 
1250	 5.13727600198489E-02 
1251	 5.18165522304605E-02 
1252	 5.20011654842089E-02 
1253	 5.13387877429375E-02 
1254	 5.11505586284641E-02 
1255	 5.16706584203154E-02 
1256	 5.17072797627852E-02 
1257	 5.13266130886782E-02 
1258	 5.14960286172274E-02 
1259	 0.052061842643033 
1260	 0.052016473798385 
1261	 0.051959424482639 
1262	 5.18639203042556E-02 
1263	 5.13871542587098E-02 
1264	 5.08978336963948E-02 
1265	 5.10457661343836E-02 
1266	 5.10719977821172E-02 
1267	 5.11530772712824E-02 
1268	 0.0513730004525 
1269	 5.13907095010244E-02 
1270	 5.13071783694359E-02 
1271	 5.07895439479404E-02 
1272	 5.03091428502484E-02 
1273	 5.04724405423888E-02 
1274	 5.09729204266773E-02 
1275	 5.14397388015152E-02 
1276	 5.17107677144787E-02 
1277	 5.17263453037032E-02 
1278	 5.14719547462082E-02 
1279	 5.11894906969263E-02 
1280	 5.13118088532917E-02 
1281	 5.14252889523115E-02 
1282	 5.12035274116725E-02 
1283	 5.11027508077655E-02 
1284	 5.14539817661578E-02 
1285	 5.14270810110894E-02 
1286	 5.09893428696748E-02 
1287	 5.08835764837466E-02 
1288	 5.07792659817433E-02 
1289	 5.08449555892382E-02 
1290	 5.12421125847836E-02 
1291	 5.13467477506405E-02 
1292	 5.04559650935434E-02 
1293	 0.050081305642857 
1294	 5.08503066001975E-02 
1295	 5.09745013441895E-02 
1296	 5.02176483937684E-02 
1297	 5.01254208892877E-02 
1298	 5.03781184171587E-02 
1299	 4.99786409882568E-02 
1300	 4.95675347249107E-02 
1301	 4.98679745814152E-02 
1302	 4.98379305098811E-02 
1303	 0.048827756231566 
1304	 4.84266533390998E-02 
1305	 4.93200540513693E-02 
1306	 4.93942122441699E-02 
1307	 4.75045348312898E-02 
1308	 4.73171725272739E-02 
1309	 4.92343015372684E-02 
1310	 4.90737058801261E-02 
1311	 4.75135766359348E-02 
1312	 4.75862565580068E-02 
1313	 4.79127138514331E-02 
1314	 4.73457502474895E-02 
1315	 4.74028920421593E-02 
1316	 4.76210380573914E-02 
1317	 4.68030101378111E-02 
1318	 4.62742923405142E-02 
1319	 4.68427133451682E-02 
1320	 4.69172955123406E-02 
1321	 4.63139652714962E-02 
1322	 4.52276439753482E-02 
1323	 4.46688623674489E-02 
1324	 4.52665351346915E-02 
1325	 4.52116698827003E-02 
1326	 4.40854482004756E-02 
1327	 4.39424429003989E-02 
1328	 4.44012882395076E-02 
1329	 4.38420578002557E-02 
1330	 4.37811377632374E-02 
1331	 4.56687346018356E-02 
1332	 4.56272827603557E-02 
1333	 4.22363007066355E-02 
1334	 4.07332118417607E-02 
1335	 0.040101155859514 
1336	 3.84165359594509E-02 
1337	 3.75027596571782E-02 
1338	 4.01441171826006E-02 
1339	 4.04041028232267E-02 
1340	 3.82839726498374E-02 
1341	 3.77182703761947E-02 
1342	 3.77996170715249E-02 
1343	 3.71895322780516E-02 
1344	 3.53678987707226E-02 
1345	 3.58539903547531E-02 
1346	 4.21694884264607E-02 
1347	 4.15322954230201E-02 
1348	 0.030151776974504 
1349	 3.06018960267559E-02 
1350	 3.99820663809588E-02 
1351	 3.23244120941688E-02 
1352	 4.08260743830275E-02 
1353	 4.04325798011159E-02 
1354	-5.58271373847299E-02 
1355	-0.202464998812477 
1356	-0.114393770311095 
1357	-4.62999429265595E-02 
1358	-0.118454013696563 
1359	 1.11216534423496E-02 
1360	 8.60894532861774E-02 
1361	-3.80063539353424E-02 
1362	-0.051024423356173 
1363	-4.79758342657526E-02 
1364	-0.215726203844954 
1365	-0.543747062385934 
1366	-0.631769827714068 
1367	-0.280421044677559 
1368	-0.255669862423293 
1369	-0.341091664922534 
1370	-0.154078037989 
1371	 3.96183796353937E-02 
1372	 0.121523473966573 
1373	 0.492722520984638 
1374	 0.583326036624876 
1375	 0.486286059299889 
1376	 0.433594121683947 
1377	 0.384051480598293 
1378	 0.214227232674527 
1379	-0.148191657932618 
1380	-0.39926960229274 
1381	-1.04412420299128 
1382	-1.03041551934608 
1383	-0.604757272085792 
1384	-0.788342246355599 
1385	-0.541577725483157 
1386	-0.234437812631095 
1387	-0.335223587221806 
1388	-0.590272023666105 
1389	-0.584821871442122 
1390	-0.316906281514268 
1391	-0.256457708722611 
1392	-0.870486405269869 
1393	-1.42517677895623 
1394	 1.86844516723997 
1395	 1.07175836976184 
1396	 1.05682435359355 
1397	 0.421553469307592 
1398	-0.219264512264878 
1399	-0.747044680744417 
1400	-1.87090190306935 
1401	-2.45641768035662 
1402	-3.51439880117335 
1403	-3.50477750318539 
1404	-1.49758238696481 
1405	-1.45567148269641 
1406	-0.690081668970304 
1407	-0.473282009355345 
1408	-1.14091885643178 
1409	-0.900698458397155 
1410	-0.214877546334864 
1411	-9.00109627873292E-02 
1412	 0.498619421572535 
1413	 0.384156076488167 
1414	-0.627437660477199 
1415	-0.506121352270538 
1416	-0.1860576381676 
1417	-0.132224036733702 
1418	 0.102425536562675 
1419	 0.113189322163525 
1420	-4.64945595221284E-02 
1421	-9.04833386316469E-02 
1422	-0.135320324429587 
1423	-0.12853030923761 
1424	-8.52263563861037E-02 
1425	-7.13547693510632E-02 
1426	-5.20416096053499E-02 
1427	-0.040672050927272 
1428	-4.44749924110104E-02 
1429	-3.83965760000696E-02 
1430	-4.36436767701396E-02 
1431	-2.20191204645826E-02 
1432	 5.57141148757129E-02 
1433	 5.92244889800215E-02 
1434	 3.56431921193158E-03 
1435	 9.75987598889161E-03 
1436	 3.59382350589044E-02 
1437	 1.30584574393297E-02 
1438	-6.12888765425253E-03 
1439	 0.015827378754103 
1440	 3.73431606823839E-02 
1441	 2.32462689237896E-02 
1442	 5.50186315742106E-03 
1443	 2.42129237535691E-02 
1444	 3.11606852556727E-02 
1445	 0.022247173622772 
1446	 0.04814971843715 
1447	 6.37906830523722E-02 
1448	 4.60465619413704E-02 
1449	 3.54458655731432E-02 
1450	 2.93461718008743E-02 
1451	 2.56168360590405E-02 
1452	 3.04115129553076E-02 
1453	 3.77356207662486E-02 
1454	 3.89641823730425E-02 
1455	 3.95458356611574E-02 
1456	 3.67768526034428E-02 
1457	 2.89080849562738E-02 
1458	 3.12942633830009E-02 
1459	 3.85617262931456E-02 
1460	 3.75487834432917E-02 
1461	 3.64993756318098E-02 
1462	 3.78042918066101E-02 
1463	 3.43135798732786E-02 
1464	 0.033365117810902 
1465	 4.02821179670644E-02 
1466	 4.22323314776356E-02 
1467	 3.52861892767208E-02 
1468	 3.67864743740766E-02 
1469	 4.84380132870966E-02 
1470	 4.85443721862634E-02 
1471	 4.24701452327766E-02 
1472	 4.11120963604445E-02 
1473	 3.64434772690117E-02 
1474	 0.03544320425606 
1475	 4.05017838124307E-02 
1476	 4.05118510449298E-02 
1477	 0.037191601113768 
1478	 3.70311556451807E-02 
1479	 3.70254709439172E-02 
1480	 3.62542944908401E-02 
1481	 3.63993935018895E-02 
1482	 3.69386411695433E-02 
1483	 3.77446087683744E-02 
1484	 3.74728436826249E-02 
1485	 3.67110050555115E-02 
1486	 3.68965195706956E-02 
1487	 3.51082854648294E-02 
1488	 3.63651423736874E-02 
1489	 4.12351969249384E-02 
1490	 0.042271822340837 
1491	 4.13960244588317E-02 
1492	 4.27834255764275E-02 
1493	 4.51045570405533E-02 
1494	 4.48259012795884E-02 
1495	 4.39127182416487E-02 
1496	 4.43297748765618E-02 
1497	 4.40233941349493E-02 
1498	 4.33038844050369E-02 
1499	 4.29803554956994E-02 
1500	 4.38363685020282E-02 
1501	 4.48126708202627E-02 
1502	 4.48750680637793E-02 
1503	 4.57305344545273E-02 
1504	 4.64328283034934E-02 
1505	 4.59791214100268E-02 
1506	 4.58828002129712E-02 
1507	 4.58186938647447E-02 
1508	 4.57334803768572E-02 
1509	 4.62468518582474E-02 
1510	 4.67438879274778E-02 
1511	 4.73006425154257E-02 
1512	 4.75940791761354E-02 
1513	 0.046871204259606 
1514	 4.63722641159961E-02 
1515	 4.68473622093038E-02 
1516	 4.78781160553589E-02 
1517	 4.86486837654962E-02 
1518	 4.82515505223444E-02 
1519	 4.76837995360468E-02 
1520	 4.74428952110012E-02 
1521	 4.77387443628083E-02 
1522	 4.84681752494638E-02 
1523	 4.85184236838441E-02 
1524	 4.84438299872017E-02 
1525	 4.87265691389672E-02 
1526	 4.88409602433022E-02 
1527	 4.93689355211164E-02 
1528	 5.02889651063582E-02 
1529	 5.04028326351916E-02 
1530	 5.00289767479943E-02 
1531	 4.99330112052709E-02 
1532	 5.00372803217519E-02 
1533	 5.00561827415894E-02 
1534	 5.01443410591663E-02 
1535	 5.06281147478868E-02 
1536	 0.050574699643165 
1537	 5.02275318410781E-02 
1538	 5.04896740385619E-02 
1539	 5.03360049133131E-02 
1540	 5.02793844538238E-02 
1541	 5.09602501773321E-02 
1542	 5.10495160468431E-02 
1543	 5.04969502940166E-02 
1544	 5.05612445947755E-02 
1545	 5.06967128682432E-02 
1546	 0.050283854912135 
1547	 5.05106714791888E-02 
1548	 5.08687598055292E-02 
1549	 5.10388797577503E-02 
1550	 5.10418426001387E-02 
1551	 5.06292304040372E-02 
1552	 5.08546145894881E-02 
1553	 5.07599289906271E-02 
1554	 5.03505237710932E-02 
1555	 5.07922915167911E-02 
1556	 5.10099398043309E-02 
1557	 5.11721295660664E-02 
1558	 5.17061719283585E-02 
1559	 5.20505680354535E-02 
1560	 5.18159263229096E-02 
1561	 5.11612292153481E-02 
1562	 5.10733832234382E-02 
1563	 5.09105679442594E-02 
1564	 5.05947957431392E-02 
1565	 5.13505860179727E-02 
1566	 5.18646876978691E-02 
1567	 5.14196682005754E-02 
1568	 5.14037135938024E-02 
1569	 5.14634618867645E-02 
1570	 5.10712234971709E-02 
1571	 5.09169884949952E-02 
1572	 5.11074602987433E-02 
1573	 5.09013269639602E-02 
1574	 5.05552806581414E-02 
1575	 5.13435894977844E-02 
1576	 5.21481226510803E-02 
1577	 5.19099251878287E-02 
1578	 5.16142722703542E-02 
1579	 5.14940035481327E-02 
1580	 5.12390712470212E-02 
1581	 0.051633258517716 
1582	 5.22004336168047E-02 
1583	 5.17474489139422E-02 
1584	 5.14310019977512E-02 
1585	 5.16452573639073E-02 
1586	 5.17131010074649E-02 
1587	 5.19835086159569E-02 
1588	 5.21238479796335E-02 
1589	 5.16947085839891E-02 
1590	 5.17711414819092E-02 
1591	 5.21611674912736E-02 
1592	 0.052163209428542 
1593	 5.22039008359844E-02 
1594	 5.21680403185689E-02 
1595	 5.18240590867051E-02 
1596	 5.16687865441968E-02 
1597	 5.18484765641753E-02 
1598	 5.19073196233461E-02 
1599	 5.21033903676653E-02 
1600	 5.20863108254312E-02 
1601	 5.18205328532502E-02 
1602	 5.17049241062408E-02 
1603	 5.14306291657758E-02 
1604	 5.16003462928212E-02 
1605	 5.23113180889849E-02 
1606	 0.052673630225877 
1607	 5.25268954986753E-02 
1608	 5.21938366493225E-02 
1609	 5.19381354708495E-02 
1610	 5.20632402435384E-02 
1611	 5.23760306420052E-02 
1612	 5.26713534129056E-02 
1613	 5.26049226895495E-02 
1614	 5.21202713428647E-02 
1615	 5.18041773302234E-02 
1616	 5.18476388994056E-02 
1617	 5.23518690788909E-02 
1618	 5.23569270252031E-02 
1619	 5.24395641311909E-02 
1620	 5.26743096959435E-02 
1621	 5.22436472266305E-02 
1622	 5.28775659412708E-02 
1623	 5.33893944814859E-02 
1624	 5.28753445019316E-02 
1625	 5.27362946187564E-02 
1626	 5.26705046896632E-02 
1627	 5.23640151450447E-02 
1628	 0.052356898708319 
1629	 5.28057349775461E-02 
1630	 5.26243298195649E-02 
1631	 5.20694697697397E-02 
1632	 0.052293591905199 
1633	 5.21652545929985E-02 
1634	 5.15222026354567E-02 
1635	 0.052213759187187 
1636	 5.29294245372004E-02 
1637	 5.26350215967934E-02 
1638	 5.29897019702363E-02 
1639	 5.28213219863417E-02 
1640	 5.18565463332492E-02 
1641	 5.20475800436134E-02 
1642	 5.23541140088541E-02 
1643	 5.22620403604611E-02 
1644	 5.24480041754131E-02 
1645	 0.052277173720928 
1646	 0.052326135310783 
1647	 5.24988038341001E-02 
1648	 0.05183445718569 
1649	 5.13812654573255E-02 
1650	 5.14395429667705E-02 
1651	 5.09435081652184E-02 
1652	 5.10945652754587E-02 
1653	 5.21798544633911E-02 
1654	 5.23735702304245E-02 
1655	 5.22358783954866E-02 
1656	 5.24505780029939E-02 
1657	 5.25511124037341E-02 
1658	 5.27010663452282E-02 
1659	 5.30677455608579E-02 
1660	 0.052849700718853 
1661	 5.22877082199201E-02 
1662	 5.23079908720465E-02 
1663	 5.21616162239703E-02 
1664	 5.22978911508653E-02 
1665	 5.30947154424902E-02 
1666	 5.30547170415683E-02 
1667	 5.28981661091255E-02 
1668	 5.23891631165156E-02 
1669	 5.14887510290446E-02 
1670	 5.14646525355617E-02 
1671	 5.17423723404409E-02 
1672	 5.14785513776626E-02 
1673	 5.09901423223631E-02 
1674	 5.14346026848244E-02 
1675	 5.18057533472752E-02 
1676	 5.19942000266952E-02 
1677	 5.26895026993245E-02 
1678	 5.24394491898129E-02 
1679	 5.16170844315784E-02 
1680	 0.051402857113628 
1681	 5.15713769655461E-02 
1682	 5.17183422022236E-02 
1683	 5.17867174216495E-02 
1684	 5.19053557781579E-02 
1685	 5.19337433785978E-02 
1686	 0.051548100890533 
1687	 5.11060765950794E-02 
1688	 5.18544138964911E-02 
1689	 5.25426764297829E-02 
1690	 5.23028536809757E-02 
1691	 0.052599540147675 
1692	 5.23698909436508E-02 
1693	 5.15063263003437E-02 
1694	 5.17082390507053E-02 
1695	 5.21959496122589E-02 
1696	 5.17712707978102E-02 
1697	 0.051302196713853 
1698	 5.18673514281358E-02 
1699	 5.23387676889739E-02 
1700	 5.21024989038358E-02 
1701	 5.19968571780903E-02 
1702	 5.14170730208563E-02 
1703	 5.04581634132216E-02 
1704	 5.00331806666286E-02 
1705	 5.06138142595776E-02 
1706	 5.16385893475953E-02 
1707	 5.19595568704749E-02 
1708	 5.23375966930357E-02 
1709	 5.17438552397769E-02 
1710	 5.01513962778592E-02 
1711	 4.97261639297655E-02 
1712	 4.95190254280994E-02 
1713	 5.01060544277889E-02 
1714	 5.03445484220636E-02 
1715	 5.03804325398388E-02 
1716	 0.050726672592726 
1717	 5.03889960404628E-02 
1718	 4.99965053025205E-02 
1719	 5.15620466688694E-02 
1720	 5.30279946951174E-02 
1721	 5.31295800924958E-02 
1722	 5.36131466246095E-02 
1723	 5.23955922554336E-02 
1724	 5.00153476944892E-02 
1725	 4.98801193697843E-02 
1726	 5.06329717408825E-02 
1727	 5.04737894338025E-02 
1728	 5.11242781496449E-02 
1729	 5.20423357892056E-02 
1730	 5.19466706756902E-02 
1731	 5.19885013219116E-02 
1732	 5.21051010324797E-02 
1733	 5.25904297974417E-02 
1734	 5.23705130497189E-02 
1735	 5.14309712060578E-02 
1736	 5.13301254770489E-02 
1737	 5.06400462779737E-02 
1738	 4.96528746509816E-02 
1739	 5.09515033602754E-02 
1740	 5.23158101971516E-02 
1741	 5.08576390701607E-02 
1742	 4.93660711710421E-02 
1743	 4.83871578495917E-02 
1744	 0.047724498756442 
1745	 0.04869232088259 
1746	 4.98879376566238E-02 
1747	 4.99794594295874E-02 
1748	 4.73763052703973E-02 
1749	 4.73235559563009E-02 
1750	 4.99500515165612E-02 
1751	 5.06182819825052E-02 
1752	 5.24630824695294E-02 
1753	 5.23319175386529E-02 
1754	 4.79722069838511E-02 
1755	 4.67501077296296E-02 
1756	 4.61071588409934E-02 
1757	 4.62128907687753E-02 
1758	 0.04984519355215 
1759	 4.98594762858292E-02 
1760	 4.76415108849136E-02 
1761	 4.60268914503076E-02 
1762	 4.50339482745241E-02 
1763	 4.67847727166972E-02 
1764	 4.74732627507735E-02 
1765	 4.72832224349494E-02 
1766	 4.65738784004552E-02 
1767	 4.39904166285684E-02 
1768	 4.58422997046814E-02 
1769	 4.86187718449638E-02 
1770	 4.67219698651867E-02 
1771	 4.49343440453809E-02 
1772	 4.33787440809815E-02 
1773	 4.12180724106022E-02 
1774	 4.12141290711564E-02 
1775	 4.07586367630386E-02 
1776	 0.040713582061004 
1777	 4.03443719304078E-02 
1778	 4.09539025064877E-02 
1779	 4.53076730977706E-02 
1780	 0.045901566810438 
1781	 4.39014958693833E-02 
1782	 4.28572583983944E-02 
1783	 3.77944793968438E-02 
1784	 3.86806398582804E-02 
1785	 4.47166391411555E-02 
1786	 4.52614890809747E-02 
1787	 4.89104321788678E-02 
1788	 4.80757060284409E-02 
1789	 0.038390260377482 
1790	 4.50262726447144E-02 
1791	 3.98590783516049E-02 
1792	 4.27447249729361E-02 
1793	 5.28365232942059E-02 
1794	 3.69971559062967E-02 
1795	 3.09343283898405E-02 
1796	 3.02662909778209E-02 
1797	 5.67826241663131E-03 
1798	 0.011722032726845 
1799	 3.06056312952904E-02 
1800	 3.39924413854101E-02 
1801	 4.00105323969156E-02 
1802	 0.030190147000162 
1803	 2.91740889980318E-02 
1804	 4.46772604086835E-02 
1805	 4.33969172407888E-02 
1806	 4.14162598352833E-03 
1807	 6.24548025253581E-02 
1808	 0.355444753801972 
1809	 0.480370840930926 
1810	 0.422260973278273 
1811	 0.362627976387539 
1812	-4.65882516944107E-02 
1813	-0.219752160241597 
1814	 2.67933624027807 
1815	 1.06215817170123 
1816	 20.6297199350092 
1817	 0.162398285223341 
1818	-0.089444635453768 
1819	-0.585460416678089 
1820	-4.56421555569383 
1821	 0.106510737938068 
1822	 4.53418081681481E-02 
1823	-2.16509960117939 
1824	-1.46195779532365 
1825	-0.627770273908311 
1826	-0.499932004641942 
1827	 1.38291280200693 
1828	-0.248494362028384 
1829	-1.27121873148061 
1830	-0.786762066549512 
1831	 0.762143754024976 
1832	 0.83839052919447 
1833	 1.20963695130909 
1834	 1.24817598943284 
1835	 7.81535769069614 
1836	-71.3232656538863 
1837	-1.0426694931422 
1838	-4.22999317819677 
1839	 0.628993691722707 
1840	 0.746109676847278 
1841	 0.361409852607474 
1842	 0.411400429104588 
1843	 0.630807383575141 
1844	 3.25198732700519 
1845	 10.0264761953688 
1846	 4.69436004848109 
1847	 2.85858667135677 
1848	-1.10949127722124 
1849	-1.61601646501466 
1850	-1.53409929525925 
1851	-1.95121664912648 
1852	-1.97004093556886 
1853	-2.42576854087025 
1854	-1.16012367104992 
1855	-1.86472607412991 
1856	-1.95259458916768 
1857	-1.97217880170901 
1858	-2.41273991113164 
1859	-3.85869097566392 
1860	-2.92277528799606 
1861	-12.878755289731 
1862	 3.06697195674137 
1863	 7.1581770142266 
1864	-22.4609942006575 
1865	-4.6692887203487 
1866	-0.661662221932762 
1867	-0.418869924690537 
1868	 0.502420930333147 
1869	-2.84271061606115 
1870	-0.314887058326879 
1871	 5.01304199060773E-03 
1872	 0.162672767402546 
1873	 0.101617001536542 
1874	 0.35914021528215 
1875	 0.229381238832325 
1876	 8.03506640346488E-02 
1877	-0.263087067354079 
1878	-0.263912565740601 
1879	-0.269767042872284 
1880	-0.446150393830548 
1881	-0.179365529037433 
1882	-2.59553073136297E-02 
1883	-7.48274953299255E-02 
1884	-0.177338173000879 
1885	 0.215855730365263 
1886	-0.453784125863555 
1887	-0.617627979552824 
1888	-0.362018834629505 
1889	-0.192321693280365 
1890	 0.620467625375542 
1891	 0.855757985505171 
1892	 3.95834979478885 
1893	 1.17415967869797 
1894	 0.294285054054527 
1895	 0.364651105558215 
1896	 0.260689012321809 
1897	 0.887759139583462 
1898	 7.69882182726186 
1899	 6.41976729394084 
1900	 2.90912040746631 
1901	 0.971807696996525 
1902	 0.67723612018183 
1903	-0.247544106710967 
1904	 0.192053599054078 
1905	 0.439570670902762 
1906	 0.28160015326207 
1907	 0.59779149916451 
1908	 0.885543664656383 
1909	 1.62215330698876 
1910	-5.05755229774002 
1911	 1.03577853442475 
1912	 1.24093031169102 
1913	 1.95897105576329 
1914	 3.63230452153107 
1915	 2.90768315840751 
1916	 4.12094042092414 
1917	 1.63616355897589 
1918	 0.34728852113393 
1919	-1.0833293789135 
1920	 0.1562522205575 
1921	 0.671254464471597 
1922	 0.542602123756974 
1923	 0.506888357283301 
1924	 0.442020154498209 
1925	 5.52045073886288E-02 
1926	-0.632121342233037 
1927	-1.84938433531751 
1928	 2.32429743654683 
1929	-3.55680687828208 
1930	-0.549221918874567 
1931	-0.181168233135437 
1932	-4.86588097869582E-02 
1933	 0.624606305873349 
1934	 3.98643945727083 
1935	 11.3838973323595 
1936	 5.2652370960727 
1937	 2.28705951611566 
1938	 3.86206889594887 
1939	 4.52856597919014 
1940	-97.7086149162342 
1941	 2.22839509284539 
1942	 3.39998501463182 
1943	-4.38624039269048 
1944	-0.577529220454913 
1945	 0.387823573250041 
1946	 0.302668030326938 
1947	 0.135854293883721 
1948	-0.331753066159112 
1949	-0.5147325542253 
1950	-0.298378538030251 
1951	-0.233241299785561 
1952	-0.228429343425054 
1953	-0.185248716515893 
1954	-0.168974722483754 
1955	-0.27795026974623 
1956	-0.286342679384847 
1957	-0.133316543177116 
1958	-7.95490183288567E-02 
1959	-3.63092926508206E-02 
1960	 3.24729851508637E-02 
1961	 3.77212414334387E-02 
1962	 1.36376844135217E-02 
1963	 1.19769989711026E-02 
1964	 3.0288389183129E-03 
1965	-1.11547276521911E-03 
1966	-2.44979446664105E-04 
1967	 1.24623456546536E-02 
1968	 1.60914316812282E-02 
1969	 2.08523754865459E-02 
1970	 2.41587915313276E-02 
1971	 2.19908574030498E-02 
1972	 2.07577160688274E-02 
1973	 1.42871598276578E-02 
1974	 7.11846603825938E-03 
1975	 1.12822823319912E-02 
1976	 1.92456569958428E-02 
1977	 2.31629872786399E-02 
1978	 2.54844544593263E-02 
1979	 0.027631483998602 
1980	 2.77986545253613E-02 
1981	 2.66340519009976E-02 
1982	 2.27387222505472E-02 
1983	 2.00376013296603E-02 
1984	 1.69063832615056E-02 
1985	 1.29541609673518E-02 
1986	 1.52852500564703E-02 
1987	 2.34758387982691E-02 
1988	 2.93546020203056E-02 
1989	 3.11044230635744E-02 
1990	 3.52621608114106E-02 
1991	 3.64319249802334E-02 
1992	 3.53467861024615E-02 
1993	 3.19690681540322E-02 
1994	 2.93063356329049E-02 
1995	 2.51452596751468E-02 
1996	 2.06778989619255E-02 
1997	 1.36006373293238E-02 
1998	 1.75196418989141E-02 
1999	 2.25870412795433E-02 
2000	 3.03717488897426E-02 
2001	 4.21058846730928E-02 
2002	 3.98049832037937E-02 
2003	 4.21108774140435E-02 
2004	 4.52795266505989E-02 
2005	 3.89886572970144E-02 
2006	 3.69714517040973E-02 
2007	 2.96457437394581E-02 
2008	 1.09346937720153E-02 
2009	 4.25787237915263E-03 
2010	 4.45272122551267E-03 
2011	 7.27730866507937E-03 
2012	 1.80633895621878E-02 
2013	 0.025551991061113 
2014	 2.00896788815648E-02 
2015	 2.28642122379473E-02 
2016	 2.50870756237721E-02 
2017	 2.48536545636486E-02 
2018	 3.72067157471601E-02 
2019	 4.33617298868509E-02 
2020	 4.47629064388807E-02 
2021	 0.042076326395993 
2022	 0.03600122737117 
2023	 3.77571239345892E-02 
2024	 3.76943320944922E-02 
2025	 3.76281069069221E-02 
2026	 3.95298420307928E-02 
2027	 4.58124141987742E-02 
2028	 4.13092906160691E-02 
2029	 3.76950444334324E-02 
2030	 3.91197470531341E-02 
2031	 3.70032623225029E-02 
2032	 3.60891825726985E-02 
2033	 3.85626405719178E-02 
2034	 3.96270984430683E-02 
2035	 4.13609287706793E-02 
2036	 4.48965379590056E-02 
2037	 4.52441122844186E-02 
2038	 4.45003087857171E-02 
2039	 4.37820883732936E-02 
2040	 3.99375266356297E-02 
2041	 3.86942763847448E-02 
2042	 0.039742836837545 
2043	 3.93331574774864E-02 
2044	 3.82646362238935E-02 
2045	 3.87660347387436E-02 
2046	 3.83320405393673E-02 
2047	 3.64161732313284E-02 
2048	 3.56854171017386E-02 
2049	 3.19751793507568E-02 
2050	 2.99645873736881E-02 
2051	 3.22098404503271E-02 
2052	 3.34760180968206E-02 
2053	 3.78913030425711E-02 
2054	 4.20213543706121E-02 
2055	 4.18242603784687E-02 
2056	 4.28219847307067E-02 
2057	 4.54847277147172E-02 
2058	 4.51320314270819E-02 
2059	 4.00400294574314E-02 
2060	 3.96957078221745E-02 
2061	 4.15667991037223E-02 
2062	 3.93147999931617E-02 
2063	 3.81559449128922E-02 
2064	 4.02044149101282E-02 
2065	 4.24319179648269E-02 
2066	 4.38052046684713E-02 
2067	 4.39876522960126E-02 
2068	 4.47892103519638E-02 
2069	 4.07169040641003E-02 
2070	 3.50650432824725E-02 
2071	 3.55807545310603E-02 
2072	 3.66654787023183E-02 
2073	 3.72160103457625E-02 
2074	 3.95354444800675E-02 
2075	 4.10607348052436E-02 
2076	 4.09717389272633E-02 
2077	 4.18879689219082E-02 
2078	 4.54566381494732E-02 
2079	 4.63752398887559E-02 
2080	 0.045762562169164 
2081	 4.44585469826926E-02 
2082	 0.045739147454257 
2083	 4.39714497033436E-02 
2084	 0.042669142317155 
2085	 4.39143158479051E-02 
2086	 4.26608932144827E-02 
2087	 3.95499786910086E-02 
2088	 3.95557717951144E-02 
2089	 4.13793181327305E-02 
2090	 4.15439005302487E-02 
2091	 4.29040943317816E-02 
2092	 4.31949207603976E-02 
2093	 4.02707041283312E-02 
2094	 3.99593179076107E-02 
2095	 4.25390885161215E-02 
2096	 0.041746341172768 
2097	 4.01452212028591E-02 
2098	 3.92716997496564E-02 
2099	 3.63967655560769E-02 
2100	 3.49572976276189E-02 
2101	 0.03561040271752 
2102	 3.65265027444625E-02 
2103	 4.10844001624943E-02 
2104	 4.49153725678564E-02 
2105	 4.62276049919967E-02 
2106	 4.60585861426367E-02 
2107	 4.37904191624063E-02 
2108	 4.11985271975164E-02 
2109	 4.09590810107115E-02 
2110	 0.043217314222246 
2111	 4.63043431102712E-02 
2112	 4.82124255402214E-02 
2113	 4.82056266310091E-02 
2114	 4.62860771268977E-02 
2115	 4.61167621152683E-02 
2116	 4.41975860317591E-02 
2117	 4.40770920840366E-02 
2118	 4.72342392577922E-02 
2119	 4.76327550436194E-02 
2120	 4.71274222718592E-02 
2121	 4.59003810317234E-02 
2122	 4.36953098519961E-02 
2123	 4.30643359016443E-02 
2124	 4.16264641046805E-02 
2125	 4.04167789593931E-02 
2126	 4.12793935396658E-02 
2127	 4.01123730877532E-02 
2128	 4.00484496591797E-02 
2129	 0.041108169046147 
2130	 4.03205647493872E-02 
2131	 4.11804759032866E-02 
2132	 4.22205364572971E-02 
2133	 4.43879661006686E-02 
2134	 4.55913093591303E-02 
2135	 4.69195496347868E-02 
2136	 4.62988704956206E-02 
2137	 4.35504266137442E-02 
2138	 4.28988653170598E-02 
2139	 4.30427018648692E-02 
2140	 4.36994964458999E-02 
2141	 4.51660019306335E-02 
2142	 4.65558351455592E-02 
2143	 4.94844653543928E-02 
2144	 4.75343115655255E-02 
2145	 4.69326569479166E-02 
2146	 4.90735984833502E-02 
2147	 4.80949299001081E-02 
2148	 4.64672026240822E-02 
2149	 4.69396691668087E-02 
2150	 4.67149670381919E-02 
2151	 4.53808714268636E-02 
2152	 4.51777419508869E-02 
2153	 4.50357213657576E-02 
2154	 4.64784202191013E-02 
2155	 4.83138940102161E-02 
2156	 5.08723427244159E-02 
2157	 0.0518350347022 
2158	 5.18579311242229E-02 
2159	 5.04942660294429E-02 
2160	 4.65196730815604E-02 
2161	 4.64253002267679E-02 
2162	 4.70460524604834E-02 
2163	 4.75192177122935E-02 
2164	 5.08877471371706E-02 
2165	 5.18369624042662E-02 
2166	 5.24756665228305E-02 
2167	 5.21154563712424E-02 
2168	 0.049829519945732 
2169	 4.80765304708732E-02 
2170	 4.54234221204513E-02 
2171	 4.21549173418734E-02 
2172	 4.10952228911798E-02 
2173	 4.04171858400552E-02 
2174	 3.70661833306205E-02 
2175	 3.89343979823002E-02 
2176	 4.43644926976118E-02 
2177	 4.93152351560503E-02 
2178	 5.62852911372834E-02 
2179	 5.70470542415946E-02 
2180	 5.49888854869726E-02 
2181	 5.49965938435448E-02 
2182	 5.23323525069087E-02 
2183	 0.049619931226669 
2184	 4.77273949470301E-02 
2185	 4.51384365001556E-02 
2186	 4.62802873391391E-02 
2187	 0.055697056634748 
2188	 5.64318663448019E-02 
2189	 5.39921508280625E-02 
2190	 5.26106665061969E-02 
2191	 4.54668213244881E-02 
2192	 4.21802629734457E-02 
2193	 4.27399897543751E-02 
2194	 0.041036458014307 
2195	 3.84056399410037E-02 
2196	 3.83336729137773E-02 
2197	 3.93340696601646E-02 
2198	 4.04010582802472E-02 
2199	 4.45256121130755E-02 
2200	 0.043657676217468 
2201	 4.23659322843272E-02 
2202	 0.045004982726481 
2203	 4.42782414350838E-02 
2204	 4.54949391992435E-02 
2205	 5.41397389958235E-02 
2206	 5.55760749003171E-02 
2207	 5.85178577698655E-02 
2208	 6.59350233252686E-02 
2209	 6.00071408270615E-02 
2210	 0.056299225271742 
2211	 5.58050546950386E-02 
2212	 4.81611662362406E-02 
2213	 4.50261240823094E-02 
2214	 4.26418075462936E-02 
2215	 4.15487534354045E-02 
2216	 4.64710396348457E-02 
2217	 4.80120984183655E-02 
2218	 5.13028823962407E-02 
2219	 5.30913401126994E-02 
2220	 0.051591036722832 
2221	 5.17112831554732E-02 
2222	 5.50900909461882E-02 
2223	 5.45634821177862E-02 
2224	 5.02477849674264E-02 
2225	 5.00467036257361E-02 
2226	 5.00287752813706E-02 
2227	 4.93575005133483E-02 
2228	 5.08366677839239E-02 
2229	 5.11324014700836E-02 
2230	 5.11777810268736E-02 
2231	 4.92989347448157E-02 
2232	 4.63351067377545E-02 
2233	 4.53979044028161E-02 
2234	 4.34234646599118E-02 
2235	 3.96446988947151E-02 
2236	 4.16879394590451E-02 
2237	 4.34423546357901E-02 
2238	 4.38059834252895E-02 
2239	 4.16550606738325E-02 
2240	 3.78888810336335E-02 
2241	 3.68105606420253E-02 
2242	 3.48786912345221E-02 
2243	 3.51714071919371E-02 
2244	 3.74811048590861E-02 
2245	 3.52415573717968E-02 
2246	 3.48855368398303E-02 
2247	 3.89913198151275E-02 
2248	 4.31970443875275E-02 
2249	 4.95911091231931E-02 
2250	 4.98847920209001E-02 
2251	 4.34381884951461E-02 
2252	 0.045373043737311 
2253	 4.32943719651191E-02 
2254	 3.88838314179471E-02 
2255	 4.45381582905402E-02 
2256	 3.96972544814273E-02 
2257	 0.03509868720894 
2258	 4.52430194856992E-02 
2259	 4.99561719931644E-02 
2260	 5.08150864147523E-02 
2261	 5.25158275814973E-02 
2262	 5.22354394485195E-02 
2263	 4.15433216268428E-02 
2264	 4.25605553671305E-02 
2265	 5.29037196036596E-02 
2266	 5.55120296880314E-02 
2267	 6.02872934919384E-02 
2268	 5.83833735929788E-02 
2269	 4.67448750853161E-02 
2270	 4.10818960657301E-02 
2271	 3.57634259466379E-02 
2272	 3.31946710061416E-02 
2273	 3.34869406156651E-02 
2274	 3.64640489386544E-02 
2275	 0.044698388194552 
2276	 4.41967857325403E-02 
2277	 3.75652219373339E-02 
2278	 0.035578575177005 
2279	 3.37388108239518E-02 
2280	 3.02009548381904E-02 
2281	 2.59669705779264E-02 
2282	 3.10203021364817E-02 
2283	 2.86605331427662E-02 
2284	 2.50247084062841E-02 
2285	 3.94263309489801E-02 
2286	 4.74494878062807E-02 
2287	 0.049603563977128 
2288	 5.24992078606403E-02 
2289	 4.79157801541323E-02 
2290	 4.74823231992301E-02 
2291	 4.92748788156543E-02 
2292	 0.04260607344061 
2293	 3.65314439163267E-02 
2294	 3.60129219915728E-02 
2295	 3.55718943245673E-02 
2296	 4.73419941291272E-02 
2297	 5.47143241392355E-02 
2298	 4.71621057425238E-02 
2299	 4.55136958402638E-02 
2300	 4.10610980042019E-02 
2301	 2.99143211384428E-02 
2302	 2.32516556625821E-02 
2303	 2.42515748197233E-02 
2304	 2.28124624214504E-02 
2305	 1.96975654163644E-02 
2306	 2.61577487529487E-02 
2307	 0.025590186075448 
2308	 2.34813668898853E-02 
2309	 3.66104948668511E-02 
2310	 3.50006608251685E-02 
2311	 2.95446735291047E-02 
2312	 3.22582748846683E-02 
2313	 1.86753743387762E-02 
2314	 0.019215890790361 
2315	 3.48611353409003E-02 
2316	 4.15295583602714E-02 
2317	 4.69672296052182E-02 
2318	 4.68588670348519E-02 
2319	 2.99676211444996E-02 
2320	 1.62378870670201E-02 
2321	 2.21329135684327E-02 
2322	 3.04065833754671E-02 
2323	 3.82144624574198E-02 
2324	 2.83565386303658E-02 
2325	 1.88964125208451E-02 
2326	 1.77742225341591E-02 
2327	 5.22495809186877E-03 
2328	 2.39054063776641E-02 
2329	 0.045178153663439 
2330	 4.31087170066797E-02 
2331	 5.08004681686884E-02 
2332	 5.41283177389524E-02 
2333	 4.73056532297478E-02 
2334	 3.65813901597226E-02 
2335	 0.050893248089937 
2336	 6.38312031985397E-02 
2337	 3.52455480830576E-02 
2338	 2.86307793255959E-02 
2339	 0.020424463883919 
2340	-1.08369537539346E-02 
2341	-5.82305772098218E-03 
2342	 3.29175738355029E-03 
2343	 1.06455887969698E-02 
2344	 2.75215615488014E-02 
2345	 3.34693208776846E-02 
2346	 6.39074265658106E-02 
2347	 7.71534112987551E-02 
2348	 4.80890040777197E-02 
2349	 1.62065517242575E-02 
2350	-2.25088627406387E-02 
2351	-1.93617070176966E-02 
2352	-1.32085637619333E-03 
2353	-4.74115691103443E-03 
2354	 1.88938387753482E-02 
2355	 1.86740026849949E-02 
2356	 1.33548141794899E-02 
2357	 5.36187767325671E-02 
2358	 5.93742648167258E-02 
2359	 1.40170289201419E-02 
2360	-0.029856851574988 
2361	-5.31619731438816E-02 
2362	-5.72944617997507E-02 
2363	-6.01945875134945E-02 
2364	-6.59954558078851E-02 
2365	-0.125645096378076 
2366	-0.175089903666894 
2367	-0.108019982849919 
2368	-5.87527541989564E-02 
2369	-5.08555273149518E-03 
2370	 6.50157280329322E-02 
2371	 2.72602535834913E-02 
2372	-2.31289193815285E-02 
2373	-2.98934007940545E-02 
2374	 3.95343977646811E-02 
2375	 0.117842875002279 
2376	 0.113468360887478 
2377	 0.102399000951856 
2378	 3.37749026645891E-02 
2379	-9.88842448201012E-02 
2380	 2.11686313339815E-02 
2381	 0.108461858633524 
2382	 0.072600241482483 
2383	 8.82552452966722E-02 
2384	-4.77724612143713E-02 
2385	-0.176829984356137 
2386	-0.234994852341401 
2387	-0.377905533355686 
2388	-0.345588607374753 
2389	-0.284461763877827 
2390	-0.293024335552311 
2391	-0.13153668896609 
2392	-7.13161217717108E-02 
2393	-5.89403442582812E-02 
2394	 2.20773252020797E-02 
2395	-9.19819106751846E-02 
2396	-3.34581504825329E-02 
2397	-1.07526496305193E-02 
2398	-0.127908616986775 
2399	-0.114349503601749 
2400	-0.100315753284984 
2401	-0.156556951307031 
2402	-0.152613473172519 
2403	-0.109171300222847 
2404	-0.113569920509385 
2405	-9.72357896809139E-02 
2406	-8.76388980698202E-02 
2407	-1.13032057827978E-02 
2408	 4.95777312862614E-03 
2409	-0.142462151466753 
2410	-4.17052902639354E-02 
2411	-0.190207252607986 
2412	-0.676449155569946 
2413	-0.474078464904271 
2414	-7.31552493012615E-02 
2415	 2.74716824495666E-02 
2416	-4.95899849485838E-02 
2417	-6.62164508837504E-02 
2418	-0.103034232175922 
2419	-0.415760556867471 
2420	-0.161490098340904 
2421	 0.413566699727407 
2422	-0.309156490384944 
2423	-1.37678437361887 
2424	-0.59733077604182 
2425	-1.24225720654555 
2426	-3.48908444245458 
2427	-0.296693029219354 
2428	-0.422177384414233 
2429	-0.831508804362731 
2430	-0.674566924645241 
2431	-0.92928996607916 
2432	-0.991379710390979 
2433	-0.371952886390621 
2434	 0.203793898516516 
2435	-4.84915470270756E-02 
2436	-0.903515800155698 
2437	-213.616638273933 
2438	 1.72840416734854 
2439	 4.01925666542336 
2440	-18.7214854828988 
2441	-16.1499053849911 
2442	-0.888864501106922 
2443	-0.775255270112869 
2444	 8.13076538589094 
2445	 3.216192702 
2446	 0.943270263837769 
2447	 0.551366882486732 
2448	 0.474258082426938 
2449	 6.54498340252735E-02 
2450	-5.30495527609037E-02 
2451	 0.166453230130605 
2452	-9.26395188559825E-02 
2453	-0.340444065207603 
2454	-0.407651726128768 
2455	-0.315700947553907 
2456	-0.137673560091436 
2457	 0.134967418375 
2458	 0.452010570902832 
2459	 0.656292075464457 
2460	 0.429500253994942 
2461	 0.279359629270617 
2462	 0.502902328485893 
2463	 0.736338664653735 
2464	 0.931453238428253 
2465	 1.0098837962244 
2466	 1.06249834230569 
2467	 2.17003347074574 
2468	 4.28373380765959 
2469	 10.6529610400747 
2470	-6.26759069477805 
2471	-7.65547499690431 
2472	-3.33349948028292 
2473	-1.38111115538536 
2474	-1.4404163235689 
2475	-0.341785667716363 
2476	 0.153563207290521 
2477	 0.580169131903401 
2478	-1.26259776795512 
2479	 0.401912531186308 
2480	 0.309337767177228 
2481	 0.221834958288682 
2482	-1.29746972858763E-02 
2483	-0.139905194431634 
2484	-0.416272939136782 
2485	-0.347274095150889 
2486	-0.128059429214188 
2487	 1.14644310445093 
2488	 1.7245421992893 
2489	 0.864450379100835 
2490	 0.928052669525423 
2491	 0.561117693113552 
2492	 0.322044277860107 
2493	 0.554156613611477 
2494	 0.638228737538353 
2495	 2.97524677665648 
2496	-16.7940343939836 
2497	-5.11260384956767 
2498	-6.64611522948803 
2499	-4.57335443662403 
2500	-4.86723833331787 
