Wavelength	rt0713west_far_cloud00004.asd
350	 0.048600458832307 
351	 4.89861101522156E-02 
352	 4.90154342628799E-02 
353	 4.89652680204671E-02 
354	 4.90877479138155E-02 
355	 4.91881150477304E-02 
356	 4.93507803921292E-02 
357	 0.049452353286001 
358	 4.93871980360569E-02 
359	 4.93759107504658E-02 
360	 0.049405566192466 
361	 0.049328492492873 
362	 4.89794109213718E-02 
363	 4.89155034058214E-02 
364	 4.88065215275749E-02 
365	 4.86566157592438E-02 
366	 4.91596717924673E-02 
367	 4.90361593942049E-02 
368	 0.048998224319394 
369	 4.96998097996618E-02 
370	 4.96574712086575E-02 
371	 4.96061683505811E-02 
372	 4.95969631749916E-02 
373	 4.93719592645828E-02 
374	 4.96995128774031E-02 
375	 5.03398218967255E-02 
376	 5.07430932900383E-02 
377	 5.01531605204249E-02 
378	 5.05302484452458E-02 
379	 5.09458158501283E-02 
380	 5.05391710869121E-02 
381	 5.09391482301586E-02 
382	 5.11463634763251E-02 
383	 5.12042873072121E-02 
384	 5.15178959912959E-02 
385	 5.12570514925755E-02 
386	 5.09521969716586E-02 
387	 5.11665737150587E-02 
388	 5.22706930366324E-02 
389	 5.22743814144861E-02 
390	 5.21425035558508E-02 
391	 5.26330711793749E-02 
392	 5.24743057180021E-02 
393	 5.26221607729586E-02 
394	 5.28438710130995E-02 
395	 5.26957643676642E-02 
396	 5.31091486763926E-02 
397	 5.33436136139686E-02 
398	 5.33239039266391E-02 
399	 5.35853933494418E-02 
400	 5.35176256881578E-02 
401	 5.34940627666442E-02 
402	 5.37222015742114E-02 
403	 5.36829360306591E-02 
404	 5.39194057349493E-02 
405	 5.42442551347593E-02 
406	 5.42973712532926E-02 
407	 5.43969621245677E-02 
408	 5.45776736395513E-02 
409	 0.054739340682898 
410	 5.46922928272508E-02 
411	 5.48252497319342E-02 
412	 5.50555301142965E-02 
413	 5.52216877756488E-02 
414	 5.51577870665219E-02 
415	 5.53501108702007E-02 
416	 5.56513741228925E-02 
417	 5.57396273976805E-02 
418	 0.055984806356358 
419	 5.62876997699788E-02 
420	 5.65245781576419E-02 
421	 5.65939930585741E-02 
422	 5.68047535961786E-02 
423	 5.70991995453253E-02 
424	 5.73722046653043E-02 
425	 5.76142694217849E-02 
426	 5.79454195906092E-02 
427	 5.82628608245029E-02 
428	 5.84067024911652E-02 
429	 5.86329536180339E-02 
430	 5.90153848746833E-02 
431	 5.94817411459406E-02 
432	 5.98215907060007E-02 
433	 5.99816874541357E-02 
434	 6.02163282527862E-02 
435	 6.06649048819181E-02 
436	 6.09232079033979E-02 
437	 6.11983773787481E-02 
438	 6.15153286737059E-02 
439	 6.18113675485666E-02 
440	 0.062212460768608 
441	 6.25630769833846E-02 
442	 6.28100652721754E-02 
443	 6.30929550277204E-02 
444	 0.063352894595198 
445	 0.063624136264693 
446	 6.39397454187069E-02 
447	 6.42430360769786E-02 
448	 6.45473271438674E-02 
449	 0.064815883161743 
450	 6.49938338391454E-02 
451	 6.52851947484737E-02 
452	 6.55151360023568E-02 
453	 6.56159071157456E-02 
454	 6.58476844112613E-02 
455	 6.61027250114759E-02 
456	 6.63001683048578E-02 
457	 6.64055948537544E-02 
458	 6.66054275513609E-02 
459	 6.67550545122832E-02 
460	 6.68281997011704E-02 
461	 6.69351598939567E-02 
462	 6.71619760957112E-02 
463	 6.73354317459626E-02 
464	 6.73604919218192E-02 
465	 0.067490796453969 
466	 6.77332307892297E-02 
467	 6.79616826433568E-02 
468	 6.80186261189109E-02 
469	 6.80902579746187E-02 
470	 0.068280377514511 
471	 6.85519764864838E-02 
472	 6.86962348327583E-02 
473	 6.88759023156082E-02 
474	 6.90679120189004E-02 
475	 0.069229291256761 
476	 6.94246280946647E-02 
477	 6.95555061742677E-02 
478	 6.97319322495435E-02 
479	 7.01517062482013E-02 
480	 7.02771282436391E-02 
481	 7.04662151111618E-02 
482	 7.08847183025937E-02 
483	 7.10539415180862E-02 
484	 7.12806258837283E-02 
485	 7.16184011382261E-02 
486	 7.20106964594446E-02 
487	 7.23387043971475E-02 
488	 7.26317400694742E-02 
489	 7.29271106429558E-02 
490	 7.32579665023899E-02 
491	 7.35779231056626E-02 
492	 7.39493956749084E-02 
493	 7.44053188456936E-02 
494	 7.48541677005935E-02 
495	 7.53304269118869E-02 
496	 7.57180075706236E-02 
497	 7.59060777001353E-02 
498	 7.64598766999868E-02 
499	 7.70668605395837E-02 
500	 7.75266004759186E-02 
501	 0.077955186894234 
502	 7.84292298109102E-02 
503	 7.90324209349586E-02 
504	 7.97542404380898E-02 
505	 0.080243852598658 
506	 8.07101454334235E-02 
507	 8.12685873476217E-02 
508	 8.19309705081543E-02 
509	 8.25013604055142E-02 
510	 8.30520172164929E-02 
511	 8.36700123346981E-02 
512	 8.43873756114133E-02 
513	 8.50390046384063E-02 
514	 8.55924657210937E-02 
515	 8.61191695161623E-02 
516	 8.69363053671764E-02 
517	 8.78148764769174E-02 
518	 8.85602092722998E-02 
519	 8.90978788479628E-02 
520	 8.98360937012475E-02 
521	 9.06046668246766E-02 
522	 9.12292206283036E-02 
523	 9.20110543884459E-02 
524	 9.27661612915384E-02 
525	 9.34693466007735E-02 
526	 9.42088306565356E-02 
527	 9.49287232136826E-02 
528	 9.55857547703456E-02 
529	 9.62128580567028E-02 
530	 9.69983161853793E-02 
531	 9.77548472911844E-02 
532	 9.84696257513796E-02 
533	 0.099178423031128 
534	 9.98143023926714E-02 
535	 0.100438926605178 
536	 0.101117948016167 
537	 0.101906493174954 
538	 0.102631752519894 
539	 0.103286382493172 
540	 0.103918391880894 
541	 0.104597100581412 
542	 0.105299538848885 
543	 0.106006131596332 
544	 0.106703227042132 
545	 0.107372758744925 
546	 0.108094964814401 
547	 0.108854320470216 
548	 0.109418657783003 
549	 0.110069150364653 
550	 0.110777522330476 
551	 0.111419119124702 
552	 0.111983803424083 
553	 0.112642812169956 
554	 0.113383141372844 
555	 0.113974684247153 
556	 0.114580346382903 
557	 0.115145447477345 
558	 0.115627864806219 
559	 0.116216178008545 
560	 0.116747144571699 
561	 0.117185785304815 
562	 0.117589956890222 
563	 0.118036063076875 
564	 0.118486262486282 
565	 0.118877979109827 
566	 0.119124753968036 
567	 0.119420098360548 
568	 0.119742492466361 
569	 0.120002957362128 
570	 0.120236665000934 
571	 0.120540757649825 
572	 0.120877053924888 
573	 0.121063501638668 
574	 0.121202050691817 
575	 0.121356772986265 
576	 0.121550351433198 
577	 0.121700199586303 
578	 0.121852602862279 
579	 0.121998941467706 
580	 0.122099570278493 
581	 0.122175817769024 
582	 0.122141350647914 
583	 0.122028986161693 
584	 0.122121755842716 
585	 0.122145754583466 
586	 0.122020731760463 
587	 0.121778037858614 
588	 0.121682240025233 
589	 0.121654957040029 
590	 0.121549553030839 
591	 0.121203870797742 
592	 0.121042399286502 
593	 0.120954196968885 
594	 0.120756463896603 
595	 0.120397656505504 
596	 0.119974086985004 
597	 0.119565033619476 
598	 0.119221763497516 
599	 0.11880957917308 
600	 0.118494395430803 
601	 0.118315444289458 
602	 0.118029559686415 
603	 0.117848651469588 
604	 0.117784594316795 
605	 0.117766247832932 
606	 0.117644047152337 
607	 0.117576603526632 
608	 0.117588146541918 
609	 0.117553945629522 
610	 0.117630776069185 
611	 0.117641336964967 
612	 0.117494145709715 
613	 0.117563500723942 
614	 0.117539927126269 
615	 0.117437907637477 
616	 0.117437884815311 
617	 0.117444727431934 
618	 0.117341071066036 
619	 0.117161927487072 
620	 0.117194572260338 
621	 0.117161473554174 
622	 0.117101107090636 
623	 0.11710484948883 
624	 0.116985470032236 
625	 0.117019276962028 
626	 0.11712252750149 
627	 0.116885658713865 
628	 0.116801278273822 
629	 0.116867015816623 
630	 0.116938722221799 
631	 0.11678080738078 
632	 0.116548664007566 
633	 0.1163490227554 
634	 0.116240370724012 
635	 0.116098814090468 
636	 0.115902416631525 
637	 0.115658640450846 
638	 0.115397677340809 
639	 0.115067320094409 
640	 0.114775161689185 
641	 0.114608467193666 
642	 0.114387441585011 
643	 0.114032445233856 
644	 0.113668537332773 
645	 0.113554717384455 
646	 0.113123335005643 
647	 0.112666161086872 
648	 0.112440407287901 
649	 0.112196591502513 
650	 0.112088418894745 
651	 0.112016986733997 
652	 0.111810480274419 
653	 0.111440164449581 
654	 0.111098576936414 
655	 0.110861089615942 
656	 0.11063796416044 
657	 0.110246965245585 
658	 0.109907933296412 
659	 0.109746484537575 
660	 0.109384636715081 
661	 0.109122683745668 
662	 0.108944413549117 
663	 0.108659329947799 
664	 0.108433384094603 
665	 0.108144012383441 
666	 0.107799992317976 
667	 0.107713141710568 
668	 0.107712152069908 
669	 0.107637175765607 
670	 0.107435346631584 
671	 0.107578291747902 
672	 0.107678489444911 
673	 0.107614401474925 
674	 0.107555500994393 
675	 0.107577008706851 
676	 0.107745584823778 
677	 0.1080560870006 
678	 0.108365455809474 
679	 0.108602559772466 
680	 0.108879163524196 
681	 0.109354733589756 
682	 0.109824690396381 
683	 0.110354189821789 
684	 0.11098063491992 
685	 0.111739609273001 
686	 0.112642795106316 
687	 0.113534159113054 
688	 0.114228473700728 
689	 0.114772123254796 
690	 0.115473605968999 
691	 0.116300660984447 
692	 0.117016355120487 
693	 0.11761373427807 
694	 0.118218248004185 
695	 0.118823966529699 
696	 0.11924720810379 
697	 0.119619746844783 
698	 0.120022305438727 
699	 0.12043422372741 
700	 0.120608624523965 
701	 0.120687441732219 
702	 0.120709148966122 
703	 0.120622973428715 
704	 0.120601817256501 
705	 0.120452431540192 
706	 0.120084491512859 
707	 0.119752715194262 
708	 0.119197669458829 
709	 0.118459049740474 
710	 0.1176475294351 
711	 0.116581539665393 
712	 0.115491286006431 
713	 0.114404795335552 
714	 0.113085205266715 
715	 0.111792102078213 
716	 0.110375039088309 
717	 0.108731912990045 
718	 0.106873666301113 
719	 0.104695648260353 
720	 0.102975042264446 
721	 0.101862514955598 
722	 0.100027533242737 
723	 9.79235589521442E-02 
724	 9.61102577654662E-02 
725	 9.43052815617749E-02 
726	 9.20586277858639E-02 
727	 8.95904990095816E-02 
728	 8.71187654677194E-02 
729	 8.42736815225228E-02 
730	 8.14358212180324E-02 
731	 7.88302363713045E-02 
732	 7.64002260358907E-02 
733	 7.43542924439525E-02 
734	 7.27053645110285E-02 
735	 7.13551561753586E-02 
736	 0.070022075893726 
737	 6.91159915333981E-02 
738	 6.84616218694887E-02 
739	 6.78726944014646E-02 
740	 0.067508720782466 
741	 6.73126393369454E-02 
742	 6.71177020435547E-02 
743	 6.67772856248142E-02 
744	 6.67952018465064E-02 
745	 6.67985119239053E-02 
746	 6.66641795110065E-02 
747	 6.67183557042946E-02 
748	 6.66901786506267E-02 
749	 6.65985983601167E-02 
750	 6.65140728935978E-02 
751	 6.64103115260813E-02 
752	 6.63749038095172E-02 
753	 6.64482244575102E-02 
754	 6.65989469606025E-02 
755	 6.65059875006263E-02 
756	 6.63452281509418E-02 
757	 6.63028395680288E-02 
758	 6.65972499366985E-02 
759	 6.70803907946428E-02 
760	 6.73712001752933E-02 
761	 6.70917360314597E-02 
762	 6.69419407455387E-02 
763	 6.67730026666214E-02 
764	 6.67713856574266E-02 
765	 6.70471462970074E-02 
766	 6.71834825002146E-02 
767	 6.72357809194308E-02 
768	 6.73218396124236E-02 
769	 6.75963981111971E-02 
770	 6.77197342163126E-02 
771	 6.78239686563434E-02 
772	 6.80481311653402E-02 
773	 6.82789514557407E-02 
774	 0.068546559450984 
775	 6.88112469344275E-02 
776	 6.90317800507165E-02 
777	 6.92981153261889E-02 
778	 6.97032424939731E-02 
779	 7.01518745075304E-02 
780	 7.03907490973298E-02 
781	 7.07862254003178E-02 
782	 0.071196888390407 
783	 7.15286391944033E-02 
784	 7.20088830977289E-02 
785	 7.25690404157703E-02 
786	 7.29747789737227E-02 
787	 7.31045881427404E-02 
788	 7.37674245294486E-02 
789	 7.43675252839236E-02 
790	 7.47917197702378E-02 
791	 7.53625269008865E-02 
792	 0.075856204192041 
793	 7.62907273738089E-02 
794	 7.67087455033803E-02 
795	 7.71164793865633E-02 
796	 7.76477162064882E-02 
797	 7.82690947749411E-02 
798	 0.078855636799437 
799	 7.90548096055457E-02 
800	 7.93704596592741E-02 
801	 7.98739451922829E-02 
802	 8.03305006863516E-02 
803	 8.03726077908992E-02 
804	 8.04656828022534E-02 
805	 8.07599095055744E-02 
806	 8.09774684162553E-02 
807	 8.08587718421822E-02 
808	 8.06233279507724E-02 
809	 8.05027051936003E-02 
810	 8.04779051148156E-02 
811	 8.04342301923461E-02 
812	 8.02006475313048E-02 
813	 7.96290557824184E-02 
814	 7.88846918546984E-02 
815	 7.86327668927653E-02 
816	 0.078520269438678 
817	 7.75360868018146E-02 
818	 7.66973961354219E-02 
819	 0.076076286296578 
820	 7.54333783360617E-02 
821	 7.43366896863394E-02 
822	 7.27944482039283E-02 
823	 7.11004398413464E-02 
824	 6.95503973234834E-02 
825	 6.80549963181959E-02 
826	 6.63307063175476E-02 
827	 6.42340646068341E-02 
828	 6.19851846947576E-02 
829	 6.04474905742369E-02 
830	 5.88166668711373E-02 
831	 0.057137873970682 
832	 5.61012061726028E-02 
833	 0.055122352614324 
834	 5.42021748577367E-02 
835	 5.33909142614344E-02 
836	 5.27253534618385E-02 
837	 5.22308115622228E-02 
838	 5.17882404233795E-02 
839	 5.13475800514244E-02 
840	 5.11280868947734E-02 
841	 0.050836326575127 
842	 5.05206684097434E-02 
843	 5.02582147001276E-02 
844	 4.95800391908901E-02 
845	 4.92642674488265E-02 
846	 4.92735262906121E-02 
847	 4.90191334478991E-02 
848	 0.048697760865825 
849	 4.83538753572343E-02 
850	 4.80355550173956E-02 
851	 4.77958561202288E-02 
852	 4.76118539520968E-02 
853	 4.73641374982624E-02 
854	 4.70580334655873E-02 
855	 4.69988134912287E-02 
856	 4.65773915372251E-02 
857	 4.62473897943886E-02 
858	 4.63857509888759E-02 
859	 4.60031230618657E-02 
860	 4.59374220349065E-02 
861	 4.58205904680656E-02 
862	 4.49959362487717E-02 
863	 4.50898050026716E-02 
864	 4.49702820554161E-02 
865	 4.44643455985367E-02 
866	 4.43696495010181E-02 
867	 4.41707706900661E-02 
868	 4.37718471111876E-02 
869	 4.33819341478021E-02 
870	 4.34910849445832E-02 
871	 4.33218822591119E-02 
872	 4.29249351785991E-02 
873	 4.25432565293148E-02 
874	 4.24228555897933E-02 
875	 4.20431083326139E-02 
876	 4.17773164269011E-02 
877	 4.18854918920897E-02 
878	 4.11618260690502E-02 
879	 4.07602701670279E-02 
880	 4.05411483675297E-02 
881	 3.99280321020839E-02 
882	 3.97581585836945E-02 
883	 0.039609747525215 
884	 3.94035031373702E-02 
885	 3.93189494684675E-02 
886	 3.89712882787969E-02 
887	 3.86509322373655E-02 
888	 3.84689412531366E-02 
889	 3.82608668559098E-02 
890	 0.038273439359074 
891	 3.82219139109144E-02 
892	 3.79660325775126E-02 
893	 3.78303997133719E-02 
894	 3.74156735859118E-02 
895	 3.72392595644408E-02 
896	 3.75564375354735E-02 
897	 0.036831231852051 
898	 3.69195811985436E-02 
899	 3.71877743300626E-02 
900	 3.65100905730885E-02 
901	 3.53526536530705E-02 
902	 0.035091856575344 
903	 3.55474338015019E-02 
904	 3.58284057730039E-02 
905	 3.48626699323471E-02 
906	 0.033988085404544 
907	 3.40096259891515E-02 
908	 3.49741672822264E-02 
909	 3.53104550249337E-02 
910	 3.48721292810608E-02 
911	 3.40363419341247E-02 
912	 3.34372931425032E-02 
913	 3.29715497562069E-02 
914	 3.25191873100495E-02 
915	 3.22383633490129E-02 
916	 3.24821396491379E-02 
917	 3.22638658143973E-02 
918	 3.19363644431941E-02 
919	 3.17368424746788E-02 
920	 3.14897728682547E-02 
921	 3.12347729500106E-02 
922	 3.08239772205641E-02 
923	 3.03325002887103E-02 
924	 0.030393946018483 
925	 0.030109436581292 
926	 3.02972774024822E-02 
927	 0.031229911200185 
928	 2.86082907619512E-02 
929	 2.77545303578032E-02 
930	 3.08404709703539E-02 
931	 3.62618979662202E-02 
932	 3.32337925095901E-02 
933	 2.86061371037769E-02 
934	 3.02413993578215E-02 
935	 3.81354129747214E-02 
936	 3.59764217861773E-02 
937	 2.69949212006007E-02 
938	 0.022823400094902 
939	 2.97861155492268E-02 
940	 2.83275733775655E-02 
941	 2.83313800211862E-02 
942	 2.86602895264207E-02 
943	 2.49279726526242E-02 
944	 2.93409586446538E-02 
945	 0.032588950696485 
946	 3.25029991470257E-02 
947	 3.17528093095487E-02 
948	 0.026806005414182 
949	 2.70273942118817E-02 
950	 2.76579227401227E-02 
951	 1.97593662593374E-02 
952	 2.69266239594341E-02 
953	 3.04325328169832E-02 
954	 2.73152618362215E-02 
955	 2.63019364029857E-02 
956	 0.023985552723629 
957	 2.41030216894224E-02 
958	 0.026993808064594 
959	 2.99978379745567E-02 
960	 3.00566750339102E-02 
961	 3.01736388106091E-02 
962	 0.028547852718879 
963	 2.22061853476972E-02 
964	 2.38939559949838E-02 
965	 2.84599025908012E-02 
966	 2.98709734935439E-02 
967	 2.49370683381077E-02 
968	 2.56490454750727E-02 
969	 2.70233336518484E-02 
970	 2.65678456201001E-02 
971	 2.55090490431992E-02 
972	 2.63298473228353E-02 
973	 2.64248884987717E-02 
974	 2.55161293256751E-02 
975	 2.59950489519499E-02 
976	 2.78003027354783E-02 
977	 2.66851435745379E-02 
978	 2.52226735913197E-02 
979	 2.97299232183148E-02 
980	 2.77573930283384E-02 
981	 2.60534820429495E-02 
982	 2.68254151472248E-02 
983	 2.71542259345875E-02 
984	 2.67769177322292E-02 
985	 2.78032152437045E-02 
986	 2.84614075789366E-02 
987	 2.52553687392365E-02 
988	 2.55048431367757E-02 
989	 2.67800776402851E-02 
990	 2.68722184865289E-02 
991	 2.50693322246578E-02 
992	 2.35045753395524E-02 
993	 2.54793134514607E-02 
994	 2.73145997094428E-02 
995	 2.32176112437982E-02 
996	 2.51146290549088E-02 
997	 2.60969316993782E-02 
998	 2.54866911114039E-02 
999	 2.65318970360686E-02 
1000	 2.63124098046401E-02 
1001	 0.025171175825875 
1002	 2.49054076082491E-02 
1003	 2.50822814003443E-02 
1004	 2.54650731612381E-02 
1005	 2.56010184675908E-02 
1006	 2.58863412389885E-02 
1007	 2.59458932499705E-02 
1008	 2.58129661273819E-02 
1009	 2.61541863342614E-02 
1010	 2.58663769246735E-02 
1011	 2.59059475598003E-02 
1012	 2.59126926384323E-02 
1013	 2.54969713313198E-02 
1014	 2.53858636651487E-02 
1015	 2.56375775655068E-02 
1016	 2.55510213888389E-02 
1017	 2.53280321156967E-02 
1018	 2.50879891124846E-02 
1019	 0.024472452132639 
1020	 2.45485877470727E-02 
1021	 2.51067450827004E-02 
1022	 2.53027078445061E-02 
1023	 2.56884890830746E-02 
1024	 2.58928805663317E-02 
1025	 2.55453499087324E-02 
1026	 2.55176607337473E-02 
1027	 2.54957448601419E-02 
1028	 2.57785574438298E-02 
1029	 2.57942892528731E-02 
1030	 2.54168322733429E-02 
1031	 2.55434483327454E-02 
1032	 2.60158735208671E-02 
1033	 2.60992256839981E-02 
1034	 2.65451179816912E-02 
1035	 2.65625353764565E-02 
1036	 2.55289709848479E-02 
1037	 2.55171219536427E-02 
1038	 2.64623032073673E-02 
1039	 2.63544957496381E-02 
1040	 2.63725003319088E-02 
1041	 2.67430724940803E-02 
1042	 2.64394212682009E-02 
1043	 2.49709292450534E-02 
1044	 2.49170175035321E-02 
1045	 2.54877657294271E-02 
1046	 0.025655085679735 
1047	 2.63546101088496E-02 
1048	 2.65150368240517E-02 
1049	 2.60925722587689E-02 
1050	 2.60259425775455E-02 
1051	 2.58955309882348E-02 
1052	 2.59981265428217E-02 
1053	 2.64683904577168E-02 
1054	 2.66294968355699E-02 
1055	 2.68603741686165E-02 
1056	 2.69505735526211E-02 
1057	 2.68973273439271E-02 
1058	 0.026497379449589 
1059	 2.64125559770108E-02 
1060	 2.62908807503856E-02 
1061	 2.64094482045479E-02 
1062	 2.69537622471152E-02 
1063	 2.69170472736497E-02 
1064	 2.65659165971551E-02 
1065	 2.65873780245597E-02 
1066	 2.64667487955345E-02 
1067	 2.64003983633818E-02 
1068	 2.67400551361088E-02 
1069	 2.68850582856555E-02 
1070	 2.68435850428939E-02 
1071	 2.67638599867532E-02 
1072	 0.026766331930613 
1073	 2.66281310994911E-02 
1074	 2.64569359694518E-02 
1075	 2.59435674880687E-02 
1076	 2.58694383163122E-02 
1077	 2.60796485730283E-02 
1078	 2.61586555306382E-02 
1079	 2.62426878660343E-02 
1080	 0.026451469308487 
1081	 0.02703099360263 
1082	 0.026847365935375 
1083	 2.61548640211831E-02 
1084	 2.61262870939341E-02 
1085	 2.55564838646541E-02 
1086	 2.55082767546476E-02 
1087	 2.69747049691359E-02 
1088	 2.72611724597379E-02 
1089	 2.63134276884328E-02 
1090	 2.67200128835802E-02 
1091	 0.026522589415386 
1092	 2.54654369908548E-02 
1093	 2.55659666802462E-02 
1094	 2.66163172445318E-02 
1095	 2.66708985893272E-02 
1096	 2.69275027382954E-02 
1097	 2.69309764677517E-02 
1098	 2.56826972150419E-02 
1099	 2.57512291010352E-02 
1100	 2.69461583817679E-02 
1101	 2.71079422550476E-02 
1102	 2.78660823816077E-02 
1103	 0.027929032108836 
1104	 2.67744153677639E-02 
1105	 2.53658362028393E-02 
1106	 2.54334254732268E-02 
1107	 0.025443810744336 
1108	 2.57447187938253E-02 
1109	 2.67641144362401E-02 
1110	 2.71578328302354E-02 
1111	 2.65825996336512E-02 
1112	 2.64703466746002E-02 
1113	 2.72488686737425E-02 
1114	 2.72089990225484E-02 
1115	 2.61425324664617E-02 
1116	 2.58857226289961E-02 
1117	 2.53321494554455E-02 
1118	 2.33678826949994E-02 
1119	 2.17076710649015E-02 
1120	 1.99550826338305E-02 
1121	 1.46188321119615E-02 
1122	 9.2107573248391E-03 
1123	 1.96012965249428E-02 
1124	 2.62045380453625E-02 
1125	 0.028009431895495 
1126	 3.40762875705871E-02 
1127	 0.030321891101537 
1128	 2.44172318757662E-02 
1129	 2.33516018685539E-02 
1130	 2.68720695473232E-02 
1131	 2.79806365975206E-02 
1132	 2.76296180204046E-02 
1133	 2.86122202844872E-02 
1134	 3.27673380229086E-02 
1135	 3.18009519747271E-02 
1136	 2.70509135467192E-02 
1137	 2.70109086417404E-02 
1138	 2.72190094519438E-02 
1139	 2.70230388263567E-02 
1140	 2.80080310509711E-02 
1141	 2.70788827932756E-02 
1142	 2.44559513909916E-02 
1143	 2.21132106428858E-02 
1144	 2.19364507799183E-02 
1145	 2.60576853803908E-02 
1146	 2.95901183484141E-02 
1147	 0.026602848724706 
1148	 2.32747110626746E-02 
1149	 2.42996923001491E-02 
1150	 2.45560204119388E-02 
1151	 2.46946941852308E-02 
1152	 2.49494619725726E-02 
1153	 2.59422228799889E-02 
1154	 2.66198125723784E-02 
1155	 2.68467755384124E-02 
1156	 0.027077774459637 
1157	 2.76589942064549E-02 
1158	 2.61525814952302E-02 
1159	 2.33020400486376E-02 
1160	 2.36348867938832E-02 
1161	 2.49965017881847E-02 
1162	 2.48399562499036E-02 
1163	 2.55802768083058E-02 
1164	 2.54203601671916E-02 
1165	 2.41260409255643E-02 
1166	 2.48212216307345E-02 
1167	 2.57346019169491E-02 
1168	 2.54176651754517E-02 
1169	 0.02555426901191 
1170	 2.57343027050486E-02 
1171	 2.56621248105348E-02 
1172	 2.54530924065626E-02 
1173	 2.54236055532079E-02 
1174	 0.025640254735172 
1175	 2.48357582341222E-02 
1176	 2.45201923509705E-02 
1177	 2.46890108675903E-02 
1178	 2.48365626953702E-02 
1179	 2.51359033875269E-02 
1180	 2.48992055842628E-02 
1181	 2.42234405517685E-02 
1182	 2.43904713776468E-02 
1183	 2.51456245549489E-02 
1184	 0.024950540256217 
1185	 2.43207263840829E-02 
1186	 2.40853898814788E-02 
1187	 2.40690634975409E-02 
1188	 0.024594054694581 
1189	 2.52312360685362E-02 
1190	 2.50705604417128E-02 
1191	 0.024146220624031 
1192	 2.39057041248232E-02 
1193	 0.023739638033544 
1194	 2.43375043271499E-02 
1195	 2.45639636438886E-02 
1196	 0.02465916534294 
1197	 2.45980740356896E-02 
1198	 2.45295059645892E-02 
1199	 2.52228671007403E-02 
1200	 2.55737735872112E-02 
1201	 2.50318071179224E-02 
1202	 2.45192562319303E-02 
1203	 0.024498499705204 
1204	 2.47924402860185E-02 
1205	 2.48624715581695E-02 
1206	 2.47033170626917E-02 
1207	 2.42919979277837E-02 
1208	 2.42544548887451E-02 
1209	 2.50270756527483E-02 
1210	 2.51623785399906E-02 
1211	 2.45272315940255E-02 
1212	 2.45688612252557E-02 
1213	 2.44956826537178E-02 
1214	 2.42989793833213E-02 
1215	 2.44122658414771E-02 
1216	 0.025293706787736 
1217	 0.025157212349049 
1218	 2.46707684157308E-02 
1219	 2.49230531320516E-02 
1220	 2.49058223386972E-02 
1221	 2.45645486136218E-02 
1222	 2.44855148693638E-02 
1223	 2.45258140849625E-02 
1224	 2.43092644621438E-02 
1225	 2.39499568376106E-02 
1226	 2.39147207087116E-02 
1227	 2.42812551494536E-02 
1228	 2.45481047474351E-02 
1229	 2.46402189169152E-02 
1230	 2.44734283876626E-02 
1231	 2.39066146363395E-02 
1232	 2.36519269710737E-02 
1233	 2.40890284764737E-02 
1234	 2.46022158963811E-02 
1235	 2.46055226408153E-02 
1236	 2.40866519614974E-02 
1237	 2.41319751341927E-02 
1238	 2.41028826597265E-02 
1239	 2.41477477690421E-02 
1240	 2.46145707547081E-02 
1241	 2.48305072612488E-02 
1242	 2.42348375620164E-02 
1243	 2.38896402430238E-02 
1244	 2.44042606832964E-02 
1245	 2.47979567099211E-02 
1246	 2.46305800941445E-02 
1247	 2.44985418073378E-02 
1248	 2.44618618143426E-02 
1249	 0.024169771700708 
1250	 2.40546704895801E-02 
1251	 2.42001759313038E-02 
1252	 2.41971035447657E-02 
1253	 2.43695042970853E-02 
1254	 2.44824234473037E-02 
1255	 2.43936236480138E-02 
1256	 2.44559791618807E-02 
1257	 2.37777381939991E-02 
1258	 2.37440879001069E-02 
1259	 2.47792131517437E-02 
1260	 2.50268088727519E-02 
1261	 2.46537141698512E-02 
1262	 2.48236943791226E-02 
1263	 2.52294967436926E-02 
1264	 2.51854101113189E-02 
1265	 2.49525051568553E-02 
1266	 2.48409070826774E-02 
1267	 2.45502559763506E-02 
1268	 2.42494507358208E-02 
1269	 2.43517838483525E-02 
1270	 2.43820965301686E-02 
1271	 2.41776519626696E-02 
1272	 2.40295985267848E-02 
1273	 2.39530073529277E-02 
1274	 2.43481415251797E-02 
1275	 2.46354869697858E-02 
1276	 2.41738266837498E-02 
1277	 2.39516204674277E-02 
1278	 2.42877996210162E-02 
1279	 2.45051368084044E-02 
1280	 2.45393984300685E-02 
1281	 2.44612413990867E-02 
1282	 0.024188016121758 
1283	 2.41462778151814E-02 
1284	 2.40927945567317E-02 
1285	 2.39991087309334E-02 
1286	 2.39035212338676E-02 
1287	 2.40706420608344E-02 
1288	 2.45013293690419E-02 
1289	 0.024524195537746 
1290	 2.45203053483682E-02 
1291	 2.47772085149398E-02 
1292	 2.49932498830054E-02 
1293	 2.47021185221595E-02 
1294	 2.49053353176599E-02 
1295	 2.51005054976218E-02 
1296	 2.46692698924643E-02 
1297	 0.024626385259742 
1298	 2.47801915544516E-02 
1299	 2.46962383934947E-02 
1300	 2.47438435080484E-02 
1301	 2.44028893957634E-02 
1302	 2.39678982623039E-02 
1303	 2.44515911527742E-02 
1304	 2.46535961316405E-02 
1305	 2.41637444203461E-02 
1306	 2.42211680443014E-02 
1307	 2.47911918187885E-02 
1308	 2.48718553326646E-02 
1309	 2.47301568326074E-02 
1310	 2.47441063498894E-02 
1311	 2.47844006338757E-02 
1312	 0.024707425534952 
1313	 2.45734239663193E-02 
1314	 2.46301084881911E-02 
1315	 2.47164199897122E-02 
1316	 2.45732075717035E-02 
1317	 2.38854460270783E-02 
1318	 2.39827663583991E-02 
1319	 2.50954639405121E-02 
1320	 0.025295234910003 
1321	 2.52913959133385E-02 
1322	 2.57299726591971E-02 
1323	 2.56069755419717E-02 
1324	 2.45499564358242E-02 
1325	 2.42365857788876E-02 
1326	 2.50018982650203E-02 
1327	 2.52396394393151E-02 
1328	 2.48268711582457E-02 
1329	 0.024175883279139 
1330	 2.39407589570316E-02 
1331	 2.54721243800594E-02 
1332	 2.67586302261729E-02 
1333	 2.70210431171992E-02 
1334	 2.75252471590875E-02 
1335	 2.72927531571562E-02 
1336	 2.53102562993204E-02 
1337	 2.45851446836496E-02 
1338	 2.39118274284254E-02 
1339	 2.38770692473233E-02 
1340	 2.41650571157954E-02 
1341	 2.47998749635675E-02 
1342	 2.83668376900357E-02 
1343	 2.82694887542466E-02 
1344	 2.40661681147234E-02 
1345	 2.37909979580171E-02 
1346	 2.30394052889614E-02 
1347	 2.14642335604855E-02 
1348	 2.39402431744865E-02 
1349	 2.71502451013004E-02 
1350	 2.99183243682317E-02 
1351	 3.25532729207214E-02 
1352	 5.13455588005804E-02 
1353	 6.95976172978685E-02 
1354	 0.066406105366828 
1355	 2.53231083819416E-02 
1356	 4.22347932154027E-02 
1357	 8.45965931256223E-02 
1358	 0.219612468300595 
1359	 0.335247612162683 
1360	 0.294838705222753 
1361	 0.475428427560603 
1362	 0.369276951878962 
1363	 2.30819206343792E-02 
1364	 0.102210075102988 
1365	 0.327731955075391 
1366	-4.70920691774812E-03 
1367	-2.22055130688364E-02 
1368	 0.124909062192942 
1369	 7.93832738483865E-02 
1370	 4.19393635182067E-02 
1371	 0.387282070996446 
1372	 0.747833589553495 
1373	 1.29336000673805 
1374	 0.911478704589005 
1375	 0.542329926155114 
1376	 0.508473810162082 
1377	-4.59736174329384E-02 
1378	-0.091854438042591 
1379	 0.516399387447888 
1380	 0.618800388099817 
1381	-2.48371237972585 
1382	-1.29439802451363 
1383	-0.284671099855696 
1384	-0.302636499626534 
1385	-2.09215067326404E-02 
1386	 0.170754028111674 
1387	 0.355900523939234 
1388	 0.67123688764679 
1389	 0.601490397118196 
1390	 0.639047698587481 
1391	 0.756308625353807 
1392	 1.57179000490571 
1393	 0.87533160332653 
1394	 0.482571090350538 
1395	 0.554419054427325 
1396	-0.692634891770868 
1397	 0.74212055687922 
1398	 1.86560928009554 
1399	 1.7631917770772 
1400	 0.818899677741867 
1401	 0.107400915207984 
1402	 0.372178056684484 
1403	 0.387731482318902 
1404	 0.173779861569154 
1405	 0.259182912687165 
1406	 0.340062601681114 
1407	 0.263073196651186 
1408	 0.424463873408197 
1409	 0.476155527386 
1410	 0.246298632632653 
1411	 8.79501464382716E-02 
1412	-0.126756595005675 
1413	-2.83816194253017E-02 
1414	 9.30820222003625E-02 
1415	 0.100194203342346 
1416	 0.177631997649085 
1417	 0.25905582766825 
1418	 0.308291973938682 
1419	 0.253748077135266 
1420	 0.231858277168289 
1421	 0.221503832029398 
1422	 0.113220859323084 
1423	 5.85983756967832E-02 
1424	 8.35835174989695E-02 
1425	 8.41976049828166E-02 
1426	 6.03680479800698E-02 
1427	 3.93553687807309E-02 
1428	 3.08889843313638E-02 
1429	 2.81734846608878E-02 
1430	 7.58172088978734E-03 
1431	-1.52486417984463E-03 
1432	 6.03260977883362E-03 
1433	 1.53378936843793E-02 
1434	 2.80083891270496E-02 
1435	 3.80396083306896E-02 
1436	 5.83338225914832E-02 
1437	 7.24494459437496E-02 
1438	 6.28420086059948E-02 
1439	 2.86715584408978E-02 
1440	 3.68341025438703E-02 
1441	 3.70422362492227E-02 
1442	 0.016063476257134 
1443	 3.31687450519974E-02 
1444	 0.03804923183317 
1445	 1.87033755953044E-02 
1446	 0.021863906979796 
1447	 2.50292065280469E-02 
1448	 0.025534717305966 
1449	 3.61846000718975E-02 
1450	 3.93579591944368E-02 
1451	 3.76263277264836E-02 
1452	 3.70170606475865E-02 
1453	 3.75091285073505E-02 
1454	 0.035775378321662 
1455	 3.41119859844323E-02 
1456	 3.25559063376403E-02 
1457	 2.91879508493416E-02 
1458	 2.80184593186468E-02 
1459	 2.86786569562523E-02 
1460	 2.73561167532648E-02 
1461	 0.024820794399099 
1462	 2.49261543065246E-02 
1463	 2.63521167558869E-02 
1464	 2.48727941620897E-02 
1465	 2.18893105106601E-02 
1466	 2.27784989076211E-02 
1467	 2.36852336879168E-02 
1468	 2.36692846448225E-02 
1469	 2.87762759997067E-02 
1470	 3.07533477373763E-02 
1471	 0.028144955855912 
1472	 2.59682047878651E-02 
1473	 2.29340043341161E-02 
1474	 2.37875348406069E-02 
1475	 2.41753497634157E-02 
1476	 2.60904099686243E-02 
1477	 3.55370524269602E-02 
1478	 0.035615662515684 
1479	 2.83355468610932E-02 
1480	 2.73354184864839E-02 
1481	 2.58133419236629E-02 
1482	 2.55378854473052E-02 
1483	 3.02325667178945E-02 
1484	 3.03313523146534E-02 
1485	 2.65891679968776E-02 
1486	 2.64880318429192E-02 
1487	 2.75407830756707E-02 
1488	 2.71575034417967E-02 
1489	 2.72457739885198E-02 
1490	 2.76001000781285E-02 
1491	 2.70002777560874E-02 
1492	 2.69011128533868E-02 
1493	 2.81143013165349E-02 
1494	 2.80742245090658E-02 
1495	 2.70253042798155E-02 
1496	 2.66000372182888E-02 
1497	 2.60996975505972E-02 
1498	 2.58549315695426E-02 
1499	 2.57930020981663E-02 
1500	 2.59656713493944E-02 
1501	 2.66472289007253E-02 
1502	 2.66939997211601E-02 
1503	 2.63757865237752E-02 
1504	 2.63651999715642E-02 
1505	 2.64468713158203E-02 
1506	 2.60498038808554E-02 
1507	 2.55343442785408E-02 
1508	 0.025989904856124 
1509	 2.59186438916565E-02 
1510	 2.53149165696107E-02 
1511	 2.59763309769576E-02 
1512	 2.62346396019335E-02 
1513	 2.56837185791213E-02 
1514	 2.54666970836038E-02 
1515	 2.48946383146952E-02 
1516	 2.44443900614131E-02 
1517	 2.48233966862316E-02 
1518	 2.56532815979825E-02 
1519	 2.61009485955241E-02 
1520	 2.58985917397584E-02 
1521	 0.025514179167609 
1522	 2.50888190034976E-02 
1523	 2.54051654267352E-02 
1524	 2.59559610894739E-02 
1525	 2.57953694048858E-02 
1526	 2.58846110472782E-02 
1527	 2.58257307084562E-02 
1528	 2.50949260120222E-02 
1529	 2.47408042403676E-02 
1530	 0.02505258388384 
1531	 2.52832846534277E-02 
1532	 2.49059207141225E-02 
1533	 2.49388051920337E-02 
1534	 2.53608166327269E-02 
1535	 2.48431449199754E-02 
1536	 2.42498098184862E-02 
1537	 0.024401614027005 
1538	 2.43193372873573E-02 
1539	 2.42527704871362E-02 
1540	 2.45986295893937E-02 
1541	 2.47597561773578E-02 
1542	 2.49843227920642E-02 
1543	 2.49351196649034E-02 
1544	 2.46730028543313E-02 
1545	 2.48510741932749E-02 
1546	 2.47151353802188E-02 
1547	 2.44525284072879E-02 
1548	 2.45490647368054E-02 
1549	 2.46099120694145E-02 
1550	 2.47815986791538E-02 
1551	 0.024791341870848 
1552	 2.47998248441322E-02 
1553	 0.025138953235531 
1554	 2.50572595001707E-02 
1555	 0.024840999040652 
1556	 2.47411922929306E-02 
1557	 2.45258682617292E-02 
1558	 2.47138518521411E-02 
1559	 2.47555252586179E-02 
1560	 2.46070778390402E-02 
1561	 2.48580990525597E-02 
1562	 2.46685891769334E-02 
1563	 0.024100777916713 
1564	 2.41516662516024E-02 
1565	 2.47417932361244E-02 
1566	 2.49961873798071E-02 
1567	 2.49794555792134E-02 
1568	 2.53397384434733E-02 
1569	 2.53173515696429E-02 
1570	 2.46607525158238E-02 
1571	 2.44396472928124E-02 
1572	 2.48623839676343E-02 
1573	 2.53758089708313E-02 
1574	 2.51864036078168E-02 
1575	 2.47333571032275E-02 
1576	 2.51208129446035E-02 
1577	 2.48543727147623E-02 
1578	 2.38688566408393E-02 
1579	 2.42886299593236E-02 
1580	 2.45930756823246E-02 
1581	 2.38211290413071E-02 
1582	 2.42205078593593E-02 
1583	 2.48770221867486E-02 
1584	 2.44621942675581E-02 
1585	 2.45645928845095E-02 
1586	 2.47163931318955E-02 
1587	 2.43637799006224E-02 
1588	 0.024635986936422 
1589	 2.49327498116393E-02 
1590	 2.47064208514812E-02 
1591	 2.48903331030261E-02 
1592	 2.52362606766895E-02 
1593	 2.52023494857634E-02 
1594	 2.54007431857299E-02 
1595	 2.54669332347985E-02 
1596	 2.48938973025691E-02 
1597	 2.46889281424572E-02 
1598	 2.51203679405738E-02 
1599	 2.51044108516647E-02 
1600	 2.47010410366604E-02 
1601	 2.44007950896833E-02 
1602	 2.42215090657801E-02 
1603	 2.47556250440557E-02 
1604	 2.52549681630458E-02 
1605	 2.51055842452979E-02 
1606	 2.49197684738214E-02 
1607	 2.48878688403804E-02 
1608	 2.52352275682554E-02 
1609	 2.50371930543219E-02 
1610	 2.46235895269241E-02 
1611	 2.45135296022122E-02 
1612	 0.024118098247846 
1613	 2.45287167517557E-02 
1614	 2.53680162269866E-02 
1615	 2.52422885758315E-02 
1616	 2.47859822221702E-02 
1617	 2.49031166873801E-02 
1618	 2.52803494437141E-02 
1619	 2.56897926880708E-02 
1620	 2.56598632120156E-02 
1621	 2.52485583458698E-02 
1622	 0.025642928926617 
1623	 2.59272593604975E-02 
1624	 2.51092064037005E-02 
1625	 2.46789249427366E-02 
1626	 2.47395065954994E-02 
1627	 2.42636923992782E-02 
1628	 2.46796166315871E-02 
1629	 2.56968407481193E-02 
1630	 2.52758055032741E-02 
1631	 0.024487468918553 
1632	 2.46949516917941E-02 
1633	 2.48946950534924E-02 
1634	 2.46375847498883E-02 
1635	 0.025356197813702 
1636	 2.59651160187273E-02 
1637	 0.025027224099105 
1638	 2.43525794628624E-02 
1639	 2.43020297646249E-02 
1640	 2.44643893130046E-02 
1641	 2.51369385559026E-02 
1642	 2.52959104246052E-02 
1643	 2.48425949161782E-02 
1644	 2.43157407458647E-02 
1645	 0.024057209759674 
1646	 2.43323994408957E-02 
1647	 2.42537364635751E-02 
1648	 2.44914370662852E-02 
1649	 2.53136200455976E-02 
1650	 2.58455644486379E-02 
1651	 2.62207198848943E-02 
1652	 2.58338594477018E-02 
1653	 2.51562648153284E-02 
1654	 2.49822053618161E-02 
1655	 0.025366666782794 
1656	 2.53648471501673E-02 
1657	 2.52430300445443E-02 
1658	 2.50837316681757E-02 
1659	 2.47114845154409E-02 
1660	 2.48124781028672E-02 
1661	 2.48879175860409E-02 
1662	 2.46950763540968E-02 
1663	 2.47979730684639E-02 
1664	 2.48277555989707E-02 
1665	 2.47660989158274E-02 
1666	 2.48086443353055E-02 
1667	 2.49213318452222E-02 
1668	 2.46821438505483E-02 
1669	 2.43881008622259E-02 
1670	 2.50569929225469E-02 
1671	 2.57480023196006E-02 
1672	 2.52206767915301E-02 
1673	 2.46171563677271E-02 
1674	 2.46297666922342E-02 
1675	 2.49552307663852E-02 
1676	 2.53552301374951E-02 
1677	 2.51017138118441E-02 
1678	 2.46455944476877E-02 
1679	 2.46896332185566E-02 
1680	 2.49182079063218E-02 
1681	 2.55238358525533E-02 
1682	 2.58700350096312E-02 
1683	 2.51865561691938E-02 
1684	 2.45477527957585E-02 
1685	 2.47856502439137E-02 
1686	 2.54421571290112E-02 
1687	 2.54431454979014E-02 
1688	 2.50831433543726E-02 
1689	 2.54895344895323E-02 
1690	 2.53948799890624E-02 
1691	 2.44715858631566E-02 
1692	 2.48785897389255E-02 
1693	 2.53068022478668E-02 
1694	 2.45634445884957E-02 
1695	 2.48402994022116E-02 
1696	 2.56800342346913E-02 
1697	 2.57206873416815E-02 
1698	 2.58986223199477E-02 
1699	 2.61778408349762E-02 
1700	 2.55925847875072E-02 
1701	 2.52091274717663E-02 
1702	 2.55894666173487E-02 
1703	 2.60337789579529E-02 
1704	 2.61421686700863E-02 
1705	 2.57522450084553E-02 
1706	 2.50040385371293E-02 
1707	 2.44839523848885E-02 
1708	 2.46275516205043E-02 
1709	 2.49172116692459E-02 
1710	 2.54458583263245E-02 
1711	 2.57755637573265E-02 
1712	 2.50857087093483E-02 
1713	 2.45888875660121E-02 
1714	 2.43787510476987E-02 
1715	 2.43697156195744E-02 
1716	 0.024965105442514 
1717	 2.54925342497087E-02 
1718	 2.54648417054199E-02 
1719	 2.48904337026406E-02 
1720	 2.42307084069148E-02 
1721	 2.37670657324034E-02 
1722	 2.42613499404483E-02 
1723	 2.51905510923485E-02 
1724	 2.54000016695742E-02 
1725	 2.48859305909395E-02 
1726	 2.39184754034714E-02 
1727	 0.022779143478655 
1728	 2.22833173275432E-02 
1729	 2.31502265829694E-02 
1730	 2.44418073172552E-02 
1731	 2.54738031655561E-02 
1732	 2.65537503106989E-02 
1733	 2.62444599889272E-02 
1734	 2.46229003576096E-02 
1735	 2.41379128806003E-02 
1736	 2.40816506756716E-02 
1737	 2.38959551730758E-02 
1738	 0.024566984187027 
1739	 0.024750855038549 
1740	 0.024253511566366 
1741	 2.45804706900425E-02 
1742	 2.45403835749464E-02 
1743	 2.39623400879727E-02 
1744	 2.46956285778055E-02 
1745	 2.45936959983887E-02 
1746	 2.42822336416849E-02 
1747	 2.46412579226521E-02 
1748	 2.42615544050148E-02 
1749	 2.43522361983703E-02 
1750	 2.54951033410447E-02 
1751	 0.025754331044547 
1752	 2.59147029259874E-02 
1753	 2.60326194240711E-02 
1754	 2.58706211903903E-02 
1755	 2.56610269865144E-02 
1756	 2.45959534128246E-02 
1757	 2.48689650387583E-02 
1758	 2.53362364562893E-02 
1759	 2.61075099475469E-02 
1760	 2.71313632516493E-02 
1761	 2.52334883047932E-02 
1762	 2.42282552184023E-02 
1763	 2.47205231407708E-02 
1764	 0.023447197152249 
1765	 2.39465715256577E-02 
1766	 2.65884130877791E-02 
1767	 0.02619501727197 
1768	 2.48487069121479E-02 
1769	 2.51206303780284E-02 
1770	 2.26588725002677E-02 
1771	 2.07160615579026E-02 
1772	 2.42067851091161E-02 
1773	 2.85125327341249E-02 
1774	 0.029469980975034 
1775	 2.50428733153583E-02 
1776	 2.39714988199184E-02 
1777	 2.25265533314069E-02 
1778	 2.28360535672475E-02 
1779	 2.99139736080769E-02 
1780	 3.00580896214935E-02 
1781	 2.25073895066308E-02 
1782	 0.020068213154451 
1783	 1.72313512391276E-02 
1784	 1.77976300666042E-02 
1785	 2.56719387103889E-02 
1786	 2.81883601786472E-02 
1787	 2.77089082729378E-02 
1788	 2.65729402330613E-02 
1789	 2.19325432655319E-02 
1790	 2.06249120919319E-02 
1791	 2.81835586266752E-02 
1792	 4.49390871041091E-02 
1793	 5.65273099102971E-02 
1794	 4.70628054819138E-02 
1795	 0.022807255961097 
1796	-6.36241158827654E-03 
1797	-2.22873508389475E-02 
1798	 8.92133999918718E-03 
1799	 4.67993456460131E-02 
1800	 6.65982491756931E-02 
1801	 6.86560541433662E-02 
1802	-1.14799853583822E-02 
1803	-3.65241783605907E-02 
1804	-2.57421623893913E-02 
1805	-3.35443444550394E-02 
1806	 2.50889920198314E-02 
1807	 7.82345625778563E-02 
1808	 9.20643171648556E-02 
1809	 0.13946979289825 
1810	 0.277436488994405 
1811	 0.303666368317842 
1812	 8.25750319876837E-02 
1813	-9.05989937342951E-02 
1814	-0.255931752982769 
1815	-0.344501101040079 
1816	-0.438765631155869 
1817	 4.68452629712937E-02 
1818	 0.744500658068382 
1819	-6.41758237796211E-02 
1820	 0.483229012326024 
1821	 0.276630860999568 
1822	 0.138767838846066 
1823	-0.666967280917928 
1824	 1.67422919912642 
1825	 1.66627208409894 
1826	 1.71634857840399 
1827	 3.16937997926279 
1828	 5.27604877616669 
1829	-3.09842859745252 
1830	-0.866579082640724 
1831	-1.39234421706523 
1832	-0.948887161198349 
1833	 0.666415132662313 
1834	 0.766606779070979 
1835	 0.471302087113086 
1836	 0.393879191951377 
1837	-1.36772549116971 
1838	-2.27648490601348 
1839	-1.92607979927601 
1840	 0.306336385385588 
1841	-3.82990092292054E-02 
1842	 0.616494365271542 
1843	 0.738822854766337 
1844	 0.425828516502383 
1845	 0.454501827989616 
1846	 1.26244321751285 
1847	 1.71681369677307 
1848	-46.9597241332447 
1849	 1.59427963751648 
1850	-1.60704380710655 
1851	 48.1561614814624 
1852	-1.65187070738433 
1853	-0.935557621522223 
1854	-0.862426615351133 
1855	-0.187468119487754 
1856	-3.85757876245933E-02 
1857	-0.870309497429846 
1858	-1.22786816837464 
1859	-1.0815708661915 
1860	-0.929994052292393 
1861	-1.45578276825428 
1862	 9.8998782815231 
1863	 2.65499492787419 
1864	 1.49111557491106 
1865	 0.948804134131158 
1866	-0.288098446519574 
1867	-0.429394340156854 
1868	-0.839354500319576 
1869	-1.61777567504772 
1870	-3.4409974377967 
1871	-2.77992067854418 
1872	 0.212328105543592 
1873	 0.511737945061111 
1874	 0.681920017157199 
1875	 0.878456106973705 
1876	 1.03136812929179 
1877	 1.36381982186085 
1878	 1.86856341743638 
1879	-4.33668094417902 
1880	-1.23176286490263 
1881	-1.65166783860747 
1882	-3.23593490834152 
1883	 0.623445135147572 
1884	 1.51279930109803 
1885	 3.59351568315951 
1886	-25.2470380373157 
1887	-0.458795459207163 
1888	 0.263170174718675 
1889	 0.127983876928416 
1890	-0.634569120771333 
1891	-0.716940678078478 
1892	-0.278117817786085 
1893	-0.308549164845755 
1894	-0.47851625462775 
1895	-0.32702320707185 
1896	-3.69625302564605E-02 
1897	 0.326801244331271 
1898	 1.93036288696241 
1899	-0.474038272354047 
1900	-0.663827770228444 
1901	-1.4038518775088 
1902	-1.2481365580727 
1903	-2.47848918061123 
1904	 1.00353285416432 
1905	-0.144455039965506 
1906	-5.52981161220177 
1907	 3.00010196701555 
1908	 1.12653894203536 
1909	 0.893232175446412 
1910	 2.03296438438877 
1911	-0.378007342047638 
1912	 0.587667449702131 
1913	 0.605023385487583 
1914	 0.568634437316785 
1915	 0.662134679851697 
1916	 0.578590089630795 
1917	 5.68560376512697E-02 
1918	 0.417942089936176 
1919	-0.182216751314126 
1920	-0.642138187797227 
1921	-0.165681796289575 
1922	-0.299116850961885 
1923	-1.256428414825 
1924	-0.256455799854111 
1925	 0.313168071117914 
1926	 0.483812882986323 
1927	 0.723997354626845 
1928	 1.22649645323511 
1929	-6.87486595088732E-02 
1930	-2.90736490509943 
1931	 5.76099864707109 
1932	 0.27313767249551 
1933	-0.412245913104594 
1934	-0.64761148769262 
1935	-0.161630449840951 
1936	-0.170224570878048 
1937	-1.07952800117135 
1938	-0.57180092009388 
1939	-0.37626348619946 
1940	-0.288870229855269 
1941	-0.161150738882017 
1942	-4.09096788941543E-02 
1943	 5.22698142288804E-02 
1944	 0.130440742172986 
1945	 0.182024143024274 
1946	 0.135967158868602 
1947	 9.54172046896718E-03 
1948	-2.90454298535563E-02 
1949	-0.099572377633902 
1950	-0.112129986313001 
1951	-1.61214965922324E-02 
1952	-2.93622781273612E-03 
1953	-4.69230595262209E-02 
1954	-5.97553061814456E-02 
1955	-5.88852152896918E-03 
1956	 9.64327075537541E-04 
1957	 1.64121119443954E-02 
1958	 1.85430011192619E-02 
1959	-0.01363455341312 
1960	-1.32440865094279E-02 
1961	-3.23472452865001E-03 
1962	 1.23947699398472E-02 
1963	 2.96758579903688E-02 
1964	 2.91315447671794E-02 
1965	 2.41681084473778E-02 
1966	 2.69632082323183E-02 
1967	 2.96696613370416E-02 
1968	 3.22520604027957E-02 
1969	 3.40357955202191E-02 
1970	 3.76292341523723E-02 
1971	 0.033156374268911 
1972	 2.73327465682874E-02 
1973	 2.89407840884982E-02 
1974	 0.029558214664319 
1975	 2.94018315871649E-02 
1976	 3.22898010369955E-02 
1977	 3.33416835069753E-02 
1978	 2.81669324026996E-02 
1979	 0.026776969879762 
1980	 2.64758537885834E-02 
1981	 2.69203576890276E-02 
1982	 0.024579703040409 
1983	 2.77741348269508E-02 
1984	 2.84700930499541E-02 
1985	 2.47112107462345E-02 
1986	 2.38930056915281E-02 
1987	 2.22260042480607E-02 
1988	 2.22838027620579E-02 
1989	 0.024860318867235 
1990	 0.027271015340718 
1991	 2.83223693163762E-02 
1992	 2.72231083963892E-02 
1993	 0.027213073849598 
1994	 0.025429739939443 
1995	 2.02491006391281E-02 
1996	 1.71672440964946E-02 
1997	 2.12197161265127E-02 
1998	 1.89983334054416E-02 
1999	 1.88877390577248E-02 
2000	 2.65839821981617E-02 
2001	 3.08539148570964E-02 
2002	 3.54617557237662E-02 
2003	 3.72616996612794E-02 
2004	 3.26586357961934E-02 
2005	 2.36746684805255E-02 
2006	 1.89786637297546E-02 
2007	 1.51816467411749E-02 
2008	 1.17151846898004E-02 
2009	 1.29386158244346E-02 
2010	 0.014838880889063 
2011	 1.58212109962151E-02 
2012	 1.98046010234485E-02 
2013	 2.74453267830235E-02 
2014	 3.06813318669247E-02 
2015	 3.11241002614765E-02 
2016	 3.02818764470464E-02 
2017	 0.031480846051843 
2018	 3.50904318649435E-02 
2019	 3.86401044263253E-02 
2020	 0.041893709423092 
2021	 3.94401203482125E-02 
2022	 3.18946618903653E-02 
2023	 2.93741602048763E-02 
2024	 2.76162410090452E-02 
2025	 2.67437963567082E-02 
2026	 2.61433383093938E-02 
2027	 2.75423497192548E-02 
2028	 2.60374458575475E-02 
2029	 2.50097712704041E-02 
2030	 2.63938627159629E-02 
2031	 2.64487999841785E-02 
2032	 2.67167480059078E-02 
2033	 2.66207298033342E-02 
2034	 0.025190406504536 
2035	 2.49648586836777E-02 
2036	 2.38009213056234E-02 
2037	 2.06373781524016E-02 
2038	 1.87654343418688E-02 
2039	 0.01816363259794 
2040	 1.76883561658947E-02 
2041	 1.82297335568082E-02 
2042	 2.12966970865838E-02 
2043	 2.25297647486027E-02 
2044	 2.28816306322702E-02 
2045	 2.59441732794478E-02 
2046	 2.54224205096521E-02 
2047	 2.48632470024147E-02 
2048	 2.48559061471621E-02 
2049	 2.24548904650622E-02 
2050	 2.20626060556132E-02 
2051	 2.27585015448094E-02 
2052	 2.36799498471242E-02 
2053	 2.28456309740041E-02 
2054	 2.14760077715452E-02 
2055	 0.02144100566909 
2056	 2.08556638280277E-02 
2057	 2.05600957361717E-02 
2058	 2.13242773277854E-02 
2059	 2.08804531126819E-02 
2060	 2.12908745787202E-02 
2061	 2.38735164646006E-02 
2062	 0.024253990604743 
2063	 2.35306344405414E-02 
2064	 2.44633250017441E-02 
2065	 2.52112439296637E-02 
2066	 2.76532209094718E-02 
2067	 2.77882812797927E-02 
2068	 2.89931019790826E-02 
2069	 3.17789698282692E-02 
2070	 3.12075655675952E-02 
2071	 3.06671492584114E-02 
2072	 3.32649209743705E-02 
2073	 3.32156680892665E-02 
2074	 3.07834628147652E-02 
2075	 2.89384922374695E-02 
2076	 2.67383003883106E-02 
2077	 2.50704978360172E-02 
2078	 2.23632728633959E-02 
2079	 2.22912400109755E-02 
2080	 2.38576888682278E-02 
2081	 2.54644879906861E-02 
2082	 2.68557542552501E-02 
2083	 2.68853539609351E-02 
2084	 2.57146009026252E-02 
2085	 2.40767188041471E-02 
2086	 0.023364655052198 
2087	 2.44239983006846E-02 
2088	 2.55148212855509E-02 
2089	 2.62783364675246E-02 
2090	 2.60439522044176E-02 
2091	 2.54844192825287E-02 
2092	 2.56060873040991E-02 
2093	 2.60442772130198E-02 
2094	 2.57881677660547E-02 
2095	 2.58486883217286E-02 
2096	 2.57684238321976E-02 
2097	 2.44405152214478E-02 
2098	 2.41199744143065E-02 
2099	 2.44489492277781E-02 
2100	 2.49577589566839E-02 
2101	 2.49709890194731E-02 
2102	 2.57068111073465E-02 
2103	 2.68898554889866E-02 
2104	 2.65227099843134E-02 
2105	 2.62888766497335E-02 
2106	 2.66145637498552E-02 
2107	 2.58036531978695E-02 
2108	 2.40611371502731E-02 
2109	 2.22173898987793E-02 
2110	 2.27661369012751E-02 
2111	 2.33259960761589E-02 
2112	 0.023424369258829 
2113	 2.41864878678065E-02 
2114	 2.59037241488749E-02 
2115	 2.63520446141609E-02 
2116	 2.66655514807055E-02 
2117	 2.67301692702306E-02 
2118	 2.54459102196156E-02 
2119	 2.49743022401438E-02 
2120	 0.024342559097167 
2121	 2.51194063624659E-02 
2122	 2.49166365505536E-02 
2123	 2.62097731601377E-02 
2124	 0.026638490467881 
2125	 2.52633853086148E-02 
2126	 2.50054681867622E-02 
2127	 2.45450066131544E-02 
2128	 2.32899202606021E-02 
2129	 2.28352162858572E-02 
2130	 2.40900186569856E-02 
2131	 2.68401229136665E-02 
2132	 2.94245581596234E-02 
2133	 3.16898576679176E-02 
2134	 3.19027106760499E-02 
2135	 2.90788615574315E-02 
2136	 2.78289942163311E-02 
2137	 2.56891398406178E-02 
2138	 2.48346125129789E-02 
2139	 2.57427372533472E-02 
2140	 2.59766411419238E-02 
2141	 2.64741854583666E-02 
2142	 2.57809727004052E-02 
2143	 2.45050564072668E-02 
2144	 2.23691475584495E-02 
2145	 2.13522593206169E-02 
2146	 2.35607589255893E-02 
2147	 2.61897478817354E-02 
2148	 2.72500238607293E-02 
2149	 2.59888550734342E-02 
2150	 2.33788775985262E-02 
2151	 2.29110418334675E-02 
2152	 2.36734706022437E-02 
2153	 2.69291596622094E-02 
2154	 0.030072065872212 
2155	 2.92023944311893E-02 
2156	 2.79391749530371E-02 
2157	 2.74440737705884E-02 
2158	 2.53885602410732E-02 
2159	 2.45054431012679E-02 
2160	 2.53368878562369E-02 
2161	 2.57967350973657E-02 
2162	 2.54448727546909E-02 
2163	 2.57587326921142E-02 
2164	 2.78470489807112E-02 
2165	 2.78546505726644E-02 
2166	 2.60235540287325E-02 
2167	 2.54810076875575E-02 
2168	 2.47014137085691E-02 
2169	 2.42976494878989E-02 
2170	 2.45099950547028E-02 
2171	 2.59638249442742E-02 
2172	 2.51661408758519E-02 
2173	 2.33312526292231E-02 
2174	 2.19308280678498E-02 
2175	 2.25042647416994E-02 
2176	 2.56920927013264E-02 
2177	 2.81977756197518E-02 
2178	 3.02811551195248E-02 
2179	 3.16518229565498E-02 
2180	 2.98164944152069E-02 
2181	 2.79847950030372E-02 
2182	 0.029020538309465 
2183	 2.97011272341402E-02 
2184	 2.96883875690674E-02 
2185	 3.18879085345463E-02 
2186	 3.20953530366912E-02 
2187	 2.95213728959418E-02 
2188	 2.84107010429488E-02 
2189	 2.78047391802044E-02 
2190	 2.70721593312628E-02 
2191	 2.62657974551597E-02 
2192	 2.61829821312992E-02 
2193	 2.69151214453891E-02 
2194	 2.76906099043449E-02 
2195	 2.94467725199815E-02 
2196	 2.96854977207351E-02 
2197	 0.029541560910265 
2198	 0.028456231156467 
2199	 2.51660527444585E-02 
2200	 2.25757200380812E-02 
2201	 2.44673651016057E-02 
2202	 2.40319422970761E-02 
2203	 2.21942424381546E-02 
2204	 2.40353293440154E-02 
2205	 2.41736977242055E-02 
2206	 2.29190127233293E-02 
2207	 2.48449294603713E-02 
2208	 2.62190577954393E-02 
2209	 2.26309213223012E-02 
2210	 1.95462782033638E-02 
2211	 2.10892878089518E-02 
2212	 2.04120534325423E-02 
2213	 2.09965122234868E-02 
2214	 2.63962172797075E-02 
2215	 2.65458118685268E-02 
2216	 2.75514938637049E-02 
2217	 2.78973177751387E-02 
2218	 2.77873325870299E-02 
2219	 2.79742949117444E-02 
2220	 2.81375919835357E-02 
2221	 2.71543681334213E-02 
2222	 2.61082612679526E-02 
2223	 2.54596424128641E-02 
2224	 0.023054667819342 
2225	 2.21927494496893E-02 
2226	 2.45458152880488E-02 
2227	 2.52479758246262E-02 
2228	 2.47211094180621E-02 
2229	 2.33473009387395E-02 
2230	 2.09858815082886E-02 
2231	 1.94954400976293E-02 
2232	 0.015864000300025 
2233	 1.66140391712987E-02 
2234	 2.20647737591085E-02 
2235	 0.022416497202851 
2236	 2.70520951866803E-02 
2237	 3.24612809458245E-02 
2238	 3.02802195865234E-02 
2239	 2.95644201213056E-02 
2240	 2.69492437312455E-02 
2241	 0.023924434878909 
2242	 2.56681352147017E-02 
2243	 2.29754156154736E-02 
2244	 2.01085996453575E-02 
2245	 1.99113085704263E-02 
2246	 1.73822027502041E-02 
2247	 2.24926073238749E-02 
2248	 2.94708853343743E-02 
2249	 3.02925203581441E-02 
2250	 2.91681631139881E-02 
2251	 2.53371633787683E-02 
2252	 2.51843171111527E-02 
2253	 2.55269402248933E-02 
2254	 2.09464768922612E-02 
2255	 1.89132126140289E-02 
2256	 2.04706069983715E-02 
2257	 0.020323836806487 
2258	 2.33893216312246E-02 
2259	 3.11711984437129E-02 
2260	 3.29308285349751E-02 
2261	 2.75192437477591E-02 
2262	 2.60538885657769E-02 
2263	 0.024003024477999 
2264	 2.27692136534939E-02 
2265	 2.19685062228269E-02 
2266	 2.08190310544962E-02 
2267	 2.04053160891324E-02 
2268	 2.19846936513541E-02 
2269	 2.47629764374524E-02 
2270	 2.53079446047363E-02 
2271	 2.61958273783927E-02 
2272	 2.70706476366833E-02 
2273	 2.74937675511758E-02 
2274	 2.75494740105541E-02 
2275	 2.61318565530545E-02 
2276	 2.71944565631937E-02 
2277	 2.92969216038897E-02 
2278	 2.79789868658967E-02 
2279	 2.89376172023469E-02 
2280	 2.88972267181989E-02 
2281	 0.024527795938539 
2282	 0.01975819700722 
2283	 2.68745064754686E-02 
2284	 2.81503394120216E-02 
2285	 2.28367177820144E-02 
2286	 2.63029025555017E-02 
2287	 2.39346317349458E-02 
2288	 1.72514864513107E-02 
2289	 1.96345866376717E-02 
2290	 2.24388500003816E-02 
2291	 2.43906526646368E-02 
2292	 2.34527226134884E-02 
2293	 2.24153253657683E-02 
2294	 2.38028503841796E-02 
2295	 1.88376290111253E-02 
2296	 1.90387071705494E-02 
2297	 2.36309180356375E-02 
2298	 0.018701826877576 
2299	 1.85400366855304E-02 
2300	 2.16711405670075E-02 
2301	 2.15413341943199E-02 
2302	 0.023685531961561 
2303	 1.35607795830837E-02 
2304	 5.0747233160207E-03 
2305	 4.81726973537818E-03 
2306	 4.01835652973028E-03 
2307	 1.07110213080124E-02 
2308	 1.13112344216531E-02 
2309	 5.98065252786529E-03 
2310	 9.96537419827105E-04 
2311	-2.31366490995918E-03 
2312	 2.40628153746484E-03 
2313	 9.81396691962853E-03 
2314	 1.75640025400934E-02 
2315	 2.44167752430657E-02 
2316	 2.45714935226075E-02 
2317	 2.62202219664385E-02 
2318	 3.64449045150584E-02 
2319	 3.65939786652497E-02 
2320	 2.62214005178658E-02 
2321	 1.49878927828026E-02 
2322	 5.46237302239962E-03 
2323	 1.43499472409922E-02 
2324	 0.030716824829399 
2325	 4.03132062472101E-02 
2326	 4.01773828399602E-02 
2327	 2.68089541945721E-02 
2328	 1.74788787528687E-02 
2329	 1.72891731769127E-02 
2330	 2.70863558864964E-02 
2331	 2.46276647443491E-02 
2332	 6.62654480344091E-03 
2333	 4.22848588887957E-03 
2334	-7.29916634580058E-03 
2335	-1.01966928242606E-02 
2336	 5.60276985404943E-03 
2337	 7.18482420812613E-03 
2338	 9.47395160883628E-03 
2339	 1.23533824056616E-02 
2340	 1.66203217327888E-02 
2341	 1.82469165312825E-02 
2342	 1.96465817612004E-02 
2343	 0.024831731841201 
2344	 1.19385161421988E-02 
2345	 7.18696608275586E-03 
2346	 1.12972297952951E-02 
2347	 1.55749745695787E-02 
2348	 3.97665513563761E-02 
2349	 4.36055189647602E-02 
2350	 3.94056528155152E-02 
2351	 4.17362737736424E-02 
2352	 3.07867016415921E-02 
2353	 4.32606972421253E-02 
2354	 4.91558408108953E-02 
2355	 3.56064469703385E-02 
2356	 3.69251633815412E-02 
2357	 2.57239264303818E-02 
2358	 8.39116499312829E-03 
2359	 2.62421233562409E-02 
2360	 2.79883010216948E-02 
2361	 2.07968545942296E-02 
2362	 4.93183576932054E-02 
2363	 4.53147897507746E-02 
2364	 3.72485145327416E-02 
2365	 5.52419436907047E-02 
2366	 4.67266755003041E-02 
2367	 3.31771995634074E-02 
2368	 3.90312248176066E-02 
2369	 4.53055776078091E-02 
2370	 7.72702790620912E-03 
2371	 0.010022670402449 
2372	 3.01650295892998E-02 
2373	 2.50001100142392E-03 
2374	 2.51799687626128E-02 
2375	 0.025773859378879 
2376	 2.37018061394494E-02 
2377	 4.23069680059086E-02 
2378	 2.02967387881243E-02 
2379	 1.49870897041317E-02 
2380	-4.6262578773518E-03 
2381	-1.45976820857576E-02 
2382	 1.56905492867609E-02 
2383	 1.50262278496194E-02 
2384	 3.13990797486305E-03 
2385	 2.57679299628515E-02 
2386	 7.72578588655436E-02 
2387	 0.191597528738277 
2388	 0.263543610672628 
2389	 0.200978729964163 
2390	 0.132574168274823 
2391	 2.11405274549334E-02 
2392	-7.28172629747609E-02 
2393	-0.110426810704236 
2394	-0.134299633187843 
2395	-0.142859255252871 
2396	-0.159452035530332 
2397	-0.13734824912149 
2398	-6.53967209116443E-02 
2399	 7.4168615351756E-03 
2400	 5.06326390385254E-02 
2401	 2.46913616124841E-02 
2402	-4.80644773489432E-02 
2403	-5.72834697517467E-02 
2404	-6.01902557156066E-02 
2405	-9.07176101608253E-02 
2406	-0.107395701280003 
2407	-0.14086390043363 
2408	-0.224232224555178 
2409	-0.19993143892797 
2410	-0.158848853382905 
2411	-0.242300465631936 
2412	-0.251250591219657 
2413	-0.16184928858955 
2414	-0.105217446125359 
2415	 8.32864067477304E-03 
2416	 0.312447086608678 
2417	 0.487543724069519 
2418	 0.580223622942707 
2419	 0.320670186060564 
2420	 3.01808340328284E-02 
2421	 7.0615225594073E-03 
2422	 2.07558921981379E-02 
2423	 0.132477719291618 
2424	 0.164611951759007 
2425	 0.102413216009028 
2426	 0.039090661603342 
2427	 0.036318250444718 
2428	 6.10723156495748E-02 
2429	 0.107646991811482 
2430	 7.48024371634789E-02 
2431	-3.00379681565989E-02 
2432	-5.17144889442178E-02 
2433	-0.184684250574847 
2434	-0.157605004116192 
2435	-0.11865245404933 
2436	-0.218197827152147 
2437	-2.72246214813435E-02 
2438	-0.089797659303632 
2439	-0.297049592309083 
2440	-0.215217617066101 
2441	-0.235722261514215 
2442	-0.119172119067869 
2443	 0.182044210417548 
2444	 0.452939159925851 
2445	 0.55107658609383 
2446	 0.664220694558988 
2447	 1.43943470713075 
2448	 6.98715355412443E-02 
2449	-0.470649980260633 
2450	-0.883702290245308 
2451	-1.60782100621167 
2452	-1.92546329606835 
2453	-1.9508341489926 
2454	-1.47296496608073 
2455	-2.48566671128273 
2456	 108.657688407526 
2457	 7.8254326178525 
2458	 6.60732236914221 
2459	 27.412428265967 
2460	-2.43947188404634 
2461	-1.9407585078775 
2462	-1.21875675758353 
2463	-0.838092324709291 
2464	-0.800639272265984 
2465	-1.30027569273932 
2466	-13.025453097524 
2467	 1.46926910903114 
2468	 2.38307831615984 
2469	 1.79255917650402 
2470	-1.50124043957563 
2471	 4.16713721294132 
2472	-0.538896452362477 
2473	 0.227638579320741 
2474	-8.63928590705488E-02 
2475	-0.298109410021973 
2476	-0.382870634617897 
2477	 0.341158426977121 
2478	 0.247321930486078 
2479	-0.218075499641125 
2480	 0.46296576859431 
2481	 9.81933661943812 
2482	-0.937752739198423 
2483	-0.242389134989866 
2484	-0.615494730310717 
2485	 2.77956857716346E-02 
2486	-1.14349147374227 
2487	-0.992461837477337 
2488	-7.40349557624691 
2489	 1.95664098517107 
2490	 3.14536033578563 
2491	 1.81078625544492 
2492	 31.9078359014022 
2493	 9.31156502750611 
2494	 27.6664970058473 
2495	 6.74311479130573 
2496	 3.20734149831534 
2497	 0.999602505826056 
2498	 0.116216733009166 
2499	-0.157479294196828 
2500	-1.0225707950188 
