Wavelength	rt0713east_close00003.asd
350	 9.27183196798639E-02 
351	 9.18310859569234E-02 
352	 9.17156115907085E-02 
353	 0.092051594414809 
354	 9.21443078269909E-02 
355	 9.15958752591056E-02 
356	 9.09937295279523E-02 
357	 9.11114048060259E-02 
358	 9.21202326415637E-02 
359	 9.16667721192196E-02 
360	 9.12047922494143E-02 
361	 9.11862204944155E-02 
362	 9.12581004047768E-02 
363	 9.13371274185115E-02 
364	 9.10545793286874E-02 
365	 9.05470281378586E-02 
366	 0.090728992693825 
367	 9.06533685594679E-02 
368	 0.090935702998403 
369	 9.18810275211632E-02 
370	 9.12172104414175E-02 
371	 9.11259949326154E-02 
372	 9.16937430996708E-02 
373	 9.17932835576054E-02 
374	 9.16948661528734E-02 
375	 9.17537822689332E-02 
376	 0.091958593473791 
377	 9.17933386311202E-02 
378	 9.17568080309659E-02 
379	 9.20352715997093E-02 
380	 9.24389976966961E-02 
381	 9.18314421853318E-02 
382	 0.091857532713736 
383	 9.24999735648007E-02 
384	 9.29206748402678E-02 
385	 0.092968840899097 
386	 9.32346077772691E-02 
387	 9.33872230920278E-02 
388	 9.21526626088323E-02 
389	 9.26572505528954E-02 
390	 0.093617912423289 
391	 9.37270811665844E-02 
392	 9.38193059809075E-02 
393	 9.40294320674027E-02 
394	 9.43596138457351E-02 
395	 9.46404972639377E-02 
396	 9.41889192269576E-02 
397	 9.41615311147747E-02 
398	 9.46552436944194E-02 
399	 9.48128463655665E-02 
400	 0.094687484483351 
401	 9.46501209721176E-02 
402	 9.48303913268989E-02 
403	 9.46720445652882E-02 
404	 9.49251522312432E-02 
405	 9.53559163560732E-02 
406	 9.54748288290809E-02 
407	 9.56400511598106E-02 
408	 0.095707988437443 
409	 9.57538694009926E-02 
410	 9.60643828915555E-02 
411	 9.62355891301685E-02 
412	 9.62676348056565E-02 
413	 9.62656934596596E-02 
414	 9.63749995214567E-02 
415	 9.65983334462447E-02 
416	 0.096948516140871 
417	 9.73817067503143E-02 
418	 9.75556820061473E-02 
419	 9.76704507538726E-02 
420	 9.78810066772317E-02 
421	 9.82384872149048E-02 
422	 9.84270851492371E-02 
423	 9.85630535560943E-02 
424	 9.88332480828846E-02 
425	 9.93888805377728E-02 
426	 9.97047630143927E-02 
427	 9.99317249382574E-02 
428	 0.100453962040767 
429	 0.100698539297321 
430	 0.101071480859438 
431	 0.101626116136817 
432	 0.101912548680522 
433	 0.10222171407885 
434	 0.102603642477447 
435	 0.103036181290181 
436	 0.103463526280194 
437	 0.103788244780859 
438	 0.104094654588016 
439	 0.104528428846457 
440	 0.10479045083111 
441	 0.105272352184445 
442	 0.105948058005347 
443	 0.106074938123236 
444	 0.106325239535941 
445	 0.106753413674039 
446	 0.107214188300151 
447	 0.107489281111702 
448	 0.107887344232771 
449	 0.10831879715578 
450	 0.108447988936727 
451	 0.108843005871274 
452	 0.10917329125168 
453	 0.109287047981322 
454	 0.109661546745911 
455	 0.110076212788688 
456	 0.110334804997822 
457	 0.110371610931007 
458	 0.110791576695218 
459	 0.111105237645492 
460	 0.111196486009037 
461	 0.111377649582242 
462	 0.111711198263611 
463	 0.111982683508506 
464	 0.112082495092063 
465	 0.112358141535656 
466	 0.112598484651551 
467	 0.112767980991802 
468	 0.112941280188506 
469	 0.113339153892964 
470	 0.113632631425407 
471	 0.113733183975815 
472	 0.113936742135799 
473	 0.114035397569546 
474	 0.114255193463856 
475	 0.114747767946044 
476	 0.11503963818723 
477	 0.115170810315138 
478	 0.115379169517933 
479	 0.115955486820184 
480	 0.116180851763016 
481	 0.116417512059499 
482	 0.116877464916304 
483	 0.117161801602852 
484	 0.117493206950146 
485	 0.117907194623133 
486	 0.118355198559875 
487	 0.118711827491809 
488	 0.119084818667033 
489	 0.11950635339591 
490	 0.119921924427716 
491	 0.120256697229965 
492	 0.120580153681494 
493	 0.120982269592488 
494	 0.121558628476309 
495	 0.121998468575487 
496	 0.122304522868641 
497	 0.122647432188817 
498	 0.123036494174852 
499	 0.123619708330713 
500	 0.124298071197142 
501	 0.124582418328078 
502	 0.124993398980486 
503	 0.125514480849803 
504	 0.125990880944862 
505	 0.126347522339836 
506	 0.126958314784818 
507	 0.127722748883542 
508	 0.128189503243397 
509	 0.128688027924767 
510	 0.129260386228871 
511	 0.12988583767745 
512	 0.130528353640712 
513	 0.131085360648608 
514	 0.131573961545997 
515	 0.132098127582222 
516	 0.132952324477483 
517	 0.133607776777503 
518	 0.133966260512109 
519	 0.134542376679164 
520	 0.135201098282493 
521	 0.135904293489178 
522	 0.136582001318962 
523	 0.136959478716237 
524	 0.137484964406215 
525	 0.138236721492132 
526	 0.139007869872226 
527	 0.139622458243163 
528	 0.140224969643844 
529	 0.140904373996421 
530	 0.141542422032939 
531	 0.142224342381275 
532	 0.142906724229426 
533	 0.143521789075566 
534	 0.144165589684404 
535	 0.144770806683324 
536	 0.145383378292674 
537	 0.146179258558681 
538	 0.146796206062118 
539	 0.14737028448555 
540	 0.148061157548819 
541	 0.148677440711259 
542	 0.149361601583677 
543	 0.150066852246813 
544	 0.150653290053508 
545	 0.151285259631696 
546	 0.152050471723782 
547	 0.152886306116946 
548	 0.153455744814892 
549	 0.154133405855661 
550	 0.154858576371392 
551	 0.15547643563164 
552	 0.15624223228914 
553	 0.156897621724499 
554	 0.157413280044248 
555	 0.158042035282524 
556	 0.158724271448705 
557	 0.159382721720285 
558	 0.159960764817956 
559	 0.160516445732238 
560	 0.161104185569772 
561	 0.161689556576597 
562	 0.162191636125438 
563	 0.162646597873167 
564	 0.163161135324845 
565	 0.163707276775558 
566	 0.163971408216542 
567	 0.164252401882754 
568	 0.164641175046691 
569	 0.165122151283869 
570	 0.165558655189836 
571	 0.165949552624313 
572	 0.166298487693816 
573	 0.166603796834983 
574	 0.166936885300907 
575	 0.167241848346505 
576	 0.167510917905897 
577	 0.168031291716895 
578	 0.168287550952686 
579	 0.168428274525469 
580	 0.168942121683233 
581	 0.169263285219117 
582	 0.169491106425 
583	 0.169664361204435 
584	 0.169540460831558 
585	 0.169429694754807 
586	 0.169205496665775 
587	 0.168680613774066 
588	 0.168334642780839 
589	 0.168141582571202 
590	 0.16814926329262 
591	 0.168478476176597 
592	 0.168556230745171 
593	 0.168484568574961 
594	 0.168467913450669 
595	 0.168568440269955 
596	 0.168553755857346 
597	 0.168490156993604 
598	 0.16857649491767 
599	 0.16849979040572 
600	 0.16846983659624 
601	 0.16856815145369 
602	 0.168554700921995 
603	 0.168468110603196 
604	 0.168484039585858 
605	 0.168702168002362 
606	 0.168551554116233 
607	 0.168619156417501 
608	 0.168896281195591 
609	 0.16873468667995 
610	 0.168779812699403 
611	 0.168923140496715 
612	 0.168975180559025 
613	 0.168977778078452 
614	 0.169082612768926 
615	 0.169200086676502 
616	 0.169148512212402 
617	 0.169296920835153 
618	 0.169406118063095 
619	 0.169378442137564 
620	 0.169447468855218 
621	 0.169464134873445 
622	 0.16946030924934 
623	 0.169512523939363 
624	 0.169653744600188 
625	 0.1695842108023 
626	 0.169351179880889 
627	 0.16933589849793 
628	 0.169502520283527 
629	 0.169722118908991 
630	 0.169879577393987 
631	 0.169967596080592 
632	 0.169912217581238 
633	 0.169867093827173 
634	 0.170058156476556 
635	 0.170364351088051 
636	 0.170435747240393 
637	 0.17031696738816 
638	 0.170641828255582 
639	 0.170742327799662 
640	 0.170617283607558 
641	 0.170480306496938 
642	 0.170573728072073 
643	 0.170450824434455 
644	 0.170017322541117 
645	 0.169489777216283 
646	 0.16896051336099 
647	 0.1687654994336 
648	 0.169003647228683 
649	 0.169210488985924 
650	 0.169122690034228 
651	 0.168934322564626 
652	 0.168943992225076 
653	 0.16867857883726 
654	 0.16831142726963 
655	 0.167965985052168 
656	 0.167682080320546 
657	 0.167530687398998 
658	 0.167431047484207 
659	 0.167292818770833 
660	 0.167075567502761 
661	 0.166922438197711 
662	 0.166749455688712 
663	 0.166376200454095 
664	 0.166153733907795 
665	 0.166042236756633 
666	 0.165954249433327 
667	 0.165816047553646 
668	 0.165716841102122 
669	 0.16562873788087 
670	 0.165536853690678 
671	 0.165697015863905 
672	 0.165776532329556 
673	 0.165722400900774 
674	 0.165766410444602 
675	 0.165964061551682 
676	 0.166026882339007 
677	 0.165903997196417 
678	 0.166341305035972 
679	 0.166630896654547 
680	 0.166787470854034 
681	 0.167103898868152 
682	 0.167337243143368 
683	 0.16746857757982 
684	 0.167484718042656 
685	 0.167346629281469 
686	 0.167011069250757 
687	 0.166889370867855 
688	 0.167260894106349 
689	 0.167616200478947 
690	 0.167640336838669 
691	 0.167269199748614 
692	 0.166649716211129 
693	 0.166410884515646 
694	 0.16667236885077 
695	 0.167219997674603 
696	 0.16767046256605 
697	 0.16728104031651 
698	 0.1664539068878 
699	 0.165929704181511 
700	 0.165653259003018 
701	 0.165653740493294 
702	 0.16574178195496 
703	 0.165593289693861 
704	 0.16515566499708 
705	 0.164733023369287 
706	 0.164443092354293 
707	 0.163832592707346 
708	 0.163289315431362 
709	 0.162764398108587 
710	 0.162084615476123 
711	 0.161360766899516 
712	 0.160385668972993 
713	 0.159045557251356 
714	 0.157287000107871 
715	 0.154909838322344 
716	 0.152017706549801 
717	 0.149326303040079 
718	 0.147715503119337 
719	 0.147177785690695 
720	 0.147080710459484 
721	 0.146652192892782 
722	 0.144833118660563 
723	 0.142424720907498 
724	 0.140384764368081 
725	 0.138839456183633 
726	 0.137538522047417 
727	 0.135908231269168 
728	 0.133723991644868 
729	 0.131768996752989 
730	 0.130113049990843 
731	 0.128911256532842 
732	 0.128040588364956 
733	 0.126674473684936 
734	 0.125155246727668 
735	 0.123871602376074 
736	 0.123184452086104 
737	 0.122756199421068 
738	 0.122473299545645 
739	 0.122305210041857 
740	 0.122273145480644 
741	 0.122389002249224 
742	 0.122486999625661 
743	 0.12236239431581 
744	 0.122228688127115 
745	 0.122225089281284 
746	 0.122356299502225 
747	 0.122463015350909 
748	 0.122420973904335 
749	 0.122349991412415 
750	 0.122362256435919 
751	 0.122308773196053 
752	 0.122199616737867 
753	 0.122158763237306 
754	 0.122319463799498 
755	 0.122386398620902 
756	 0.122284407635537 
757	 0.121953339877165 
758	 0.121131086399146 
759	 0.119721249945416 
760	 0.118445479797417 
761	 0.118613413948177 
762	 0.118565655669451 
763	 0.119516388844038 
764	 0.120693682131246 
765	 0.121194205902544 
766	 0.122082034725174 
767	 0.122789556174134 
768	 0.12317315060551 
769	 0.123470398916531 
770	 0.123603481409626 
771	 0.123757267094341 
772	 0.124053925039489 
773	 0.124319262786771 
774	 0.124632642137759 
775	 0.124911230985231 
776	 0.125054955394965 
777	 0.125242144805016 
778	 0.12556218698985 
779	 0.125980571005139 
780	 0.126351984423016 
781	 0.126717500083028 
782	 0.127081692510873 
783	 0.127390675589185 
784	 0.127451951346173 
785	 0.12760454929898 
786	 0.127819425642707 
787	 0.12796305453838 
788	 0.128121674641466 
789	 0.128527728933598 
790	 0.129114230757039 
791	 0.129616512148759 
792	 0.130536285064565 
793	 0.130988689336318 
794	 0.130813073689055 
795	 0.131283352218809 
796	 0.13171907194562 
797	 0.132106848068791 
798	 0.132537916127267 
799	 0.132801882517428 
800	 0.132801014748248 
801	 0.132852538812031 
802	 0.133389990540722 
803	 0.133833621057376 
804	 0.134254981407446 
805	 0.134611091003185 
806	 0.134682685867393 
807	 0.134430667076328 
808	 0.134021828060059 
809	 0.133555789916336 
810	 0.13282831721306 
811	 0.13181953668827 
812	 0.130538922752655 
813	 0.12920142828387 
814	 0.12878020752696 
815	 0.128551347851048 
816	 0.12798256524288 
817	 0.127075334527437 
818	 0.127125591095594 
819	 0.127398586737587 
820	 0.12710930802666 
821	 0.125547267312427 
822	 0.124233376068804 
823	 0.123253236514554 
824	 0.122215630542091 
825	 0.120670131931928 
826	 0.118604622593963 
827	 0.11666919716729 
828	 0.115561408798532 
829	 0.11352283460924 
830	 0.111631836376843 
831	 0.110327202055458 
832	 0.10948021911809 
833	 0.109026223189221 
834	 0.108433850064336 
835	 0.107578675969712 
836	 0.106903436031032 
837	 0.106892964479762 
838	 0.106827209981054 
839	 0.106234366906603 
840	 0.105939403263302 
841	 0.105712780599392 
842	 0.105411723387726 
843	 0.105047914458057 
844	 0.105321211013989 
845	 0.10487170181888 
846	 0.104084633760029 
847	 0.104358676002813 
848	 0.104320812341909 
849	 0.10368928304467 
850	 0.102846885577042 
851	 0.102770902040476 
852	 0.102600676928304 
853	 0.102422050905738 
854	 0.102336361645699 
855	 0.102061928147718 
856	 0.101811335566014 
857	 0.101545962938522 
858	 0.101226520314882 
859	 0.1010966230358 
860	 0.100760972363671 
861	 0.100334110186907 
862	 0.100117122504483 
863	 9.97685882907481E-02 
864	 9.96768721148665E-02 
865	 9.96205839975714E-02 
866	 9.89701274469771E-02 
867	 0.099358605889769 
868	 9.89810958034141E-02 
869	 9.76564245075669E-02 
870	 9.77813704796456E-02 
871	 9.78736299361156E-02 
872	 9.73801079251502E-02 
873	 9.64060792814325E-02 
874	 9.60453382289634E-02 
875	 9.59887850578105E-02 
876	 9.55764142344259E-02 
877	 9.45790486499604E-02 
878	 9.47401864741775E-02 
879	 9.45135530884361E-02 
880	 9.38375975577038E-02 
881	 9.33380018226014E-02 
882	 9.29356274689643E-02 
883	 9.22950506339254E-02 
884	 0.091699606850134 
885	 9.17352966560653E-02 
886	 9.13163926831354E-02 
887	 9.08076560010628E-02 
888	 9.04157036080496E-02 
889	 8.99682469228209E-02 
890	 8.93489219298353E-02 
891	 8.84271189929939E-02 
892	 0.087340719278551 
893	 8.67178080158074E-02 
894	 0.08623381808078 
895	 8.52234223510834E-02 
896	 8.35746820961117E-02 
897	 0.083271464749884 
898	 8.28140821552675E-02 
899	 8.23365833987378E-02 
900	 8.22824558992789E-02 
901	 0.081940800102435 
902	 8.24926865748308E-02 
903	 8.27427754451434E-02 
904	 8.12965677509856E-02 
905	 0.08012426258561 
906	 8.05936111406613E-02 
907	 8.13839267685937E-02 
908	 7.96526743499079E-02 
909	 7.82504172126657E-02 
910	 7.82338498225578E-02 
911	 0.078775450158614 
912	 7.78549994743187E-02 
913	 7.73902107445548E-02 
914	 7.59387488514262E-02 
915	 7.42286131972772E-02 
916	 7.51910210674185E-02 
917	 7.40782539779617E-02 
918	 7.35243698478086E-02 
919	 7.39238204657423E-02 
920	 7.17387699590242E-02 
921	 7.17569123872423E-02 
922	 7.19017931810129E-02 
923	 7.02931557457162E-02 
924	 6.82810776818695E-02 
925	 6.87056228753419E-02 
926	 6.89096311989707E-02 
927	 6.59363472175108E-02 
928	 6.40046057976174E-02 
929	 6.40786279696284E-02 
930	 6.32447535314217E-02 
931	 5.73633740207818E-02 
932	 5.84763796569894E-02 
933	 6.33844634649036E-02 
934	 6.42730057515531E-02 
935	 5.84697906051407E-02 
936	 6.40342173424857E-02 
937	 6.16765312166395E-02 
938	 5.53576415336457E-02 
939	 5.37918330783103E-02 
940	 5.68334235212443E-02 
941	 5.51384005518953E-02 
942	 5.03053436061102E-02 
943	 4.92002811164102E-02 
944	 5.17544678727242E-02 
945	 5.39027617903842E-02 
946	 5.13158782808014E-02 
947	 4.38474204465621E-02 
948	 4.89275732437574E-02 
949	 4.99183958138866E-02 
950	 4.68630714741127E-02 
951	 0.049246107312431 
952	 4.74785424146391E-02 
953	 4.95307993976382E-02 
954	 5.22938605126742E-02 
955	 4.72853192977757E-02 
956	 4.59899481467433E-02 
957	 4.43720119532406E-02 
958	 0.042290233803677 
959	 4.27507412731371E-02 
960	 4.45808325744571E-02 
961	 0.049056940239847 
962	 5.18399389668209E-02 
963	 0.047755658300052 
964	 4.70232416874505E-02 
965	 4.81480762442815E-02 
966	 5.04702704182767E-02 
967	 5.39268488159342E-02 
968	 5.24693463681491E-02 
969	 5.15407202830656E-02 
970	 0.052711779355332 
971	 5.33653209387668E-02 
972	 5.20502133357764E-02 
973	 4.86072624154114E-02 
974	 4.74388894498182E-02 
975	 0.05424829012416 
976	 5.07237270740736E-02 
977	 4.97089481089982E-02 
978	 5.25476769268062E-02 
979	 4.97067459644245E-02 
980	 0.052339231059776 
981	 5.29681500128327E-02 
982	 5.10907161439352E-02 
983	 5.23745361690187E-02 
984	 5.49047147285509E-02 
985	 5.41283658227935E-02 
986	 5.18834342161737E-02 
987	 5.37723669232529E-02 
988	 5.40483264177404E-02 
989	 5.48728396519056E-02 
990	 5.55099120493784E-02 
991	 5.35090839295482E-02 
992	 5.26395120788559E-02 
993	 5.51703607410062E-02 
994	 5.75574868561105E-02 
995	 5.44249931521539E-02 
996	 5.28518136186995E-02 
997	 5.67787139678592E-02 
998	 0.059768291131263 
999	 0.053363343661522 
1000	 0.052223142329393 
1001	 5.18789525075595E-02 
1002	 5.17592096360133E-02 
1003	 0.051766389499733 
1004	 0.051911856750942 
1005	 5.19978284295686E-02 
1006	 5.19163096155687E-02 
1007	 5.20887624819469E-02 
1008	 5.24788766464182E-02 
1009	 5.29266926926303E-02 
1010	 5.33308911322016E-02 
1011	 5.38242175046139E-02 
1012	 5.46679621538767E-02 
1013	 5.51474686526206E-02 
1014	 5.55330492757996E-02 
1015	 0.056277906273362 
1016	 5.63599824297536E-02 
1017	 5.55039927695576E-02 
1018	 5.54521023351411E-02 
1019	 5.53961934890884E-02 
1020	 5.54179416693088E-02 
1021	 5.57092343061882E-02 
1022	 5.63749487443299E-02 
1023	 5.62803283926649E-02 
1024	 5.64232737342882E-02 
1025	 5.67730554519312E-02 
1026	 5.66771328026499E-02 
1027	 5.69113121270179E-02 
1028	 5.72999548089697E-02 
1029	 0.057804755073962 
1030	 5.86829416740873E-02 
1031	 5.89135251007223E-02 
1032	 5.90430945649153E-02 
1033	 5.90593078073146E-02 
1034	 5.84450245275608E-02 
1035	 5.82245989387812E-02 
1036	 5.80300426694765E-02 
1037	 5.81273071248319E-02 
1038	 0.058571024379698 
1039	 5.87183094350751E-02 
1040	 5.91935436902534E-02 
1041	 5.97814187165799E-02 
1042	 6.00528506787596E-02 
1043	 6.00426584048151E-02 
1044	 6.03143413880179E-02 
1045	 6.05562503358276E-02 
1046	 0.060952689688887 
1047	 6.15057535039988E-02 
1048	 6.19890696838919E-02 
1049	 6.29176670146455E-02 
1050	 6.30107662169577E-02 
1051	 6.23153249795919E-02 
1052	 6.23212031559417E-02 
1053	 6.20641767752103E-02 
1054	 6.20758916910418E-02 
1055	 6.32133559676442E-02 
1056	 6.35352656558833E-02 
1057	 6.35113983037848E-02 
1058	 0.062867104834417 
1059	 6.28455348550576E-02 
1060	 6.24004877647795E-02 
1061	 0.062831753698341 
1062	 6.44988623347741E-02 
1063	 6.47859389828726E-02 
1064	 6.47819905743941E-02 
1065	 6.47485779098309E-02 
1066	 6.36554280170682E-02 
1067	 6.33898672587834E-02 
1068	 6.40614407178917E-02 
1069	 6.39758325125161E-02 
1070	 6.33311976511138E-02 
1071	 0.063224596193614 
1072	 6.31861606048656E-02 
1073	 6.29401806864151E-02 
1074	 6.29724598366312E-02 
1075	 6.37433894380976E-02 
1076	 6.36150878310566E-02 
1077	 6.26851661637757E-02 
1078	 6.27817472992407E-02 
1079	 6.32945656281756E-02 
1080	 6.32840107331902E-02 
1081	 6.37843814432166E-02 
1082	 6.35904754186021E-02 
1083	 6.21417978149253E-02 
1084	 6.17473100266697E-02 
1085	 6.20390207802766E-02 
1086	 6.18620587183949E-02 
1087	 6.18203849523955E-02 
1088	 6.16485050343588E-02 
1089	 6.09684858560119E-02 
1090	 6.03769215901994E-02 
1091	 6.03024994761177E-02 
1092	 6.09688192779045E-02 
1093	 6.07049207168346E-02 
1094	 6.01625364018789E-02 
1095	 5.97844359984149E-02 
1096	 5.88868487493485E-02 
1097	 5.83086110948087E-02 
1098	 5.82758591406416E-02 
1099	 5.79626704203363E-02 
1100	 5.71102853294643E-02 
1101	 0.056770589174317 
1102	 5.72166799461316E-02 
1103	 5.68075650049975E-02 
1104	 5.63740836116887E-02 
1105	 5.51026467800006E-02 
1106	 5.31777955467948E-02 
1107	 5.35562830675395E-02 
1108	 5.41221038370036E-02 
1109	 5.36477834905888E-02 
1110	 5.36548834285833E-02 
1111	 5.36874024221239E-02 
1112	 5.31281084836163E-02 
1113	 5.23094167566137E-02 
1114	 0.052125250990593 
1115	 0.051540415184315 
1116	 5.06543562208081E-02 
1117	 4.88545380048866E-02 
1118	 4.99004779598417E-02 
1119	 5.73310294756115E-02 
1120	 5.86582376658118E-02 
1121	 5.62626206281529E-02 
1122	 5.85176976762542E-02 
1123	 0.053428186089393 
1124	 4.16121586139972E-02 
1125	 4.90357086934802E-02 
1126	 5.85615292260887E-02 
1127	 4.96004746102996E-02 
1128	 3.91877637483463E-02 
1129	 3.80695703382219E-02 
1130	 3.76901522891797E-02 
1131	 3.79826037553482E-02 
1132	 4.33313019179695E-02 
1133	 4.59362770127215E-02 
1134	 4.65219084112218E-02 
1135	 4.47935942616903E-02 
1136	 4.61273740995349E-02 
1137	 4.55391060115021E-02 
1138	 4.20752302735752E-02 
1139	 3.58390811161926E-02 
1140	 3.81106131002105E-02 
1141	 3.84863220472348E-02 
1142	 3.47525358049024E-02 
1143	 3.94003780254751E-02 
1144	 4.36298269102726E-02 
1145	 0.037003199183628 
1146	 3.89740908561545E-02 
1147	 4.53775509219897E-02 
1148	 3.92074026665794E-02 
1149	 0.03584748899985 
1150	 0.036486234237903 
1151	 0.036088191172969 
1152	 3.68105074336094E-02 
1153	 4.29574583377266E-02 
1154	 4.48425656581229E-02 
1155	 4.57669143019179E-02 
1156	 4.30445427100026E-02 
1157	 4.22264284449051E-02 
1158	 4.35538511389377E-02 
1159	 4.30752234768342E-02 
1160	 4.24429309958362E-02 
1161	 4.36723768936351E-02 
1162	 4.33880733573277E-02 
1163	 4.29056330154324E-02 
1164	 4.45206687627019E-02 
1165	 4.53968379324155E-02 
1166	 4.47522466762359E-02 
1167	 4.46066587221638E-02 
1168	 4.49033470208577E-02 
1169	 4.45859114374188E-02 
1170	 4.48182932051868E-02 
1171	 4.49480528443557E-02 
1172	 4.48087387240877E-02 
1173	 4.48050248440873E-02 
1174	 4.49565132589098E-02 
1175	 4.53627533532227E-02 
1176	 4.50767987076062E-02 
1177	 4.55018297597788E-02 
1178	 4.58668853950099E-02 
1179	 4.50716662926263E-02 
1180	 4.49892740223804E-02 
1181	 4.53025952370268E-02 
1182	 4.48654312946053E-02 
1183	 4.49198055694586E-02 
1184	 4.53787112482411E-02 
1185	 4.56226555063023E-02 
1186	 4.53050676695465E-02 
1187	 4.46535945812768E-02 
1188	 4.48858734161457E-02 
1189	 4.50949505808598E-02 
1190	 4.49236308365313E-02 
1191	 4.55452560846851E-02 
1192	 0.045958868227567 
1193	 4.59635285286964E-02 
1194	 4.54997177322011E-02 
1195	 4.61398253090378E-02 
1196	 0.046609789452185 
1197	 4.60460209023816E-02 
1198	 4.55515134729515E-02 
1199	 4.54000602308017E-02 
1200	 4.52002198590959E-02 
1201	 4.53727940674338E-02 
1202	 4.60887663694299E-02 
1203	 4.62322680609483E-02 
1204	 4.54420499328843E-02 
1205	 4.49219942359277E-02 
1206	 4.52249837691502E-02 
1207	 4.56981332337549E-02 
1208	 4.62131285304393E-02 
1209	 4.66785367480252E-02 
1210	 4.61796499652686E-02 
1211	 0.045359972519461 
1212	 4.57755476899984E-02 
1213	 4.64360306754771E-02 
1214	 4.64271650985353E-02 
1215	 4.62838592843433E-02 
1216	 4.60658497824979E-02 
1217	 4.58607936203013E-02 
1218	 4.60153451788037E-02 
1219	 4.64606340281478E-02 
1220	 4.69627563505639E-02 
1221	 0.047082691032161 
1222	 4.67456633047997E-02 
1223	 4.69141399276833E-02 
1224	 4.72055465673482E-02 
1225	 4.69425092824972E-02 
1226	 4.71994464170823E-02 
1227	 4.76703455880999E-02 
1228	 4.76316265725079E-02 
1229	 4.76832343607048E-02 
1230	 4.73356576994134E-02 
1231	 4.67568095103666E-02 
1232	 4.70478973780316E-02 
1233	 0.047582961681185 
1234	 4.76136730853676E-02 
1235	 4.77524882980505E-02 
1236	 4.78080241345026E-02 
1237	 4.78285493777735E-02 
1238	 4.77902159467944E-02 
1239	 4.78528314513114E-02 
1240	 0.047621227968469 
1241	 4.76668191267072E-02 
1242	 4.79712567285941E-02 
1243	 4.80911921939309E-02 
1244	 4.83533267490374E-02 
1245	 4.83969934758673E-02 
1246	 0.04792387868576 
1247	 4.77776057656604E-02 
1248	 4.81722460999955E-02 
1249	 4.83261359655876E-02 
1250	 4.78792132166834E-02 
1251	 4.74820821140135E-02 
1252	 4.79640013969857E-02 
1253	 4.82443054100356E-02 
1254	 4.79336690976609E-02 
1255	 0.048307759443175 
1256	 0.048395260951986 
1257	 4.74951447305597E-02 
1258	 4.72605015911122E-02 
1259	 4.78892618370391E-02 
1260	 4.78149507310752E-02 
1261	 0.047078869795574 
1262	 4.70020532324427E-02 
1263	 0.047142824930955 
1264	 4.74224479544802E-02 
1265	 4.72513996881004E-02 
1266	 4.76038168639689E-02 
1267	 0.047916677799743 
1268	 4.71086602178821E-02 
1269	 4.67126270976849E-02 
1270	 4.70049137684605E-02 
1271	 4.75736042454816E-02 
1272	 4.80938190983547E-02 
1273	 4.76472230591584E-02 
1274	 4.72227462372243E-02 
1275	 4.74736937908667E-02 
1276	 4.73270706453956E-02 
1277	 0.047405211977072 
1278	 4.80859117391843E-02 
1279	 4.79800964923591E-02 
1280	 4.72007960534054E-02 
1281	 0.046963557841209 
1282	 4.76481831795677E-02 
1283	 4.76143910731669E-02 
1284	 4.67972241615626E-02 
1285	 4.68632070410325E-02 
1286	 4.75260768862814E-02 
1287	 0.047513437502476 
1288	 4.75185196376741E-02 
1289	 4.75292466428246E-02 
1290	 4.72232024144941E-02 
1291	 4.68637071196722E-02 
1292	 4.65495858816687E-02 
1293	 4.66361973196711E-02 
1294	 4.70422217749367E-02 
1295	 4.70555618093323E-02 
1296	 4.71124635427401E-02 
1297	 4.70900998642618E-02 
1298	 4.67351954733726E-02 
1299	 4.64684514931668E-02 
1300	 4.63054623461055E-02 
1301	 4.64512761611975E-02 
1302	 4.60840868661691E-02 
1303	 4.52370436315864E-02 
1304	 4.49353183933088E-02 
1305	 4.49262923473795E-02 
1306	 4.47443584048659E-02 
1307	 4.47816848593108E-02 
1308	 4.44021100908756E-02 
1309	 4.35906234894552E-02 
1310	 4.32614284117058E-02 
1311	 4.31713644373341E-02 
1312	 4.30055253387809E-02 
1313	 0.042982782821899 
1314	 0.04290847571035 
1315	 4.27698517870206E-02 
1316	 4.24303537466643E-02 
1317	 4.17308793685603E-02 
1318	 4.17836535373169E-02 
1319	 4.25005552131164E-02 
1320	 4.24809296448349E-02 
1321	 4.30155367248402E-02 
1322	 0.04261927079979 
1323	 4.13960299587526E-02 
1324	 4.05162421032905E-02 
1325	 3.98111190863381E-02 
1326	 3.95822200413112E-02 
1327	 3.99432733032256E-02 
1328	 3.98597912976758E-02 
1329	 0.040600882526227 
1330	 0.042065479656128 
1331	 0.040946425119684 
1332	 3.97775300831047E-02 
1333	 3.98079983092059E-02 
1334	 3.86013344746158E-02 
1335	 3.79296433824456E-02 
1336	 3.88494115214119E-02 
1337	 3.85793221868813E-02 
1338	 3.71461762983928E-02 
1339	 3.60246075347769E-02 
1340	 3.40273091783148E-02 
1341	 3.36019716430514E-02 
1342	 3.37631900247191E-02 
1343	 3.44246246436289E-02 
1344	 3.90130930259553E-02 
1345	 4.19854773995567E-02 
1346	 4.38096166978108E-02 
1347	 4.47583378425498E-02 
1348	 4.23661809894763E-02 
1349	 4.49031706742943E-02 
1350	 5.02867799520454E-02 
1351	 0.057928204087744 
1352	 8.15387091599018E-02 
1353	 0.10613495361183 
1354	 0.140537473574602 
1355	 0.147305304645444 
1356	 9.13213547689291E-02 
1357	 0.087254100204091 
1358	 4.65781877879855E-02 
1359	 3.97086363154453E-02 
1360	 0.197753561106668 
1361	 0.184750198543659 
1362	-6.95518148549136E-02 
1363	-1.67500288625727E-02 
1364	 0.175815587527878 
1365	 0.294473668286993 
1366	 0.6245765501308 
1367	 0.700073813527977 
1368	 0.639172955660744 
1369	 5.20448278861452E-02 
1370	 1.43327256614541E-02 
1371	 0.139056414609487 
1372	 0.219695219513243 
1373	 0.896058014101696 
1374	 0.78800270410807 
1375	 0.292170422360083 
1376	 0.442081224151077 
1377	 0.769678917393905 
1378	 0.746868224994821 
1379	 0.849071113099977 
1380	 1.10136171985988 
1381	 1.62302422386297 
1382	 1.24268241455778 
1383	 0.526287158723388 
1384	 0.630680511500533 
1385	 0.637755087503643 
1386	 0.314645278444114 
1387	 0.794879745725264 
1388	 1.32982220703561 
1389	 0.772817382737799 
1390	 0.353215327680338 
1391	 1.05561813924634 
1392	 0.632806659198439 
1393	 1.56709839507735 
1394	 4.0108853514381 
1395	 0.606503805770375 
1396	 0.517203055461363 
1397	-1.63489301153217 
1398	-1.1672288928855 
1399	-0.95200942911279 
1400	-0.740229920025932 
1401	-4.84271493227682E-02 
1402	 1.18574811619107 
1403	 2.55971731884246 
1404	 2.48383259317006 
1405	 2.00840759135064 
1406	 0.189789133850237 
1407	-0.108147756721772 
1408	-0.854511831526027 
1409	-0.825646281064341 
1410	-0.230194307140987 
1411	-7.03662638010828E-02 
1412	 0.419029577357424 
1413	 0.717579842630631 
1414	 0.932490116174565 
1415	 0.819249613291871 
1416	 0.326322220276598 
1417	 0.217522090749045 
1418	 0.151034658665214 
1419	 0.159874067780987 
1420	 0.201521185027975 
1421	 0.185532726541156 
1422	 0.199501032029286 
1423	 0.185746491470356 
1424	 0.126550898981585 
1425	 8.94363573732962E-02 
1426	 2.80926885080564E-02 
1427	 4.81631137530926E-02 
1428	 0.169373351768401 
1429	 0.150850803723238 
1430	 0.05601249282016 
1431	 5.74755357827876E-02 
1432	 4.88784482398802E-02 
1433	 1.54837527433962E-02 
1434	 3.31895512266629E-02 
1435	 5.38548128053391E-02 
1436	 4.40301491418299E-02 
1437	 1.98495185028523E-03 
1438	-4.99169368389574E-02 
1439	-1.99274845757844E-02 
1440	 3.64240791064697E-02 
1441	-9.14905785819878E-04 
1442	-2.01204171196918E-02 
1443	 2.77424376645262E-02 
1444	 5.00675431621536E-02 
1445	 0.028088395972473 
1446	 1.04509370969005E-02 
1447	 2.99417435622117E-02 
1448	 4.17177203957667E-02 
1449	 2.76253548648032E-02 
1450	 2.55179952355405E-02 
1451	 2.87221770226199E-02 
1452	 3.08247268889422E-02 
1453	 3.62780240090672E-02 
1454	 3.29338195267999E-02 
1455	 3.36954810685273E-02 
1456	 3.41247258794717E-02 
1457	 2.62290025528561E-02 
1458	 2.32077109150456E-02 
1459	 0.027068367450632 
1460	 2.70623524239044E-02 
1461	 2.17726804378064E-02 
1462	 2.31585274460285E-02 
1463	 3.16065877088161E-02 
1464	 3.26078637556083E-02 
1465	 2.93215715433291E-02 
1466	 2.90787214530716E-02 
1467	 3.01677694772398E-02 
1468	 2.96455103960857E-02 
1469	 2.71445164955584E-02 
1470	 2.56794068776851E-02 
1471	 2.06094590908915E-02 
1472	 2.29593236337663E-02 
1473	 3.55315356514466E-02 
1474	 3.77248404395115E-02 
1475	 0.034562834608593 
1476	 3.52185001199644E-02 
1477	 3.63341992880137E-02 
1478	 3.38407207065443E-02 
1479	 2.97348373442515E-02 
1480	 3.08517999778377E-02 
1481	 3.00073050281965E-02 
1482	 3.02755340450027E-02 
1483	 3.73021823113966E-02 
1484	 3.88783270965232E-02 
1485	 3.60406123558153E-02 
1486	 3.50429532115333E-02 
1487	 3.43585793449304E-02 
1488	 0.03405167744314 
1489	 3.39817959755841E-02 
1490	 3.36189731004992E-02 
1491	 3.20960742854094E-02 
1492	 3.31970765538048E-02 
1493	 3.65837985249589E-02 
1494	 3.69113860711531E-02 
1495	 3.65646823217322E-02 
1496	 3.71085703118691E-02 
1497	 3.67923094375849E-02 
1498	 3.62874012806498E-02 
1499	 3.63527480793512E-02 
1500	 3.68161177319775E-02 
1501	 3.69661423473654E-02 
1502	 3.67177449048013E-02 
1503	 3.67243046669153E-02 
1504	 3.71334559054378E-02 
1505	 3.67660424309562E-02 
1506	 3.72823382036555E-02 
1507	 3.86444278600959E-02 
1508	 0.039312612356427 
1509	 3.95074748201773E-02 
1510	 0.03929234556402 
1511	 3.89039328921305E-02 
1512	 0.039362753740909 
1513	 3.98512313352983E-02 
1514	 3.93392974036912E-02 
1515	 3.85584289914173E-02 
1516	 0.038249766867737 
1517	 3.79543570681154E-02 
1518	 3.78610587016445E-02 
1519	 3.86161120400001E-02 
1520	 3.89543080008524E-02 
1521	 0.038845321757878 
1522	 3.94109539185785E-02 
1523	 3.97799915373901E-02 
1524	 0.039872620918067 
1525	 4.01682799438174E-02 
1526	 4.02221546406092E-02 
1527	 4.01372795286939E-02 
1528	 4.03745427131548E-02 
1529	 4.05625311436274E-02 
1530	 4.05415177049181E-02 
1531	 4.03347934566585E-02 
1532	 4.00368532939039E-02 
1533	 0.040517262131524 
1534	 4.10231862012302E-02 
1535	 0.040806355307081 
1536	 4.10862405807889E-02 
1537	 4.21096375786657E-02 
1538	 4.19049425377464E-02 
1539	 4.05337707495984E-02 
1540	 4.02757484571761E-02 
1541	 4.02847422979677E-02 
1542	 3.97740173691468E-02 
1543	 4.05770500482529E-02 
1544	 4.14761202292475E-02 
1545	 4.09106987727324E-02 
1546	 4.06743093163069E-02 
1547	 4.08873529681501E-02 
1548	 4.08073617953902E-02 
1549	 4.06282140942625E-02 
1550	 4.06001163809307E-02 
1551	 4.05788971912065E-02 
1552	 4.04435707875589E-02 
1553	 4.06260536413703E-02 
1554	 4.05228376635275E-02 
1555	 4.03337949874827E-02 
1556	 4.08004432698699E-02 
1557	 4.10567133512955E-02 
1558	 4.07324629266803E-02 
1559	 4.06518441481415E-02 
1560	 4.08553719257894E-02 
1561	 4.08810802077323E-02 
1562	 4.10230447703845E-02 
1563	 4.13287601411317E-02 
1564	 4.13261874912415E-02 
1565	 4.13034244197388E-02 
1566	 4.14542261561012E-02 
1567	 0.041735473353107 
1568	 4.18862971307192E-02 
1569	 4.10921382520764E-02 
1570	 4.05669826753934E-02 
1571	 4.10653754364587E-02 
1572	 4.10361529002449E-02 
1573	 4.06227200809491E-02 
1574	 4.07797368065272E-02 
1575	 4.07844351664992E-02 
1576	 4.03697457196819E-02 
1577	 4.05269486937973E-02 
1578	 4.10067375277422E-02 
1579	 4.09473475391733E-02 
1580	 4.09466359520468E-02 
1581	 4.14358612272679E-02 
1582	 4.18904777927575E-02 
1583	 4.24303263229985E-02 
1584	 4.25748322502465E-02 
1585	 4.21676239140212E-02 
1586	 4.19288820205295E-02 
1587	 4.14154341881869E-02 
1588	 4.08599623237508E-02 
1589	 4.09426883849871E-02 
1590	 4.13812996531876E-02 
1591	 4.14100512719086E-02 
1592	 4.11540698563052E-02 
1593	 4.15606924557111E-02 
1594	 4.17620655856211E-02 
1595	 4.12710995875025E-02 
1596	 4.12071351145925E-02 
1597	 4.13683257259603E-02 
1598	 4.11752736011007E-02 
1599	 4.10384764285251E-02 
1600	 4.12015542539049E-02 
1601	 4.09237361999224E-02 
1602	 4.05875307080683E-02 
1603	 0.040859409349909 
1604	 4.10343118630704E-02 
1605	 4.10116739490715E-02 
1606	 4.08221585641827E-02 
1607	 4.08003689752601E-02 
1608	 0.041169655537461 
1609	 4.16703153972558E-02 
1610	 4.17603005136637E-02 
1611	 4.15591580936618E-02 
1612	 4.19892961136935E-02 
1613	 4.22113443130547E-02 
1614	 4.19446407740901E-02 
1615	 4.19514593693115E-02 
1616	 4.18740237261886E-02 
1617	 4.16552439573679E-02 
1618	 4.16056094965707E-02 
1619	 4.19703471055841E-02 
1620	 4.23665089507353E-02 
1621	 4.20459614282481E-02 
1622	 4.18561209108594E-02 
1623	 4.21982824057525E-02 
1624	 4.16768028903936E-02 
1625	 4.07633320577117E-02 
1626	 4.12304887373137E-02 
1627	 4.21196046456517E-02 
1628	 4.24591759270514E-02 
1629	 4.27967583782227E-02 
1630	 4.26000314295585E-02 
1631	 4.17890630386612E-02 
1632	 4.13432062403095E-02 
1633	 4.14523551069059E-02 
1634	 4.13863136895488E-02 
1635	 4.10295575441907E-02 
1636	 4.11157126700226E-02 
1637	 4.16595423754081E-02 
1638	 4.19367298639761E-02 
1639	 4.19283982202786E-02 
1640	 4.18416928045087E-02 
1641	 4.14693937205759E-02 
1642	 4.15333039293571E-02 
1643	 0.041931813227943 
1644	 0.041322203929265 
1645	 4.05530703009689E-02 
1646	 4.13667609745301E-02 
1647	 4.24000532995415E-02 
1648	 4.17510406682133E-02 
1649	 4.13329809776236E-02 
1650	 4.17921465078039E-02 
1651	 4.10773001366725E-02 
1652	 4.09268229675501E-02 
1653	 4.22442343393791E-02 
1654	 4.20267564184284E-02 
1655	 4.08509748908922E-02 
1656	 4.10071584765101E-02 
1657	 4.12012721859901E-02 
1658	 4.09848164263641E-02 
1659	 4.18262009703611E-02 
1660	 4.21720636740622E-02 
1661	 4.16528640894397E-02 
1662	 4.12578169162615E-02 
1663	 4.07193206147535E-02 
1664	 0.040744539523497 
1665	 4.10675310333947E-02 
1666	 4.08340154911573E-02 
1667	 4.06060109503181E-02 
1668	 4.08970715666307E-02 
1669	 4.04982011496422E-02 
1670	 4.02937524262846E-02 
1671	 4.10176632606519E-02 
1672	 4.05800802909655E-02 
1673	 3.99933845317417E-02 
1674	 4.08153737265831E-02 
1675	 4.17617626116598E-02 
1676	 4.20898759598457E-02 
1677	 4.20792670281364E-02 
1678	 4.20784527179148E-02 
1679	 4.12436646737208E-02 
1680	 4.01937115067722E-02 
1681	 4.06886162363331E-02 
1682	 4.09788923698057E-02 
1683	 4.08337929860028E-02 
1684	 0.042081248701311 
1685	 4.22359726496558E-02 
1686	 4.09237611102897E-02 
1687	 4.08701719152054E-02 
1688	 4.09525254077375E-02 
1689	 4.05894186452804E-02 
1690	 4.11915203201204E-02 
1691	 4.17195359814523E-02 
1692	 4.11577218478734E-02 
1693	 4.06990716846593E-02 
1694	 4.05876072191662E-02 
1695	 4.05275098101482E-02 
1696	 4.06031211195422E-02 
1697	 4.08755934677478E-02 
1698	 4.15056399440269E-02 
1699	 4.10871270610508E-02 
1700	 4.02229108483557E-02 
1701	 4.04253671788452E-02 
1702	 4.06357471548257E-02 
1703	 4.11216266404021E-02 
1704	 4.22171378172353E-02 
1705	 4.25232612306463E-02 
1706	 4.17558281599746E-02 
1707	 4.07333391500742E-02 
1708	 4.03414374437825E-02 
1709	 0.041075781859696 
1710	 4.19669806360515E-02 
1711	 4.25314785394059E-02 
1712	 4.27521635320848E-02 
1713	 4.16248076536946E-02 
1714	 4.08622769821793E-02 
1715	 4.12369256797536E-02 
1716	 4.10703122185224E-02 
1717	 3.96003514035323E-02 
1718	 3.95972331862288E-02 
1719	 3.97233706890265E-02 
1720	 3.92353370493074E-02 
1721	 4.05511226661585E-02 
1722	 4.19937247276315E-02 
1723	 4.18800062530496E-02 
1724	 4.11712216363925E-02 
1725	 4.03888888125442E-02 
1726	 4.07844489339525E-02 
1727	 4.12871883374255E-02 
1728	 4.13742725826575E-02 
1729	 4.21806379479688E-02 
1730	 0.040825006263532 
1731	 0.038049678238578 
1732	 3.86988545097177E-02 
1733	 4.00793806763364E-02 
1734	 0.040911257105705 
1735	 4.33382481500423E-02 
1736	 4.27185157724159E-02 
1737	 3.96917035599934E-02 
1738	 3.86826447774192E-02 
1739	 3.79408249298734E-02 
1740	 3.94995410857908E-02 
1741	 4.21357838633836E-02 
1742	 4.10255780351849E-02 
1743	 4.07636358567331E-02 
1744	 4.05148594942505E-02 
1745	 0.037646807063617 
1746	 0.039502936118035 
1747	 4.02491439554084E-02 
1748	 4.02279122086472E-02 
1749	 0.040070944807428 
1750	 3.98233960742587E-02 
1751	 3.96878990599327E-02 
1752	 3.93960529121614E-02 
1753	 3.97762230393449E-02 
1754	 0.040569822133546 
1755	 4.00199871700359E-02 
1756	 3.81893863799321E-02 
1757	 3.84490080583611E-02 
1758	 4.00718121895889E-02 
1759	 4.05202147429051E-02 
1760	 4.05072791371799E-02 
1761	 3.91239413742384E-02 
1762	 3.52702691726057E-02 
1763	 3.38474738783403E-02 
1764	 3.46329188794701E-02 
1765	 3.29835067367078E-02 
1766	 3.23089560182044E-02 
1767	 3.38023630874159E-02 
1768	 3.27281267165975E-02 
1769	 0.032798297534279 
1770	 0.036252346426431 
1771	 3.61003264285427E-02 
1772	 0.035425978103665 
1773	 3.92499273176743E-02 
1774	 3.82749117199392E-02 
1775	 3.34007695887507E-02 
1776	 3.34034880953406E-02 
1777	 3.39517354463286E-02 
1778	 3.26840884664735E-02 
1779	 3.40137141468916E-02 
1780	 3.46279855532092E-02 
1781	 3.10491434945583E-02 
1782	 3.13989062106706E-02 
1783	 3.97774702769915E-02 
1784	 4.10310289999216E-02 
1785	 3.62090839853321E-02 
1786	 3.37474787147595E-02 
1787	 2.74149609429258E-02 
1788	 2.56560493664734E-02 
1789	 3.00785186410279E-02 
1790	 2.90753606953637E-02 
1791	 2.86165551648628E-02 
1792	 2.59394536126806E-02 
1793	 2.00911872403144E-02 
1794	 2.09430205976111E-02 
1795	 1.94413205808558E-02 
1796	 2.38403287149541E-02 
1797	 3.03655437874239E-02 
1798	 1.28049652808318E-02 
1799	 1.19866714101704E-02 
1800	 0.028328531117474 
1801	 3.09977363836767E-02 
1802	 7.68502296181572E-02 
1803	 9.32849159208187E-02 
1804	 0.021328698745019 
1805	 4.0604731330847E-03 
1806	 3.21055482186402E-02 
1807	 2.94988381978603E-02 
1808	 5.43193079759306E-02 
1809	 0.121676310199451 
1810	 7.92724561373592E-02 
1811	 0.160674929111198 
1812	 0.415458136897827 
1813	 0.472019219389741 
1814	-0.751715129294688 
1815	 0.233735962244407 
1816	-110.020599971787 
1817	-1.71400247452871 
1818	-0.260139398251667 
1819	-0.644399188057422 
1820	-2.78697947404696 
1821	 0.555727908411792 
1822	 0.446625033332349 
1823	 0.166555251029342 
1824	 0.4697361783903 
1825	 0.478898946110824 
1826	 0.415306787481817 
1827	-7.29500584753071 
1828	 0.242650733604994 
1829	-3.22351486121634 
1830	-2.24118448855809 
1831	 2.78829985307192 
1832	 2.36751785599982 
1833	 0.691213001902368 
1834	 0.409029336397621 
1835	-1.73859549490643 
1836	 34.9337658203462 
1837	 0.919524908595931 
1838	 3.50863967343185 
1839	 7.46409058418442E-02 
1840	-0.129499221676204 
1841	-0.355726721654361 
1842	-0.264902646173191 
1843	-0.240775160588145 
1844	-0.151638032976374 
1845	-0.994837033450808 
1846	-1.46173882825245 
1847	-1.46842975490056 
1848	-2.15468086360617 
1849	-1.11123477760287 
1850	-0.193054502354542 
1851	 0.787325726596483 
1852	 1.41984422289476 
1853	 3.17274074999096 
1854	-3.45911850177497 
1855	 0.612382876223558 
1856	 0.432233028440257 
1857	-2.5321157133436 
1858	-3.15467431706508 
1859	-0.510406391961782 
1860	 0.406879432597779 
1861	-0.86440874730879 
1862	 0.892166312520806 
1863	 6.1291077834644 
1864	-23.0639074128175 
1865	-5.35526013176727 
1866	-0.708184141015055 
1867	-0.634470766222595 
1868	-2.34021976534691 
1869	 3.33535156735151 
1870	 0.567072881690674 
1871	 0.212579559548769 
1872	-0.453222639582835 
1873	-0.656544742785555 
1874	-0.285815514917872 
1875	-6.66676881419465E-02 
1876	-4.14840393057595E-03 
1877	 0.109979827913494 
1878	 0.186795015502334 
1879	 0.453197431270757 
1880	 0.44874182656855 
1881	 0.203092915413868 
1882	 0.376018533516344 
1883	-0.509617778976297 
1884	-1.08066396714596 
1885	-2.25845316723426 
1886	 0.519962242430138 
1887	 0.652038005849055 
1888	 1.73064371915241 
1889	 2.49380949419816 
1890	 0.471123490433771 
1891	 0.448534767159184 
1892	 3.65722421201986 
1893	 3.35285855188261 
1894	 1.86213777521653 
1895	 1.26498336935627 
1896	 0.884200195946509 
1897	 0.537249083018881 
1898	-0.038894263004619 
1899	-3.69332551041472 
1900	-2.43763029392151 
1901	-0.344292872851812 
1902	-0.365569007870714 
1903	-0.878668329735982 
1904	-0.590696493484566 
1905	-0.321457354223725 
1906	-0.068727194696457 
1907	 0.224479175030073 
1908	 0.442931982960392 
1909	 2.95247419643723 
1910	-5.90818819836447 
1911	 0.149870034292885 
1912	 1.41165823257742 
1913	 1.66283216588042 
1914	 2.27457068837346 
1915	 1.70852844684539 
1916	 2.47892380277818 
1917	 4.42486953264911E-03 
1918	-0.446658538663393 
1919	-1.7427154444453 
1920	-1.52363180604236 
1921	-1.21632162279922 
1922	-0.900572352260434 
1923	-0.53000101025923 
1924	-0.503694227801826 
1925	-0.321464166199821 
1926	 0.222416975590072 
1927	 1.77815704102258 
1928	-3.6166505121935 
1929	 4.39836675999904 
1930	 0.411509007649302 
1931	-2.61409850862665E-03 
1932	-0.282990529588889 
1933	-1.11094795432532 
1934	-2.08260301339673 
1935	-2.08933036383449 
1936	 0.139104530172495 
1937	 0.423155048560403 
1938	 0.965657418072893 
1939	 1.98251586489708 
1940	-143.916193526542 
1941	 3.24075486817594 
1942	 2.61205299136564 
1943	-5.42121717778093 
1944	-2.65463711542427 
1945	-0.648301841110357 
1946	-0.214068069017016 
1947	-0.077121431058317 
1948	 0.174903505411239 
1949	 0.239494658348259 
1950	-1.65012428450799E-02 
1951	-0.168439081918662 
1952	-0.21250735303336 
1953	-0.192524173436924 
1954	-0.186021464370315 
1955	-0.159614415657771 
1956	-0.195382022869821 
1957	-0.155301317846693 
1958	-0.102266004380953 
1959	-4.55545639920192E-02 
1960	 5.03869071544906E-02 
1961	 6.17425895472266E-02 
1962	 5.38681715504302E-02 
1963	 5.64799025287967E-02 
1964	 4.29280709280593E-02 
1965	 2.51114988841559E-02 
1966	 0.018628470667478 
1967	 1.51570398252278E-02 
1968	 1.90012592969544E-02 
1969	 2.91103914378652E-02 
1970	 4.14486312092988E-02 
1971	 4.41243914682268E-02 
1972	 3.87765446907757E-02 
1973	 0.036798452055413 
1974	 3.51127712070338E-02 
1975	 0.033429245332063 
1976	 0.036073170536014 
1977	 3.56257518789925E-02 
1978	 3.15481686080999E-02 
1979	 2.91361881219473E-02 
1980	 2.94324002664376E-02 
1981	 3.17008824107094E-02 
1982	 3.21479768370817E-02 
1983	 3.63221553518875E-02 
1984	 4.22667720853445E-02 
1985	 4.16698084600804E-02 
1986	 3.98164877184656E-02 
1987	 0.035828514790597 
1988	 3.38091104551385E-02 
1989	 3.30631954376573E-02 
1990	 3.00897303212174E-02 
1991	 3.20385275404746E-02 
1992	 3.81072320048905E-02 
1993	 4.33884001246631E-02 
1994	 0.045815474845914 
1995	 0.049397352619352 
1996	 5.00333603430396E-02 
1997	 4.20107872846141E-02 
1998	 0.03419916957792 
1999	 3.73071695532485E-02 
2000	 4.07524096921308E-02 
2001	 4.77257692939403E-02 
2002	 0.059870951696633 
2003	 6.30907031978931E-02 
2004	 4.90386003865846E-02 
2005	 0.030154028808887 
2006	 3.37348152256012E-02 
2007	 4.58780738277841E-02 
2008	 4.60891814488118E-02 
2009	 0.048787201842999 
2010	 5.56790877363079E-02 
2011	 5.79426840441238E-02 
2012	 5.39469956821986E-02 
2013	 5.53064125913821E-02 
2014	 5.74670912384296E-02 
2015	 3.68252425477095E-02 
2016	 1.83452745487488E-02 
2017	 2.46505778550761E-02 
2018	 3.34197422852312E-02 
2019	 4.18578416949643E-02 
2020	 4.72357803323701E-02 
2021	 3.97466259254522E-02 
2022	 3.17898897559986E-02 
2023	 2.81141002483604E-02 
2024	 2.93545713519638E-02 
2025	 0.03886316802756 
2026	 3.95303144515896E-02 
2027	 3.94005537464177E-02 
2028	 3.83179320735457E-02 
2029	 3.30656430842448E-02 
2030	 2.90413268329278E-02 
2031	 0.030257103160722 
2032	 3.10359781022925E-02 
2033	 0.032040194891294 
2034	 0.032592129078301 
2035	 3.32453914352072E-02 
2036	 0.033916637669154 
2037	 0.033902916315289 
2038	 3.57252405933664E-02 
2039	 3.64386343559303E-02 
2040	 0.035728697936264 
2041	 3.60871991899481E-02 
2042	 0.037429821077187 
2043	 3.80373355480142E-02 
2044	 3.85384364615978E-02 
2045	 3.88557064971142E-02 
2046	 4.00280962980104E-02 
2047	 3.89507409132173E-02 
2048	 3.46689783958394E-02 
2049	 3.52397201582628E-02 
2050	 3.73934815822047E-02 
2051	 3.83010957289111E-02 
2052	 4.18424664045339E-02 
2053	 4.28851028816382E-02 
2054	 4.16762962263886E-02 
2055	 3.69584820966743E-02 
2056	 3.52633869364973E-02 
2057	 3.64986132431424E-02 
2058	 3.58318898173521E-02 
2059	 3.42737309272661E-02 
2060	 0.035287629056827 
2061	 3.87097012599835E-02 
2062	 3.50169176792271E-02 
2063	 3.40626518359069E-02 
2064	 3.47010696343705E-02 
2065	 3.31018990189333E-02 
2066	 3.09835067900881E-02 
2067	 0.033753832835835 
2068	 4.00292288599274E-02 
2069	 4.00429716971459E-02 
2070	 4.06588978238734E-02 
2071	 4.09486438975309E-02 
2072	 3.61824677819799E-02 
2073	 3.54897854973778E-02 
2074	 3.76834768624212E-02 
2075	 3.92696195808827E-02 
2076	 4.20625226975591E-02 
2077	 4.26148019606683E-02 
2078	 4.34733722193156E-02 
2079	 4.14727065662608E-02 
2080	 3.59032840972745E-02 
2081	 3.32361608372312E-02 
2082	 3.11594485615687E-02 
2083	 3.11396239736019E-02 
2084	 3.44273288968226E-02 
2085	 3.44714006848899E-02 
2086	 3.36642972554399E-02 
2087	 3.19083165334555E-02 
2088	 3.14732918203928E-02 
2089	 3.53677354767205E-02 
2090	 3.64404079177895E-02 
2091	 3.83451782684757E-02 
2092	 4.08944692753243E-02 
2093	 0.0437426109103 
2094	 4.31671219563225E-02 
2095	 4.16853442887035E-02 
2096	 4.15301518989305E-02 
2097	 3.87955273698081E-02 
2098	 3.69127440234696E-02 
2099	 3.64386158991464E-02 
2100	 3.77947776154887E-02 
2101	 3.79869185748504E-02 
2102	 3.56408003878978E-02 
2103	 3.68235431696532E-02 
2104	 0.039367039002848 
2105	 3.94317211894543E-02 
2106	 4.20851701066162E-02 
2107	 4.28907278211474E-02 
2108	 4.18069044765057E-02 
2109	 4.14955260699841E-02 
2110	 4.06526867882185E-02 
2111	 0.041557490826053 
2112	 4.29286458114486E-02 
2113	 4.39006970770785E-02 
2114	 4.53974235695011E-02 
2115	 4.47701639124399E-02 
2116	 4.22876683725634E-02 
2117	 4.16798835488415E-02 
2118	 4.03757318534499E-02 
2119	 3.94286760076231E-02 
2120	 3.93429674312367E-02 
2121	 4.07699088845416E-02 
2122	 4.08391494649051E-02 
2123	 0.039066362230606 
2124	 4.06619147012208E-02 
2125	 4.14574637773444E-02 
2126	 3.92125950344189E-02 
2127	 3.86888527830405E-02 
2128	 3.84103648134305E-02 
2129	 3.82338433262402E-02 
2130	 3.95771571187421E-02 
2131	 4.30400408383543E-02 
2132	 4.48186360509509E-02 
2133	 4.30338213982423E-02 
2134	 4.22183348503367E-02 
2135	 4.14155122995592E-02 
2136	 3.90351320730761E-02 
2137	 3.41331047563649E-02 
2138	 3.29330650859836E-02 
2139	 3.16327487403651E-02 
2140	 3.12240671494373E-02 
2141	 3.53085334312797E-02 
2142	 3.69118517533145E-02 
2143	 3.69111039281856E-02 
2144	 3.73377850060934E-02 
2145	 4.02403896345431E-02 
2146	 0.039235510116903 
2147	 3.86219559486352E-02 
2148	 3.86802687571196E-02 
2149	 3.64471199465135E-02 
2150	 3.51452470109538E-02 
2151	 3.50325002953359E-02 
2152	 0.035956844766437 
2153	 3.77326543750017E-02 
2154	 3.80998665394066E-02 
2155	 3.85659063842232E-02 
2156	 3.85969495226843E-02 
2157	 3.87761795044887E-02 
2158	 3.98279197941902E-02 
2159	 3.92730627006574E-02 
2160	 0.037104484130462 
2161	 3.63602959662635E-02 
2162	 3.43846282711628E-02 
2163	 3.25227212296631E-02 
2164	 3.18294532917376E-02 
2165	 3.21647711210561E-02 
2166	 3.36920231830425E-02 
2167	 3.40622899835842E-02 
2168	 3.39713617876903E-02 
2169	 3.53499537297955E-02 
2170	 3.83693274634271E-02 
2171	 3.55239376221432E-02 
2172	 3.64647319737666E-02 
2173	 3.80916354695404E-02 
2174	 3.56972888657994E-02 
2175	 3.83204865578556E-02 
2176	 4.02375763318732E-02 
2177	 3.77531582553878E-02 
2178	 3.59055062802417E-02 
2179	 3.20527689977696E-02 
2180	 3.22923711909022E-02 
2181	 0.036867068816514 
2182	 0.037545849452439 
2183	 4.04203908786273E-02 
2184	 0.043048960798901 
2185	 4.11065119353198E-02 
2186	 3.95524895455862E-02 
2187	 3.76265468937222E-02 
2188	 3.63282967694732E-02 
2189	 3.12760083895708E-02 
2190	 3.16398584926317E-02 
2191	 3.93993644417909E-02 
2192	 4.21767722556621E-02 
2193	 4.36310727309508E-02 
2194	 0.046910936635578 
2195	 5.03020494786807E-02 
2196	 4.84512910158119E-02 
2197	 4.47420817455743E-02 
2198	 4.20742916521618E-02 
2199	 3.39269777531658E-02 
2200	 0.031057513767923 
2201	 3.16154652091444E-02 
2202	 3.13441684157746E-02 
2203	 3.10772470955824E-02 
2204	 2.91083281083699E-02 
2205	 2.79826670993049E-02 
2206	 2.90930226907928E-02 
2207	 2.98654805086054E-02 
2208	 3.10262586296403E-02 
2209	 3.00468847096346E-02 
2210	 2.85946385378104E-02 
2211	 2.90592174148975E-02 
2212	 2.87258966125851E-02 
2213	 2.95707258189181E-02 
2214	 3.21727061611552E-02 
2215	 3.39693872710008E-02 
2216	 3.49726503647885E-02 
2217	 3.70045996842778E-02 
2218	 4.00798202503696E-02 
2219	 4.18467144423947E-02 
2220	 4.45055716911141E-02 
2221	 4.35963922082586E-02 
2222	 4.02324155146437E-02 
2223	 3.79615761336028E-02 
2224	 3.18415543086966E-02 
2225	 3.03214216949245E-02 
2226	 0.032347831102926 
2227	 3.27359939001671E-02 
2228	 3.33855746539468E-02 
2229	 3.59697850648758E-02 
2230	 4.07470191566593E-02 
2231	 4.21014955291411E-02 
2232	 4.54554546391829E-02 
2233	 4.58812933017492E-02 
2234	 4.21451610804613E-02 
2235	 3.66641606679079E-02 
2236	 3.75161617060477E-02 
2237	 3.63544587284677E-02 
2238	 3.82466871100922E-02 
2239	 4.12544220708263E-02 
2240	 4.05694431462625E-02 
2241	 4.13147247752714E-02 
2242	 4.49280200190511E-02 
2243	 4.57834156313005E-02 
2244	 0.040155846557197 
2245	 3.48308564833827E-02 
2246	 0.029659185487383 
2247	 2.81041138474008E-02 
2248	 3.14784832771356E-02 
2249	 3.89070703423721E-02 
2250	 0.047747459489875 
2251	 4.47026439016701E-02 
2252	 4.24316300816705E-02 
2253	 4.18206017847581E-02 
2254	 3.73980600414191E-02 
2255	 0.039503388574808 
2256	 3.66094095327735E-02 
2257	 3.12491871004854E-02 
2258	 3.28136964625921E-02 
2259	 3.41883728005325E-02 
2260	 3.50417279238279E-02 
2261	 4.32666140904737E-02 
2262	 4.43285966285652E-02 
2263	 3.52863572415085E-02 
2264	 3.59355158125347E-02 
2265	 4.18986142411736E-02 
2266	 4.41407069368549E-02 
2267	 5.10609387595608E-02 
2268	 5.09163218423863E-02 
2269	 4.10444838354137E-02 
2270	 3.86820853591124E-02 
2271	 3.69823211681681E-02 
2272	 3.80884401418375E-02 
2273	 4.76913441226459E-02 
2274	 0.050581483436373 
2275	 5.03053203587849E-02 
2276	 5.01153285556352E-02 
2277	 4.42001302380841E-02 
2278	 4.18278382164725E-02 
2279	 4.36425381486828E-02 
2280	 4.38607116029199E-02 
2281	 4.48058978922988E-02 
2282	 4.45194176231683E-02 
2283	 3.82057862042475E-02 
2284	 3.61006555847716E-02 
2285	 3.18037071118193E-02 
2286	 3.10808783708926E-02 
2287	 3.67901844191487E-02 
2288	 2.93713774156539E-02 
2289	 2.69047841679672E-02 
2290	 2.61547244149947E-02 
2291	 2.29834405658381E-02 
2292	 2.45947711747684E-02 
2293	 1.68440341468885E-02 
2294	 1.92713935076922E-02 
2295	 2.72926650299573E-02 
2296	 3.10497953850678E-02 
2297	 4.10195347464759E-02 
2298	 4.51497152688883E-02 
2299	 4.83251379324362E-02 
2300	 0.051738958186754 
2301	 5.14878650692876E-02 
2302	 4.11880726685691E-02 
2303	 2.98840963723889E-02 
2304	 2.77258437561929E-02 
2305	 2.41632846756035E-02 
2306	 2.72974017853648E-02 
2307	 0.026993905442628 
2308	 2.70984137670013E-02 
2309	 3.42024644186125E-02 
2310	 3.42361701356781E-02 
2311	 3.91562566653049E-02 
2312	 3.82094126419213E-02 
2313	 2.82494696400774E-02 
2314	 1.79023273494166E-02 
2315	 8.19343091763684E-03 
2316	 1.42268880631192E-02 
2317	 1.87844012189729E-02 
2318	 1.14093583897634E-02 
2319	 4.65699207969836E-03 
2320	-2.39551237014234E-03 
2321	 3.39527350469785E-03 
2322	 1.88553790851711E-02 
2323	 2.22780075002896E-02 
2324	 2.41251505355913E-02 
2325	 2.69749882015225E-02 
2326	 2.55147001082303E-02 
2327	 3.57825876603101E-02 
2328	 5.23092840642933E-02 
2329	 0.044928248595609 
2330	 0.030247999395868 
2331	 2.64072105797762E-02 
2332	 1.56509981609453E-02 
2333	 6.99435059550184E-03 
2334	-8.19236360370186E-04 
2335	 7.08338749051104E-03 
2336	 2.33801538315942E-02 
2337	 2.12149711143877E-02 
2338	 3.69078697209101E-02 
2339	 0.043696490892222 
2340	 1.07060709443322E-02 
2341	-1.69167314277919E-03 
2342	-6.49542094337058E-03 
2343	-2.27397008767574E-02 
2344	-4.1060277030439E-03 
2345	 3.96429964844378E-03 
2346	-1.21306896099599E-02 
2347	-7.93372581555268E-03 
2348	-3.09586190610455E-03 
2349	 0.013730580340927 
2350	 4.78106611733444E-02 
2351	 5.89762752507153E-02 
2352	 6.85829946680919E-02 
2353	 6.89572797239839E-02 
2354	 2.99552040972142E-02 
2355	 9.99547100851196E-03 
2356	 3.05231362592593E-03 
2357	-1.04620343835462E-02 
2358	 1.31818066437804E-02 
2359	 0.048281075148201 
2360	 3.15614485718707E-02 
2361	 1.40976634917101E-02 
2362	 2.60363798987824E-02 
2363	 1.34825581308586E-02 
2364	 4.22655580593505E-02 
2365	 0.107599709863864 
2366	 0.112924234240512 
2367	 0.11127711563728 
2368	 0.080801336504483 
2369	-0.027817038171832 
2370	-7.43534511369796E-02 
2371	-5.58883675331411E-02 
2372	-9.93342236466824E-02 
2373	-0.127840713202315 
2374	-0.107496981830972 
2375	-0.156851442701166 
2376	-0.216112387333699 
2377	-0.120725669398356 
2378	-2.41233184018977E-02 
2379	-4.62936355290545E-03 
2380	 7.63620933984527E-02 
2381	-8.61997869947053E-03 
2382	-0.172305917480394 
2383	-0.195241948197599 
2384	-0.193558961379764 
2385	-0.163309560523051 
2386	-8.14283223430395E-02 
2387	-2.47226415922412E-02 
2388	-3.90207085460668E-02 
2389	-7.98450758233698E-02 
2390	 1.40949380897798E-02 
2391	 7.07496247602749E-03 
2392	-7.93523431496697E-02 
2393	-8.79601885398172E-02 
2394	-0.236185508859962 
2395	-0.22790881910097 
2396	-0.165412893351333 
2397	-0.115898358205856 
2398	-0.143352199541141 
2399	-0.205767051700814 
2400	-0.148234369270907 
2401	-0.161163331311919 
2402	 3.08747209551834E-02 
2403	 0.220434012003346 
2404	 8.90233843355177E-02 
2405	-5.03539537051774E-03 
2406	-7.21579438256327E-02 
2407	-0.155969109053643 
2408	-0.136621581363888 
2409	 6.40694484223629E-02 
2410	 9.51140568403779E-02 
2411	-5.45485589583989E-02 
2412	-6.92166810812167E-02 
2413	-0.414920861608947 
2414	-0.574867832793802 
2415	-0.549811659155868 
2416	-0.475213209781504 
2417	-0.207821253435172 
2418	-6.25102639171233E-02 
2419	 6.95519851286647E-02 
2420	 0.330427227929472 
2421	 0.153528285300994 
2422	-0.422106853891283 
2423	-1.08325166028503 
2424	-2.24528302248606 
2425	-2.20972135240124 
2426	-3.08154430009984 
2427	-0.588367557188688 
2428	-6.80300263232002E-02 
2429	 8.58785660100613E-02 
2430	-1.14371497636977E-02 
2431	 0.266826511705377 
2432	 0.466541310112279 
2433	 0.430746319393307 
2434	 0.821474964059269 
2435	 0.855123209914173 
2436	-7.87782095089124E-02 
2437	-157.532143378953 
2438	 1.69086021715589 
2439	 7.18340733876199 
2440	-68.4156582037458 
2441	-18.6177771343207 
2442	 0.127131432588622 
2443	 0.59096725762846 
2444	 4.13847239806872 
2445	 4.47072139109785 
2446	 1.62917969587079 
2447	 0.637345404821546 
2448	 0.384687120467122 
2449	-0.2814797804753 
2450	-0.465040513786539 
2451	 7.51906111513777E-02 
2452	 5.31579498184241E-02 
2453	-0.448236785920678 
2454	-0.603590350360126 
2455	-0.447138038837925 
2456	-0.516658996525739 
2457	-0.635559576876353 
2458	-0.999832088551804 
2459	-2.75461815743979 
2460	-3.48079721798641 
2461	-1.04606275660066 
2462	 0.226365570094035 
2463	 0.722829960807376 
2464	 0.778579372109249 
2465	 0.417510210360885 
2466	-2.47300600130098E-02 
2467	-0.708550769671219 
2468	-0.707016952765043 
2469	 1.33279386301694 
2470	-5.11603134760756 
2471	-12.2134134166227 
2472	-4.34495080883651 
2473	-1.6104237146761 
2474	-1.21837476016393 
2475	 0.344832452759507 
2476	 0.25171268580098 
2477	 0.520201271995977 
2478	 1.08157983693654 
2479	 0.17536163993453 
2480	 0.325816143654946 
2481	 0.600887471091514 
2482	 0.542775939759187 
2483	 0.400067950647846 
2484	 0.345340435111008 
2485	 0.258045610066557 
2486	 0.387542618548972 
2487	 1.25001044896496 
2488	 1.09364075248681 
2489	 0.734347462398115 
2490	 0.58558828931101 
2491	-6.23561921758899E-03 
2492	 8.20410770146269E-02 
2493	 0.645805086384091 
2494	 0.743746483239083 
2495	 2.87592180617176 
2496	-10.4525132891545 
2497	-2.36472452923288 
2498	-7.94090179642013 
2499	-5.97922756713459 
2500	-1.21100160892263 
