Wavelength	rt0713east_far200006.asd
350	 0.105452859800916 
351	 0.104722437162391 
352	 0.104251804925714 
353	 0.104084514233937 
354	 0.103833097203936 
355	 0.102905271857473 
356	 0.102558517262738 
357	 0.102921667681903 
358	 0.103553442190366 
359	 0.103488817075128 
360	 0.103076184317294 
361	 0.102709203804231 
362	 0.102713040330932 
363	 0.102878547568678 
364	 0.102744529442582 
365	 0.10235960388881 
366	 0.102580678366709 
367	 0.101876699165129 
368	 0.10168722310391 
369	 0.102989214740895 
370	 0.102303233150061 
371	 0.102150510706935 
372	 0.102764348654144 
373	 0.102985072899761 
374	 0.102566311323155 
375	 0.10228296826106 
376	 0.102452577476266 
377	 0.102606104456924 
378	 0.102981232793294 
379	 0.10288721018826 
380	 0.10203445465913 
381	 0.101865229791587 
382	 0.102394968325483 
383	 0.103057655835245 
384	 0.103124363131865 
385	 0.103008737108189 
386	 0.103483811111272 
387	 0.104015060974971 
388	 0.102773689725274 
389	 0.102856411259464 
390	 0.10344207012097 
391	 0.103527693059153 
392	 0.103735141703949 
393	 0.103335459787848 
394	 0.102959918109594 
395	 0.103395736627489 
396	 0.103505587856016 
397	 0.103634552608471 
398	 0.10380493746018 
399	 0.103717021716387 
400	 0.103767765244437 
401	 0.103862389698488 
402	 0.103840011895502 
403	 0.103489235232035 
404	 0.10370997268904 
405	 0.104109617865427 
406	 0.104009719781838 
407	 0.104180396268317 
408	 0.104263369723059 
409	 0.104244308194122 
410	 0.104483034228837 
411	 0.104597704196463 
412	 0.104584801828092 
413	 0.104564978997547 
414	 0.104782513929607 
415	 0.105029362503549 
416	 0.105161375455231 
417	 0.105152758724692 
418	 0.105524933519924 
419	 0.105672173800227 
420	 0.10554623360755 
421	 0.105761034745224 
422	 0.106155219734397 
423	 0.106466784056028 
424	 0.106586704288684 
425	 0.106903733472351 
426	 0.107174875552564 
427	 0.107406770786464 
428	 0.107716971886009 
429	 0.108095805298156 
430	 0.108557688442557 
431	 0.10894425759124 
432	 0.108913803064712 
433	 0.109223344147956 
434	 0.109630542927944 
435	 0.109860812731035 
436	 0.110250913101714 
437	 0.110662491305742 
438	 0.111015049191922 
439	 0.111272640525572 
440	 0.111487380500107 
441	 0.111765506086664 
442	 0.112124867295615 
443	 0.112452388477823 
444	 0.112752896615229 
445	 0.113060199052553 
446	 0.11338494087524 
447	 0.113580716386068 
448	 0.114009653979533 
449	 0.11448327360906 
450	 0.114478158914019 
451	 0.114731332521261 
452	 0.115023128699392 
453	 0.115197201511416 
454	 0.115508463929334 
455	 0.115981512768618 
456	 0.116276348716393 
457	 0.116136527357411 
458	 0.116506206219422 
459	 0.116774318330517 
460	 0.116839164607954 
461	 0.117163443456536 
462	 0.117284659818659 
463	 0.117403614723592 
464	 0.117691170370429 
465	 0.117878726803439 
466	 0.118007447568629 
467	 0.118140721259503 
468	 0.118349955314008 
469	 0.118616233647802 
470	 0.118846698450266 
471	 0.119015769408235 
472	 0.119194809059398 
473	 0.119353409097815 
474	 0.119558221622536 
475	 0.119854421717847 
476	 0.120145292264398 
477	 0.120321299829915 
478	 0.120531182542782 
479	 0.121032917595037 
480	 0.12118086182384 
481	 0.121336080350917 
482	 0.121741114904641 
483	 0.122127217000282 
484	 0.122489534106563 
485	 0.122778094165763 
486	 0.123008842238736 
487	 0.123568012840394 
488	 0.12392034249557 
489	 0.124060816107703 
490	 0.124510829820541 
491	 0.124754935115303 
492	 0.125045453281206 
493	 0.125570742227528 
494	 0.125956511651293 
495	 0.12628763302257 
496	 0.126659395168881 
497	 0.127145565901598 
498	 0.127511478077217 
499	 0.12792056523405 
500	 0.12838255146144 
501	 0.128605364220055 
502	 0.128970542094797 
503	 0.129413448878408 
504	 0.129796621821843 
505	 0.130223420058109 
506	 0.130871743430779 
507	 0.131578862494169 
508	 0.131949517579523 
509	 0.132338406263095 
510	 0.132823437326458 
511	 0.13339170224292 
512	 0.133946289783955 
513	 0.134477698451716 
514	 0.134983101023237 
515	 0.135489847656311 
516	 0.136206160307301 
517	 0.13682171692886 
518	 0.137217316097243 
519	 0.137567839607704 
520	 0.138169922781143 
521	 0.138826182505087 
522	 0.139339925107075 
523	 0.139952352642399 
524	 0.140505462307198 
525	 0.141009707910407 
526	 0.141592500940526 
527	 0.142197518684345 
528	 0.142791307514595 
529	 0.143376727748001 
530	 0.144030266079841 
531	 0.144692448848722 
532	 0.145302203259367 
533	 0.145821734921622 
534	 0.146340649720701 
535	 0.146991369481119 
536	 0.147728916130295 
537	 0.148309020453484 
538	 0.148695181125234 
539	 0.149209494620909 
540	 0.150016785589657 
541	 0.150468973432631 
542	 0.150981473753361 
543	 0.151679134762811 
544	 0.152465708026214 
545	 0.152980081388326 
546	 0.153501714247583 
547	 0.154190097400527 
548	 0.15481074844123 
549	 0.155473068480726 
550	 0.156128638447909 
551	 0.156711798927125 
552	 0.157357162569785 
553	 0.158025699197197 
554	 0.158609510754905 
555	 0.158943346331636 
556	 0.159630800978132 
557	 0.160349209974091 
558	 0.160775433778092 
559	 0.161407467070461 
560	 0.161906463903416 
561	 0.162311469796261 
562	 0.162867483710264 
563	 0.163294666323319 
564	 0.163715735050861 
565	 0.164156193209868 
566	 0.164333090083188 
567	 0.164671984074838 
568	 0.165075191197678 
569	 0.165321068734289 
570	 0.165702687486173 
571	 0.166049660019559 
572	 0.166322456023097 
573	 0.16664540701339 
574	 0.16686266786326 
575	 0.16710257265376 
576	 0.167456924807672 
577	 0.167688022471048 
578	 0.167967361703768 
579	 0.16827646142821 
580	 0.168499766389 
581	 0.168824121778764 
582	 0.16908497605387 
583	 0.169144700471384 
584	 0.168980488602665 
585	 0.168714614452543 
586	 0.168316006179727 
587	 0.167728718059064 
588	 0.167109881835651 
589	 0.16678422094576 
590	 0.166827380990709 
591	 0.1670019094996 
592	 0.166971767874992 
593	 0.166805561735262 
594	 0.166663623613833 
595	 0.166676111740657 
596	 0.166659963748563 
597	 0.166563597046123 
598	 0.16642439279418 
599	 0.166331738156523 
600	 0.166252233004903 
601	 0.16617519165817 
602	 0.166165252970041 
603	 0.166025004522214 
604	 0.165922383184587 
605	 0.166038935699995 
606	 0.165959895871547 
607	 0.165988333778517 
608	 0.166145207872598 
609	 0.166135067001415 
610	 0.166106025044785 
611	 0.166115185380207 
612	 0.166175964977133 
613	 0.166229001256117 
614	 0.166282655681503 
615	 0.166285808730599 
616	 0.166192117835558 
617	 0.166279598691376 
618	 0.166382867879123 
619	 0.16640454995573 
620	 0.166435270906601 
621	 0.166425816768052 
622	 0.166400591871451 
623	 0.166399124884533 
624	 0.166436921610219 
625	 0.166296959618025 
626	 0.166057689621493 
627	 0.166070623540292 
628	 0.166135690148144 
629	 0.166230555455918 
630	 0.166356277650277 
631	 0.166509181563262 
632	 0.166521641206222 
633	 0.166452466258627 
634	 0.166466702385727 
635	 0.166566524456737 
636	 0.166717071344792 
637	 0.166863516498803 
638	 0.166933595425421 
639	 0.16699988086833 
640	 0.167004886535089 
641	 0.166898443078437 
642	 0.166825640506598 
643	 0.166595622781894 
644	 0.166151656130341 
645	 0.16556703674837 
646	 0.165018283093652 
647	 0.16475693561176 
648	 0.164866689081186 
649	 0.165092802145564 
650	 0.165002539074262 
651	 0.164767590218241 
652	 0.164716937753269 
653	 0.16435903818885 
654	 0.163847142152874 
655	 0.163372418100727 
656	 0.16316593685898 
657	 0.163178252239073 
658	 0.163072039350966 
659	 0.162681120605057 
660	 0.162477813796509 
661	 0.162224557666863 
662	 0.161936517079635 
663	 0.16177140648773 
664	 0.16158434690728 
665	 0.161396381236175 
666	 0.161243600785122 
667	 0.161169399750492 
668	 0.160874272696619 
669	 0.160655269832999 
670	 0.160830879699993 
671	 0.160748056607559 
672	 0.160767685365458 
673	 0.160920247626834 
674	 0.160905685960245 
675	 0.161002525964878 
676	 0.161033026538305 
677	 0.160939085607799 
678	 0.161191719639558 
679	 0.161387905812455 
680	 0.161501756144324 
681	 0.161667402657568 
682	 0.161854187724531 
683	 0.161999941815441 
684	 0.161952178906334 
685	 0.161406990205601 
686	 0.160950203988683 
687	 0.160759158147309 
688	 0.160832110029042 
689	 0.161307026065409 
690	 0.161165111918651 
691	 0.160395720287098 
692	 0.159635095471496 
693	 0.159236594346182 
694	 0.159434030963212 
695	 0.16000463300078 
696	 0.160302568904786 
697	 0.15980330267497 
698	 0.158750233002709 
699	 0.157769870995281 
700	 0.157423527609298 
701	 0.157405996270698 
702	 0.157384345441891 
703	 0.157090358943005 
704	 0.156486516103892 
705	 0.155881827295583 
706	 0.155429259862947 
707	 0.154778677868598 
708	 0.154161220714903 
709	 0.153406893701738 
710	 0.152326435050655 
711	 0.151463053776432 
712	 0.150421654277161 
713	 0.148906781652698 
714	 0.146729101752781 
715	 0.144001404009104 
716	 0.140822307347971 
717	 0.137872642748387 
718	 0.135985025865789 
719	 0.13548227374647 
720	 0.135411661612679 
721	 0.13469803459074 
722	 0.133106266188409 
723	 0.130595128055171 
724	 0.128009385469475 
725	 0.126645149721006 
726	 0.125211283792451 
727	 0.123615940064688 
728	 0.121936350973638 
729	 0.119711748732389 
730	 0.118215888464247 
731	 0.117445134139401 
732	 0.116655202122112 
733	 0.115509673976325 
734	 0.114298493920043 
735	 0.113246287530993 
736	 0.112449742997195 
737	 0.112142793228478 
738	 0.112053931673848 
739	 0.111923783862788 
740	 0.111884609681541 
741	 0.1119924462607 
742	 0.112123531048987 
743	 0.112083066174113 
744	 0.11188695898166 
745	 0.111853514669768 
746	 0.112027820850733 
747	 0.112056616100427 
748	 0.111989535451671 
749	 0.11183461099526 
750	 0.111681956551136 
751	 0.111913721717596 
752	 0.111890244631876 
753	 0.111624441382951 
754	 0.111499234613198 
755	 0.111611234933505 
756	 0.111674611681508 
757	 0.111391106463747 
758	 0.110206886223882 
759	 0.108523072466671 
760	 0.107063976386858 
761	 0.107007246243045 
762	 0.107075114132945 
763	 0.108190538674982 
764	 0.109551355295794 
765	 0.110255447229091 
766	 0.110988070502405 
767	 0.111561297635834 
768	 0.111937009165564 
769	 0.112217311684357 
770	 0.11253482392023 
771	 0.112807291575555 
772	 0.112954291606625 
773	 0.113006167906034 
774	 0.1132199471928 
775	 0.113501606676588 
776	 0.113649314412261 
777	 0.113839189220771 
778	 0.114235532729491 
779	 0.114653881888337 
780	 0.114615944502138 
781	 0.1147813127379 
782	 0.115050531184004 
783	 0.115270369219964 
784	 0.115519210141292 
785	 0.115493195007388 
786	 0.115413703146274 
787	 0.115615546004339 
788	 0.115862768208102 
789	 0.116119992212195 
790	 0.116514872705819 
791	 0.117243153070389 
792	 0.11786394962886 
793	 0.118188310140933 
794	 0.11822384374313 
795	 0.118188354533054 
796	 0.118543544538432 
797	 0.119033025558472 
798	 0.119327664044228 
799	 0.119622542771315 
800	 0.119599043074362 
801	 0.119656448650179 
802	 0.120373289113859 
803	 0.120435133990253 
804	 0.1207667379086 
805	 0.121414472339549 
806	 0.121326380310821 
807	 0.121122834864711 
808	 0.120616097665251 
809	 0.11976125435948 
810	 0.119314958563258 
811	 0.118337980341556 
812	 0.116956212072253 
813	 0.115827881454643 
814	 0.115363554392115 
815	 0.114730973391302 
816	 0.113990706577131 
817	 0.113926801046226 
818	 0.114234338493345 
819	 0.114224213460449 
820	 0.113674139459225 
821	 0.112855565979347 
822	 0.1114805011968 
823	 0.110423813266188 
824	 0.109991128407492 
825	 0.108638667269802 
826	 0.106852480571858 
827	 0.105144531523101 
828	 0.103994527164594 
829	 0.102414133640412 
830	 0.100895834800176 
831	 9.98409696478591E-02 
832	 9.94692679864657E-02 
833	 9.92924831222709E-02 
834	 9.89063101189657E-02 
835	 9.82826713433071E-02 
836	 9.78273474780507E-02 
837	 9.77822415262287E-02 
838	 9.79224665731903E-02 
839	 9.79150676530967E-02 
840	 9.74064493624419E-02 
841	 9.71575081234752E-02 
842	 9.71384544088464E-02 
843	 9.70294251269138E-02 
844	 9.67145644083097E-02 
845	 0.096397209877383 
846	 9.63295716527503E-02 
847	 9.66373408284752E-02 
848	 9.62180734344105E-02 
849	 9.56210964239697E-02 
850	 9.52596808796952E-02 
851	 9.50844198939515E-02 
852	 9.48736849699218E-02 
853	 9.47862393095818E-02 
854	 9.47860850891089E-02 
855	 9.42565166225944E-02 
856	 9.40166798832567E-02 
857	 9.39997736270572E-02 
858	 9.39434470217649E-02 
859	 0.093871314021472 
860	 9.37058286980698E-02 
861	 9.35191530444509E-02 
862	 9.34079409608863E-02 
863	 9.30987113444431E-02 
864	 9.29645254273007E-02 
865	 9.28629750520087E-02 
866	 9.23045655376081E-02 
867	 9.27480046022166E-02 
868	 9.25184983359061E-02 
869	 9.13679638177332E-02 
870	 9.13451344302052E-02 
871	 9.14715161486118E-02 
872	 9.12140110111253E-02 
873	 9.05664657893708E-02 
874	 9.05015987952404E-02 
875	 9.03964786884644E-02 
876	 8.98734093449813E-02 
877	 8.90017433505975E-02 
878	 8.91076451496279E-02 
879	 8.90043582287494E-02 
880	 8.86765839842695E-02 
881	 8.85476195541241E-02 
882	 8.79737557635535E-02 
883	 8.73400594444856E-02 
884	 8.69222728518715E-02 
885	 8.68158780997901E-02 
886	 8.68509310892746E-02 
887	 8.63772598584474E-02 
888	 0.085614522479338 
889	 8.56689229593591E-02 
890	 8.48434083916454E-02 
891	 8.40515675143455E-02 
892	 8.37986330577555E-02 
893	 8.28600250396475E-02 
894	 8.22024513089296E-02 
895	 8.12572172249727E-02 
896	 0.079545497785876 
897	 7.83193122815621E-02 
898	 7.88282131938351E-02 
899	 7.96132314078866E-02 
900	 7.89508756267176E-02 
901	 7.78069537284278E-02 
902	 0.078714755715594 
903	 7.96783897666968E-02 
904	 7.81577859183708E-02 
905	 7.78031873733453E-02 
906	 7.79382167527007E-02 
907	 7.75885898319104E-02 
908	 7.60996586751456E-02 
909	 0.076687616705105 
910	 7.55641666781997E-02 
911	 7.36882867124317E-02 
912	 7.58075269229714E-02 
913	 7.46243081388718E-02 
914	 7.27898385497232E-02 
915	 0.072480295471434 
916	 7.33349480101886E-02 
917	 0.071700573157877 
918	 0.071200486835803 
919	 7.26129125211945E-02 
920	 0.072027263863704 
921	 7.27627543519171E-02 
922	 7.22838365112814E-02 
923	 6.94307528911432E-02 
924	 6.82622496985176E-02 
925	 7.02797697072053E-02 
926	 7.12056463951242E-02 
927	 6.68903486013784E-02 
928	 6.27816865409072E-02 
929	 6.42248662496252E-02 
930	 6.78044162590256E-02 
931	 6.46604183309057E-02 
932	 6.55003605244127E-02 
933	 6.11821153574898E-02 
934	 5.62742305313381E-02 
935	 6.05827869707527E-02 
936	 6.96961854706744E-02 
937	 6.89149957666858E-02 
938	 6.32281055639016E-02 
939	 6.00480004919413E-02 
940	 5.21040336811158E-02 
941	 5.42433245604419E-02 
942	 5.89748555960909E-02 
943	 5.21827944150408E-02 
944	 5.68149225129427E-02 
945	 5.60929732677199E-02 
946	 5.19097234240747E-02 
947	 5.62274772452844E-02 
948	 6.20021853868771E-02 
949	 5.83245013578919E-02 
950	 5.22686343200919E-02 
951	 0.057629947093495 
952	 5.77700117775089E-02 
953	 5.83605179165866E-02 
954	 5.83155721283083E-02 
955	 5.34521829733932E-02 
956	 5.61586078109692E-02 
957	 5.47390350116057E-02 
958	 5.14182855839856E-02 
959	 5.59929740005205E-02 
960	 5.39721338236662E-02 
961	 5.47407038691385E-02 
962	 5.81536584366801E-02 
963	 5.74735143815317E-02 
964	 0.0553802937652 
965	 5.62645070492073E-02 
966	 6.00120332934919E-02 
967	 6.32145593405747E-02 
968	 6.24664980231426E-02 
969	 6.00657270098165E-02 
970	 5.92119326693444E-02 
971	 6.21207781623587E-02 
972	 6.03573895224512E-02 
973	 5.94032758539773E-02 
974	 6.17203022097748E-02 
975	 6.44518044674458E-02 
976	 6.09492033730308E-02 
977	 5.83132968823844E-02 
978	 5.93481062943941E-02 
979	 6.13459310753174E-02 
980	 6.30792765462704E-02 
981	 0.062713006033659 
982	 6.20931289521837E-02 
983	 6.47441634289715E-02 
984	 6.53276130234112E-02 
985	 6.48533517909757E-02 
986	 0.06392265448266 
987	 6.27517442913141E-02 
988	 0.064596455715691 
989	 6.66381791109907E-02 
990	 6.66899892669517E-02 
991	 6.43459162439152E-02 
992	 0.062698683867673 
993	 6.60170004415557E-02 
994	 6.93050051477776E-02 
995	 6.44388486999812E-02 
996	 6.37666841926076E-02 
997	 6.68616119032263E-02 
998	 6.85785637303733E-02 
999	 6.44021986231609E-02 
1000	 6.53377422758279E-02 
1001	 5.81992069123771E-02 
1002	 5.92829947054919E-02 
1003	 5.93242201315237E-02 
1004	 5.83350355968795E-02 
1005	 5.80541332539145E-02 
1006	 5.76360652978878E-02 
1007	 5.72352175558038E-02 
1008	 5.78373494786316E-02 
1009	 5.81278931124232E-02 
1010	 5.80778836167928E-02 
1011	 5.83662355013706E-02 
1012	 0.058604993241153 
1013	 5.91909935801475E-02 
1014	 5.95674553236012E-02 
1015	 6.04227453724205E-02 
1016	 6.04838208923922E-02 
1017	 5.97631719394116E-02 
1018	 5.94234492679415E-02 
1019	 5.90020365205842E-02 
1020	 5.86891154085914E-02 
1021	 5.78348219263642E-02 
1022	 5.85060048433346E-02 
1023	 5.93507614666799E-02 
1024	 5.96804648748768E-02 
1025	 6.06083134582628E-02 
1026	 6.10496369738888E-02 
1027	 6.11247762545805E-02 
1028	 6.03919949090946E-02 
1029	 6.03876448036908E-02 
1030	 6.04389008644066E-02 
1031	 6.05466415261537E-02 
1032	 6.07934855991555E-02 
1033	 6.12065071611708E-02 
1034	 6.21306722637558E-02 
1035	 6.23211673333476E-02 
1036	 6.22490782649679E-02 
1037	 6.22787147866107E-02 
1038	 0.061943777759557 
1039	 0.061268324237054 
1040	 6.15706180862566E-02 
1041	 6.21118756077236E-02 
1042	 6.23527241430024E-02 
1043	 6.27157301845912E-02 
1044	 0.062886241967567 
1045	 6.26883170077289E-02 
1046	 6.29259398034685E-02 
1047	 6.37229230765392E-02 
1048	 6.36341849329726E-02 
1049	 6.32067547363828E-02 
1050	 6.29210596883812E-02 
1051	 6.14856233452314E-02 
1052	 6.13830612869936E-02 
1053	 6.25233882178764E-02 
1054	 6.30524303652183E-02 
1055	 0.064577562346269 
1056	 6.49598467253086E-02 
1057	 6.47132410284877E-02 
1058	 6.33779668483718E-02 
1059	 6.29591335168609E-02 
1060	 6.17807162773025E-02 
1061	 6.19836515861621E-02 
1062	 6.36291343642348E-02 
1063	 6.40604696227599E-02 
1064	 6.48594382760832E-02 
1065	 6.48289999918073E-02 
1066	 6.33461434619568E-02 
1067	 6.29886486839664E-02 
1068	 0.062923222132772 
1069	 6.27926515749643E-02 
1070	 6.30631778836012E-02 
1071	 6.33590304452738E-02 
1072	 6.40200039583949E-02 
1073	 6.38896594415208E-02 
1074	 6.38228474721063E-02 
1075	 0.063895256043993 
1076	 0.063624063578575 
1077	 6.25639763641178E-02 
1078	 6.23804388057689E-02 
1079	 6.28316003300321E-02 
1080	 6.26431020254324E-02 
1081	 6.22611664374996E-02 
1082	 6.21766259555597E-02 
1083	 0.061955230319506 
1084	 6.16694926012825E-02 
1085	 6.18654844291716E-02 
1086	 6.17626369871794E-02 
1087	 6.06856378283057E-02 
1088	 6.04769940459649E-02 
1089	 6.11568193171161E-02 
1090	 6.13281727351408E-02 
1091	 6.11713443431178E-02 
1092	 6.13118905524228E-02 
1093	 6.09289721304151E-02 
1094	 0.059199765307941 
1095	 0.058840064509953 
1096	 5.96417977946743E-02 
1097	 5.93003575958691E-02 
1098	 5.86544719337418E-02 
1099	 5.83831507804696E-02 
1100	 0.057673982830281 
1101	 5.68784453522894E-02 
1102	 5.64836404364883E-02 
1103	 5.60858289103523E-02 
1104	 5.54162945595188E-02 
1105	 5.40897232100326E-02 
1106	 5.45331039007518E-02 
1107	 5.52352465974155E-02 
1108	 0.054015882022784 
1109	 5.30120079528548E-02 
1110	 5.23604861965102E-02 
1111	 5.04174307092901E-02 
1112	 5.02581159995595E-02 
1113	 0.052993972467337 
1114	 5.34894073424026E-02 
1115	 5.36034350867138E-02 
1116	 5.27205799531553E-02 
1117	 4.82739072980548E-02 
1118	 4.70119166153866E-02 
1119	 4.85915457434082E-02 
1120	 4.80468075038985E-02 
1121	 5.27124221104505E-02 
1122	 4.75935267359964E-02 
1123	 3.78044126662421E-02 
1124	 3.34122682264637E-02 
1125	 2.20055494034593E-02 
1126	 2.95655467371465E-02 
1127	 4.84000640599242E-02 
1128	 0.045373747931753 
1129	 4.62132391061554E-02 
1130	 5.05418803183431E-02 
1131	 4.78349317271685E-02 
1132	 3.70947536334465E-02 
1133	 3.71671591429388E-02 
1134	 4.13504116402433E-02 
1135	 0.038793136272645 
1136	 3.46816182048184E-02 
1137	 3.38298525393571E-02 
1138	 2.91408953728589E-02 
1139	 3.09255272090554E-02 
1140	 3.82607199046574E-02 
1141	 4.55373137398574E-02 
1142	 4.84320792949965E-02 
1143	 4.43546855440407E-02 
1144	 4.14109740961447E-02 
1145	 4.15866475315404E-02 
1146	 4.24800669130865E-02 
1147	 4.68036093025345E-02 
1148	 4.66179836276584E-02 
1149	 3.97111067536447E-02 
1150	 3.89403994256382E-02 
1151	 4.01693631472465E-02 
1152	 4.05184342987639E-02 
1153	 4.24946127141379E-02 
1154	 4.35904439543593E-02 
1155	 4.38456544791282E-02 
1156	 4.31404256347465E-02 
1157	 4.47339625643904E-02 
1158	 4.77797526804838E-02 
1159	 4.87018258241207E-02 
1160	 4.82740775048349E-02 
1161	 4.87972041215184E-02 
1162	 4.94381464789223E-02 
1163	 4.95626736607838E-02 
1164	 5.00998570805773E-02 
1165	 5.10703026500218E-02 
1166	 5.15122330704873E-02 
1167	 5.14097091699291E-02 
1168	 5.18252223259649E-02 
1169	 5.25499205788543E-02 
1170	 5.22448872228475E-02 
1171	 5.19699886955341E-02 
1172	 0.052053250837536 
1173	 5.21590745808506E-02 
1174	 5.17225678826668E-02 
1175	 0.051685921750815 
1176	 5.27471582916859E-02 
1177	 5.35407241011523E-02 
1178	 5.30652432931979E-02 
1179	 5.27234079982603E-02 
1180	 5.25662689750829E-02 
1181	 0.052136611039964 
1182	 5.24890593444366E-02 
1183	 5.29197407086109E-02 
1184	 5.27340508653236E-02 
1185	 5.25751711976786E-02 
1186	 5.25749432883921E-02 
1187	 5.27033052514499E-02 
1188	 5.29949538035077E-02 
1189	 5.30765204821412E-02 
1190	 5.36764864400271E-02 
1191	 5.40900599449465E-02 
1192	 5.40031483795482E-02 
1193	 5.33709131426139E-02 
1194	 0.053361149900913 
1195	 5.34007186955711E-02 
1196	 5.34587962728516E-02 
1197	 5.37241507181166E-02 
1198	 5.37414492309089E-02 
1199	 5.38934911826092E-02 
1200	 5.40792707915325E-02 
1201	 5.41320015053557E-02 
1202	 5.41872821117673E-02 
1203	 5.39471666392359E-02 
1204	 5.35090587307764E-02 
1205	 5.37153392412472E-02 
1206	 5.43918940981058E-02 
1207	 5.44744225271868E-02 
1208	 0.054204439507399 
1209	 5.42338308998488E-02 
1210	 5.42933012974817E-02 
1211	 5.41804755060088E-02 
1212	 5.43350069081628E-02 
1213	 5.48102720036421E-02 
1214	 5.49110018934976E-02 
1215	 5.47280003603748E-02 
1216	 0.054648736307461 
1217	 5.47563269075623E-02 
1218	 5.43522014468873E-02 
1219	 5.42173597634324E-02 
1220	 5.45927310629023E-02 
1221	 5.46821295673443E-02 
1222	 5.47691013720985E-02 
1223	 5.51676970523856E-02 
1224	 0.055469921184152 
1225	 5.55009787699052E-02 
1226	 5.54598196926005E-02 
1227	 0.05519664433268 
1228	 5.51863370232836E-02 
1229	 5.59073254630574E-02 
1230	 5.64567907917779E-02 
1231	 5.62800567552976E-02 
1232	 5.58060211228431E-02 
1233	 5.54102983700271E-02 
1234	 5.52915108366535E-02 
1235	 0.055307020174684 
1236	 5.61351727173587E-02 
1237	 5.63323814737766E-02 
1238	 5.62591607648273E-02 
1239	 5.59738187822251E-02 
1240	 0.055875417189123 
1241	 5.60548788768497E-02 
1242	 5.64849572925868E-02 
1243	 0.056564396570929 
1244	 0.05595596416141 
1245	 5.55911110402976E-02 
1246	 5.56338607120059E-02 
1247	 5.57499014084748E-02 
1248	 5.63343308138946E-02 
1249	 5.68084228447909E-02 
1250	 5.63530530873572E-02 
1251	 5.58082731402914E-02 
1252	 5.59100944975017E-02 
1253	 5.60376004267876E-02 
1254	 5.60985213349848E-02 
1255	 0.05643690799144 
1256	 5.66009569144223E-02 
1257	 5.66006823127336E-02 
1258	 5.63667425979354E-02 
1259	 5.59248784546014E-02 
1260	 0.055960282792346 
1261	 5.62891282873454E-02 
1262	 5.60237149321997E-02 
1263	 0.055830624781187 
1264	 5.51888451207587E-02 
1265	 5.49461419014244E-02 
1266	 5.48068852557894E-02 
1267	 5.49839189451372E-02 
1268	 5.57781522179571E-02 
1269	 0.055600694540972 
1270	 5.52535353535383E-02 
1271	 5.57138975111984E-02 
1272	 5.56702868603349E-02 
1273	 5.51713157042098E-02 
1274	 5.53217890575578E-02 
1275	 5.58465946681618E-02 
1276	 5.59192655395146E-02 
1277	 5.58884138507368E-02 
1278	 0.055689673856623 
1279	 5.53218883166942E-02 
1280	 0.055646445957496 
1281	 5.56109573587769E-02 
1282	 5.56260364409702E-02 
1283	 5.56134284152099E-02 
1284	 5.54237442841079E-02 
1285	 5.53428452912206E-02 
1286	 5.56558407010628E-02 
1287	 5.56566507673665E-02 
1288	 5.51784467937165E-02 
1289	 5.50368085200175E-02 
1290	 5.49453293210926E-02 
1291	 5.50742309960421E-02 
1292	 5.50171640811785E-02 
1293	 5.44369550782042E-02 
1294	 5.43442085882162E-02 
1295	 5.47291048104941E-02 
1296	 5.45586076011649E-02 
1297	 5.44647752970938E-02 
1298	 0.054500824440211 
1299	 5.45305066844787E-02 
1300	 5.45632267320145E-02 
1301	 5.44200992276934E-02 
1302	 5.42202351433119E-02 
1303	 5.39847708472963E-02 
1304	 5.39940249274843E-02 
1305	 0.054087776051342 
1306	 5.39403559824264E-02 
1307	 5.30725924618024E-02 
1308	 5.25811135196366E-02 
1309	 5.25645240926603E-02 
1310	 5.22532247546484E-02 
1311	 5.11218886563576E-02 
1312	 5.08172337553754E-02 
1313	 5.17355587368005E-02 
1314	 5.14136219444618E-02 
1315	 5.03064321627889E-02 
1316	 5.01936782447181E-02 
1317	 4.97432976647599E-02 
1318	 4.92712070802562E-02 
1319	 5.02448323926448E-02 
1320	 5.05446191986715E-02 
1321	 5.02234418414583E-02 
1322	 4.91987490510814E-02 
1323	 4.82275787316522E-02 
1324	 4.80008469067498E-02 
1325	 4.79325506505278E-02 
1326	 4.72208641557199E-02 
1327	 4.72045764232644E-02 
1328	 4.69310420554949E-02 
1329	 4.62477566541928E-02 
1330	 4.57197564049176E-02 
1331	 4.49168167110048E-02 
1332	 4.40008059641256E-02 
1333	 4.35376171001804E-02 
1334	 4.38672516943029E-02 
1335	 4.37777663077892E-02 
1336	 4.34333319390665E-02 
1337	 4.36780412099982E-02 
1338	 4.53148543229066E-02 
1339	 4.47614663371568E-02 
1340	 4.11741728024868E-02 
1341	 4.15952839021207E-02 
1342	 4.52698862299301E-02 
1343	 4.53695811698697E-02 
1344	 4.61734332931148E-02 
1345	 4.71176714697459E-02 
1346	 3.99734568055445E-02 
1347	 3.72974328075637E-02 
1348	 5.00714754477662E-02 
1349	 5.48066911123696E-02 
1350	 4.18757688270451E-02 
1351	 4.32751050153487E-02 
1352	 5.49562078280403E-02 
1353	 0.055072750794498 
1354	 6.96177408443501E-02 
1355	 0.150399543503145 
1356	 0.121737534486448 
1357	 0.054981588824703 
1358	 0.133063950023951 
1359	 0.148478801660817 
1360	 3.51568962448757E-02 
1361	 1.46970713950557E-03 
1362	-0.115800716805152 
1363	-0.162500872768066 
1364	 0.087139862146981 
1365	 0.427909088552153 
1366	 0.233784320962234 
1367	-0.101814240867328 
1368	-2.94782949368597E-02 
1369	 7.00976301385016E-02 
1370	-9.83211660969673E-02 
1371	 7.47233139760989E-02 
1372	 0.118952660415992 
1373	-0.931224665809088 
1374	-0.661326623339991 
1375	 0.412590027211978 
1376	 0.555319886309222 
1377	 0.295709617258406 
1378	 0.304210749053427 
1379	 0.330178066033134 
1380	 0.315069703346286 
1381	 9.53960534927362E-02 
1382	 0.220950407828386 
1383	 0.83485781110948 
1384	 1.23727761503601 
1385	 0.655039545355223 
1386	 0.603783161943918 
1387	 0.504757102742788 
1388	 0.333499928846703 
1389	 0.345460332875831 
1390	 0.544065925598581 
1391	 1.06511218181896 
1392	 0.375964821550598 
1393	 1.51311975663644 
1394	 6.47475492077695 
1395	 2.52093442461148 
1396	 3.83796055804899 
1397	 3.20132000500693 
1398	 0.693892558290488 
1399	 0.129740457648662 
1400	-0.846449836588743 
1401	-0.814914490060305 
1402	-0.877167742155036 
1403	-0.821862280667658 
1404	-0.301596352945149 
1405	 0.821328270411699 
1406	 2.25932762115792 
1407	 1.58097881497369 
1408	 0.895202118622788 
1409	 0.615904754371459 
1410	 9.85766257529052E-02 
1411	 9.68072685705877E-02 
1412	 1.01368720643083 
1413	 1.05030897648812 
1414	 0.653759857296813 
1415	 0.476347371865669 
1416	 0.197516830317646 
1417	 0.125487988474751 
1418	 0.107113284937213 
1419	 9.36553286342316E-02 
1420	 8.40858558009458E-02 
1421	 7.60642456321086E-02 
1422	 0.120220261335165 
1423	 8.48022159800536E-02 
1424	-6.15908135192325E-02 
1425	-4.50318401745088E-02 
1426	 4.59104775992557E-02 
1427	 6.53383004671605E-02 
1428	 0.127389348535923 
1429	 0.150896937139127 
1430	 0.108893371262032 
1431	 9.13914677199595E-02 
1432	 9.81269507425108E-02 
1433	 9.83234637397316E-02 
1434	 0.081365990992079 
1435	 8.12775217964035E-02 
1436	 0.106335754985038 
1437	 9.57844894008133E-02 
1438	 9.76909166090268E-02 
1439	 0.105939738132933 
1440	 6.70455726033365E-02 
1441	 3.10948292995391E-02 
1442	 4.17732344887598E-02 
1443	 4.02669138688464E-02 
1444	 4.01534208383615E-02 
1445	 6.74785327489213E-02 
1446	 6.85290494370921E-02 
1447	 6.58742694689361E-02 
1448	 0.06669587147766 
1449	 5.05836224170443E-02 
1450	 4.50105032631458E-02 
1451	 4.64074527478226E-02 
1452	 5.03560273405329E-02 
1453	 5.44327847373924E-02 
1454	 5.29026815943881E-02 
1455	 4.90518339589917E-02 
1456	 4.37910017738714E-02 
1457	 3.38961125471842E-02 
1458	 3.40537623686627E-02 
1459	 3.75581600935883E-02 
1460	 3.44188103438857E-02 
1461	 3.28538274945984E-02 
1462	 3.26228158849145E-02 
1463	 2.77061115111782E-02 
1464	 2.51541500814467E-02 
1465	 0.02491267364686 
1466	 2.88420680134634E-02 
1467	 3.71799391227662E-02 
1468	 3.59728501534233E-02 
1469	 3.57538008782389E-02 
1470	 3.73110168120066E-02 
1471	 2.82692763921158E-02 
1472	 2.60768921312026E-02 
1473	 3.25846210984998E-02 
1474	 3.60676900796432E-02 
1475	 3.59409448500466E-02 
1476	 3.80361556355428E-02 
1477	 4.73107678420022E-02 
1478	 0.04687823604278 
1479	 3.78311712494576E-02 
1480	 3.65744420089153E-02 
1481	 3.62160255537981E-02 
1482	 3.58868542693653E-02 
1483	 3.94357748869499E-02 
1484	 3.99062004060398E-02 
1485	 3.64190264588484E-02 
1486	 3.70679587389155E-02 
1487	 4.07028588233105E-02 
1488	 4.13228794642346E-02 
1489	 0.040507307199163 
1490	 4.17478689427535E-02 
1491	 4.23693978358329E-02 
1492	 4.32857083963443E-02 
1493	 4.73594474243012E-02 
1494	 4.77011434771105E-02 
1495	 4.46831997192659E-02 
1496	 4.47150043306091E-02 
1497	 4.52847210239024E-02 
1498	 4.53497816120126E-02 
1499	 4.62281183266015E-02 
1500	 4.70425666573345E-02 
1501	 4.80359951555449E-02 
1502	 4.79015813453681E-02 
1503	 0.046925279877125 
1504	 4.73226836362443E-02 
1505	 0.04790254897992 
1506	 4.76205737191601E-02 
1507	 4.81146525920736E-02 
1508	 4.85462108029261E-02 
1509	 4.86786366036298E-02 
1510	 0.04836558008904 
1511	 4.85799988391074E-02 
1512	 4.92944361335011E-02 
1513	 4.94390547517426E-02 
1514	 4.98492231298568E-02 
1515	 5.01468263739123E-02 
1516	 5.05407421303039E-02 
1517	 5.05020333233438E-02 
1518	 4.96971599972857E-02 
1519	 4.96700173761755E-02 
1520	 5.00167914574716E-02 
1521	 5.02201219486948E-02 
1522	 5.06798334532479E-02 
1523	 0.051051783699814 
1524	 5.10678097480449E-02 
1525	 5.08675225236901E-02 
1526	 5.09174996872454E-02 
1527	 5.18506814029388E-02 
1528	 5.21009608790189E-02 
1529	 5.14091103954803E-02 
1530	 5.18835954658283E-02 
1531	 0.052216494767858 
1532	 5.17467456207608E-02 
1533	 5.19127624013942E-02 
1534	 5.18792146448783E-02 
1535	 0.051316619243827 
1536	 5.15929353685254E-02 
1537	 5.23752135487181E-02 
1538	 5.27039839275993E-02 
1539	 5.25630401377192E-02 
1540	 5.21790774799122E-02 
1541	 5.22640216162582E-02 
1542	 5.25274560015916E-02 
1543	 5.27481217188302E-02 
1544	 5.31236854549634E-02 
1545	 5.34278993622433E-02 
1546	 5.34822216071281E-02 
1547	 5.33243843767036E-02 
1548	 5.33530692111651E-02 
1549	 0.053272057540097 
1550	 5.33018736529556E-02 
1551	 5.36046654582747E-02 
1552	 5.37912503999285E-02 
1553	 5.40252419948368E-02 
1554	 5.40638960821394E-02 
1555	 5.37875641802581E-02 
1556	 5.35784414259346E-02 
1557	 5.40568950402398E-02 
1558	 5.44336477749217E-02 
1559	 5.40025229332579E-02 
1560	 5.40946508882389E-02 
1561	 5.43372616510533E-02 
1562	 5.40679802317746E-02 
1563	 5.40331255361394E-02 
1564	 5.42347138429544E-02 
1565	 5.42448575295046E-02 
1566	 5.38270796571331E-02 
1567	 5.33530327562823E-02 
1568	 5.33055812997452E-02 
1569	 5.36673470938264E-02 
1570	 5.39813504118467E-02 
1571	 5.42264670116167E-02 
1572	 5.43238232736992E-02 
1573	 5.42479736625772E-02 
1574	 5.43544178100007E-02 
1575	 5.42581159329801E-02 
1576	 5.43562776686552E-02 
1577	 5.44515554347557E-02 
1578	 5.42484357939741E-02 
1579	 5.46261606919098E-02 
1580	 5.50037814717827E-02 
1581	 5.49139057238609E-02 
1582	 5.46818120708475E-02 
1583	 5.44637006689925E-02 
1584	 5.48942842793306E-02 
1585	 5.51553717748889E-02 
1586	 5.43711920339986E-02 
1587	 5.36648163015321E-02 
1588	 5.35396521334011E-02 
1589	 0.054221652593451 
1590	 5.48758615669735E-02 
1591	 5.49124939575186E-02 
1592	 5.51120267609878E-02 
1593	 5.46284767629548E-02 
1594	 5.41234678181424E-02 
1595	 5.43012640035458E-02 
1596	 0.054168326956529 
1597	 5.43444367010755E-02 
1598	 5.48774034217869E-02 
1599	 5.53704088867732E-02 
1600	 5.57231439057863E-02 
1601	 5.56330269819913E-02 
1602	 5.54550815287455E-02 
1603	 5.56830436032214E-02 
1604	 5.56053961091207E-02 
1605	 5.46253234048196E-02 
1606	 0.054545861422102 
1607	 5.47602188912681E-02 
1608	 5.39195421645295E-02 
1609	 5.39591907909943E-02 
1610	 5.43807672150758E-02 
1611	 5.43631110695223E-02 
1612	 5.49480404642442E-02 
1613	 5.51805373613293E-02 
1614	 5.50178137547669E-02 
1615	 5.50584664587129E-02 
1616	 5.47777396595311E-02 
1617	 0.054994367678243 
1618	 5.53415001617119E-02 
1619	 5.50359869577138E-02 
1620	 5.52130409295393E-02 
1621	 5.57547728617033E-02 
1622	 5.55509697615825E-02 
1623	 5.49970127075369E-02 
1624	 5.49272542118137E-02 
1625	 5.52550048833878E-02 
1626	 5.60044686602127E-02 
1627	 5.63512386754465E-02 
1628	 5.58522576675552E-02 
1629	 5.57306555758497E-02 
1630	 5.58702419185951E-02 
1631	 5.58972444044157E-02 
1632	 5.59323844553752E-02 
1633	 0.055431509137477 
1634	 5.52419651509797E-02 
1635	 5.57172500752786E-02 
1636	 5.58338278706738E-02 
1637	 5.63120445892967E-02 
1638	 0.056252292198054 
1639	 5.51533893630646E-02 
1640	 5.51413710035364E-02 
1641	 5.56230996670483E-02 
1642	 5.54004125102132E-02 
1643	 5.53416771116338E-02 
1644	 5.57454704533877E-02 
1645	 5.54658887245867E-02 
1646	 5.52319288003285E-02 
1647	 5.55508799671872E-02 
1648	 5.51618163477474E-02 
1649	 0.055045637768421 
1650	 5.45846410435321E-02 
1651	 5.29307471254699E-02 
1652	 5.29120343096368E-02 
1653	 5.45056419648861E-02 
1654	 5.47092686803208E-02 
1655	 5.54909671999038E-02 
1656	 5.58856957874062E-02 
1657	 5.48354916657752E-02 
1658	 5.46176157518031E-02 
1659	 5.50767104348866E-02 
1660	 0.05502005982903 
1661	 5.48581937706178E-02 
1662	 5.47186342082631E-02 
1663	 5.45569168587025E-02 
1664	 5.45529418857941E-02 
1665	 0.054105994499203 
1666	 5.41677833263342E-02 
1667	 5.49989765154922E-02 
1668	 5.48431593659566E-02 
1669	 5.48475629343856E-02 
1670	 5.47688674702438E-02 
1671	 5.48295690141569E-02 
1672	 5.52909322559181E-02 
1673	 5.53255749746917E-02 
1674	 5.53026688251491E-02 
1675	 5.57740758267545E-02 
1676	 5.59255805408074E-02 
1677	 5.55983610259077E-02 
1678	 5.53072160075683E-02 
1679	 5.52809690271302E-02 
1680	 5.54390227846865E-02 
1681	 5.53799639893883E-02 
1682	 5.53780949450889E-02 
1683	 5.54531056689202E-02 
1684	 5.50279999295068E-02 
1685	 5.47991966178872E-02 
1686	 5.50585170318612E-02 
1687	 5.47702951930054E-02 
1688	 5.43744563022264E-02 
1689	 5.52515162502174E-02 
1690	 5.61141837507535E-02 
1691	 5.54050328143212E-02 
1692	 5.48906475329818E-02 
1693	 5.50556110294535E-02 
1694	 5.48406085050714E-02 
1695	 5.52891199639551E-02 
1696	 5.57314594323387E-02 
1697	 5.48308051290625E-02 
1698	 5.44211751194439E-02 
1699	 5.49821439487384E-02 
1700	 5.52554990942999E-02 
1701	 5.50592166373445E-02 
1702	 5.43356502097124E-02 
1703	 5.37205829438162E-02 
1704	 0.054455378239872 
1705	 5.58830138878009E-02 
1706	 5.61143941258893E-02 
1707	 0.055508131589222 
1708	 5.46267398798189E-02 
1709	 5.39567333285616E-02 
1710	 5.41308421840124E-02 
1711	 5.37321880257691E-02 
1712	 5.32728531413199E-02 
1713	 0.053557813761483 
1714	 5.33190684698627E-02 
1715	 5.44369542350838E-02 
1716	 5.46398683193285E-02 
1717	 5.42691768358902E-02 
1718	 0.055317527930756 
1719	 5.62259291513422E-02 
1720	 0.055092168149639 
1721	 5.40810379160733E-02 
1722	 5.46155599104209E-02 
1723	 5.49448752819396E-02 
1724	 5.44951840354586E-02 
1725	 5.45574152908375E-02 
1726	 5.45446585306519E-02 
1727	 5.37636558984508E-02 
1728	 5.38467745232292E-02 
1729	 5.44882348171397E-02 
1730	 5.44386119074596E-02 
1731	 0.055181004460244 
1732	 5.62925732061067E-02 
1733	 5.61793434232154E-02 
1734	 5.57416932109977E-02 
1735	 5.46392011631713E-02 
1736	 5.30125815071371E-02 
1737	 5.33701102222291E-02 
1738	 5.42504950411722E-02 
1739	 5.37094004376102E-02 
1740	 5.36368662678803E-02 
1741	 5.40945955803861E-02 
1742	 5.43122214460831E-02 
1743	 5.42078604885816E-02 
1744	 5.38528183855324E-02 
1745	 5.38646430871082E-02 
1746	 5.36219016232823E-02 
1747	 5.25595212014542E-02 
1748	 5.05246648674336E-02 
1749	 0.050550329667294 
1750	 5.13404664900148E-02 
1751	 5.13382231001566E-02 
1752	 5.38282180234911E-02 
1753	 5.41865811645697E-02 
1754	 5.02382644606936E-02 
1755	 4.98709820160522E-02 
1756	 5.26139328628603E-02 
1757	 0.05204447401729 
1758	 0.051080308738897 
1759	 4.97786322949901E-02 
1760	 4.75519512085072E-02 
1761	 4.74958885097886E-02 
1762	 0.05000294488213 
1763	 5.01118016056577E-02 
1764	 4.94421968639037E-02 
1765	 4.91345799378037E-02 
1766	 4.74973715577987E-02 
1767	 4.81868065747789E-02 
1768	 5.02974937548111E-02 
1769	 5.04237303277695E-02 
1770	 5.08213955162621E-02 
1771	 5.02909933020385E-02 
1772	 4.67643557683467E-02 
1773	 4.67751896089449E-02 
1774	 4.95314221612111E-02 
1775	 5.21335400198764E-02 
1776	 5.28907144052999E-02 
1777	 4.87943295365459E-02 
1778	 0.047522596544529 
1779	 4.88878671395088E-02 
1780	 4.68720540959678E-02 
1781	 4.31473276026013E-02 
1782	 0.04177690018034 
1783	 3.82593271881399E-02 
1784	 3.75698696772488E-02 
1785	 4.21378244655992E-02 
1786	 0.043957917805884 
1787	 4.51349559046431E-02 
1788	 4.65899224860874E-02 
1789	 4.78136661769914E-02 
1790	 5.00048129461888E-02 
1791	 5.20589936296988E-02 
1792	 0.051286403265341 
1793	 5.29520836344753E-02 
1794	 5.07712433192847E-02 
1795	 4.07873132533572E-02 
1796	 3.17775411957374E-02 
1797	 2.77228829729054E-02 
1798	 3.36388336264617E-02 
1799	 3.21926461681734E-02 
1800	 2.15206135925783E-02 
1801	 1.76685565838494E-02 
1802	-2.43918187978703E-03 
1803	 5.5638511480108E-04 
1804	 5.66019029058784E-02 
1805	 9.56482495445726E-02 
1806	 0.205778301827779 
1807	 0.252767440724869 
1808	 7.06001237280549E-03 
1809	-9.10263879293903E-02 
1810	-6.76665508849286E-02 
1811	-0.142905670426576 
1812	-6.26411010234627E-02 
1813	-0.130046853460684 
1814	 3.98438222492082 
1815	 1.86987041506409 
1816	-66.3944504704585 
1817	 1.50424121803869 
1818	 1.2467210744895 
1819	 2.16358552091464 
1820	 7.0085997088607 
1821	 0.40592682101796 
1822	 0.962469103856562 
1823	-0.914534783590006 
1824	-0.549162527829845 
1825	-0.495527465066993 
1826	-0.260085995008109 
1827	 5.6377912878753 
1828	-0.184975184406422 
1829	 3.90290574094448 
1830	 2.88768621999161 
1831	-6.55326111749639 
1832	-5.74461952515457 
1833	-3.15669199698387 
1834	-3.20476960472996 
1835	-13.8201550375326 
1836	 97.2036934931271 
1837	 4.65488573652513 
1838	 17.4861936387185 
1839	-0.624600290183522 
1840	-0.112778037299519 
1841	 7.33722667878234E-02 
1842	 0.422834760793663 
1843	 0.461352093129092 
1844	-0.426986972200978 
1845	-3.27589597047093 
1846	-1.34070082316859 
1847	-1.5770909849449 
1848	-1.29230296744898 
1849	-0.585261136285588 
1850	-0.587803996473789 
1851	-0.957119457599364 
1852	-2.09639927707101 
1853	-6.61472401495627 
1854	 6.30888187707073 
1855	 1.23804456138647 
1856	 0.818182790233622 
1857	 0.589046565333465 
1858	 0.708012480607178 
1859	 2.11797770963926 
1860	 1.9773812367703 
1861	-1.56793133669295 
1862	 1.11144991281517 
1863	 1.40158257705628 
1864	-10.158772866974 
1865	-2.28635561217946 
1866	 4.07654872970241E-02 
1867	 0.393785997277316 
1868	 2.86982271515805 
1869	-8.56427002632281 
1870	-1.70083246441281 
1871	-1.29783524566374 
1872	-2.36375006802935 
1873	-1.90476071071605 
1874	-0.980551279366721 
1875	-0.76037072318777 
1876	-0.649568956434122 
1877	-0.49227537434356 
1878	-0.532273412578216 
1879	-1.84188340335821 
1880	-1.9024091298552 
1881	-0.6770748088518 
1882	-0.383526396742126 
1883	-0.387768007076854 
1884	-0.266118350208454 
1885	-1.89337648117647 
1886	 1.39424433216037 
1887	-0.635193950806324 
1888	 0.871772399499446 
1889	 1.23300162900857 
1890	 0.331885763328602 
1891	 0.28480123617505 
1892	 0.804760851768566 
1893	 0.540706457957368 
1894	-5.90424236927704E-02 
1895	 0.130242052478853 
1896	 0.622904470631312 
1897	 1.49707420479915 
1898	 10.5175997120181 
1899	 16.9325432071986 
1900	 6.84279534262339 
1901	 0.516733032516211 
1902	-6.37612229706324E-02 
1903	-1.12688554424946 
1904	-1.1355663421387 
1905	-0.53853131299532 
1906	-0.40344992213869 
1907	-0.257245162454823 
1908	-0.181342761409195 
1909	-0.888550115467824 
1910	 1.28918132479818 
1911	-0.176197271637531 
1912	-0.190557821969074 
1913	-0.633828547930068 
1914	-2.58609796022879 
1915	-2.59719490922836 
1916	-3.90680318070644 
1917	-1.51286274411239 
1918	-0.983300385705224 
1919	-1.86360983423708 
1920	-1.76757055245454 
1921	-1.16621330146532 
1922	-0.765721736950596 
1923	-0.456211030957637 
1924	-0.141040186962971 
1925	 0.589281997225943 
1926	 1.33757176788146 
1927	 1.65647102019136 
1928	-4.30171240095895 
1929	 3.14147024760303 
1930	-0.259597165541207 
1931	-0.475580080103916 
1932	-0.705905303025113 
1933	-1.4351012475539 
1934	-2.55706618615734 
1935	-3.0596735909636 
1936	-0.578274657652152 
1937	-0.657711844631877 
1938	-1.84220619224227 
1939	-2.84832573495306 
1940	 130.078398567126 
1941	-2.18882704516748 
1942	-2.54737830190038 
1943	 4.14175893388462 
1944	 1.25798817385328 
1945	 0.655489723111722 
1946	 0.251480994966372 
1947	 0.125320680879392 
1948	 3.00509750512002E-02 
1949	 0.104957570490039 
1950	 0.179077878739204 
1951	-8.80088932969449E-04 
1952	-2.77018218973128E-02 
1953	-1.76444330076953E-02 
1954	 9.43727353183966E-03 
1955	-7.62821953408672E-02 
1956	 0.060622968353193 
1957	 0.169097369132405 
1958	 9.78852784787603E-02 
1959	 8.92892741549125E-02 
1960	 8.96188492399267E-02 
1961	 6.20941539693497E-02 
1962	 4.50435722663898E-02 
1963	 5.27503847496215E-02 
1964	 4.60228457099136E-02 
1965	 4.38174202782411E-02 
1966	 4.30101594377507E-02 
1967	 4.63380735169254E-02 
1968	 3.97651308371277E-02 
1969	 0.051353623045054 
1970	 4.91781726611904E-02 
1971	 4.36500305999467E-02 
1972	 4.92879161927004E-02 
1973	 0.042723688349136 
1974	 3.85481458298796E-02 
1975	 3.07587898500625E-02 
1976	 2.49263198886283E-02 
1977	 2.53364243288314E-02 
1978	 2.23773115945897E-02 
1979	 2.60913111144413E-02 
1980	 3.83160193480067E-02 
1981	 4.64319535913452E-02 
1982	 4.60433983403314E-02 
1983	 5.10129142511576E-02 
1984	 5.12320287278507E-02 
1985	 4.58071735581071E-02 
1986	 4.41278290205456E-02 
1987	 4.38660019169009E-02 
1988	 0.042282441046395 
1989	 4.12125570339417E-02 
1990	 4.22566153134399E-02 
1991	 4.17475874165066E-02 
1992	 3.47782343092348E-02 
1993	 2.97821401026734E-02 
1994	 2.89395224125534E-02 
1995	 3.12826267896771E-02 
1996	 3.02989959660534E-02 
1997	 3.17698273910007E-02 
1998	 3.36262717926683E-02 
1999	 2.90373578882436E-02 
2000	 2.65576013398063E-02 
2001	 0.035062481300077 
2002	 5.10369017403681E-02 
2003	 5.91613401404926E-02 
2004	 6.00898433745873E-02 
2005	 0.062299368907399 
2006	 5.43193092861633E-02 
2007	 5.24658084845129E-02 
2008	 6.50503913626201E-02 
2009	 6.42763235151358E-02 
2010	 5.59121401772151E-02 
2011	 4.98653473663221E-02 
2012	 4.27713695364847E-02 
2013	 2.37847961314623E-02 
2014	 2.00745653424916E-02 
2015	 2.59520593053018E-02 
2016	 2.86555135788598E-02 
2017	 3.74096205420692E-02 
2018	 4.68148034565739E-02 
2019	 5.29195653249569E-02 
2020	 5.72355760006976E-02 
2021	 5.48567134337425E-02 
2022	 5.06600848702572E-02 
2023	 4.85192059421348E-02 
2024	 4.65902498513883E-02 
2025	 0.04591179589994 
2026	 4.59563953608373E-02 
2027	 4.72137646361267E-02 
2028	 4.42333152066057E-02 
2029	 4.56241544515469E-02 
2030	 4.81490530891795E-02 
2031	 4.68175593059414E-02 
2032	 0.045815181969785 
2033	 4.66610791712116E-02 
2034	 4.72999523692146E-02 
2035	 4.73016374408652E-02 
2036	 4.66416522005272E-02 
2037	 4.57731323002517E-02 
2038	 4.36563578162914E-02 
2039	 4.18820177876187E-02 
2040	 4.17410743062044E-02 
2041	 4.17714596753176E-02 
2042	 3.97365179464253E-02 
2043	 0.039633543887624 
2044	 4.09878024221541E-02 
2045	 4.36675953888293E-02 
2046	 4.65839418205952E-02 
2047	 4.83460220111206E-02 
2048	 5.08531274842828E-02 
2049	 5.36179587769395E-02 
2050	 5.32649219089786E-02 
2051	 5.44386332209297E-02 
2052	 5.51215146013624E-02 
2053	 5.13184008821321E-02 
2054	 5.04156749132191E-02 
2055	 5.05621198814196E-02 
2056	 4.98041010494969E-02 
2057	 0.049886516832557 
2058	 4.95714197281426E-02 
2059	 4.79439354120181E-02 
2060	 0.047950115346347 
2061	 5.01758345963261E-02 
2062	 4.71821177725397E-02 
2063	 4.56453453483582E-02 
2064	 4.48916321128584E-02 
2065	 4.23496189407146E-02 
2066	 4.29273977817135E-02 
2067	 4.52488546625685E-02 
2068	 4.56205156905979E-02 
2069	 4.63872188902768E-02 
2070	 4.79314449591673E-02 
2071	 4.97258486354681E-02 
2072	 5.20976826933865E-02 
2073	 5.28518737050706E-02 
2074	 5.20012993035975E-02 
2075	 5.18561063482027E-02 
2076	 0.051726287707918 
2077	 5.16771627156774E-02 
2078	 5.28069262658846E-02 
2079	 5.21516652633967E-02 
2080	 5.07962452250927E-02 
2081	 0.047478238133652 
2082	 4.67689469659466E-02 
2083	 4.67681003465766E-02 
2084	 4.81355787778394E-02 
2085	 0.049827270838157 
2086	 4.75640767527592E-02 
2087	 4.60907929276621E-02 
2088	 4.73057894616046E-02 
2089	 4.84848715861873E-02 
2090	 4.97304950502579E-02 
2091	 4.93213896734174E-02 
2092	 4.92021676994341E-02 
2093	 4.74536890417187E-02 
2094	 4.65949077901851E-02 
2095	 4.63852402616552E-02 
2096	 4.64467825870056E-02 
2097	 4.55754095697328E-02 
2098	 4.59142707583063E-02 
2099	 4.70082715765423E-02 
2100	 4.94901384953203E-02 
2101	 5.21970968995319E-02 
2102	 0.054060469008148 
2103	 5.29250908983151E-02 
2104	 5.07903107758105E-02 
2105	 4.90507178083182E-02 
2106	 4.55432964806345E-02 
2107	 4.28050004563959E-02 
2108	 4.41946365162622E-02 
2109	 4.63468444718047E-02 
2110	 4.74621578150802E-02 
2111	 4.96745583980372E-02 
2112	 5.07938676871038E-02 
2113	 5.23043847053184E-02 
2114	 5.35949544757356E-02 
2115	 5.40731084842155E-02 
2116	 0.054659031368463 
2117	 5.49084572202052E-02 
2118	 5.29871409831529E-02 
2119	 5.21900792587749E-02 
2120	 5.23730036143933E-02 
2121	 5.26725911459424E-02 
2122	 5.14694164068231E-02 
2123	 5.07382227403179E-02 
2124	 5.06245468830698E-02 
2125	 5.03418764885312E-02 
2126	 4.79008559031368E-02 
2127	 4.63020981302638E-02 
2128	 4.70072503024253E-02 
2129	 4.84192312143192E-02 
2130	 5.03506602608626E-02 
2131	 5.22285322667017E-02 
2132	 5.48210625275786E-02 
2133	 5.29938687094107E-02 
2134	 5.21082686219362E-02 
2135	 5.21612414901989E-02 
2136	 5.22234373698609E-02 
2137	 4.98668571279275E-02 
2138	 0.051056953221254 
2139	 5.60715039170826E-02 
2140	 5.77418194505621E-02 
2141	 5.96486945759373E-02 
2142	 6.01631432374564E-02 
2143	 5.97785345187025E-02 
2144	 5.55372983282367E-02 
2145	 0.053370838588469 
2146	 5.34276054318958E-02 
2147	 5.15733122059847E-02 
2148	 5.12158655783396E-02 
2149	 5.26992497657889E-02 
2150	 5.26840912836287E-02 
2151	 5.27481602562703E-02 
2152	 5.45041867208006E-02 
2153	 5.59800329498525E-02 
2154	 5.78241529042423E-02 
2155	 5.66673946228411E-02 
2156	 5.45812475127477E-02 
2157	 5.35017590459828E-02 
2158	 4.99260356865667E-02 
2159	 4.86544544678539E-02 
2160	 4.99807579551438E-02 
2161	 4.98425472530495E-02 
2162	 4.91587152910571E-02 
2163	 4.92229383200409E-02 
2164	 4.99291891187783E-02 
2165	 5.05946626986188E-02 
2166	 5.14485829504242E-02 
2167	 5.20904964387999E-02 
2168	 5.19443582559451E-02 
2169	 5.29639622628615E-02 
2170	 5.50317070528197E-02 
2171	 5.76143698650518E-02 
2172	 5.70506600362887E-02 
2173	 5.67796792701752E-02 
2174	 5.55649754487327E-02 
2175	 5.23554834151022E-02 
2176	 5.12774002063141E-02 
2177	 4.88246872308444E-02 
2178	 4.68640587119715E-02 
2179	 0.04686419971444 
2180	 4.61369743523805E-02 
2181	 4.92401625656106E-02 
2182	 5.27212219177143E-02 
2183	 5.35915351880208E-02 
2184	 5.52628137293054E-02 
2185	 5.37787839355685E-02 
2186	 5.20433840227964E-02 
2187	 0.047956278461363 
2188	 4.52797344970357E-02 
2189	 4.04222712993842E-02 
2190	 4.16387924554034E-02 
2191	 4.85970229310421E-02 
2192	 5.13107901683492E-02 
2193	 5.53378094830626E-02 
2194	 5.75393835443199E-02 
2195	 5.51351704204271E-02 
2196	 0.05497726622186 
2197	 5.88390481060347E-02 
2198	 5.99327792807045E-02 
2199	 5.99964241773322E-02 
2200	 5.67067001701618E-02 
2201	 5.50192674600254E-02 
2202	 5.62016231536271E-02 
2203	 5.65077922250954E-02 
2204	 5.43535951142035E-02 
2205	 5.25406152028115E-02 
2206	 4.85734249090668E-02 
2207	 0.046515251522317 
2208	 4.99669775328174E-02 
2209	 5.07656699113221E-02 
2210	 4.77285066407046E-02 
2211	 0.043367042083049 
2212	 0.040334271992914 
2213	 4.28612322972205E-02 
2214	 4.81928205236503E-02 
2215	 4.93722232321785E-02 
2216	 4.62526438958293E-02 
2217	 4.53797021209834E-02 
2218	 4.00205399081516E-02 
2219	 4.06757941413968E-02 
2220	 4.74282941569179E-02 
2221	 4.90489159712081E-02 
2222	 4.95488563302323E-02 
2223	 5.07922257228738E-02 
2224	 5.07613195212126E-02 
2225	 5.17410372481581E-02 
2226	 5.49874133511797E-02 
2227	 5.56283436051708E-02 
2228	 5.33115471157224E-02 
2229	 5.27537645452791E-02 
2230	 5.23090892494594E-02 
2231	 5.21108414509994E-02 
2232	 5.21650343976936E-02 
2233	 5.30195016593424E-02 
2234	 5.53183242860427E-02 
2235	 5.75482152737752E-02 
2236	 5.39566327099256E-02 
2237	 5.18268502115524E-02 
2238	 4.95686798306206E-02 
2239	 4.28437553669836E-02 
2240	 0.041295856984644 
2241	 4.19752349548824E-02 
2242	 4.34890026547379E-02 
2243	 5.16895021353872E-02 
2244	 5.75141384723983E-02 
2245	 6.24959679123282E-02 
2246	 6.69440374332894E-02 
2247	 6.51198061711646E-02 
2248	 6.15996749020876E-02 
2249	 5.80336762769217E-02 
2250	 5.74079415243027E-02 
2251	 5.46150757714719E-02 
2252	 5.31448273460302E-02 
2253	 5.42782408636293E-02 
2254	 5.06185413463224E-02 
2255	 5.02618816680014E-02 
2256	 5.19304951806625E-02 
2257	 5.17432463413955E-02 
2258	 5.48056735418276E-02 
2259	 5.73510650244162E-02 
2260	 5.69035695893938E-02 
2261	 5.45252818387906E-02 
2262	 5.23024762554257E-02 
2263	 4.63914031714769E-02 
2264	 4.59984796240209E-02 
2265	 5.01539604428955E-02 
2266	 5.27173844766129E-02 
2267	 0.057169607550192 
2268	 5.59932964294489E-02 
2269	 5.10709137026806E-02 
2270	 4.68299126750932E-02 
2271	 3.80486828415319E-02 
2272	 3.54887332820462E-02 
2273	 3.79094496246205E-02 
2274	 3.82418418329207E-02 
2275	 3.80824746343263E-02 
2276	 4.26076850643687E-02 
2277	 4.84602299530783E-02 
2278	 5.27311033847315E-02 
2279	 0.064893384852661 
2280	 6.98001454326597E-02 
2281	 6.78133608620835E-02 
2282	 6.92369457282536E-02 
2283	 6.91023952032866E-02 
2284	 6.31955313177185E-02 
2285	 6.77573013181261E-02 
2286	 6.41380950948408E-02 
2287	 5.56244469237183E-02 
2288	 0.061068639600456 
2289	 5.97935478505786E-02 
2290	 5.57284450331597E-02 
2291	 6.41342128293587E-02 
2292	 6.50704852854734E-02 
2293	 6.07753148428574E-02 
2294	 6.31167511324108E-02 
2295	 5.93634586558207E-02 
2296	 5.21123350039658E-02 
2297	 4.89017091943325E-02 
2298	 4.91683031968199E-02 
2299	 4.79190896548734E-02 
2300	 5.12494717095592E-02 
2301	 6.42935381978413E-02 
2302	 6.79431457605238E-02 
2303	 6.51515787060817E-02 
2304	 6.46895327732447E-02 
2305	 0.064004597539086 
2306	 6.74639329789632E-02 
2307	 6.73004738414065E-02 
2308	 6.58281504992854E-02 
2309	 6.43653041592759E-02 
2310	 0.057517184691602 
2311	 5.66189533315419E-02 
2312	 6.28088030225384E-02 
2313	 5.72880952503883E-02 
2314	 4.84280427602615E-02 
2315	 5.09043041537503E-02 
2316	 0.043874322095979 
2317	 2.70916157290617E-02 
2318	 2.13130816878901E-02 
2319	 3.19592298354588E-02 
2320	 4.00056628790936E-02 
2321	 5.18323710174492E-02 
2322	 6.45029726437126E-02 
2323	 4.82265340353028E-02 
2324	 3.31073294803188E-02 
2325	 3.32985079241451E-02 
2326	 3.97106112119144E-02 
2327	 5.91891268032405E-02 
2328	 7.67604022158198E-02 
2329	 8.99498757437647E-02 
2330	 9.30253917142968E-02 
2331	 0.09493668727429 
2332	 9.99735429035619E-02 
2333	 0.09236133625248 
2334	 8.65043394149084E-02 
2335	 8.29889596059944E-02 
2336	 8.14974597477147E-02 
2337	 8.85373560350441E-02 
2338	 9.16569272093024E-02 
2339	 8.03887860363783E-02 
2340	 5.59920704562033E-02 
2341	 2.56291716117303E-02 
2342	 2.66840305591565E-02 
2343	 5.96901726093131E-02 
2344	 6.92583311927689E-02 
2345	 9.58158667074084E-02 
2346	 0.124917113504272 
2347	 8.75914990950563E-02 
2348	 6.02615804814975E-02 
2349	 4.27563947084981E-02 
2350	 1.23191877866942E-02 
2351	 2.07525477833426E-02 
2352	 6.34400634959378E-02 
2353	 7.58553944179702E-02 
2354	 5.67553778256617E-02 
2355	 5.74845931095956E-02 
2356	 3.22267149088308E-02 
2357	 4.52194687756895E-05 
2358	 0.034818705467283 
2359	 7.09921234491139E-02 
2360	 0.10192364972265 
2361	 0.140022567742141 
2362	 0.12578636008447 
2363	 9.39990857563904E-02 
2364	 6.10148317007792E-02 
2365	 0.052986633098436 
2366	 6.67676586949538E-02 
2367	 5.46365781880385E-02 
2368	 5.78606710155314E-02 
2369	 5.23068930436101E-02 
2370	 4.29381252509273E-02 
2371	 6.84217283238331E-02 
2372	 8.37500365514743E-02 
2373	 0.103886456895485 
2374	 9.71384972892216E-02 
2375	 4.45504874886472E-02 
2376	 9.28514431391099E-03 
2377	-1.72118188635386E-02 
2378	 1.35737814114269E-02 
2379	 9.06560812530628E-02 
2380	 0.115559885020423 
2381	 0.092181800499248 
2382	-0.028385157589158 
2383	-0.123421861423991 
2384	-0.116695735217331 
2385	-0.132801952275845 
2386	-9.40695708050782E-02 
2387	-0.100412858769849 
2388	-0.18056043574633 
2389	-0.142082827481519 
2390	 4.95797645671775E-03 
2391	 0.215808105483075 
2392	 0.404748381763564 
2393	 0.457567911337618 
2394	 0.388281443677114 
2395	 0.343775001935704 
2396	 0.313456980629008 
2397	 0.381122615068923 
2398	 0.375193204907978 
2399	 0.241809766607901 
2400	 0.252940159135703 
2401	 0.221410566645299 
2402	 0.176771172536333 
2403	 0.223310939154446 
2404	 8.14121591360609E-02 
2405	-8.68846526977619E-02 
2406	-0.209111858446345 
2407	-0.232248169687618 
2408	-0.015183266491041 
2409	 0.227788087363445 
2410	 0.445741795098244 
2411	 0.616538423346074 
2412	 0.634393917703886 
2413	 0.925373922484955 
2414	 0.893931148643957 
2415	 0.644805604498886 
2416	 0.446111979182506 
2417	 0.112906821619474 
2418	-6.25007898860789E-02 
2419	 3.41760067508242E-03 
2420	 0.048239827659041 
2421	-0.150622851998352 
2422	-7.92370233710669E-02 
2423	 0.392965096301013 
2424	-0.680624745762416 
2425	-0.438994454595586 
2426	-0.254398602963454 
2427	-0.433561700673515 
2428	-0.172142660228625 
2429	-9.69473625802632E-02 
2430	-0.267135813739316 
2431	-0.244195308354675 
2432	-0.543537533667889 
2433	-1.05757755092406 
2434	-1.10910764791848 
2435	-1.50172192806495 
2436	-1.74879409586378 
2437	-116.861135538233 
2438	-0.599849183875659 
2439	-3.84399536110586 
2440	 24.7869062639493 
2441	 0.833597049277468 
2442	 6.35215935786758E-02 
2443	-0.426313777534804 
2444	 4.71357555627815 
2445	-2.20184280557778 
2446	-0.975545373721362 
2447	-0.91310487350915 
2448	-0.94751101327297 
2449	 3.95434362455028E-02 
2450	 5.62390503086522E-02 
2451	-0.627888595848135 
2452	-0.688439500942122 
2453	-1.00472066685948 
2454	-0.566221271657196 
2455	 3.01973830281712E-02 
2456	 0.149414889474297 
2457	 0.210848482233479 
2458	 6.10746996374798E-03 
2459	-0.146841831461233 
2460	 0.325893201133597 
2461	 0.408672270491342 
2462	 0.628290378424937 
2463	 0.477929633534874 
2464	 0.373471687136523 
2465	 0.256329133965844 
2466	 0.120706421837963 
2467	 0.287837544777582 
2468	-0.806417543530285 
2469	-5.53906238002017 
2470	 5.99704013336726 
2471	 13.2026689726645 
2472	 7.54834340324804 
2473	 3.10340385724994 
2474	 3.46228027806584 
2475	 0.805767561851753 
2476	 0.538329572926517 
2477	 0.548021970360542 
2478	 0.736569405925101 
2479	-0.384594293958318 
2480	-0.244216023146227 
2481	 2.07553888044495E-02 
2482	 0.529234393403133 
2483	 0.674974548715914 
2484	 0.878709356232918 
2485	 0.817575885298461 
2486	 0.420661361539804 
2487	 0.698132911433979 
2488	 0.789187405932458 
2489	 0.493518014165496 
2490	 0.87047130748289 
2491	 0.453419191916396 
2492	 5.73385749115437E-02 
2493	 0.589312859313232 
2494	 0.790484825231117 
2495	 2.45608349025557 
2496	-9.6083950480431 
2497	-1.80010380376052 
2498	 3.04113248941085 
2499	 3.46534256200978 
2500	 1.99304589899275 
