Wavelength	rt0713east_far00006.asd
350	 7.86617941688908E-02 
351	 7.85765340568019E-02 
352	 7.84941908667254E-02 
353	 7.83602945581131E-02 
354	 7.80723087245486E-02 
355	 7.75389242594319E-02 
356	 7.75489055396565E-02 
357	 7.79479409999078E-02 
358	 7.82171481026612E-02 
359	 7.77347519234593E-02 
360	 7.76749969877417E-02 
361	 7.77965861617939E-02 
362	 0.077064936519502 
363	 7.71812572724047E-02 
364	 7.73164307682142E-02 
365	 7.70891231465146E-02 
366	 7.72673127192428E-02 
367	 0.077215278768453 
368	 0.077119251735272 
369	 7.72904192399245E-02 
370	 7.77464313086887E-02 
371	 0.077845316330127 
372	 0.077694840803236 
373	 7.78438446474864E-02 
374	 7.84225641255543E-02 
375	 7.82846111281705E-02 
376	 7.75242692731235E-02 
377	 7.80306842614888E-02 
378	 7.85279138353096E-02 
379	 7.83684458236801E-02 
380	 7.76517988551234E-02 
381	 7.82718971440306E-02 
382	 7.84512797623705E-02 
383	 7.83496565298618E-02 
384	 7.88438674883171E-02 
385	 7.85827738600045E-02 
386	 7.90188537778307E-02 
387	 7.99220628784223E-02 
388	 7.91254867972744E-02 
389	 7.93617313049839E-02 
390	 7.98630864578644E-02 
391	 7.98341386875673E-02 
392	 8.01879218378149E-02 
393	 8.01405006726724E-02 
394	 8.01629991517029E-02 
395	 0.080816319017129 
396	 8.06160467898487E-02 
397	 8.04552157512355E-02 
398	 8.05761339519669E-02 
399	 8.05619430431764E-02 
400	 8.06849954964567E-02 
401	 0.081014423600172 
402	 0.081336558490194 
403	 8.07509692573914E-02 
404	 8.10328835504822E-02 
405	 8.16921396391119E-02 
406	 8.16390840360546E-02 
407	 8.17061960871504E-02 
408	 8.18210962882949E-02 
409	 8.19671523021336E-02 
410	 8.22239170483099E-02 
411	 8.24341127108446E-02 
412	 8.25225465783852E-02 
413	 8.25025054433942E-02 
414	 8.25042094605762E-02 
415	 8.28368997709036E-02 
416	 8.31368579659299E-02 
417	 0.08299981251378 
418	 0.083645412769359 
419	 8.40317924996303E-02 
420	 8.39252629433036E-02 
421	 8.41089659652422E-02 
422	 8.43920043043166E-02 
423	 8.47007760467218E-02 
424	 8.50112803842482E-02 
425	 8.54300301721219E-02 
426	 8.56416939998177E-02 
427	 8.58532207046051E-02 
428	 8.64172654797789E-02 
429	 8.67452792729775E-02 
430	 8.71592751693459E-02 
431	 8.76387381421754E-02 
432	 8.76820090887806E-02 
433	 8.79556547911017E-02 
434	 8.84418827347123E-02 
435	 8.89447514706593E-02 
436	 0.089238610544195 
437	 8.95305149257574E-02 
438	 8.98707669738799E-02 
439	 9.02193245123608E-02 
440	 9.05670772224124E-02 
441	 9.10367631291893E-02 
442	 9.15589327991174E-02 
443	 0.091764985901425 
444	 9.20045172410604E-02 
445	 9.23317863182144E-02 
446	 9.27117346177374E-02 
447	 9.31089152600227E-02 
448	 9.35586103630362E-02 
449	 9.39228423902837E-02 
450	 9.39931894350858E-02 
451	 9.43294550109798E-02 
452	 9.46763295419545E-02 
453	 9.48554734402553E-02 
454	 9.50825433064847E-02 
455	 9.54320043070989E-02 
456	 9.57501611886815E-02 
457	 9.58720947006837E-02 
458	 9.60877915494976E-02 
459	 9.63260923476382E-02 
460	 9.65753490320176E-02 
461	 9.68915664919339E-02 
462	 9.70928134518877E-02 
463	 9.72421779803297E-02 
464	 9.74345851664765E-02 
465	 9.77177904880246E-02 
466	 0.09792527707518 
467	 0.098006230016508 
468	 9.80400273640114E-02 
469	 9.85334828455112E-02 
470	 9.89712418087516E-02 
471	 9.90953794122687E-02 
472	 9.91187907809856E-02 
473	 9.91982008422227E-02 
474	 9.95268195674397E-02 
475	 0.100097579027317 
476	 0.1002427360895 
477	 0.100362371359849 
478	 0.100644313736105 
479	 0.101088518743463 
480	 0.101456425692961 
481	 0.10164964225512 
482	 0.101759943160956 
483	 0.102216232816576 
484	 0.102696961634945 
485	 0.103080346587543 
486	 0.103353669521844 
487	 0.103650768270544 
488	 0.10408650710392 
489	 0.104579933156552 
490	 0.104883192514092 
491	 0.10516553144227 
492	 0.105547959206538 
493	 0.106040794504039 
494	 0.106385358160815 
495	 0.106798216061375 
496	 0.107272226919106 
497	 0.107698824690559 
498	 0.10813030288975 
499	 0.108593793299866 
500	 0.109070115415543 
501	 0.10947219033184 
502	 0.109941041583515 
503	 0.110420770425337 
504	 0.110844921577235 
505	 0.111335041402938 
506	 0.111882079647307 
507	 0.112432948136651 
508	 0.112912257835546 
509	 0.113418137793839 
510	 0.113918035623175 
511	 0.114399096673772 
512	 0.114945101175359 
513	 0.115559921410369 
514	 0.116126660378721 
515	 0.116548248349287 
516	 0.117325848084734 
517	 0.118029467548221 
518	 0.118507980029692 
519	 0.119058160471311 
520	 0.119655593507933 
521	 0.120245841353349 
522	 0.120805500069142 
523	 0.121452383924966 
524	 0.12209347750792 
525	 0.122712256360869 
526	 0.123347665562283 
527	 0.123950130640164 
528	 0.124555267350775 
529	 0.125195477814648 
530	 0.125883808276403 
531	 0.126577941017404 
532	 0.127247170730221 
533	 0.127868516108594 
534	 0.128422854868175 
535	 0.129083475177468 
536	 0.129845384000411 
537	 0.130490673538877 
538	 0.131054320036244 
539	 0.131690637937437 
540	 0.132475338479076 
541	 0.133138345675494 
542	 0.133739078890785 
543	 0.134353285311279 
544	 0.13505451372397 
545	 0.135746014095789 
546	 0.136434212393632 
547	 0.137112616052418 
548	 0.137717499576946 
549	 0.138362030689606 
550	 0.139057130536686 
551	 0.139762659787022 
552	 0.140372138254552 
553	 0.141063837972649 
554	 0.141794171190751 
555	 0.142258464387839 
556	 0.142910389598091 
557	 0.143625136966719 
558	 0.144224341240707 
559	 0.144882335549105 
560	 0.145378828205734 
561	 0.145797240527983 
562	 0.146381865298294 
563	 0.146868760368814 
564	 0.147407383196657 
565	 0.147989105879039 
566	 0.148173502629008 
567	 0.148534594455384 
568	 0.149008718397809 
569	 0.149356571483333 
570	 0.149817728041025 
571	 0.150242456362016 
572	 0.150595238187632 
573	 0.150980540553844 
574	 0.151207121793724 
575	 0.151418672803386 
576	 0.151760075855185 
577	 0.152136478415718 
578	 0.152459809978566 
579	 0.152723646441174 
580	 0.152977055638561 
581	 0.153232695438341 
582	 0.153454019108024 
583	 0.153594922675115 
584	 0.153603177398133 
585	 0.153467808804601 
586	 0.153257817869745 
587	 0.153049990429448 
588	 0.152737854308525 
589	 0.152612321645559 
590	 0.152683917459832 
591	 0.152641572561569 
592	 0.152680291586115 
593	 0.152602571263011 
594	 0.152304774250784 
595	 0.152186681461925 
596	 0.152053329949748 
597	 0.151905802731297 
598	 0.15182457197246 
599	 0.151540639609648 
600	 0.15129031553534 
601	 0.15120341470525 
602	 0.151130141468557 
603	 0.150976359239967 
604	 0.150901485488184 
605	 0.151039361899068 
606	 0.150890057234721 
607	 0.150988040565018 
608	 0.15128341634196 
609	 0.151105761602544 
610	 0.1510752997959 
611	 0.151161888132906 
612	 0.151230742484677 
613	 0.151260855187358 
614	 0.151259895823428 
615	 0.151293905675638 
616	 0.151433836186276 
617	 0.15149125648727 
618	 0.151504375037572 
619	 0.15152644118667 
620	 0.151595314701793 
621	 0.151574371283694 
622	 0.151481688517291 
623	 0.151437089291686 
624	 0.151799095948708 
625	 0.151832160535606 
626	 0.151516246603923 
627	 0.151531954493299 
628	 0.151606300577611 
629	 0.151760263282351 
630	 0.151955239187988 
631	 0.151853058817246 
632	 0.151851569152882 
633	 0.151952804433712 
634	 0.151985622660941 
635	 0.152055268924645 
636	 0.152094087940932 
637	 0.15212723416239 
638	 0.152338369005897 
639	 0.152407379987493 
640	 0.152358464294493 
641	 0.152299452670491 
642	 0.15221005837394 
643	 0.152114762335097 
644	 0.15192762948763 
645	 0.151492735270168 
646	 0.151093075334387 
647	 0.15090680725489 
648	 0.150967468311781 
649	 0.151063198967868 
650	 0.151039719550828 
651	 0.150859451225709 
652	 0.150573134589223 
653	 0.150343242518713 
654	 0.149948168209453 
655	 0.149375899271695 
656	 0.149012681573116 
657	 0.148850692259473 
658	 0.148641924107079 
659	 0.148258080272948 
660	 0.148075427255382 
661	 0.147875906780886 
662	 0.147614928331103 
663	 0.14735637398543 
664	 0.147031554724886 
665	 0.146854058291233 
666	 0.146832575640122 
667	 0.14654981975265 
668	 0.146404227103135 
669	 0.146348781097138 
670	 0.14624871658631 
671	 0.146293036652742 
672	 0.146437233452963 
673	 0.146565213670199 
674	 0.146519200611157 
675	 0.14640971631023 
676	 0.146433602972141 
677	 0.146643361408906 
678	 0.146669270557624 
679	 0.14699267723485 
680	 0.147400010571435 
681	 0.147464285410533 
682	 0.147718290600241 
683	 0.147817681991734 
684	 0.147676462636333 
685	 0.147638892222077 
686	 0.147506469496625 
687	 0.147445110950249 
688	 0.147603528058914 
689	 0.147758866697896 
690	 0.147721859618618 
691	 0.147495062133812 
692	 0.147199571325978 
693	 0.146819808680566 
694	 0.146817285909071 
695	 0.147195467949079 
696	 0.147266435327775 
697	 0.146883720778936 
698	 0.146160247416406 
699	 0.145430428574438 
700	 0.145215171204849 
701	 0.145089663639774 
702	 0.144791009148081 
703	 0.144270754769445 
704	 0.143869433013582 
705	 0.143392990161565 
706	 0.142709014508885 
707	 0.141950608970051 
708	 0.141135511369973 
709	 0.140324496278325 
710	 0.139545670867714 
711	 0.138630021025984 
712	 0.137429360451899 
713	 0.135956916406859 
714	 0.13433460261347 
715	 0.132225690125278 
716	 0.129702645550277 
717	 0.12733358097847 
718	 0.12559907633701 
719	 0.124586367061977 
720	 0.123878977782315 
721	 0.122851830127371 
722	 0.121231923967938 
723	 0.119032690329436 
724	 0.116894267056159 
725	 0.11554006556476 
726	 0.113849594196282 
727	 0.11187406044193 
728	 0.109858521741739 
729	 0.107662599726416 
730	 0.105677991717183 
731	 0.104147985973481 
732	 0.102923776658155 
733	 0.101252454516203 
734	 9.97099575901874E-02 
735	 0.098559942854 
736	 9.75488583604231E-02 
737	 9.71407522721938E-02 
738	 9.68914048123017E-02 
739	 9.64360502857926E-02 
740	 9.62404670480551E-02 
741	 0.096335535515294 
742	 9.64152610530561E-02 
743	 0.096099788964705 
744	 9.59076136268113E-02 
745	 9.58716596622583E-02 
746	 9.59257548989378E-02 
747	 0.095942012697861 
748	 9.59448058392162E-02 
749	 9.58803984532405E-02 
750	 9.57630118812202E-02 
751	 9.58941943255962E-02 
752	 9.58366549514022E-02 
753	 9.56490502351081E-02 
754	 9.56451948977591E-02 
755	 0.095753100196483 
756	 9.57603252159007E-02 
757	 9.55220385070862E-02 
758	 9.48458440896919E-02 
759	 9.40132967773747E-02 
760	 9.33118338362328E-02 
761	 9.31967085109104E-02 
762	 9.32944162653787E-02 
763	 9.39901638179495E-02 
764	 9.48059571942094E-02 
765	 9.52500938772886E-02 
766	 9.57076426089598E-02 
767	 9.60779729761553E-02 
768	 0.096358606956313 
769	 9.66347852762963E-02 
770	 9.68223571923247E-02 
771	 9.69992914976786E-02 
772	 9.72022186204518E-02 
773	 9.72482274821923E-02 
774	 9.74406405399065E-02 
775	 9.77376224773697E-02 
776	 9.79773901083352E-02 
777	 9.82756697962035E-02 
778	 9.86663009894927E-02 
779	 9.90608552011137E-02 
780	 9.92724688793321E-02 
781	 9.94403044928566E-02 
782	 0.099699929228051 
783	 0.100101872466321 
784	 0.100546484025148 
785	 0.100661003826456 
786	 0.100672664696136 
787	 0.100971083823824 
788	 0.101426571440776 
789	 0.101831467303111 
790	 0.102184126843315 
791	 0.102665395687538 
792	 0.103343583521029 
793	 0.10387928960296 
794	 0.104129182625942 
795	 0.104320036157347 
796	 0.104638641429411 
797	 0.105006865802572 
798	 0.10533064932053 
799	 0.105742628815036 
800	 0.106005006454649 
801	 0.106201658530105 
802	 0.106565091536298 
803	 0.106882892374975 
804	 0.107128562643562 
805	 0.107363562918958 
806	 0.107694071972227 
807	 0.107275177504696 
808	 0.106704310325466 
809	 0.106536007696904 
810	 0.106436582484976 
811	 0.105888007373811 
812	 0.104805993589478 
813	 0.103545067248834 
814	 0.1033974242548 
815	 0.103045963074762 
816	 0.102248894816625 
817	 0.101824397053917 
818	 0.101727758823339 
819	 0.101540948798684 
820	 0.100984784694524 
821	 9.99411147607398E-02 
822	 9.86932573228327E-02 
823	 9.73004496582512E-02 
824	 9.59008393923172E-02 
825	 9.48571801823142E-02 
826	 9.31350345246385E-02 
827	 9.10381310949758E-02 
828	 0.089429033619786 
829	 8.78635976762513E-02 
830	 8.64191759802669E-02 
831	 8.51871307422495E-02 
832	 8.42771790167081E-02 
833	 8.36252755411606E-02 
834	 8.28653437342938E-02 
835	 8.20083151321096E-02 
836	 8.15686614630858E-02 
837	 8.10860895575911E-02 
838	 8.08960154595014E-02 
839	 8.10346004426874E-02 
840	 8.03309810129967E-02 
841	 7.99298955754505E-02 
842	 0.079885928064373 
843	 7.98142320692654E-02 
844	 7.93768977468426E-02 
845	 7.87106742500023E-02 
846	 0.078358323120339 
847	 7.88710834347585E-02 
848	 7.85133418558027E-02 
849	 7.80369874429134E-02 
850	 7.78640825852909E-02 
851	 7.76026959318719E-02 
852	 7.69244645182729E-02 
853	 7.66224129551949E-02 
854	 7.69294001188112E-02 
855	 7.64065730253796E-02 
856	 7.61373643398062E-02 
857	 7.59999688785454E-02 
858	 7.57276332135877E-02 
859	 7.58223604712486E-02 
860	 7.54892328928377E-02 
861	 0.074999314222491 
862	 7.49854012407804E-02 
863	 7.45956749110756E-02 
864	 7.45118998998513E-02 
865	 7.45703918852134E-02 
866	 7.39325728276662E-02 
867	 7.40626293572244E-02 
868	 7.39303481972185E-02 
869	 7.31926533828656E-02 
870	 7.28125506420775E-02 
871	 0.072899508781611 
872	 7.27722284057728E-02 
873	 7.20799232142513E-02 
874	 7.16243136825521E-02 
875	 7.10550363597375E-02 
876	 7.05492819131782E-02 
877	 7.03219256169199E-02 
878	 0.070189540199378 
879	 6.99581050961105E-02 
880	 6.96938693978473E-02 
881	 6.94968015778119E-02 
882	 6.88932396151245E-02 
883	 6.80806943035866E-02 
884	 6.74539602198218E-02 
885	 6.74131080073197E-02 
886	 0.067461162440947 
887	 6.73004939467444E-02 
888	 6.69693340875582E-02 
889	 6.67828589577622E-02 
890	 6.54412243574479E-02 
891	 0.065008462057438 
892	 6.60200100836914E-02 
893	 6.48519864721564E-02 
894	 6.40846514719389E-02 
895	 6.33378231118326E-02 
896	 6.20466715682757E-02 
897	 6.19444494281265E-02 
898	 6.15891024208042E-02 
899	 6.10729889709557E-02 
900	 6.09897714019549E-02 
901	 6.15446325951263E-02 
902	 6.15867717448251E-02 
903	 6.12088801398049E-02 
904	 6.07470335242651E-02 
905	 5.89084974507081E-02 
906	 5.90913096238431E-02 
907	 6.03078235288015E-02 
908	 5.87835897883437E-02 
909	 5.83339274706351E-02 
910	 5.83665944590886E-02 
911	 5.84265204241196E-02 
912	 5.84752893439433E-02 
913	 5.75200102043794E-02 
914	 5.62571095025193E-02 
915	 5.54985175436452E-02 
916	 5.56494862163661E-02 
917	 5.54538415126243E-02 
918	 5.46097956319362E-02 
919	 5.37360246818598E-02 
920	 5.42364299711378E-02 
921	 5.36559514249429E-02 
922	 5.28305917345345E-02 
923	 5.23805424818127E-02 
924	 5.10623209441573E-02 
925	 5.23317391761299E-02 
926	 5.24951242325029E-02 
927	 4.81816881618497E-02 
928	 4.77327389744421E-02 
929	 4.79592575593936E-02 
930	 4.71604649932718E-02 
931	 4.44698691821627E-02 
932	 4.24260184420597E-02 
933	 4.53488087569829E-02 
934	 4.98106332468057E-02 
935	 4.84198255026515E-02 
936	 3.99046741301009E-02 
937	 4.39500131572146E-02 
938	 4.71665104763164E-02 
939	 3.67868360285427E-02 
940	 3.89328146567647E-02 
941	 3.89522675558906E-02 
942	 3.67637202908371E-02 
943	 0.038914975664861 
944	 0.042377339618246 
945	 3.97154931407266E-02 
946	 3.25724087762401E-02 
947	 2.96054060875512E-02 
948	 4.39509936685212E-02 
949	 4.34071454864662E-02 
950	 3.32218410818812E-02 
951	 3.84689978840834E-02 
952	 4.27220129634572E-02 
953	 4.11093464645918E-02 
954	 0.034511168786469 
955	 2.87858353076836E-02 
956	 3.62186243537592E-02 
957	 3.76057107786485E-02 
958	 3.26576020067355E-02 
959	 3.41798839857227E-02 
960	 3.93880236783901E-02 
961	 4.37828212315085E-02 
962	 4.30040730998373E-02 
963	 3.60311546186054E-02 
964	 3.49832735898706E-02 
965	 3.81191709142304E-02 
966	 4.10458953893241E-02 
967	 4.01925633245915E-02 
968	 4.39331776441602E-02 
969	 4.17592302415364E-02 
970	 3.62439232148387E-02 
971	 3.99452712848868E-02 
972	 4.22286448849039E-02 
973	 4.01351274472639E-02 
974	 3.82039544347261E-02 
975	 4.45408803664669E-02 
976	 4.16818827686083E-02 
977	 0.03881351600389 
978	 3.99949417174192E-02 
979	 4.16310409682248E-02 
980	 4.08606405737253E-02 
981	 4.05459162743533E-02 
982	 4.13674637593765E-02 
983	 4.19574234758735E-02 
984	 4.35743550194516E-02 
985	 4.28364278800173E-02 
986	 4.04547709761693E-02 
987	 4.03639233947413E-02 
988	 4.35392571457711E-02 
989	 4.51779897347803E-02 
990	 0.044017831805987 
991	 4.21157502756563E-02 
992	 0.040494712030594 
993	 0.040389253548483 
994	 4.10722650944756E-02 
995	 4.07241969533825E-02 
996	 3.91957201568754E-02 
997	 4.34194188356496E-02 
998	 4.67582499665934E-02 
999	 0.039194891873247 
1000	 4.02249690307081E-02 
1001	 3.80237949377578E-02 
1002	 3.80455978935739E-02 
1003	 3.80739434119896E-02 
1004	 3.80040919391843E-02 
1005	 3.83674070325686E-02 
1006	 3.89694752758046E-02 
1007	 0.039680501826788 
1008	 4.08687774070286E-02 
1009	 4.09452641767252E-02 
1010	 3.99162685776676E-02 
1011	 3.90187434131164E-02 
1012	 3.81097293763612E-02 
1013	 3.73874087827086E-02 
1014	 3.70127461623478E-02 
1015	 3.71665407057567E-02 
1016	 3.74575518827006E-02 
1017	 3.80963691857939E-02 
1018	 3.85147425735613E-02 
1019	 3.96643263550294E-02 
1020	 3.99910384292654E-02 
1021	 3.97090715393429E-02 
1022	 3.90749602040702E-02 
1023	 3.90853489277248E-02 
1024	 3.89785442894013E-02 
1025	 3.96600184099618E-02 
1026	 4.06843040873672E-02 
1027	 4.10763532166497E-02 
1028	 4.13759762627582E-02 
1029	 4.14280264858711E-02 
1030	 4.08151729590169E-02 
1031	 4.07999129357954E-02 
1032	 4.11963201065373E-02 
1033	 4.11748858135811E-02 
1034	 4.10599948205864E-02 
1035	 4.11471301690416E-02 
1036	 4.09098719814424E-02 
1037	 0.040895461776698 
1038	 4.11966059703533E-02 
1039	 4.15486382813024E-02 
1040	 0.041937500845278 
1041	 4.22698295459854E-02 
1042	 4.22871228819503E-02 
1043	 4.21518262970971E-02 
1044	 4.21585601198264E-02 
1045	 4.17987929586136E-02 
1046	 4.18529492015677E-02 
1047	 4.23849302317646E-02 
1048	 4.25970128887619E-02 
1049	 4.28701525395097E-02 
1050	 4.28871526254864E-02 
1051	 0.042537122931975 
1052	 4.24959468032802E-02 
1053	 4.22304446298997E-02 
1054	 4.23196089857102E-02 
1055	 0.043011069780468 
1056	 4.33868161141502E-02 
1057	 4.37260015170885E-02 
1058	 4.41810206763923E-02 
1059	 0.044388711598609 
1060	 4.43066287095657E-02 
1061	 0.044406044881492 
1062	 4.46634459122274E-02 
1063	 4.45458431658178E-02 
1064	 0.04421970573635 
1065	 4.39824330339439E-02 
1066	 0.043393165873092 
1067	 4.31194050489299E-02 
1068	 0.043014045851294 
1069	 0.043026106885908 
1070	 4.29902976863538E-02 
1071	 4.32901118388352E-02 
1072	 4.42109592901452E-02 
1073	 4.48777095499298E-02 
1074	 4.49456873732364E-02 
1075	 4.49885695760856E-02 
1076	 4.46781301723621E-02 
1077	 4.33177344014226E-02 
1078	 4.29544584303263E-02 
1079	 4.29518200751889E-02 
1080	 4.29177398741304E-02 
1081	 4.34372458983796E-02 
1082	 4.33329268394305E-02 
1083	 4.28352188772264E-02 
1084	 0.042613273497388 
1085	 4.20168845675119E-02 
1086	 4.17642428206023E-02 
1087	 4.22387124915903E-02 
1088	 4.21939593830621E-02 
1089	 4.15590399580562E-02 
1090	 4.17205043868297E-02 
1091	 0.041461633684959 
1092	 4.06364412515851E-02 
1093	 4.03796308078134E-02 
1094	 4.05499139780037E-02 
1095	 0.040529998454359 
1096	 4.09046956416844E-02 
1097	 4.08138247018425E-02 
1098	 4.01974524547431E-02 
1099	 3.97651224196828E-02 
1100	 3.92626383692219E-02 
1101	 3.86789682678487E-02 
1102	 0.037790742429865 
1103	 0.037532070445391 
1104	 3.74752404956564E-02 
1105	 3.73739290542267E-02 
1106	 3.90752333937082E-02 
1107	 4.02321710891548E-02 
1108	 3.78600236107648E-02 
1109	 0.036188378211791 
1110	 3.60849240572944E-02 
1111	 3.53100029977799E-02 
1112	 3.54458588557632E-02 
1113	 4.06787187258762E-02 
1114	 4.06542092963777E-02 
1115	 0.034733723321942 
1116	 3.21626927413806E-02 
1117	 2.76244493970409E-02 
1118	 2.53261267202873E-02 
1119	 2.87867172676683E-02 
1120	 2.89695364709269E-02 
1121	 2.70535441516908E-02 
1122	 3.21122190495028E-02 
1123	 2.99413542721784E-02 
1124	 2.29282256018976E-02 
1125	 3.06207804316952E-02 
1126	 3.64908899511909E-02 
1127	 3.42383379376281E-02 
1128	 3.84516692967952E-02 
1129	 0.035929154085624 
1130	 1.92781443468677E-02 
1131	 1.80931720607554E-02 
1132	 2.43717589663135E-02 
1133	 2.52924639780723E-02 
1134	 2.80282597671899E-02 
1135	 3.00296446037044E-02 
1136	 3.21253819765615E-02 
1137	 3.25619844782135E-02 
1138	 3.43249381816588E-02 
1139	 2.82321522245489E-02 
1140	 2.96663723392282E-02 
1141	 0.031897977495961 
1142	 0.028629023423215 
1143	 3.34162775788234E-02 
1144	 3.63972124066692E-02 
1145	 3.67322136332287E-02 
1146	 3.98332162489836E-02 
1147	 3.74874823909079E-02 
1148	 3.41292376842931E-02 
1149	 2.95174920456275E-02 
1150	 2.82586728286531E-02 
1151	 3.17251631633235E-02 
1152	 3.20198004917579E-02 
1153	 2.98737354600238E-02 
1154	 3.07795920048317E-02 
1155	 3.22568984241861E-02 
1156	 3.33682353884474E-02 
1157	 3.41722644639971E-02 
1158	 3.38386362335742E-02 
1159	 3.28439493280215E-02 
1160	 3.29453125287145E-02 
1161	 0.033561749467358 
1162	 3.48577971340144E-02 
1163	 3.57336822239851E-02 
1164	 3.48639113297492E-02 
1165	 3.47950869606678E-02 
1166	 0.035529894246564 
1167	 3.46254814857006E-02 
1168	 3.36508004794745E-02 
1169	 3.35894866832564E-02 
1170	 3.37564808078522E-02 
1171	 3.41169758455218E-02 
1172	 3.62554900012795E-02 
1173	 3.65713137390059E-02 
1174	 3.59123304493847E-02 
1175	 3.51889124974551E-02 
1176	 3.54498158908655E-02 
1177	 3.59087386593107E-02 
1178	 3.64751487557763E-02 
1179	 3.66358175587004E-02 
1180	 3.57330426361319E-02 
1181	 3.52317153424325E-02 
1182	 3.56774759721857E-02 
1183	 3.58796840377885E-02 
1184	 3.61615255819218E-02 
1185	 3.59422645314643E-02 
1186	 3.48763846408694E-02 
1187	 3.52108645038035E-02 
1188	 3.59834816876983E-02 
1189	 3.53105249997327E-02 
1190	 3.50753167669914E-02 
1191	 3.52051041698128E-02 
1192	 3.50740803332425E-02 
1193	 3.43230371340419E-02 
1194	 3.50134821172238E-02 
1195	 3.59156525945734E-02 
1196	 3.53237965555578E-02 
1197	 3.48791660361804E-02 
1198	 3.54250842553299E-02 
1199	 3.57899968272633E-02 
1200	 3.54947760147004E-02 
1201	 3.51252526379768E-02 
1202	 0.03486863231295 
1203	 3.47898253457655E-02 
1204	 3.49315915046317E-02 
1205	 3.55384626622988E-02 
1206	 3.59304443602149E-02 
1207	 3.52467381138975E-02 
1208	 3.50128682818253E-02 
1209	 3.56499289063994E-02 
1210	 3.56838114286025E-02 
1211	 3.54892415648317E-02 
1212	 3.58286865046836E-02 
1213	 3.56821722576748E-02 
1214	 3.56176386690854E-02 
1215	 3.54272550474525E-02 
1216	 3.60660159284779E-02 
1217	 3.62489800855134E-02 
1218	 3.59975050510331E-02 
1219	 3.60601621490734E-02 
1220	 3.57940659428807E-02 
1221	 3.55550443222933E-02 
1222	 3.60363899412367E-02 
1223	 3.62590028107364E-02 
1224	 3.58268740326039E-02 
1225	 3.57897929418434E-02 
1226	 3.61161170608247E-02 
1227	 3.61107227527471E-02 
1228	 0.0360953967838 
1229	 3.62304684323991E-02 
1230	 3.59795980686648E-02 
1231	 3.55126599286067E-02 
1232	 3.55911392563185E-02 
1233	 3.58833068656118E-02 
1234	 3.59977318787325E-02 
1235	 3.61046097018937E-02 
1236	 3.66077893202544E-02 
1237	 3.69727458860605E-02 
1238	 3.73919835399797E-02 
1239	 3.67609100732672E-02 
1240	 3.63972747054674E-02 
1241	 3.69648140034166E-02 
1242	 3.69331274047337E-02 
1243	 3.67719843004253E-02 
1244	 3.70460921920431E-02 
1245	 3.66569486001898E-02 
1246	 3.62955889012348E-02 
1247	 3.67746267937741E-02 
1248	 3.68994848523473E-02 
1249	 0.036649235716995 
1250	 3.64824869499077E-02 
1251	 3.60458244654615E-02 
1252	 3.61029583715232E-02 
1253	 3.66396579688786E-02 
1254	 3.66854701076478E-02 
1255	 3.65064614382476E-02 
1256	 3.64070879490242E-02 
1257	 3.63089798765053E-02 
1258	 3.61346747740878E-02 
1259	 3.57980925601799E-02 
1260	 3.57313491109972E-02 
1261	 0.035871425042782 
1262	 3.59941954973129E-02 
1263	 3.63132324673656E-02 
1264	 3.61867469427116E-02 
1265	 3.64068127490982E-02 
1266	 3.61837161219409E-02 
1267	 3.54091841690304E-02 
1268	 3.53969141671224E-02 
1269	 3.56947609719556E-02 
1270	 3.57709564299546E-02 
1271	 3.59625235734415E-02 
1272	 3.63108603413601E-02 
1273	 3.61663222076386E-02 
1274	 3.56269238907878E-02 
1275	 0.035606766575707 
1276	 0.035801995231086 
1277	 3.58052507351315E-02 
1278	 3.59753981256799E-02 
1279	 3.61388846359066E-02 
1280	 3.56852331812821E-02 
1281	 3.55766051928988E-02 
1282	 3.56609100664703E-02 
1283	 3.57604064322744E-02 
1284	 3.60676032663352E-02 
1285	 3.60082555952989E-02 
1286	 3.55035917364107E-02 
1287	 3.54304589688476E-02 
1288	 3.56141521848158E-02 
1289	 0.035523375891173 
1290	 3.57737386276819E-02 
1291	 3.52527884416173E-02 
1292	 3.48573044774997E-02 
1293	 3.50930010408243E-02 
1294	 3.51093995422303E-02 
1295	 3.52453572705646E-02 
1296	 3.56640766936207E-02 
1297	 3.52885217458019E-02 
1298	 3.45445039508282E-02 
1299	 3.43756339685355E-02 
1300	 3.43397064367613E-02 
1301	 3.38645685194428E-02 
1302	 0.033483284009688 
1303	 0.034490084537793 
1304	 3.49962039935327E-02 
1305	 3.36968403083508E-02 
1306	 3.34770104287659E-02 
1307	 0.033979086485268 
1308	 3.38145059266083E-02 
1309	 3.34867966662538E-02 
1310	 3.33540363396757E-02 
1311	 3.25293348101648E-02 
1312	 3.22002605096751E-02 
1313	 3.27770600325609E-02 
1314	 3.26431499865663E-02 
1315	 3.19606021051288E-02 
1316	 3.20545414172205E-02 
1317	 3.28920565694286E-02 
1318	 0.032547028286305 
1319	 3.10712621230672E-02 
1320	 3.10451947398876E-02 
1321	 3.11269836066277E-02 
1322	 3.12962793307907E-02 
1323	 0.031100649409338 
1324	 3.08840955210202E-02 
1325	 3.03122074383916E-02 
1326	 2.91229129284935E-02 
1327	 2.89381015753173E-02 
1328	 3.20299606818531E-02 
1329	 3.43063392487275E-02 
1330	 3.24385715065004E-02 
1331	 3.15782620859238E-02 
1332	 3.27012864798542E-02 
1333	 3.09690710889427E-02 
1334	 2.83828929413109E-02 
1335	 2.74714827581343E-02 
1336	 2.77036966181859E-02 
1337	 2.66661736982888E-02 
1338	 0.025101059998333 
1339	 2.52500072097828E-02 
1340	 2.64309013831115E-02 
1341	 2.56140954000097E-02 
1342	 2.58964499312473E-02 
1343	 2.53492055370826E-02 
1344	 1.95887475679022E-02 
1345	 1.76467399573244E-02 
1346	 2.07806637845309E-02 
1347	 2.13121746886027E-02 
1348	 2.02067569206223E-02 
1349	 2.12432161720925E-02 
1350	 0.031902510254474 
1351	 3.44071612938789E-02 
1352	 1.97554960086892E-02 
1353	 1.54581842427528E-02 
1354	 1.44186001854305E-02 
1355	-6.07086712628917E-02 
1356	-0.178735954169435 
1357	-0.132862812782418 
1358	-1.17593739662825E-02 
1359	 1.46619173626629E-02 
1360	-5.37474967609222E-02 
1361	 8.70787712270425E-02 
1362	 0.292789122215594 
1363	 5.77187042939593E-02 
1364	-0.089270040062221 
1365	-1.78581860146368E-02 
1366	 0.238124483509916 
1367	 3.56784757770084E-02 
1368	-0.167268153588814 
1369	-0.115293455556595 
1370	 0.170500399450287 
1371	 0.154454788678896 
1372	 4.17775277034377E-02 
1373	 0.202334890088969 
1374	 0.449736987262371 
1375	 0.366852008615448 
1376	 6.39569181749305E-03 
1377	-0.468516026659393 
1378	-0.2389627518609 
1379	-0.116349693220503 
1380	-0.264508700503358 
1381	 9.12785217754423E-02 
1382	 0.462369553036973 
1383	 0.211751715527276 
1384	-0.276544977697964 
1385	-0.290713795728393 
1386	-1.04364679445072E-02 
1387	-8.54692892135447E-02 
1388	-0.49281906111746 
1389	-0.414453245139759 
1390	-4.50011712420075E-02 
1391	 0.18113566049886 
1392	-2.36934314334985 
1393	-2.13268606544831 
1394	 1.20571677422035 
1395	 8.79517588389342E-02 
1396	-0.203807594705801 
1397	-0.227411464008649 
1398	-2.43829537486042E-02 
1399	 0.155543268317316 
1400	 7.53101255985694E-02 
1401	-0.580583569467416 
1402	-0.483536345208234 
1403	-0.281985650717574 
1404	-0.820566034866 
1405	-0.802359881127225 
1406	-0.272231207250593 
1407	-9.86737635514328E-02 
1408	 0.189852879568352 
1409	 8.74776536273584E-02 
1410	-0.161200771565371 
1411	-0.113564451640043 
1412	 0.222663694716491 
1413	-3.51939183676496E-03 
1414	-0.281043519121727 
1415	-9.86667734630235E-02 
1416	-6.85349516621265E-02 
1417	-0.127101880556163 
1418	-4.35045443288226E-02 
1419	-9.33574972041943E-04 
1420	-0.181213949388772 
1421	-0.133328602768847 
1422	 0.162156310441769 
1423	 0.167921235815274 
1424	 3.95660456066822E-03 
1425	 3.20765866961664E-02 
1426	 0.133660497308836 
1427	 9.25789729986138E-02 
1428	 3.86451388409382E-02 
1429	 0.041341464189849 
1430	-4.46950433046403E-02 
1431	-8.05268556687459E-02 
1432	-2.43238538858703E-03 
1433	 2.34372274886395E-02 
1434	-8.64518307619584E-03 
1435	-6.28189354194245E-03 
1436	 2.26091128885514E-02 
1437	 5.25484281872148E-02 
1438	 4.55504471310002E-02 
1439	 2.60121838567208E-02 
1440	 0.018130069017975 
1441	 0.014002889687046 
1442	-8.82814212208476E-04 
1443	 2.41021615152955E-02 
1444	 4.01838424456505E-02 
1445	 8.23958839057099E-03 
1446	-0.011424713982027 
1447	-9.01240761893132E-04 
1448	 2.12274858662158E-02 
1449	 2.73866106473485E-02 
1450	 2.07855675603535E-02 
1451	 2.25722299486608E-02 
1452	 2.64559818325564E-02 
1453	 1.73907888394259E-02 
1454	 1.16893887962476E-02 
1455	 1.00377125260027E-02 
1456	 1.48531353356798E-02 
1457	 1.78132617546498E-02 
1458	 0.018172514244971 
1459	 2.52701337192154E-02 
1460	 2.83304577206829E-02 
1461	 2.34488138798428E-02 
1462	 2.21732676464505E-02 
1463	 2.78322484670439E-02 
1464	 2.99364357496038E-02 
1465	 2.48854859362026E-02 
1466	 2.36633577944426E-02 
1467	 0.028920431229521 
1468	 0.027667574185027 
1469	 0.018363098205867 
1470	 1.89063647302451E-02 
1471	 2.50487937751044E-02 
1472	 2.60209867410667E-02 
1473	 2.86906640071274E-02 
1474	 2.99081656824577E-02 
1475	 2.73942533110405E-02 
1476	 2.78194558681001E-02 
1477	 3.09730644704581E-02 
1478	 2.96332261616284E-02 
1479	 2.45059869498113E-02 
1480	 2.60394376880289E-02 
1481	 3.08287473819778E-02 
1482	 3.10607447246161E-02 
1483	 3.34893734782064E-02 
1484	 3.21796657375116E-02 
1485	 2.39096297349365E-02 
1486	 2.33132681093507E-02 
1487	 2.75546398911377E-02 
1488	 2.72682449044417E-02 
1489	 0.02580550563258 
1490	 2.65533924319281E-02 
1491	 2.66784120961242E-02 
1492	 2.70731564325554E-02 
1493	 2.97284904273003E-02 
1494	 3.05096459792725E-02 
1495	 2.91496486216742E-02 
1496	 2.91566156827261E-02 
1497	 3.01113496898158E-02 
1498	 3.00494345667845E-02 
1499	 2.95297341760185E-02 
1500	 2.99565524470581E-02 
1501	 3.07230634452258E-02 
1502	 3.06851788851193E-02 
1503	 3.02714892538623E-02 
1504	 3.07672371200487E-02 
1505	 3.16414835236816E-02 
1506	 3.15983743442468E-02 
1507	 3.10783402545934E-02 
1508	 3.14025021967364E-02 
1509	 3.16838513994051E-02 
1510	 3.16406446286994E-02 
1511	 3.22508252580271E-02 
1512	 3.30985143234816E-02 
1513	 0.033262762827611 
1514	 3.28384803010137E-02 
1515	 3.28943703083588E-02 
1516	 3.38054790369428E-02 
1517	 3.39278225327491E-02 
1518	 3.35765687658921E-02 
1519	 3.35508367372594E-02 
1520	 3.30501134704387E-02 
1521	 3.31003863362189E-02 
1522	 3.37417607640405E-02 
1523	 3.36917011942622E-02 
1524	 3.35437095126164E-02 
1525	 3.37784742401183E-02 
1526	 3.35611938033523E-02 
1527	 3.36041487096303E-02 
1528	 3.44875928200656E-02 
1529	 3.46531953543027E-02 
1530	 3.43252895185247E-02 
1531	 3.43611609660507E-02 
1532	 3.44887975353918E-02 
1533	 3.45064420110106E-02 
1534	 3.40821138344822E-02 
1535	 3.40526798292692E-02 
1536	 3.43475090267492E-02 
1537	 3.38933122484219E-02 
1538	 3.38779570509551E-02 
1539	 3.43832233951509E-02 
1540	 0.034272425148558 
1541	 3.40615907557125E-02 
1542	 3.42207796889062E-02 
1543	 3.45982499604905E-02 
1544	 3.46499336528591E-02 
1545	 3.44216327842516E-02 
1546	 3.45111376567725E-02 
1547	 3.48570218771929E-02 
1548	 3.50898200431409E-02 
1549	 3.50016433844246E-02 
1550	 3.49652597916423E-02 
1551	 3.48501078937008E-02 
1552	 3.45037172674129E-02 
1553	 3.46823763883765E-02 
1554	 3.52893403273973E-02 
1555	 3.56076680707013E-02 
1556	 3.56061372387053E-02 
1557	 3.54657517669656E-02 
1558	 3.52762033331638E-02 
1559	 3.49074295005136E-02 
1560	 3.45119706149333E-02 
1561	 3.46080923896537E-02 
1562	 0.034809076741286 
1563	 3.48254155144262E-02 
1564	 3.50850596528292E-02 
1565	 3.51381782188984E-02 
1566	 3.48102468090691E-02 
1567	 3.50736353235875E-02 
1568	 3.52682545905734E-02 
1569	 0.03530119692354 
1570	 3.61073363345111E-02 
1571	 3.62490405975161E-02 
1572	 3.59501739524369E-02 
1573	 3.61774440247468E-02 
1574	 3.56717517795439E-02 
1575	 3.49519846769923E-02 
1576	 3.49303471667106E-02 
1577	 3.51941161128987E-02 
1578	 3.54405783818457E-02 
1579	 3.50230716652579E-02 
1580	 3.45213369871644E-02 
1581	 3.45200284610654E-02 
1582	 3.48102494327653E-02 
1583	 3.53593832560259E-02 
1584	 3.52989047567073E-02 
1585	 3.47255496090301E-02 
1586	 3.45711760163701E-02 
1587	 3.51680954760802E-02 
1588	 0.036049897002581 
1589	 3.60871648273744E-02 
1590	 3.57482460970566E-02 
1591	 3.59492126777782E-02 
1592	 3.59965351547493E-02 
1593	 3.59290763087504E-02 
1594	 0.036194318318721 
1595	 3.62955854617704E-02 
1596	 3.61461207618575E-02 
1597	 3.60806421538087E-02 
1598	 3.60466036794039E-02 
1599	 3.56286093474161E-02 
1600	 3.52988009597833E-02 
1601	 3.58668932363797E-02 
1602	 3.60514986542055E-02 
1603	 3.56708948606913E-02 
1604	 3.59851298680478E-02 
1605	 3.58166498994075E-02 
1606	 3.52262274235445E-02 
1607	 3.53393325983167E-02 
1608	 3.54325632432525E-02 
1609	 3.52545152863301E-02 
1610	 3.52674864785137E-02 
1611	 3.52326698765886E-02 
1612	 3.52004104019728E-02 
1613	 3.56864056276994E-02 
1614	 3.56148257943277E-02 
1615	 3.51226689904895E-02 
1616	 3.51132385550944E-02 
1617	 0.034971186912101 
1618	 3.53517274840782E-02 
1619	 3.59547299118282E-02 
1620	 3.59808490890727E-02 
1621	 3.62264343676831E-02 
1622	 3.61609636259825E-02 
1623	 3.55131496672985E-02 
1624	 3.53729722759962E-02 
1625	 3.51141702826244E-02 
1626	 3.46687726357004E-02 
1627	 3.54052958087699E-02 
1628	 3.58125949332808E-02 
1629	 3.48676634506986E-02 
1630	 0.034649781607265 
1631	 3.52595906756437E-02 
1632	 3.54533400312378E-02 
1633	 3.57857153263636E-02 
1634	 3.58878943885296E-02 
1635	 3.51279412091408E-02 
1636	 3.49202616160352E-02 
1637	 3.52106788225783E-02 
1638	 3.52617914424087E-02 
1639	 3.55254949595284E-02 
1640	 3.53575444269386E-02 
1641	 3.49907201538179E-02 
1642	 3.56212534422989E-02 
1643	 3.63881947290255E-02 
1644	 3.61538631182183E-02 
1645	 3.56090081284483E-02 
1646	 3.57689930686027E-02 
1647	 0.036496422653247 
1648	 3.65627582145102E-02 
1649	 3.61271792935515E-02 
1650	 3.60575202553449E-02 
1651	 0.035165811486908 
1652	 3.47103370627778E-02 
1653	 3.66525836379524E-02 
1654	 3.66060334643877E-02 
1655	 0.0352677963058 
1656	 3.53365794148264E-02 
1657	 3.51590044946322E-02 
1658	 3.50162630017684E-02 
1659	 3.62421426716536E-02 
1660	 3.65922402919103E-02 
1661	 3.57155822337816E-02 
1662	 3.57517244086231E-02 
1663	 3.66514941668877E-02 
1664	 3.64112960416233E-02 
1665	 3.55690853730596E-02 
1666	 3.56648616849417E-02 
1667	 3.55120350764315E-02 
1668	 3.59260011633213E-02 
1669	 3.64117465885589E-02 
1670	 0.035887446522965 
1671	 3.54747612747588E-02 
1672	 0.035109802960832 
1673	 3.49065034300556E-02 
1674	 3.57382547401296E-02 
1675	 3.63614516147935E-02 
1676	 3.61718201698369E-02 
1677	 3.56595897228682E-02 
1678	 3.49346733881121E-02 
1679	 3.46478135639327E-02 
1680	 3.51352651571288E-02 
1681	 3.56851239552319E-02 
1682	 3.56007920300102E-02 
1683	 3.51106008168656E-02 
1684	 3.48051299349452E-02 
1685	 3.52427527818284E-02 
1686	 3.61724758298637E-02 
1687	 3.63942813961191E-02 
1688	 3.59418483766253E-02 
1689	 3.59814743029475E-02 
1690	 3.58546091320902E-02 
1691	 3.54783830974593E-02 
1692	 3.53267232914372E-02 
1693	 0.034790637399543 
1694	 3.40309409412993E-02 
1695	 3.36549117479242E-02 
1696	 3.39908150100189E-02 
1697	 3.40293152744478E-02 
1698	 3.36743951257402E-02 
1699	 3.44691145280227E-02 
1700	 3.54755003538903E-02 
1701	 3.51003429425882E-02 
1702	 3.50995739970454E-02 
1703	 3.56140952656743E-02 
1704	 3.51309566108487E-02 
1705	 3.52098712618145E-02 
1706	 3.60969504426357E-02 
1707	 3.59658193068863E-02 
1708	 3.53140381326148E-02 
1709	 3.52198525822135E-02 
1710	 3.49539593261781E-02 
1711	 3.48875456590794E-02 
1712	 3.53554573658009E-02 
1713	 3.49682110981919E-02 
1714	 3.48225822336694E-02 
1715	 3.37544903852945E-02 
1716	 3.34213785769936E-02 
1717	 3.44703506364651E-02 
1718	 3.50576094631293E-02 
1719	 3.44483345462298E-02 
1720	 3.46343887604626E-02 
1721	 3.55352186987107E-02 
1722	 3.50439610931426E-02 
1723	 3.44857145809251E-02 
1724	 3.44268750685929E-02 
1725	 3.30203508880635E-02 
1726	 3.29182577246629E-02 
1727	 3.51964988039566E-02 
1728	 3.56162398798374E-02 
1729	 3.49153176020234E-02 
1730	 3.49808700460645E-02 
1731	 3.38450019721649E-02 
1732	 3.39503976217401E-02 
1733	 3.55067929335868E-02 
1734	 3.54873371511262E-02 
1735	 3.53129909831281E-02 
1736	 3.43756347624437E-02 
1737	 3.35382568198313E-02 
1738	 0.034270495667445 
1739	 3.43725532680923E-02 
1740	 0.035249492123656 
1741	 3.61055798339389E-02 
1742	 3.44355055417997E-02 
1743	 3.43156422509043E-02 
1744	 3.55446019545232E-02 
1745	 0.034497798991143 
1746	 3.37701243676689E-02 
1747	 3.36260580803885E-02 
1748	 3.28733610692332E-02 
1749	 3.26879085277655E-02 
1750	 3.36503263852478E-02 
1751	 3.33785706573231E-02 
1752	 3.14799700935104E-02 
1753	 3.21161470714291E-02 
1754	 3.46431698764744E-02 
1755	 3.50311220796524E-02 
1756	 3.56170113039304E-02 
1757	 3.34295599574756E-02 
1758	 3.22150946962891E-02 
1759	 3.28740576686039E-02 
1760	 0.034435067958216 
1761	 3.44562570934229E-02 
1762	 3.33163042733726E-02 
1763	 3.43715953609281E-02 
1764	 0.033828732423678 
1765	 3.13484022378372E-02 
1766	 3.26924391116998E-02 
1767	 3.39726524433226E-02 
1768	 3.29928303909884E-02 
1769	 3.31792304171682E-02 
1770	 3.52827331781223E-02 
1771	 3.43786083212674E-02 
1772	 2.98565959739814E-02 
1773	 3.05610849852282E-02 
1774	 2.94794597983726E-02 
1775	 2.73306916411414E-02 
1776	 2.77341677712408E-02 
1777	 2.94058371576048E-02 
1778	 2.98520642851986E-02 
1779	 3.21213703315191E-02 
1780	 0.031226849237637 
1781	 2.42414045458904E-02 
1782	 2.32439265743244E-02 
1783	 2.60008706152906E-02 
1784	 2.70605750265646E-02 
1785	 3.34086134711842E-02 
1786	 3.28944392192964E-02 
1787	 2.25444035137975E-02 
1788	 2.01922299535644E-02 
1789	 1.74962768560495E-02 
1790	 2.72896666473076E-02 
1791	 4.29907072743157E-02 
1792	 4.10791856371778E-02 
1793	 4.01886705092685E-02 
1794	 2.99731308496752E-02 
1795	 6.19154777161402E-03 
1796	 1.37578035665929E-02 
1797	 2.56552995051573E-02 
1798	 2.68321271309077E-02 
1799	 4.30780649126756E-02 
1800	 2.83287795131348E-02 
1801	 1.62039711654602E-02 
1802	 7.91484276262297E-03 
1803	-2.12820816747394E-02 
1804	-9.66835336965605E-02 
1805	-0.136167011963464 
1806	-0.185353166467433 
1807	-0.259022588890592 
1808	-0.20059051945309 
1809	-0.013293370538106 
1810	 0.159614185563036 
1811	 0.169003302360225 
1812	 0.130571933621885 
1813	 0.027303023401903 
1814	 4.40969310072955 
1815	 2.7093762297917 
1816	-162.657127839976 
1817	-1.80005417679172 
1818	-0.260370007963645 
1819	-1.45045003363074 
1820	-5.20940795407949 
1821	 0.693001237648945 
1822	 0.86132733123866 
1823	-2.62723109673476 
1824	-1.56523312586825 
1825	-1.37182457571985 
1826	-1.10498174650422 
1827	 10.5840644217273 
1828	 0.374294449872743 
1829	 0.116815214365008 
1830	 0.490059517742766 
1831	-0.360300681600458 
1832	-0.121925811647106 
1833	 0.541164565935698 
1834	 2.67334761490684E-02 
1835	-16.4454732107387 
1836	 142.12590571345 
1837	 2.03754719821984 
1838	 9.02212398519485 
1839	-0.161509712257152 
1840	 0.464013273821761 
1841	-0.147109429083492 
1842	-1.07930876067195 
1843	-1.24365082048288 
1844	-1.67371937375948 
1845	-4.64886087653197 
1846	 0.342618136650778 
1847	 1.16278396003272 
1848	 0.318920362289443 
1849	-0.449311024207166 
1850	-0.110884191974129 
1851	 4.93440322993653E-02 
1852	-0.504070855720928 
1853	-3.75593685314449 
1854	 5.77251525233694 
1855	 2.11221346277804 
1856	 1.43666512788675 
1857	 0.698322533821488 
1858	 0.297338313746572 
1859	-0.792186533470116 
1860	-0.189643601852515 
1861	-3.89093328693164 
1862	 2.07201238581229 
1863	 4.66209864792815 
1864	-22.9671883353886 
1865	-5.75714273829843 
1866	-0.98493947801739 
1867	-0.948470882632184 
1868	-4.45436504819603 
1869	 7.50917010105401 
1870	 0.755986009629255 
1871	 0.544058384978123 
1872	 0.149356280589411 
1873	-0.22109554184072 
1874	-0.410199063351173 
1875	-0.631160207466643 
1876	-0.581690132531361 
1877	-0.260820617353921 
1878	-0.245203916345797 
1879	-0.275313167275029 
1880	 0.104628957627869 
1881	 0.27037648188978 
1882	 2.62102388407835E-02 
1883	-0.319555716940869 
1884	 2.94684003723184E-02 
1885	 0.736394768728109 
1886	 8.25203688504311E-02 
1887	 0.123835586056001 
1888	-0.24245860561075 
1889	-0.296795033611155 
1890	-0.707744130000995 
1891	-0.436512906705392 
1892	 0.521519984058956 
1893	 0.771353597697708 
1894	 0.235711115986183 
1895	-0.197795330672915 
1896	-0.506492841099813 
1897	-1.68609426190411 
1898	-5.72591699782116 
1899	 2.34630577205781 
1900	 1.86135918226808 
1901	 0.531631308850133 
1902	 0.435573235433062 
1903	-7.66706854558893E-02 
1904	-0.536198519117554 
1905	-0.212972404266751 
1906	-0.248072239167481 
1907	-0.439254459387762 
1908	-0.787893757602032 
1909	-3.27571431257164 
1910	 8.85951017567397 
1911	-1.24062765310178 
1912	 0.740036993900059 
1913	 1.01988639716368 
1914	-0.361642822871156 
1915	-9.70085153969115E-02 
1916	 0.403002597543654 
1917	-0.578936409926954 
1918	 0.365457913068007 
1919	 3.05510053457819 
1920	 2.32032912085875 
1921	 2.09886701834675 
1922	 1.33267581992705 
1923	 0.367778171361803 
1924	 0.198791541255571 
1925	-0.061365984898007 
1926	-0.920257474354083 
1927	-3.92537332420404 
1928	 5.59652739982199 
1929	-3.65754654848616 
1930	-0.423820410232988 
1931	-3.94859339483706E-03 
1932	 0.193392435213538 
1933	-0.475616523257315 
1934	-1.94671523909186 
1935	-6.28638405591289 
1936	-3.7275514219502 
1937	-0.724905343577531 
1938	-1.16592163768405 
1939	-1.9497434673065 
1940	 128.838171134916 
1941	-2.72702517386768 
1942	-3.94733490499891 
1943	 4.18661550532973 
1944	-0.202082217846691 
1945	 1.88493241283199E-02 
1946	 0.503664699602274 
1947	 0.573815531110049 
1948	 0.621392043754846 
1949	 0.280137412112475 
1950	 2.19901687453965E-02 
1951	 9.37652590357587E-02 
1952	 8.03374191178697E-02 
1953	 7.07616060659704E-02 
1954	 0.115588812844215 
1955	 0.129744985868434 
1956	-8.62861250644819E-02 
1957	-9.14145036930017E-02 
1958	-6.85087602082839E-03 
1959	 1.06495672182875E-02 
1960	 5.21487210581659E-02 
1961	 5.36086527245145E-02 
1962	 1.89560422708782E-02 
1963	-9.65038270238502E-03 
1964	-1.28226567050798E-02 
1965	-1.9176764294302E-03 
1966	 5.23767293462283E-04 
1967	-1.06414228462518E-03 
1968	 1.94847150379064E-03 
1969	 1.01514760968307E-02 
1970	 1.24121783613359E-02 
1971	 1.75828613434951E-02 
1972	 0.029458078665183 
1973	 2.99712374099665E-02 
1974	 3.07237340436312E-02 
1975	 3.66173669401128E-02 
1976	 2.69306507125099E-02 
1977	 1.75651414485166E-02 
1978	 1.47414403778308E-02 
1979	 0.013910129838455 
1980	 1.15132220891061E-02 
1981	 1.59880055753241E-02 
1982	 0.020136262871145 
1983	 0.019771383984925 
1984	 1.49178082183513E-02 
1985	 9.88232243153939E-03 
1986	 1.28855726341853E-02 
1987	 1.75121846628612E-02 
1988	 0.022240760766514 
1989	 2.98188016716901E-02 
1990	 3.27531402653476E-02 
1991	 3.22193672667843E-02 
1992	 3.04189366868517E-02 
1993	 2.62334815218251E-02 
1994	 2.34172424736779E-02 
1995	 1.83900799457104E-02 
1996	 1.72786248931043E-02 
1997	 2.37545056429329E-02 
1998	 0.029009472923976 
1999	 3.05259768610689E-02 
2000	 0.030117025970804 
2001	 2.74277002971814E-02 
2002	 2.89499228813882E-02 
2003	 4.25759462787357E-02 
2004	 5.75820674802243E-02 
2005	 5.57156496658035E-02 
2006	 0.057801271489955 
2007	 4.85721080681832E-02 
2008	 3.05282651791149E-02 
2009	 2.45110136570183E-02 
2010	 2.97392744657527E-02 
2011	 1.95974402789089E-02 
2012	 3.39321746953953E-03 
2013	-6.94354630397599E-04 
2014	 3.99318466124039E-04 
2015	-1.00063387940238E-03 
2016	 5.6325671324005E-03 
2017	 1.54472247688103E-02 
2018	 1.07412101481246E-02 
2019	 7.87573317046729E-03 
2020	 9.58834216226083E-03 
2021	 7.98306988675387E-03 
2022	 9.99536093264496E-03 
2023	 0.013758130307071 
2024	 1.85187345606719E-02 
2025	 2.89184653515595E-02 
2026	 3.07856928904064E-02 
2027	 3.14883859617653E-02 
2028	 2.82893682134703E-02 
2029	 2.20700181416878E-02 
2030	 1.77249692294072E-02 
2031	 0.019318308539285 
2032	 2.33490600324066E-02 
2033	 0.025479243062057 
2034	 0.026222203411795 
2035	 2.71018097655668E-02 
2036	 2.63182021441455E-02 
2037	 2.67713456237692E-02 
2038	 2.88253033188927E-02 
2039	 2.90713923695745E-02 
2040	 0.026066872335165 
2041	 2.66198222316755E-02 
2042	 3.04781489949605E-02 
2043	 3.11565797872134E-02 
2044	 3.15020359059546E-02 
2045	 3.27484567023651E-02 
2046	 2.97129499893329E-02 
2047	 2.50153088423493E-02 
2048	 2.40568487193614E-02 
2049	 2.37382180736655E-02 
2050	 2.59529663801843E-02 
2051	 2.66729187019356E-02 
2052	 2.73834281959148E-02 
2053	 2.83407586423183E-02 
2054	 2.52085954987894E-02 
2055	 2.14438615081247E-02 
2056	 2.03715522922256E-02 
2057	 2.00667199617905E-02 
2058	 1.95243786806899E-02 
2059	 1.96338284440868E-02 
2060	 2.23267913399023E-02 
2061	 2.75345741988427E-02 
2062	 2.75410202637629E-02 
2063	 2.86081941910417E-02 
2064	 3.32304835719361E-02 
2065	 2.90559458422122E-02 
2066	 2.57559478547528E-02 
2067	 2.69426804865177E-02 
2068	 2.58116070621403E-02 
2069	 2.52494884659187E-02 
2070	 2.56193385006043E-02 
2071	 2.60305096100781E-02 
2072	 2.70799346370796E-02 
2073	 2.72376104765762E-02 
2074	 2.69584053819313E-02 
2075	 2.73101932752288E-02 
2076	 2.66893945675257E-02 
2077	 2.76924603770509E-02 
2078	 3.31625007305715E-02 
2079	 3.35312408129128E-02 
2080	 3.13753524911371E-02 
2081	 2.96928263823446E-02 
2082	 2.78170122982908E-02 
2083	 2.47040259324529E-02 
2084	 2.54001891719401E-02 
2085	 2.71398469985269E-02 
2086	 2.80294329515162E-02 
2087	 0.029239778319311 
2088	 2.93949519335608E-02 
2089	 2.99146705109965E-02 
2090	 2.98645839429772E-02 
2091	 2.89103614802642E-02 
2092	 3.00431528293833E-02 
2093	 3.36026565769012E-02 
2094	 3.48701714826089E-02 
2095	 3.70741985454652E-02 
2096	 0.036968988714538 
2097	 3.47835168651677E-02 
2098	 3.33966723314232E-02 
2099	 3.04446507159214E-02 
2100	 2.88216594682456E-02 
2101	 2.85909985053071E-02 
2102	 2.73242739980728E-02 
2103	 2.74853908199686E-02 
2104	 2.76904405322181E-02 
2105	 2.78660437962144E-02 
2106	 2.79669806104815E-02 
2107	 2.82568364393477E-02 
2108	 3.09993720720446E-02 
2109	 3.47964373314541E-02 
2110	 3.60718582399861E-02 
2111	 3.43183245976882E-02 
2112	 3.24940913883151E-02 
2113	 3.21043168088909E-02 
2114	 3.09820788928719E-02 
2115	 3.05631941356764E-02 
2116	 3.25916606611961E-02 
2117	 3.27070205919064E-02 
2118	 3.20723862021983E-02 
2119	 3.09757695933105E-02 
2120	 2.88791734752213E-02 
2121	 2.78533483106225E-02 
2122	 2.83949080067719E-02 
2123	 2.69039882486285E-02 
2124	 2.92067747269539E-02 
2125	 3.16723219747081E-02 
2126	 3.11081548074274E-02 
2127	 3.10261748369347E-02 
2128	 0.029136989781674 
2129	 2.78824650329721E-02 
2130	 2.86900325956657E-02 
2131	 2.81165879510344E-02 
2132	 0.028468820018463 
2133	 3.08556121950896E-02 
2134	 3.19208516442731E-02 
2135	 3.29596671558591E-02 
2136	 3.25414912971095E-02 
2137	 2.99453771165286E-02 
2138	 3.04250407953039E-02 
2139	 3.14822015479105E-02 
2140	 3.18748412698952E-02 
2141	 3.51592436933684E-02 
2142	 3.57708591081189E-02 
2143	 3.35870605784922E-02 
2144	 3.21075843386061E-02 
2145	 3.23340608291509E-02 
2146	 3.28364589203409E-02 
2147	 3.01740090579279E-02 
2148	 2.89607566017402E-02 
2149	 2.86099412281697E-02 
2150	 2.77331016678397E-02 
2151	 0.030438088812221 
2152	 3.23329686963497E-02 
2153	 3.18587706840083E-02 
2154	 2.91484384190096E-02 
2155	 2.48243216502341E-02 
2156	 2.35324752429098E-02 
2157	 2.29907190139513E-02 
2158	 2.34762745581573E-02 
2159	 2.47414716019996E-02 
2160	 2.92279953776808E-02 
2161	 3.03533871756274E-02 
2162	 2.93655321387021E-02 
2163	 2.99578078198352E-02 
2164	 2.98347649291631E-02 
2165	 3.00627852588805E-02 
2166	 3.21864429044149E-02 
2167	 3.32692428347641E-02 
2168	 3.43584332489261E-02 
2169	 3.36426064175656E-02 
2170	 3.04180121715023E-02 
2171	 2.93401486167585E-02 
2172	 3.15568817201828E-02 
2173	 3.04123595287976E-02 
2174	 3.01591517407051E-02 
2175	 3.29847517146084E-02 
2176	 3.16583671268906E-02 
2177	 2.78421559476599E-02 
2178	 2.47955959160285E-02 
2179	 2.27553859053919E-02 
2180	 2.39425853801834E-02 
2181	 2.53028094965994E-02 
2182	 2.35075120928092E-02 
2183	 0.023697141409599 
2184	 2.32983260640603E-02 
2185	 0.020265002344836 
2186	 1.98735230511634E-02 
2187	 2.43050954147377E-02 
2188	 2.55018267114881E-02 
2189	 2.41407997846168E-02 
2190	 2.43952819882991E-02 
2191	 2.47993062523018E-02 
2192	 0.02597603131295 
2193	 2.85562656392426E-02 
2194	 2.98394302431089E-02 
2195	 3.14198513536417E-02 
2196	 3.37690608006763E-02 
2197	 3.78309739078896E-02 
2198	 3.69202672106703E-02 
2199	 3.53140156210952E-02 
2200	 2.90063328232725E-02 
2201	 2.24868506205004E-02 
2202	 1.97389573683701E-02 
2203	 0.024007244416242 
2204	 3.28335358113653E-02 
2205	 3.88861004888313E-02 
2206	 4.03936672957522E-02 
2207	 0.035894579268882 
2208	 3.43820965969938E-02 
2209	 3.77901205956543E-02 
2210	 3.74100983370133E-02 
2211	 3.43788592715896E-02 
2212	 3.10729162135343E-02 
2213	 2.92982326363498E-02 
2214	 2.90767623601438E-02 
2215	 3.43237467581172E-02 
2216	 4.26111117525712E-02 
2217	 4.52054925943551E-02 
2218	 4.19917104567377E-02 
2219	 3.96515558228784E-02 
2220	 3.57022479157243E-02 
2221	 0.033475352418575 
2222	 2.93747303049847E-02 
2223	 2.57341833147812E-02 
2224	 2.37510324026212E-02 
2225	 2.26148022336777E-02 
2226	 2.11001419496966E-02 
2227	 2.14198421879077E-02 
2228	 2.40735055032673E-02 
2229	 2.51285033131501E-02 
2230	 2.55768713019291E-02 
2231	 2.76430496124612E-02 
2232	 3.22342028897535E-02 
2233	 0.033772299202388 
2234	 3.51487813709703E-02 
2235	 0.033916007502531 
2236	 2.93300107071939E-02 
2237	 2.77271160511057E-02 
2238	 2.98521149105941E-02 
2239	 2.86927717986514E-02 
2240	 2.51080013663252E-02 
2241	 2.46056097526207E-02 
2242	 2.98673098545956E-02 
2243	 3.23653030430446E-02 
2244	 3.36236283381713E-02 
2245	 3.99166905621603E-02 
2246	 3.90864727566242E-02 
2247	 3.65777061084091E-02 
2248	 4.14632984704349E-02 
2249	 4.61379751135347E-02 
2250	 4.02355711109767E-02 
2251	 3.17315443208817E-02 
2252	 3.34641697957997E-02 
2253	 2.75110889136075E-02 
2254	 2.50518706882972E-02 
2255	 3.39388560292584E-02 
2256	 0.028427310790557 
2257	 2.52315532598345E-02 
2258	 2.77532768912496E-02 
2259	 2.28934318350691E-02 
2260	 2.36086029161187E-02 
2261	 0.029362407847018 
2262	 2.93410706157975E-02 
2263	 2.75086357758418E-02 
2264	 2.91492531228606E-02 
2265	 3.13201017995221E-02 
2266	 3.09533570871026E-02 
2267	 3.19341126168587E-02 
2268	 3.28723480418457E-02 
2269	 3.15795116975136E-02 
2270	 2.73036496925479E-02 
2271	 2.08652550664377E-02 
2272	 2.01027335305794E-02 
2273	 1.62919134495306E-02 
2274	 0.014843329904192 
2275	 2.33122894603614E-02 
2276	 2.78917384844491E-02 
2277	 2.71184545726576E-02 
2278	 3.01700579746363E-02 
2279	 3.64318982238079E-02 
2280	 3.70413450942709E-02 
2281	 3.42308232368175E-02 
2282	 0.038577620593273 
2283	 2.96012336320804E-02 
2284	 3.40232049996791E-02 
2285	 0.037812264892621 
2286	 3.17526686425556E-02 
2287	 3.24396495583211E-02 
2288	 3.42384749443067E-02 
2289	 3.50321883914078E-02 
2290	 3.52230720541138E-02 
2291	 3.53244936634311E-02 
2292	 0.032578627097788 
2293	 0.029020676460891 
2294	 3.43597047764669E-02 
2295	 0.037769602612076 
2296	 3.13220478725783E-02 
2297	 3.27403569137205E-02 
2298	 3.19521213342591E-02 
2299	 2.98313430238117E-02 
2300	 0.038565182903559 
2301	 3.71223562356982E-02 
2302	 3.56403477353307E-02 
2303	 4.03698529854496E-02 
2304	 4.01313860419847E-02 
2305	 4.16653665487599E-02 
2306	 3.82860635484123E-02 
2307	 3.56178047702395E-02 
2308	 4.42553092157188E-02 
2309	 4.75335440341238E-02 
2310	 3.81722941042631E-02 
2311	 2.67762474129406E-02 
2312	 2.01954437415043E-02 
2313	 0.022393277708639 
2314	 2.65422687337492E-02 
2315	 3.30241133362071E-02 
2316	 5.00500341960825E-02 
2317	 4.85843131690053E-02 
2318	 3.80011430455432E-02 
2319	 0.033491793239311 
2320	 1.05242197413694E-02 
2321	 3.23392315884244E-03 
2322	 1.56096079379979E-02 
2323	 1.65093474129404E-02 
2324	 1.82479228392311E-02 
2325	 1.29627834886389E-02 
2326	-1.07197684139578E-02 
2327	-1.06312814287448E-02 
2328	 2.95244719629452E-03 
2329	 1.49690402817607E-02 
2330	 3.63646876119042E-02 
2331	 4.46523469649155E-02 
2332	 5.73410427157561E-02 
2333	 6.66910063207091E-02 
2334	 6.00083663439639E-02 
2335	 6.21168781114319E-02 
2336	 5.22036564333603E-02 
2337	 0.035650573321871 
2338	 3.81540076046115E-02 
2339	 2.97031905925916E-02 
2340	 1.42112699093564E-02 
2341	 2.04180947590043E-02 
2342	 1.27920359409825E-02 
2343	-4.38367755141158E-03 
2344	-7.26782687590838E-03 
2345	-1.73013098478547E-02 
2346	-7.01552523778712E-03 
2347	 5.51015317831953E-04 
2348	-1.16728847642516E-02 
2349	-1.39621340970722E-02 
2350	-4.27814017207007E-02 
2351	-5.05806915156491E-02 
2352	-1.58831239110648E-02 
2353	 4.71576993354825E-03 
2354	 0.034800666397499 
2355	 6.12175193417952E-02 
2356	 6.06032278662498E-02 
2357	 4.04175168213946E-02 
2358	 4.66917805740628E-03 
2359	 1.34890017034544E-02 
2360	 3.34911525605833E-02 
2361	 0.057471332413678 
2362	 0.11211406800564 
2363	 0.128055839290585 
2364	 0.139417614203099 
2365	 0.138803772561837 
2366	 0.114359968660479 
2367	 9.93887494478923E-02 
2368	 4.80562540510457E-02 
2369	 5.84953567800705E-02 
2370	 9.70931227644206E-02 
2371	 6.86848489234753E-02 
2372	 9.53705490535207E-02 
2373	 7.78089912850159E-02 
2374	 9.13034501821206E-03 
2375	 7.03415300231678E-02 
2376	 0.126157006426579 
2377	 9.17937367594316E-02 
2378	 0.100599771216032 
2379	 5.98882397161635E-02 
2380	-6.48178670558473E-02 
2381	-6.13678032199187E-02 
2382	-3.70368114045619E-02 
2383	-8.88576545354152E-02 
2384	-0.118783422475069 
2385	-9.93381341818993E-02 
2386	-0.193472169126806 
2387	-0.198117589716825 
2388	-9.81619564949555E-02 
2389	-0.105258498762435 
2390	-9.96754034068851E-02 
2391	-0.202078321046006 
2392	-0.272402987606067 
2393	-0.232616080494222 
2394	-0.27507232988171 
2395	-0.087458200341575 
2396	 3.63456546012931E-02 
2397	-6.23841297813838E-02 
2398	-4.94467293477559E-02 
2399	-6.12099844543835E-02 
2400	-0.108470730067284 
2401	-0.153560810933224 
2402	-0.265945805705477 
2403	-0.285735881850826 
2404	-0.294271639549941 
2405	-0.284265205615663 
2406	-0.225166088244044 
2407	-0.264223302214457 
2408	-0.3820211528861 
2409	-0.27008514052636 
2410	-0.263132194456036 
2411	-0.525320057256272 
2412	-0.259403019012549 
2413	 0.17344327166578 
2414	 0.2711739596899 
2415	 0.38377582574484 
2416	 0.192269894151948 
2417	-0.19570289256332 
2418	-0.566277747659266 
2419	-0.543016560259335 
2420	-0.17359372541054 
2421	-0.217094356865546 
2422	 7.87193732670194E-02 
2423	 2.07416030191984 
2424	 2.32946192567578 
2425	 2.32911287702725 
2426	 7.16185740847616 
2427	 1.23148892840273 
2428	-0.131540752077284 
2429	-0.459287942361702 
2430	-0.535438770394678 
2431	-0.482593957523636 
2432	 0.235031091557681 
2433	 0.556714665406239 
2434	 0.365874582744802 
2435	 0.210830986640085 
2436	 3.75657858805862E-02 
2437	-80.1668356024164 
2438	 0.234663172858228 
2439	 1.03840537519874 
2440	-41.7455101790353 
2441	-40.8518338047599 
2442	-1.67951522682407 
2443	-1.575916069266 
2444	 9.85683580127822 
2445	-0.14692995860672 
2446	-0.475901256774721 
2447	-0.392731846189905 
2448	-0.329964908569604 
2449	-0.353147057132658 
2450	-0.226259449602352 
2451	 0.208362965187644 
2452	 4.78203131197514E-02 
2453	 0.580368758144784 
2454	 0.876890673239706 
2455	 0.286367998495916 
2456	 0.141372923464032 
2457	 0.324170749140308 
2458	 0.357796618256099 
2459	 0.880896158961437 
2460	 1.32439998511272 
2461	 0.523200369640337 
2462	 0.658186721181334 
2463	 0.848616473329685 
2464	 0.927970310128239 
2465	 0.596161722920864 
2466	-7.53242231694425E-03 
2467	-0.742045356984177 
2468	-1.2766376537316 
2469	-3.37769522001911 
2470	 1.60433960472127 
2471	-1.78447813720681 
2472	-3.72405225550658 
2473	-2.16662693613364 
2474	-4.26168302591376 
2475	-1.1839638560315 
2476	-0.337568613913475 
2477	 0.265529592613833 
2478	 0.948301086807753 
2479	 1.85604827660883E-02 
2480	 0.452043593368018 
2481	 1.12118189994328 
2482	 0.962023078615539 
2483	 0.636974820486787 
2484	 6.56018336953908E-02 
2485	-0.317496362326665 
2486	-0.235901296971578 
2487	-0.632373446819284 
2488	-0.439482104787447 
2489	-0.364414674476124 
2490	-0.89116391117978 
2491	-0.979086016382218 
2492	-0.532951012101994 
2493	-0.338684285919863 
2494	 1.30062172733531E-04 
2495	-0.584588059273608 
2496	 12.4438080914564 
2497	 4.54000526253395 
2498	 8.14108944436448 
2499	 3.56288233931794 
2500	 2.09953446465924 
