Wavelength	rt0713east_close200004.asd
350	 8.80042841395171E-02 
351	 8.73628807065587E-02 
352	 8.67367095692488E-02 
353	 8.64674483588483E-02 
354	 8.64922430209732E-02 
355	 8.62330965393241E-02 
356	 8.56560957948796E-02 
357	 8.54558176166428E-02 
358	 8.60284411885748E-02 
359	 8.55337618717438E-02 
360	 8.53899958784126E-02 
361	 8.56337110207218E-02 
362	 8.53955488847059E-02 
363	 8.56077935481761E-02 
364	 8.51879235331315E-02 
365	 8.41770891559284E-02 
366	 0.084634128269991 
367	 8.46061978011387E-02 
368	 8.45947044732256E-02 
369	 8.52018016344941E-02 
370	 8.50719458596922E-02 
371	 8.48329179827005E-02 
372	 8.47268039695852E-02 
373	 8.47470068520154E-02 
374	 0.08490673498769 
375	 8.49944821883043E-02 
376	 8.49928418804231E-02 
377	 8.51690691001528E-02 
378	 8.51070836487943E-02 
379	 8.49943181228229E-02 
380	 8.49793166967938E-02 
381	 8.45380575133097E-02 
382	 8.49009198481343E-02 
383	 8.53383182037646E-02 
384	 8.46155404942259E-02 
385	 8.51351322262721E-02 
386	 8.57787313341786E-02 
387	 8.57284747529095E-02 
388	 8.49207218497559E-02 
389	 8.51161546281643E-02 
390	 8.57192836746535E-02 
391	 8.59718324322423E-02 
392	 8.60030750021013E-02 
393	 8.56956919072826E-02 
394	 8.55510997563847E-02 
395	 8.59730098010998E-02 
396	 8.56724371428892E-02 
397	 8.57228779848526E-02 
398	 8.61245806325693E-02 
399	 8.59182074241101E-02 
400	 8.58036070519728E-02 
401	 8.57439002940648E-02 
402	 8.57229944656479E-02 
403	 8.61219754193721E-02 
404	 8.59578150112948E-02 
405	 8.57599056743851E-02 
406	 8.63108392947967E-02 
407	 8.63378841992777E-02 
408	 8.62663785908314E-02 
409	 8.63591765524785E-02 
410	 8.65947534687332E-02 
411	 8.66870065514283E-02 
412	 8.65829249598889E-02 
413	 8.64275647411994E-02 
414	 8.67416309699189E-02 
415	 8.68600664565078E-02 
416	 8.68917891518967E-02 
417	 8.71745989843739E-02 
418	 8.73381556023749E-02 
419	 8.75432055889453E-02 
420	 0.087792943901597 
421	 8.78925806050023E-02 
422	 8.80027276864196E-02 
423	 8.80778487050847E-02 
424	 8.81521453164754E-02 
425	 8.86323887479776E-02 
426	 8.89333824136968E-02 
427	 8.91238927150874E-02 
428	 8.95130055867925E-02 
429	 8.96051823826826E-02 
430	 8.98667289039258E-02 
431	 9.03321560330526E-02 
432	 9.04454082554847E-02 
433	 9.06084974480655E-02 
434	 9.09694004684425E-02 
435	 9.14663036241952E-02 
436	 9.15929802943229E-02 
437	 9.18174887920007E-02 
438	 9.21477026623894E-02 
439	 0.092360238338206 
440	 9.26227567991902E-02 
441	 9.29511977012283E-02 
442	 9.33100611319381E-02 
443	 9.36199949824861E-02 
444	 9.37791554302354E-02 
445	 9.39695653428126E-02 
446	 0.09435086623231 
447	 9.46839373905338E-02 
448	 9.49984905145513E-02 
449	 9.52383680738761E-02 
450	 9.53211998057357E-02 
451	 9.56771129523322E-02 
452	 9.59437914573229E-02 
453	 9.59677135613229E-02 
454	 9.62535910013714E-02 
455	 9.66061655342281E-02 
456	 9.67706671075321E-02 
457	 0.096642853391741 
458	 9.70696005141141E-02 
459	 9.73409824982846E-02 
460	 9.73206753919369E-02 
461	 9.75167584764956E-02 
462	 9.78692699214078E-02 
463	 9.80603516813292E-02 
464	 9.79683852039605E-02 
465	 9.81474378706305E-02 
466	 9.84174814196876E-02 
467	 9.86241787579185E-02 
468	 9.86832311455395E-02 
469	 9.90316324004761E-02 
470	 9.92149162044417E-02 
471	 9.91741659487831E-02 
472	 9.94788808613939E-02 
473	 9.95667763775828E-02 
474	 9.96786216248158E-02 
475	 0.100068729705557 
476	 0.100291823116263 
477	 0.100431297331239 
478	 0.100632464162595 
479	 0.101033894787231 
480	 0.101217550547358 
481	 0.101323311175273 
482	 0.101528903584791 
483	 0.101936374857305 
484	 0.10236881724875 
485	 0.102678730730819 
486	 0.102835573358447 
487	 0.103325623578082 
488	 0.103669318998861 
489	 0.103816117054115 
490	 0.104161361118017 
491	 0.104447861234142 
492	 0.104776016215904 
493	 0.105202165656825 
494	 0.105482608610214 
495	 0.105813301145226 
496	 0.10616233732163 
497	 0.1064116514086 
498	 0.106724522619399 
499	 0.107194968832282 
500	 0.107737977534518 
501	 0.108015353064769 
502	 0.108239811409907 
503	 0.10856334076458 
504	 0.109038116184005 
505	 0.109376750269572 
506	 0.109874831677197 
507	 0.110479500898142 
508	 0.110869206130279 
509	 0.111164249794562 
510	 0.111576702526814 
511	 0.112177245175164 
512	 0.112700150302013 
513	 0.113127332808733 
514	 0.113574240348898 
515	 0.114183482428282 
516	 0.114780905888917 
517	 0.115289762406873 
518	 0.115699570949936 
519	 0.116069873711786 
520	 0.116600925676857 
521	 0.117175133314058 
522	 0.117663445782092 
523	 0.118159399920375 
524	 0.118721009011926 
525	 0.119277322820246 
526	 0.119701157665533 
527	 0.120320164337922 
528	 0.120986109446213 
529	 0.121554106694949 
530	 0.122003400186147 
531	 0.122621487999355 
532	 0.123289860573724 
533	 0.123780360163701 
534	 0.124249637584648 
535	 0.124734511634546 
536	 0.125290542299253 
537	 0.125996298217181 
538	 0.126525352816201 
539	 0.127003268710682 
540	 0.127582693765401 
541	 0.128103845199584 
542	 0.128700165552879 
543	 0.129345441129202 
544	 0.129924526177648 
545	 0.130486877541071 
546	 0.131072530485339 
547	 0.131695540843635 
548	 0.132334122376995 
549	 0.132879291051343 
550	 0.133386010124522 
551	 0.133960929550797 
552	 0.134610031590734 
553	 0.135239002833228 
554	 0.135771979036122 
555	 0.136164476742001 
556	 0.136787327420859 
557	 0.137448270992529 
558	 0.137948056218808 
559	 0.138604781199137 
560	 0.138988007254403 
561	 0.139247256976413 
562	 0.139841215624047 
563	 0.140322810101027 
564	 0.140806570088967 
565	 0.141298225715014 
566	 0.141430874088481 
567	 0.141689112142019 
568	 0.142052858934668 
569	 0.142359728257627 
570	 0.142814660818746 
571	 0.143210227704697 
572	 0.14347632677959 
573	 0.143713418385413 
574	 0.143882835765781 
575	 0.144093465617685 
576	 0.144415039737161 
577	 0.144698265190182 
578	 0.144999788459956 
579	 0.145301688805831 
580	 0.145557978512981 
581	 0.145940956206691 
582	 0.146187667752789 
583	 0.146172465150929 
584	 0.146102738138888 
585	 0.146025624249902 
586	 0.145782340716134 
587	 0.145232081817419 
588	 0.144885738428466 
589	 0.144754268968006 
590	 0.144807343632194 
591	 0.144992661990212 
592	 0.144984750461076 
593	 0.144874894173076 
594	 0.144815133941515 
595	 0.144843867870647 
596	 0.144872962549327 
597	 0.144869451016832 
598	 0.144818298369303 
599	 0.144510002056283 
600	 0.14443717941471 
601	 0.144699176464461 
602	 0.144588385080712 
603	 0.144456652647374 
604	 0.144425981936304 
605	 0.144507811379677 
606	 0.144476119910241 
607	 0.144567871096849 
608	 0.144736472716638 
609	 0.144636971880006 
610	 0.144546168199511 
611	 0.144615623382967 
612	 0.14483483137609 
613	 0.144804495276644 
614	 0.144820008691603 
615	 0.144928459527123 
616	 0.145022067126495 
617	 0.144960103651245 
618	 0.144944416389019 
619	 0.14505114098284 
620	 0.145097866175504 
621	 0.145137754786668 
622	 0.145122110097112 
623	 0.1450334105882 
624	 0.145146610371192 
625	 0.145146764676538 
626	 0.145003843814699 
627	 0.144974241969423 
628	 0.14496895074681 
629	 0.145021490839017 
630	 0.145143293810285 
631	 0.145240735373908 
632	 0.14538427295458 
633	 0.145462520887602 
634	 0.145342171347421 
635	 0.145403517119336 
636	 0.145510013910994 
637	 0.145610323190841 
638	 0.145857167994992 
639	 0.145926218155701 
640	 0.145870038390149 
641	 0.145828486008301 
642	 0.145799059206985 
643	 0.145599751613319 
644	 0.145229056695061 
645	 0.144837422500266 
646	 0.144391088685715 
647	 0.144132971477573 
648	 0.144190756729278 
649	 0.14436235025243 
650	 0.144246996765977 
651	 0.144057746854546 
652	 0.144140467380494 
653	 0.143884806214608 
654	 0.143496489015378 
655	 0.143145950981998 
656	 0.142920259044634 
657	 0.142689669689108 
658	 0.142532519039225 
659	 0.142460854511216 
660	 0.142145077954143 
661	 0.141944216091065 
662	 0.141840094939902 
663	 0.141599570278473 
664	 0.141343131117503 
665	 0.141221305227505 
666	 0.141225544357021 
667	 0.141066123919104 
668	 0.140864318502946 
669	 0.140767380527759 
670	 0.140863881253652 
671	 0.140877320034378 
672	 0.140970329964338 
673	 0.141113711111504 
674	 0.141094240141973 
675	 0.141015742550127 
676	 0.14106192801019 
677	 0.141301481649872 
678	 0.141496056659006 
679	 0.141640932294522 
680	 0.141774225487453 
681	 0.141944614166518 
682	 0.142052610895378 
683	 0.142191687445555 
684	 0.142304384102859 
685	 0.142102247072473 
686	 0.141927647192735 
687	 0.14186231042044 
688	 0.14193190970974 
689	 0.142385589809601 
690	 0.142451716432677 
691	 0.142033562072376 
692	 0.141477498471459 
693	 0.141153149966328 
694	 0.141304047360028 
695	 0.141777021963498 
696	 0.142027676739497 
697	 0.141737830088749 
698	 0.141104387300957 
699	 0.140550920514132 
700	 0.140338484664756 
701	 0.140191879202699 
702	 0.140024198030241 
703	 0.139907158560932 
704	 0.139558375595859 
705	 0.139212741834961 
706	 0.138939263041112 
707	 0.138217391225716 
708	 0.137651292395906 
709	 0.137098165086603 
710	 0.136241792294886 
711	 0.135461643403598 
712	 0.134546046849624 
713	 0.133324606595794 
714	 0.131652657856194 
715	 0.129293809308452 
716	 0.126532437525407 
717	 0.124204346583514 
718	 0.122661331453832 
719	 0.122184878739473 
720	 0.122053752097433 
721	 0.121393762317808 
722	 0.119726830154895 
723	 0.117440764072636 
724	 0.1153357930879 
725	 0.113912340226034 
726	 0.112605406085227 
727	 0.111157404525885 
728	 0.109466748757407 
729	 0.107499817468277 
730	 0.105818087122096 
731	 0.104643378661481 
732	 0.10374770343225 
733	 0.102438587933096 
734	 0.10111661943904 
735	 0.100041941296171 
736	 9.92074512997253E-02 
737	 9.87684000140486E-02 
738	 9.85530970934453E-02 
739	 9.83726801971706E-02 
740	 9.81937279756596E-02 
741	 9.82212306014893E-02 
742	 9.82984788120062E-02 
743	 9.81517906677584E-02 
744	 9.82045057039471E-02 
745	 9.82215359950839E-02 
746	 9.81342128634672E-02 
747	 9.81802198329637E-02 
748	 9.81878875975876E-02 
749	 9.81312069115097E-02 
750	 9.80550214533225E-02 
751	 9.81211338499352E-02 
752	 9.80576146714475E-02 
753	 9.79549825115344E-02 
754	 0.098049830949509 
755	 9.79927656149541E-02 
756	 9.79316209653675E-02 
757	 9.77538089810074E-02 
758	 9.66411185275739E-02 
759	 9.56429091042188E-02 
760	 9.50777150354118E-02 
761	 9.48590615471382E-02 
762	 9.48918248787226E-02 
763	 0.095678318666394 
764	 9.66431810944811E-02 
765	 9.71839554944816E-02 
766	 9.78770283054276E-02 
767	 9.83109617733312E-02 
768	 0.098521148764164 
769	 9.89453737448779E-02 
770	 9.91137109175452E-02 
771	 9.91839695395808E-02 
772	 9.93604609215019E-02 
773	 9.96167810581971E-02 
774	 9.99598436155265E-02 
775	 0.100239589326477 
776	 0.100330016843056 
777	 0.100637268657158 
778	 0.100974881454176 
779	 0.101240213402498 
780	 0.101466405623073 
781	 0.101709631390141 
782	 0.102019236583928 
783	 0.102361478827167 
784	 0.102530971027553 
785	 0.102604448409264 
786	 0.102675687234707 
787	 0.102853587020744 
788	 0.103230187089583 
789	 0.103682886048603 
790	 0.104124044487408 
791	 0.104542452240915 
792	 0.105223119807175 
793	 0.105636707624011 
794	 0.10564131581466 
795	 0.105866773104438 
796	 0.106232212807371 
797	 0.106676174966291 
798	 0.107106498910993 
799	 0.107329846357714 
800	 0.107357165653633 
801	 0.107405026431552 
802	 0.107758276132675 
803	 0.108270520105915 
804	 0.10867927028934 
805	 0.108912244217853 
806	 0.109100229553522 
807	 0.108890325981171 
808	 0.108466593619038 
809	 0.10803240789983 
810	 0.107560761084938 
811	 0.106637272361572 
812	 0.105445968904941 
813	 0.104500671737037 
814	 0.104104651868215 
815	 0.103553058515632 
816	 0.102848354173017 
817	 0.102613880766998 
818	 0.102903274688535 
819	 0.102761429767817 
820	 0.101958256380911 
821	 0.101148537986367 
822	 0.100123958256328 
823	 9.89406887980895E-02 
824	 0.097714375910411 
825	 9.64012834687346E-02 
826	 9.48901398885063E-02 
827	 9.33202603276054E-02 
828	 9.19116375305662E-02 
829	 8.99209706191505E-02 
830	 8.84291692920322E-02 
831	 8.76151955610713E-02 
832	 8.69648583372944E-02 
833	 0.086453830936996 
834	 8.57255375129603E-02 
835	 8.48606759876794E-02 
836	 8.45002799404126E-02 
837	 8.42605053064166E-02 
838	 8.40694026452066E-02 
839	 8.38803826535034E-02 
840	 0.083529264588998 
841	 8.33269756318245E-02 
842	 8.32018264791514E-02 
843	 8.29975244216367E-02 
844	 0.082931621979029 
845	 8.24838419732131E-02 
846	 0.081975686427456 
847	 8.21675365336156E-02 
848	 8.21788633480988E-02 
849	 8.16348314432704E-02 
850	 8.09016512188526E-02 
851	 8.10910902124313E-02 
852	 8.07718882103978E-02 
853	 8.03123213784645E-02 
854	 8.01235776551468E-02 
855	 7.98482350560621E-02 
856	 7.97567921902461E-02 
857	 7.95950288931571E-02 
858	 7.92295731116155E-02 
859	 7.95331331226467E-02 
860	 7.91147284088387E-02 
861	 7.85850080698768E-02 
862	 7.91173270207119E-02 
863	 7.84873232227013E-02 
864	 7.83316130086973E-02 
865	 7.84868756945094E-02 
866	 7.73018060967468E-02 
867	 7.79872299010436E-02 
868	 7.77607947197427E-02 
869	 7.61607696030521E-02 
870	 7.66077125115778E-02 
871	 7.65599329192599E-02 
872	 7.62625116166651E-02 
873	 7.61400749279567E-02 
874	 7.56899473209427E-02 
875	 7.53263658574455E-02 
876	 0.074909960564923 
877	 7.43096632496566E-02 
878	 7.40289153719486E-02 
879	 7.40287111205831E-02 
880	 7.38492274230124E-02 
881	 7.30838230274957E-02 
882	 7.27430863009607E-02 
883	 7.22460026940814E-02 
884	 7.17821733876811E-02 
885	 7.19751845079991E-02 
886	 7.14608790983811E-02 
887	 7.09614185644207E-02 
888	 7.08091116464766E-02 
889	 7.05762798060251E-02 
890	 6.92947981192707E-02 
891	 6.84188781484564E-02 
892	 0.068729565208763 
893	 6.87778307371545E-02 
894	 6.74702719968867E-02 
895	 6.59524453138045E-02 
896	 6.54216546463969E-02 
897	 6.42786087365569E-02 
898	 6.46196799472385E-02 
899	 6.53352286506704E-02 
900	 6.48284783869655E-02 
901	 6.40381157655437E-02 
902	 6.46149104771508E-02 
903	 6.50211903393098E-02 
904	 6.34214913888961E-02 
905	 6.26295630170468E-02 
906	 6.30936968221562E-02 
907	 6.38520889216559E-02 
908	 6.31379817087829E-02 
909	 6.23881007960292E-02 
910	 6.07299089185627E-02 
911	 5.98356428981425E-02 
912	 6.26300627524369E-02 
913	 6.08982136573396E-02 
914	 5.84981334886979E-02 
915	 5.81311895043495E-02 
916	 5.88765775685512E-02 
917	 5.84579982882419E-02 
918	 5.78856885459751E-02 
919	 5.78085490869778E-02 
920	 5.77471411084199E-02 
921	 0.057747897896839 
922	 0.057063977617437 
923	 0.05551987732027 
924	 0.054436568614661 
925	 5.49507120698521E-02 
926	 5.50602574044843E-02 
927	 5.28396669022403E-02 
928	 5.15904781663638E-02 
929	 5.07088010502721E-02 
930	 4.98335534432367E-02 
931	 4.92603312807468E-02 
932	 5.36018985186027E-02 
933	 5.63012821045186E-02 
934	 5.25696036842859E-02 
935	 4.49199173232021E-02 
936	 4.42657828224567E-02 
937	 4.98762053342698E-02 
938	 5.40917240492618E-02 
939	 5.06646184336266E-02 
940	 4.12757808836164E-02 
941	 3.90368838873879E-02 
942	 4.09309556815691E-02 
943	 3.85186127468599E-02 
944	 4.69614992966617E-02 
945	 4.92072971956715E-02 
946	 4.32451895299472E-02 
947	 3.89137927584216E-02 
948	 4.54151953974812E-02 
949	 4.47440044608475E-02 
950	 4.07830688933269E-02 
951	 4.72363222058892E-02 
952	 4.38507160071851E-02 
953	 4.25054970853616E-02 
954	 4.25451407997004E-02 
955	 3.67948577049393E-02 
956	 4.35718946129366E-02 
957	 4.52494525682091E-02 
958	 0.041456655039119 
959	 4.34751693189478E-02 
960	 4.47568368784897E-02 
961	 4.24955745345352E-02 
962	 4.05803528847235E-02 
963	 0.044357045355302 
964	 4.21415896506558E-02 
965	 4.38922968604098E-02 
966	 4.85955935847871E-02 
967	 4.80244205191017E-02 
968	 0.046872254536067 
969	 4.73056953565581E-02 
970	 4.79080591069791E-02 
971	 4.54598115606656E-02 
972	 4.66404509748318E-02 
973	 4.59116418454504E-02 
974	 4.46210154780796E-02 
975	 4.96673464670606E-02 
976	 4.49441535009759E-02 
977	 0.044142523000275 
978	 4.84453865169853E-02 
979	 4.70337711504774E-02 
980	 0.046300924388431 
981	 4.67451090258313E-02 
982	 4.86229282740755E-02 
983	 5.15426907663341E-02 
984	 4.89013150668461E-02 
985	 0.047959937778091 
986	 4.91167359326055E-02 
987	 4.73298128761598E-02 
988	 4.63676168081802E-02 
989	 4.80642592484349E-02 
990	 5.08479229439543E-02 
991	 5.08935272635694E-02 
992	 4.54499910652349E-02 
993	 4.80406325017985E-02 
994	 5.34456351516369E-02 
995	 4.67869281721498E-02 
996	 4.25687346213462E-02 
997	 4.86196062728106E-02 
998	 0.054650546686798 
999	 4.61992281496318E-02 
1000	 4.70004153371151E-02 
1001	 4.17511542409867E-02 
1002	 4.22641293375572E-02 
1003	 4.24777162672825E-02 
1004	 4.26353322047989E-02 
1005	 4.26741892161733E-02 
1006	 4.23662734814473E-02 
1007	 4.22707658236808E-02 
1008	 4.27434346761228E-02 
1009	 0.043529682891498 
1010	 4.36176073065017E-02 
1011	 4.38816255131174E-02 
1012	 0.04376265116962 
1013	 4.30176931530949E-02 
1014	 4.28082877742552E-02 
1015	 4.27640091006195E-02 
1016	 4.29687003763024E-02 
1017	 4.35727917777362E-02 
1018	 4.38050406299708E-02 
1019	 4.42761276688153E-02 
1020	 4.44564040266322E-02 
1021	 4.42428883372794E-02 
1022	 4.40872439823683E-02 
1023	 4.38188902557804E-02 
1024	 4.36118367514598E-02 
1025	 4.33098099176935E-02 
1026	 4.29067310468722E-02 
1027	 4.31207607697781E-02 
1028	 4.37339542227085E-02 
1029	 4.40625678929586E-02 
1030	 4.50032288710904E-02 
1031	 4.51086301274885E-02 
1032	 0.044274090170065 
1033	 4.44601106618238E-02 
1034	 4.48461942465642E-02 
1035	 4.51798888020362E-02 
1036	 4.65358005019265E-02 
1037	 4.68748608803559E-02 
1038	 4.65769985617862E-02 
1039	 4.58499713722014E-02 
1040	 4.60656326713576E-02 
1041	 4.59707427578496E-02 
1042	 0.046082097231404 
1043	 4.69187528466443E-02 
1044	 4.70004535518984E-02 
1045	 4.63405968449326E-02 
1046	 4.63886226464072E-02 
1047	 4.67691530489153E-02 
1048	 4.68431562807621E-02 
1049	 4.71184588140549E-02 
1050	 4.71309062654473E-02 
1051	 4.64638760551261E-02 
1052	 4.64391268372533E-02 
1053	 4.67953812376127E-02 
1054	 4.70352696678221E-02 
1055	 4.78119078041641E-02 
1056	 4.81379269281379E-02 
1057	 4.82362860155247E-02 
1058	 4.80430904055017E-02 
1059	 4.78262968541529E-02 
1060	 4.72026967908658E-02 
1061	 4.70543240191239E-02 
1062	 4.70106246809846E-02 
1063	 4.69954683662249E-02 
1064	 4.70329853400453E-02 
1065	 4.73780966331252E-02 
1066	 4.81012885065952E-02 
1067	 0.048428961835459 
1068	 4.91112959821131E-02 
1069	 4.92768014203931E-02 
1070	 4.87287541373146E-02 
1071	 4.84188374519986E-02 
1072	 4.79456736452342E-02 
1073	 4.75238715582011E-02 
1074	 4.74517795848482E-02 
1075	 4.76417425846116E-02 
1076	 4.76278293303676E-02 
1077	 4.78700120212245E-02 
1078	 4.78449042835593E-02 
1079	 4.74724656477712E-02 
1080	 0.047287478652942 
1081	 4.73912585309341E-02 
1082	 4.70864669295582E-02 
1083	 0.04614459306794 
1084	 4.60771826409754E-02 
1085	 4.65729350112757E-02 
1086	 4.63764683002023E-02 
1087	 4.66131934345018E-02 
1088	 4.64554822862469E-02 
1089	 4.51703110215927E-02 
1090	 4.41777838764821E-02 
1091	 4.39774543853335E-02 
1092	 4.43324500758672E-02 
1093	 4.46677225824191E-02 
1094	 4.59403282166498E-02 
1095	 4.59723815362986E-02 
1096	 4.52144405567823E-02 
1097	 4.49431900467395E-02 
1098	 4.44919018494535E-02 
1099	 4.40586049083999E-02 
1100	 4.35244333049519E-02 
1101	 4.35714536256705E-02 
1102	 4.40807384688799E-02 
1103	 4.37938376307927E-02 
1104	 4.33540194612317E-02 
1105	 4.39006824217921E-02 
1106	 4.28857077702832E-02 
1107	 4.08048746108169E-02 
1108	 0.039917294265741 
1109	 3.92829108737211E-02 
1110	 3.89959011855383E-02 
1111	 0.039739945335207 
1112	 3.96585462683719E-02 
1113	 3.97387116018368E-02 
1114	 3.90247830321136E-02 
1115	 3.61077104230902E-02 
1116	 3.43745772971051E-02 
1117	 3.32455998918908E-02 
1118	 3.21009080852842E-02 
1119	 3.31329730885491E-02 
1120	 3.29853431302142E-02 
1121	 3.42638653488155E-02 
1122	 0.027179079047388 
1123	 2.99295283226921E-02 
1124	 0.034427753682187 
1125	 0.025157490577654 
1126	 2.27784908562944E-02 
1127	 2.62347329049703E-02 
1128	 2.03203740057688E-02 
1129	 1.81485050221042E-02 
1130	 2.49589367089446E-02 
1131	 2.94991244894486E-02 
1132	 2.72276632638078E-02 
1133	 0.026249287396027 
1134	 2.99692313728533E-02 
1135	 3.25959145669764E-02 
1136	 3.29904751746455E-02 
1137	 3.50709131609608E-02 
1138	 4.35356925296425E-02 
1139	 3.97294980405389E-02 
1140	 3.36367601567408E-02 
1141	 3.23435001607037E-02 
1142	 3.03069266481418E-02 
1143	 0.030407239389406 
1144	 3.18594880037931E-02 
1145	 3.41506164363835E-02 
1146	 0.035092692268465 
1147	 3.37927524942951E-02 
1148	 3.49507268623786E-02 
1149	 3.25170440451963E-02 
1150	 3.14545253539145E-02 
1151	 3.10191324134838E-02 
1152	 3.14269882421222E-02 
1153	 3.12468747680936E-02 
1154	 3.29587175794724E-02 
1155	 3.65154169970406E-02 
1156	 3.60402710242188E-02 
1157	 3.59351073151769E-02 
1158	 3.55089312047788E-02 
1159	 3.39911439544391E-02 
1160	 3.44172792265734E-02 
1161	 3.59667335160693E-02 
1162	 3.69864403778071E-02 
1163	 3.76344233778551E-02 
1164	 3.78754590050893E-02 
1165	 3.74397187115826E-02 
1166	 3.74810812679377E-02 
1167	 3.82641487337002E-02 
1168	 3.85340018790703E-02 
1169	 3.90773704122054E-02 
1170	 4.00054779878127E-02 
1171	 4.02321438135289E-02 
1172	 3.97946627384072E-02 
1173	 3.98577804860283E-02 
1174	 3.97678687698876E-02 
1175	 4.00352671658691E-02 
1176	 4.08918365264865E-02 
1177	 4.10711118743843E-02 
1178	 4.09756324996135E-02 
1179	 4.06689510359876E-02 
1180	 3.98491666639136E-02 
1181	 3.98316907556828E-02 
1182	 4.08720958110444E-02 
1183	 4.12153911375363E-02 
1184	 4.05429645170121E-02 
1185	 4.03208649729437E-02 
1186	 4.03940116698081E-02 
1187	 0.040476031081659 
1188	 4.06524096593579E-02 
1189	 4.08895155906929E-02 
1190	 4.10657859503609E-02 
1191	 4.06134532151049E-02 
1192	 4.04059060424188E-02 
1193	 4.04156253183943E-02 
1194	 4.08432724032056E-02 
1195	 4.08229460894773E-02 
1196	 4.09887446287276E-02 
1197	 0.041466562734696 
1198	 4.13961559717539E-02 
1199	 0.041172748662782 
1200	 4.10396461729624E-02 
1201	 4.08235289390861E-02 
1202	 4.06590603508839E-02 
1203	 4.02738463374595E-02 
1204	 4.04262390663758E-02 
1205	 4.06882328992145E-02 
1206	 4.06809627472821E-02 
1207	 0.041347287927288 
1208	 4.16702369595549E-02 
1209	 4.15148436479415E-02 
1210	 0.041670349883913 
1211	 4.18679874547857E-02 
1212	 4.21283962568748E-02 
1213	 0.042399411568932 
1214	 4.22507090374308E-02 
1215	 4.18750339806319E-02 
1216	 4.12915119130302E-02 
1217	 4.12392857086389E-02 
1218	 4.16271430986445E-02 
1219	 4.23572247062524E-02 
1220	 4.28276353110336E-02 
1221	 4.22212088484738E-02 
1222	 4.17045542747621E-02 
1223	 4.20748252587271E-02 
1224	 4.23522533277447E-02 
1225	 4.20076264430091E-02 
1226	 0.041647455937845 
1227	 4.15770760042214E-02 
1228	 4.15832083496037E-02 
1229	 4.20887070025877E-02 
1230	 4.27248125436224E-02 
1231	 4.28981281080002E-02 
1232	 4.25418135151414E-02 
1233	 4.19134096581766E-02 
1234	 4.18621377209249E-02 
1235	 4.19169903701621E-02 
1236	 4.17180412193248E-02 
1237	 4.17757577539624E-02 
1238	 4.23679749933799E-02 
1239	 4.28440614279511E-02 
1240	 4.28954779772758E-02 
1241	 4.29744100085625E-02 
1242	 4.29352233372015E-02 
1243	 0.042509812543657 
1244	 4.24024186495891E-02 
1245	 4.26176428167969E-02 
1246	 4.28283190926064E-02 
1247	 4.30965816920332E-02 
1248	 4.28249942766148E-02 
1249	 4.25550627683326E-02 
1250	 4.28005579142224E-02 
1251	 0.042686695334975 
1252	 4.25297440826767E-02 
1253	 4.28531099708009E-02 
1254	 4.26303913051707E-02 
1255	 4.20610405213126E-02 
1256	 4.18997567240173E-02 
1257	 4.18407993995731E-02 
1258	 4.18116803051857E-02 
1259	 4.21044644449755E-02 
1260	 0.042202735779643 
1261	 4.22660434088396E-02 
1262	 4.22742162631546E-02 
1263	 4.20827386630251E-02 
1264	 4.20623985318513E-02 
1265	 4.19824221481823E-02 
1266	 4.21014543879892E-02 
1267	 4.24290376486302E-02 
1268	 4.22420205260366E-02 
1269	 4.21975695019446E-02 
1270	 0.042391907989349 
1271	 4.22814805132822E-02 
1272	 0.042466373215032 
1273	 0.042746254364456 
1274	 4.25400985194937E-02 
1275	 4.20164195068348E-02 
1276	 4.19377425669462E-02 
1277	 4.23034465946849E-02 
1278	 0.042360403698378 
1279	 0.041898493512503 
1280	 4.15026462036685E-02 
1281	 4.16794766598102E-02 
1282	 4.23143712742436E-02 
1283	 0.042330312150306 
1284	 4.25671042990297E-02 
1285	 4.27428652550363E-02 
1286	 0.042354124776715 
1287	 4.21223271442988E-02 
1288	 4.21812538573153E-02 
1289	 4.22687534648225E-02 
1290	 4.21803176813612E-02 
1291	 4.20538341608988E-02 
1292	 4.21978324968946E-02 
1293	 4.21292816477934E-02 
1294	 4.17238898941956E-02 
1295	 4.11765298717137E-02 
1296	 4.11531326289137E-02 
1297	 4.14867564704778E-02 
1298	 4.12595252727188E-02 
1299	 4.09704525734661E-02 
1300	 4.08845141461876E-02 
1301	 4.06464284497803E-02 
1302	 4.06957234593216E-02 
1303	 4.12650252302358E-02 
1304	 4.12147552755927E-02 
1305	 4.08107720626564E-02 
1306	 4.04604208495548E-02 
1307	 3.97546558190335E-02 
1308	 3.93355482631847E-02 
1309	 3.88040254427554E-02 
1310	 3.87892802809336E-02 
1311	 3.97190811796901E-02 
1312	 3.97270418994102E-02 
1313	 3.94946332038558E-02 
1314	 3.92425560520248E-02 
1315	 3.80186541876569E-02 
1316	 0.037536005409315 
1317	 3.76592316605926E-02 
1318	 0.037874438701382 
1319	 3.87629942644964E-02 
1320	 0.03911237541492 
1321	 4.01931468403443E-02 
1322	 3.89742617333562E-02 
1323	 3.71443551827557E-02 
1324	 3.63927093955541E-02 
1325	 3.52878036224545E-02 
1326	 3.47749514190901E-02 
1327	 3.44781867623175E-02 
1328	 3.35982808752242E-02 
1329	 3.30619692670033E-02 
1330	 3.36595000879481E-02 
1331	 3.61981172995651E-02 
1332	 3.85080052872411E-02 
1333	 3.79089571852317E-02 
1334	 3.69448990837022E-02 
1335	 0.036226343723437 
1336	 3.36333408312045E-02 
1337	 3.30763336599614E-02 
1338	 3.42576073623178E-02 
1339	 3.51152906137399E-02 
1340	 3.76547746629508E-02 
1341	 3.81674253396168E-02 
1342	 3.65335066993953E-02 
1343	 3.64345056830971E-02 
1344	 0.036473931872151 
1345	 3.63633251133414E-02 
1346	 3.77544348717636E-02 
1347	 0.039835719558121 
1348	 0.043036994535977 
1349	 4.23174468676469E-02 
1350	 3.75716051014279E-02 
1351	 3.50151654280527E-02 
1352	 2.01338193289603E-02 
1353	 5.02908962911246E-03 
1354	 9.87466062396938E-04 
1355	 0.007061990788678 
1356	 0.016149500353398 
1357	-0.066533461760977 
1358	-0.141549747339287 
1359	-7.29822423161741E-02 
1360	-0.13297432541809 
1361	-0.186192699125256 
1362	-0.190553025202756 
1363	-0.287462154763389 
1364	-0.255003038927926 
1365	-7.10785901393022E-02 
1366	-6.57374631246661E-02 
1367	-0.237060732217037 
1368	-0.283306267102764 
1369	-0.521382442057129 
1370	-0.520869246657582 
1371	-0.301221706902589 
1372	-0.185646059746462 
1373	 0.346503994622436 
1374	 0.100210388017 
1375	-0.450825572730097 
1376	-0.430787358406582 
1377	-0.218600029722411 
1378	-0.24348952844684 
1379	-8.97005827724073E-02 
1380	 2.11881285417243E-03 
1381	-0.455099410868879 
1382	-0.531754775947919 
1383	 3.63221856860815E-03 
1384	 0.328854490762994 
1385	-2.15558151765229E-02 
1386	-0.110423526275695 
1387	-0.414912885128367 
1388	-0.435091763338178 
1389	 0.668877685341861 
1390	 0.750369311719761 
1391	 2.39821273132195 
1392	 2.71674757919643 
1393	 0.305231826389466 
1394	-4.43636246213468 
1395	-0.778568584671602 
1396	-0.237214398430388 
1397	 0.101952175203976 
1398	 0.204986016222136 
1399	 0.428404711523595 
1400	-0.126198785940744 
1401	-0.638742896430092 
1402	-0.366552906609306 
1403	-0.900276226218569 
1404	-9.41767184479907E-02 
1405	 0.42430447452923 
1406	 1.10417449907559 
1407	 0.684645349816078 
1408	 6.15348472555442E-02 
1409	 8.05915129900977E-02 
1410	 0.155361753396409 
1411	 0.164325012055139 
1412	 0.810967938097871 
1413	 0.671979844488382 
1414	-0.169744863481975 
1415	-0.247711717149258 
1416	-0.216286297746217 
1417	-0.141066978266052 
1418	 0.136479693112935 
1419	 0.168274860609619 
1420	 0.144380460753464 
1421	 0.136063057572769 
1422	 4.08180610145324E-03 
1423	 1.67505701464712E-02 
1424	 0.161145497774194 
1425	 0.161696668158772 
1426	 0.136763895184165 
1427	 0.117729733287253 
1428	 4.66860612422964E-02 
1429	-2.05798282937297E-03 
1430	-5.35393413700605E-02 
1431	-6.43910015709668E-02 
1432	-6.81746137773114E-02 
1433	-7.47237452183831E-02 
1434	-3.77728703808182E-02 
1435	-1.04843156910836E-02 
1436	-1.24177352712107E-03 
1437	 1.07947968273274E-02 
1438	 8.01543390300872E-02 
1439	 9.19004670898062E-02 
1440	 1.73020143169877E-02 
1441	-1.91490124451846E-02 
1442	 8.01871632967487E-03 
1443	 1.59061594126094E-02 
1444	 2.52176567369889E-02 
1445	 4.59496499911917E-02 
1446	 3.51935703224908E-02 
1447	 5.26874081048782E-03 
1448	 2.36404141075824E-04 
1449	 1.37217159477881E-02 
1450	 1.92526786168414E-02 
1451	 1.54857105960733E-02 
1452	 0.021509008643002 
1453	 3.72827837200823E-02 
1454	 3.81946251367274E-02 
1455	 0.032627931144648 
1456	 3.10506677176841E-02 
1457	 2.60792912229966E-02 
1458	 2.67602165708242E-02 
1459	 3.28718614754481E-02 
1460	 3.22237424477522E-02 
1461	 2.77691923584295E-02 
1462	 3.07447637241358E-02 
1463	 0.036996579348767 
1464	 0.036985217171971 
1465	 3.91633393073186E-02 
1466	 4.04625678715759E-02 
1467	 3.37658211042038E-02 
1468	 2.93833351970597E-02 
1469	 3.05694548468014E-02 
1470	 0.030674843648459 
1471	 2.51745699307264E-02 
1472	 2.41137793304244E-02 
1473	 2.86428026369095E-02 
1474	 3.05650592216467E-02 
1475	 3.14211561734208E-02 
1476	 3.07669779220911E-02 
1477	 2.91482197138286E-02 
1478	 3.03297614431622E-02 
1479	 3.11546811860812E-02 
1480	 3.21043130090803E-02 
1481	 3.64386097369422E-02 
1482	 3.75673791680057E-02 
1483	 3.55133766251011E-02 
1484	 0.035362719043816 
1485	 3.62130737082332E-02 
1486	 3.55966827124362E-02 
1487	 3.44821893869261E-02 
1488	 3.41302198607418E-02 
1489	 3.27355380664543E-02 
1490	 3.30536871617599E-02 
1491	 3.47059279625401E-02 
1492	 3.56468538995724E-02 
1493	 3.70963990138674E-02 
1494	 3.76805164389462E-02 
1495	 3.77681609153463E-02 
1496	 3.79865855732032E-02 
1497	 3.71405034233681E-02 
1498	 3.75600795131876E-02 
1499	 3.99503915509623E-02 
1500	 4.01551714623546E-02 
1501	 3.91639571169978E-02 
1502	 3.93159777779945E-02 
1503	 0.039002146067231 
1504	 3.85486722006366E-02 
1505	 3.88291770489486E-02 
1506	 3.90235703149437E-02 
1507	 3.89736570891333E-02 
1508	 3.91573920504145E-02 
1509	 3.97123052258776E-02 
1510	 4.07056841785489E-02 
1511	 4.14973986157052E-02 
1512	 4.13294340544138E-02 
1513	 0.040975307776149 
1514	 4.12814219022908E-02 
1515	 4.10017469614367E-02 
1516	 4.06021370106464E-02 
1517	 4.14056986341911E-02 
1518	 4.21039581542569E-02 
1519	 4.19812085872248E-02 
1520	 4.13670349427272E-02 
1521	 4.03116991330965E-02 
1522	 3.96218635085848E-02 
1523	 4.03794202973709E-02 
1524	 4.11390375539182E-02 
1525	 4.08887872578284E-02 
1526	 4.12972885413685E-02 
1527	 4.15974726075891E-02 
1528	 4.14296689186808E-02 
1529	 4.17665206358024E-02 
1530	 4.16994028507072E-02 
1531	 4.13864644898945E-02 
1532	 4.15378947430534E-02 
1533	 4.19836231522311E-02 
1534	 4.23260375605626E-02 
1535	 4.21184126263227E-02 
1536	 4.17244791316414E-02 
1537	 4.14969934239375E-02 
1538	 4.13443746667725E-02 
1539	 4.15574968371168E-02 
1540	 4.18968660164898E-02 
1541	 4.21019202212748E-02 
1542	 4.20368822879809E-02 
1543	 4.14822192471088E-02 
1544	 0.041382696824242 
1545	 4.15069031305961E-02 
1546	 4.14310177620581E-02 
1547	 4.19688729232134E-02 
1548	 4.22535889915149E-02 
1549	 4.21957090018663E-02 
1550	 4.20509655376183E-02 
1551	 4.15234101814127E-02 
1552	 4.20798412623811E-02 
1553	 4.29837289376598E-02 
1554	 4.29855610498734E-02 
1555	 4.29136753347729E-02 
1556	 4.24588737670117E-02 
1557	 4.20669437805171E-02 
1558	 4.25434619381759E-02 
1559	 4.30005759637831E-02 
1560	 4.30239844519932E-02 
1561	 4.26624527963852E-02 
1562	 4.23066420768111E-02 
1563	 4.27278434597098E-02 
1564	 4.34536760080102E-02 
1565	 4.35617077955463E-02 
1566	 4.32389933717003E-02 
1567	 4.31224643657192E-02 
1568	 4.30368134279617E-02 
1569	 4.27076967955795E-02 
1570	 4.23805923432222E-02 
1571	 4.19896381027109E-02 
1572	 4.17439502719875E-02 
1573	 4.24437378222298E-02 
1574	 4.31197753384465E-02 
1575	 4.30543494421978E-02 
1576	 4.32023241437993E-02 
1577	 4.29407936591192E-02 
1578	 4.25382478948228E-02 
1579	 4.27365096822517E-02 
1580	 4.27286876908214E-02 
1581	 4.26799061503569E-02 
1582	 4.27794271427453E-02 
1583	 4.29007438037689E-02 
1584	 4.26658814254974E-02 
1585	 4.20936652507279E-02 
1586	 4.19221114824367E-02 
1587	 4.20846748351857E-02 
1588	 4.26848505900898E-02 
1589	 4.33169448745821E-02 
1590	 4.34269443263629E-02 
1591	 4.32529776918514E-02 
1592	 4.30080892415984E-02 
1593	 4.29987017945226E-02 
1594	 4.26259349114242E-02 
1595	 4.20849231579419E-02 
1596	 4.22739560815855E-02 
1597	 4.24065051803902E-02 
1598	 4.25456218824056E-02 
1599	 4.32007042035567E-02 
1600	 0.043289402500664 
1601	 4.25019337250326E-02 
1602	 4.24260577171161E-02 
1603	 4.30588786803888E-02 
1604	 4.30658205032747E-02 
1605	 0.043005664248031 
1606	 0.043158786113281 
1607	 4.33663146587572E-02 
1608	 4.31427365452948E-02 
1609	 4.19171578570939E-02 
1610	 4.18638355939261E-02 
1611	 4.26935482437301E-02 
1612	 4.20980995748313E-02 
1613	 4.23715932037055E-02 
1614	 0.043304657139385 
1615	 4.27092266351687E-02 
1616	 0.042563101003881 
1617	 4.28236522960129E-02 
1618	 0.042559354417916 
1619	 4.24653063276779E-02 
1620	 4.25757018475164E-02 
1621	 4.31184381294815E-02 
1622	 4.35753112456523E-02 
1623	 4.34972419966209E-02 
1624	 4.32860929506933E-02 
1625	 4.26100129915757E-02 
1626	 4.19942256116485E-02 
1627	 4.17730054830073E-02 
1628	 4.14289812971315E-02 
1629	 4.19973008031411E-02 
1630	 4.25491012550089E-02 
1631	 4.24110319534935E-02 
1632	 4.29196749184494E-02 
1633	 4.29138340788458E-02 
1634	 4.23954504342275E-02 
1635	 4.25567341481028E-02 
1636	 4.27199984889953E-02 
1637	 0.04282703296178 
1638	 4.28407228897825E-02 
1639	 4.24071688673456E-02 
1640	 4.23177021692203E-02 
1641	 4.26683723201088E-02 
1642	 0.042903958596583 
1643	 4.29399216683703E-02 
1644	 4.26589085199902E-02 
1645	 4.20859491867611E-02 
1646	 4.18678851958143E-02 
1647	 4.22434702391108E-02 
1648	 4.23372851292751E-02 
1649	 4.18920015033015E-02 
1650	 4.15099965755019E-02 
1651	 4.13911463724631E-02 
1652	 4.14095555929068E-02 
1653	 4.21292342693669E-02 
1654	 4.23697404321446E-02 
1655	 0.042833275465639 
1656	 4.30403978803269E-02 
1657	 4.24219443468814E-02 
1658	 4.25909289633993E-02 
1659	 4.35322846925553E-02 
1660	 4.30406300118805E-02 
1661	 4.18909629740638E-02 
1662	 4.18280788740181E-02 
1663	 4.14831841372907E-02 
1664	 4.15600942978458E-02 
1665	 4.27335050839524E-02 
1666	 4.28131484633469E-02 
1667	 4.19642718726517E-02 
1668	 4.14046338262631E-02 
1669	 4.21237388382231E-02 
1670	 4.22940836251021E-02 
1671	 4.15118088348388E-02 
1672	 4.17016005542155E-02 
1673	 4.21608808173111E-02 
1674	 4.24813246506261E-02 
1675	 4.28358287881078E-02 
1676	 4.27526998235527E-02 
1677	 4.24627250511487E-02 
1678	 4.19792676687427E-02 
1679	 4.19029798909814E-02 
1680	 4.25933237164523E-02 
1681	 4.27973466271671E-02 
1682	 4.19957795497277E-02 
1683	 4.15447782655635E-02 
1684	 0.041967174337073 
1685	 4.19660910234347E-02 
1686	 4.16563026013558E-02 
1687	 4.22015803420292E-02 
1688	 4.28045093747604E-02 
1689	 4.22335742141548E-02 
1690	 4.18131889569954E-02 
1691	 4.19038086890184E-02 
1692	 4.10795883500506E-02 
1693	 4.12303660297199E-02 
1694	 4.30885689311251E-02 
1695	 4.33236628443918E-02 
1696	 4.23005309357496E-02 
1697	 0.041912814833775 
1698	 4.15759688712593E-02 
1699	 4.19381632495241E-02 
1700	 4.29331457908057E-02 
1701	 4.26706888502291E-02 
1702	 4.17086851380139E-02 
1703	 4.16874494031624E-02 
1704	 0.041816501289521 
1705	 0.042214636265451 
1706	 4.25684151558245E-02 
1707	 4.21116787395829E-02 
1708	 4.23048968481988E-02 
1709	 4.32194281581462E-02 
1710	 4.34700936048369E-02 
1711	 4.26136517748908E-02 
1712	 4.18805243309834E-02 
1713	 4.17661060368859E-02 
1714	 4.17704547391599E-02 
1715	 4.29359364720055E-02 
1716	 4.38927977400675E-02 
1717	 4.27650494362991E-02 
1718	 4.09033590286241E-02 
1719	 4.13071029596432E-02 
1720	 4.09834771095072E-02 
1721	 3.99248943318493E-02 
1722	 0.040984312118486 
1723	 4.15815639394939E-02 
1724	 4.06575287544393E-02 
1725	 4.07639221397089E-02 
1726	 4.19090071879346E-02 
1727	 4.23416216171049E-02 
1728	 4.19440235171965E-02 
1729	 0.042384078626897 
1730	 0.041998131321229 
1731	 3.97588188834859E-02 
1732	 0.039203888432172 
1733	 3.99394630835124E-02 
1734	 4.04713325982286E-02 
1735	 4.17679720942736E-02 
1736	 4.14663809452822E-02 
1737	 4.01011860341079E-02 
1738	 0.039747007949604 
1739	 3.87388317089468E-02 
1740	 3.95445366712238E-02 
1741	 4.14997623927508E-02 
1742	 4.01661454728275E-02 
1743	 0.039473974409574 
1744	 4.02197033508018E-02 
1745	 3.83122454674663E-02 
1746	 3.94949666098564E-02 
1747	 3.99806673169997E-02 
1748	 3.96808648278119E-02 
1749	 4.00614710472368E-02 
1750	 0.040236225715143 
1751	 4.05247348148464E-02 
1752	 4.14918085036233E-02 
1753	 4.11499458911555E-02 
1754	 4.03500668228687E-02 
1755	 3.97945377319192E-02 
1756	 3.76752848857829E-02 
1757	 4.03747792075288E-02 
1758	 4.17054830242573E-02 
1759	 4.03201840625094E-02 
1760	 4.07221003113585E-02 
1761	 3.99507703175967E-02 
1762	 3.74800277305226E-02 
1763	 3.83043564724459E-02 
1764	 3.93657288188545E-02 
1765	 3.72234967819863E-02 
1766	 3.64559159688117E-02 
1767	 3.62755740954577E-02 
1768	 3.45823430551306E-02 
1769	 3.54262795666523E-02 
1770	 3.59747434758922E-02 
1771	 3.71151964121014E-02 
1772	 0.039218419207326 
1773	 3.47427926168289E-02 
1774	 3.25794340379441E-02 
1775	 3.52585416305957E-02 
1776	 3.47626438528767E-02 
1777	 4.07504672958298E-02 
1778	 4.16057313451862E-02 
1779	 3.20720904308225E-02 
1780	 3.06135010088535E-02 
1781	 3.24694773687669E-02 
1782	 3.16950106512793E-02 
1783	 3.31628308290067E-02 
1784	 0.034969185406992 
1785	 3.71418088304482E-02 
1786	 3.82153217609742E-02 
1787	 4.06111959553792E-02 
1788	 3.83365161372892E-02 
1789	 2.85448384250373E-02 
1790	 2.06656535632357E-02 
1791	 2.45942049835236E-02 
1792	 3.14656166326022E-02 
1793	 2.84513133271385E-02 
1794	 2.71295090974951E-02 
1795	 2.49168653915624E-02 
1796	 6.09916161553406E-03 
1797	 5.67842464132641E-03 
1798	 2.51547716188631E-02 
1799	 2.46272223431359E-02 
1800	 3.38050561653939E-02 
1801	 4.42488672187327E-02 
1802	 2.40321594502018E-02 
1803	 1.42212655836066E-02 
1804	 3.99747022741091E-02 
1805	 4.73446964829773E-02 
1806	 2.90617304502797E-02 
1807	-1.22444250753106E-02 
1808	-0.137196672024207 
1809	-0.325361535642106 
1810	-0.4424503074426 
1811	-0.405149727510868 
1812	-0.132560215507039 
1813	 2.88932010575279E-02 
1814	-5.43409195119618 
1815	-2.70262713637102 
1816	 59.0272705276075 
1817	-0.665991576108631 
1818	-1.20628950937423 
1819	-3.03225384319448 
1820	-4.71194680425648 
1821	-0.910300615779408 
1822	-1.39294810499467 
1823	 2.73803489075096 
1824	 1.17949271148596 
1825	-0.746908868746663 
1826	-0.996806270525254 
1827	 19.9313620664223 
1828	 2.79243424844082 
1829	-2.45649926415155 
1830	-1.5507061454925 
1831	 0.582619018743494 
1832	-0.343204952913351 
1833	-2.59880108474236 
1834	-3.19577706156617 
1835	-13.3273610668928 
1836	 91.1038805344868 
1837	-0.848139171953213 
1838	-11.364712801424 
1839	 0.969788587134809 
1840	 0.190564142052712 
1841	 4.24745253645936E-02 
1842	-0.143719529701844 
1843	-0.188543890036158 
1844	-0.172538336198469 
1845	-0.449024826930929 
1846	 0.107806084946224 
1847	 0.485693946228955 
1848	 0.256815191071985 
1849	 0.803041547222688 
1850	 0.447631193171451 
1851	-0.291855832101605 
1852	-0.10726123791763 
1853	-0.66140347102285 
1854	 1.57499633534861 
1855	-0.772020830466092 
1856	-0.913559263984369 
1857	-0.310702208648116 
1858	 8.21122799287291E-02 
1859	 0.506493541439739 
1860	-0.585225224547573 
1861	-13.4415456146575 
1862	 2.24517754195573 
1863	 2.84008349854098 
1864	-4.65066396189401 
1865	-0.703069116210669 
1866	 0.367267316986012 
1867	 0.393713842338801 
1868	-2.62796733424073 
1869	 6.13900082981052 
1870	 0.639100295528568 
1871	-0.132408914023385 
1872	-0.483900583275334 
1873	-0.770429553715663 
1874	-0.709271754828054 
1875	-0.245867138761237 
1876	-7.64606137833453E-02 
1877	-0.104694027637064 
1878	-1.87465391455912E-02 
1879	 1.41128853766726 
1880	 1.842599668317 
1881	 0.482402133978449 
1882	 0.232624826489154 
1883	 0.2921145720003 
1884	-0.033837009948564 
1885	 2.03405779893634 
1886	-3.42458522794815 
1887	 5.9532471205675 
1888	 4.10461074308456 
1889	 3.10130899957197 
1890	 0.142369448778316 
1891	-1.09288970777861 
1892	-7.17674547613024 
1893	-3.68926825829909 
1894	-0.788198418387185 
1895	 5.02019045851185E-02 
1896	 0.298264617518486 
1897	 0.882681800668547 
1898	 1.73185110419706 
1899	-1.65963616086927 
1900	-2.03876396526482 
1901	-0.503801779995104 
1902	-0.492859882913048 
1903	-1.0020565777307 
1904	-0.904798126938209 
1905	-0.26041828772707 
1906	 0.200244315930231 
1907	 3.08275532292636E-02 
1908	-0.108627584502339 
1909	-0.12981727979889 
1910	 4.45168793223861 
1911	-1.24851278018968 
1912	-0.219482903598459 
1913	-7.71465052287048E-02 
1914	-1.3441191092124 
1915	-1.18730957114904 
1916	-0.834402169989219 
1917	-0.338732260797288 
1918	-0.495434499614687 
1919	-1.51834091276781 
1920	-1.36999680482174 
1921	-1.07220928397175 
1922	-0.856068371733037 
1923	-0.3783561853541 
1924	-0.420869580230435 
1925	-1.36020679717606 
1926	-2.44610983547566 
1927	-5.07999732346514 
1928	 12.7339946826495 
1929	-9.3335203178131 
1930	-0.781177585527572 
1931	-0.530874887698185 
1932	-0.590388476968949 
1933	 0.64576479502442 
1934	 2.79027475781181 
1935	 2.41400884308017 
1936	 0.703274659458696 
1937	-0.132951508911363 
1938	-0.663736074559066 
1939	-0.854362917310354 
1940	-56.4515455709829 
1941	 1.80853444688634 
1942	 2.03152687389624 
1943	-3.94040481900883 
1944	-0.250218305465055 
1945	 0.522892534692909 
1946	 1.52402447062344E-03 
1947	-8.7882000491189E-03 
1948	 5.62153271533693E-03 
1949	-0.318989403126054 
1950	-0.340467252404641 
1951	-0.229113199299969 
1952	-0.193616212794236 
1953	-0.163983197313492 
1954	-8.72287369203424E-02 
1955	 2.86957472923268E-02 
1956	 1.14345502104639E-02 
1957	 8.92167696101402E-03 
1958	 4.33679857700221E-02 
1959	 3.04024940849027E-03 
1960	 1.42937830150797E-02 
1961	 4.75090027996214E-02 
1962	 2.09723095416938E-02 
1963	 1.40232872425401E-02 
1964	 2.85204247838885E-02 
1965	 1.60711850112293E-02 
1966	 1.26423190640441E-02 
1967	 1.40167623390752E-02 
1968	 3.07677111393728E-02 
1969	 3.18497664913829E-02 
1970	 2.83145312470002E-02 
1971	 3.90553100585944E-02 
1972	 3.88667624801681E-02 
1973	 2.52050642342012E-02 
1974	 2.09953105285053E-02 
1975	 2.11164197352952E-02 
1976	 1.71231801368127E-02 
1977	 1.99079188549901E-02 
1978	 2.79233293836914E-02 
1979	 3.19908863712609E-02 
1980	 3.58128186740677E-02 
1981	 0.036767717680699 
1982	 3.44063534942707E-02 
1983	 3.53940595393304E-02 
1984	 3.81898139839861E-02 
1985	 3.72167868303804E-02 
1986	 4.25844915040296E-02 
1987	 4.26551695806679E-02 
1988	 3.70251784349683E-02 
1989	 3.84899899697444E-02 
1990	 3.36149108596214E-02 
1991	 3.11558582714372E-02 
1992	 3.47301494904603E-02 
1993	 3.53296476861819E-02 
1994	 3.30866171476914E-02 
1995	 2.99951406581819E-02 
1996	 2.37092030896794E-02 
1997	 0.022352744517005 
1998	 2.13227277844066E-02 
1999	 2.18165595356173E-02 
2000	 3.19045941893823E-02 
2001	 2.38949080277221E-02 
2002	 7.77245268840526E-03 
2003	 8.18809630373822E-03 
2004	 1.50077096731361E-02 
2005	 2.83895817745468E-02 
2006	 4.36850842790381E-02 
2007	 5.81891378814658E-02 
2008	 6.29442117871584E-02 
2009	 6.78051137050962E-02 
2010	 7.37076469095033E-02 
2011	 7.82550255769903E-02 
2012	 8.34422657925002E-02 
2013	 7.62313969925662E-02 
2014	 6.64245168220585E-02 
2015	 5.71439909367888E-02 
2016	 4.31489444708936E-02 
2017	 3.53969854630516E-02 
2018	 0.032431738060381 
2019	 2.84323349175973E-02 
2020	 2.88344297508816E-02 
2021	 3.07797569515582E-02 
2022	 3.47859793446354E-02 
2023	 0.039591904394912 
2024	 4.07319702163505E-02 
2025	 3.81085427613113E-02 
2026	 3.82661824296706E-02 
2027	 3.85009981838978E-02 
2028	 3.96059468053479E-02 
2029	 3.87421910983602E-02 
2030	 4.04152471960783E-02 
2031	 4.17835399261352E-02 
2032	 3.91867662695211E-02 
2033	 4.10893911305935E-02 
2034	 4.38587420447455E-02 
2035	 4.16043546406927E-02 
2036	 4.08012111417304E-02 
2037	 4.28004024384009E-02 
2038	 4.21208674361668E-02 
2039	 4.17642302849445E-02 
2040	 4.51115552810743E-02 
2041	 4.57514729934018E-02 
2042	 4.07425053580965E-02 
2043	 4.09343833714004E-02 
2044	 4.47724202140957E-02 
2045	 4.53741296806469E-02 
2046	 4.69122169901995E-02 
2047	 5.25668854319278E-02 
2048	 5.75739074133108E-02 
2049	 5.89417671211766E-02 
2050	 5.70048701884448E-02 
2051	 5.14975247740702E-02 
2052	 0.044588337250223 
2053	 3.98421706306729E-02 
2054	 3.60876601658147E-02 
2055	 0.038538040925365 
2056	 3.91358645433165E-02 
2057	 3.78149694910525E-02 
2058	 0.038137365696516 
2059	 4.29942271358622E-02 
2060	 4.26673442162708E-02 
2061	 3.94618755628856E-02 
2062	 3.78207388782256E-02 
2063	 0.036406704679707 
2064	 3.35788343479213E-02 
2065	 3.29852842199688E-02 
2066	 3.39459930898569E-02 
2067	 3.43784614437404E-02 
2068	 3.45298438685653E-02 
2069	 3.85566766947168E-02 
2070	 4.23075209816897E-02 
2071	 4.16160174611827E-02 
2072	 4.31820669214783E-02 
2073	 4.43817603769923E-02 
2074	 4.31536382831893E-02 
2075	 0.04323649273436 
2076	 4.59367263225315E-02 
2077	 4.55011260433898E-02 
2078	 0.042003864119039 
2079	 4.21583877711327E-02 
2080	 4.43567518306752E-02 
2081	 4.38171072443287E-02 
2082	 4.44059970028521E-02 
2083	 4.51024229465706E-02 
2084	 4.16554442378393E-02 
2085	 4.06032434082231E-02 
2086	 0.041968719867685 
2087	 4.33852614264453E-02 
2088	 0.046008582997501 
2089	 4.69853673491563E-02 
2090	 4.50892298028458E-02 
2091	 4.20276708776166E-02 
2092	 4.06211091477447E-02 
2093	 0.038454327202436 
2094	 3.78620743883889E-02 
2095	 3.94129395705271E-02 
2096	 0.040125401288935 
2097	 4.07622442553992E-02 
2098	 4.16046487904628E-02 
2099	 4.33107063656473E-02 
2100	 4.41855623304847E-02 
2101	 4.31079266816106E-02 
2102	 4.35477989747671E-02 
2103	 4.23854088816577E-02 
2104	 4.01779153062999E-02 
2105	 3.99666255441419E-02 
2106	 3.89683122712001E-02 
2107	 3.79075928973333E-02 
2108	 0.037945212082752 
2109	 4.02333002042161E-02 
2110	 4.18643675505588E-02 
2111	 4.37147920734921E-02 
2112	 4.64093863279453E-02 
2113	 4.73775753061866E-02 
2114	 4.64352348281326E-02 
2115	 4.61439199298668E-02 
2116	 4.52743412948748E-02 
2117	 0.044439496817973 
2118	 4.19713180959785E-02 
2119	 4.22274537740802E-02 
2120	 4.34987806660439E-02 
2121	 4.67784508949942E-02 
2122	 4.89505452199319E-02 
2123	 4.78623769700657E-02 
2124	 4.66065059230211E-02 
2125	 4.51714753535607E-02 
2126	 4.37818661373334E-02 
2127	 4.54295251459592E-02 
2128	 0.045716195393589 
2129	 4.28490787665366E-02 
2130	 4.06368273120512E-02 
2131	 3.95704771257133E-02 
2132	 3.95175577585864E-02 
2133	 3.88113036991807E-02 
2134	 3.85208766024534E-02 
2135	 3.86662196025012E-02 
2136	 3.93668992967225E-02 
2137	 3.97531206521233E-02 
2138	 4.17069660601817E-02 
2139	 4.66050048811133E-02 
2140	 4.84768767872179E-02 
2141	 4.98333717751728E-02 
2142	 5.04668831057411E-02 
2143	 4.95407919220078E-02 
2144	 4.81116286111598E-02 
2145	 4.57348842329509E-02 
2146	 4.43835851017148E-02 
2147	 4.58887164352738E-02 
2148	 4.57918818306565E-02 
2149	 4.72830313742596E-02 
2150	 4.95752965229626E-02 
2151	 4.83199961384469E-02 
2152	 0.045621054797281 
2153	 4.58245458283486E-02 
2154	 4.57842694845032E-02 
2155	 0.044102332768353 
2156	 4.68334499306958E-02 
2157	 4.70463155565661E-02 
2158	 4.56790637837207E-02 
2159	 4.47710511439596E-02 
2160	 4.33311254966808E-02 
2161	 4.30238948608451E-02 
2162	 4.17305652364882E-02 
2163	 4.21130831881827E-02 
2164	 4.60783276283169E-02 
2165	 0.046831679198894 
2166	 4.66742727932415E-02 
2167	 4.78280306150588E-02 
2168	 4.85679963619209E-02 
2169	 4.76477286075541E-02 
2170	 4.62741942891248E-02 
2171	 4.60424377488284E-02 
2172	 4.16708432065278E-02 
2173	 3.73874793562631E-02 
2174	 0.036452995416151 
2175	 0.034255672977948 
2176	 3.42002623699337E-02 
2177	 3.42707915327399E-02 
2178	 3.46989857342811E-02 
2179	 3.83877994704004E-02 
2180	 3.81670845910951E-02 
2181	 0.040078346072443 
2182	 4.43004526747526E-02 
2183	 4.39040050666532E-02 
2184	 4.26290564402582E-02 
2185	 4.01725249097321E-02 
2186	 3.84009286492207E-02 
2187	 3.22542695268867E-02 
2188	 3.06409628659445E-02 
2189	 3.36081990827869E-02 
2190	 3.45117152937818E-02 
2191	 3.49826188838466E-02 
2192	 3.54170731598235E-02 
2193	 3.72408702828401E-02 
2194	 3.91719379158955E-02 
2195	 4.07556922043156E-02 
2196	 0.041115649663583 
2197	 4.06437091430612E-02 
2198	 3.81073215499678E-02 
2199	 3.09671060408613E-02 
2200	 3.07639970257311E-02 
2201	 3.16867345806851E-02 
2202	 3.37356313293953E-02 
2203	 3.36650625946174E-02 
2204	 3.03663959820685E-02 
2205	 0.028506325025961 
2206	 2.96556220838303E-02 
2207	 2.99662566521669E-02 
2208	 3.52307842741154E-02 
2209	 3.99743377274059E-02 
2210	 3.56521225537328E-02 
2211	 3.69693937866393E-02 
2212	 0.039662742887763 
2213	 0.037124041013771 
2214	 3.77342953698181E-02 
2215	 3.91614386402655E-02 
2216	 4.17972638037201E-02 
2217	 4.32520355244715E-02 
2218	 4.71638701019312E-02 
2219	 0.04699723045905 
2220	 0.041300738226965 
2221	 4.07754374059864E-02 
2222	 4.00006582992111E-02 
2223	 4.22806864679275E-02 
2224	 5.41193104791623E-02 
2225	 5.52207645904999E-02 
2226	 5.15603548151327E-02 
2227	 4.92929559119568E-02 
2228	 3.86496521629579E-02 
2229	 0.034348814004569 
2230	 3.69957265857881E-02 
2231	 3.46727873187171E-02 
2232	 2.81206276385856E-02 
2233	 2.70808216735374E-02 
2234	 0.026608322848216 
2235	 2.84963583385776E-02 
2236	 3.25598787772007E-02 
2237	 0.037355775551239 
2238	 3.74173910826025E-02 
2239	 3.83403789543549E-02 
2240	 3.91956598720853E-02 
2241	 0.037863573860645 
2242	 4.01160588469538E-02 
2243	 4.20904398187944E-02 
2244	 4.41569521514959E-02 
2245	 4.58140754410615E-02 
2246	 4.16844928203437E-02 
2247	 3.30857839180264E-02 
2248	 2.83961518092517E-02 
2249	 3.48711422306915E-02 
2250	 4.12659061067182E-02 
2251	 4.10549296533447E-02 
2252	 4.24865383420965E-02 
2253	 4.12192287822474E-02 
2254	 3.97706559571574E-02 
2255	 4.86015322879017E-02 
2256	 5.70489727617332E-02 
2257	 5.41567441915906E-02 
2258	 4.73201337426137E-02 
2259	 4.77387681630071E-02 
2260	 4.83531035183586E-02 
2261	 4.89941874603441E-02 
2262	 4.78070283248648E-02 
2263	 4.88206613768781E-02 
2264	 4.75820177927416E-02 
2265	 4.01649017571665E-02 
2266	 4.24983957079193E-02 
2267	 5.64767080796983E-02 
2268	 5.89706981259385E-02 
2269	 5.76831520536736E-02 
2270	 5.54175889849748E-02 
2271	 4.22189127715369E-02 
2272	 3.78438026964243E-02 
2273	 4.40265045151802E-02 
2274	 4.26336043463781E-02 
2275	 3.81081423843893E-02 
2276	 3.78946825008777E-02 
2277	 3.53589109139209E-02 
2278	 3.18256039690084E-02 
2279	 3.02702511766739E-02 
2280	 3.17839844456439E-02 
2281	 3.37167766632464E-02 
2282	 3.36898807162331E-02 
2283	 3.54836745068999E-02 
2284	 3.70573194606628E-02 
2285	 2.79206175051497E-02 
2286	 2.17060073507536E-02 
2287	 2.42903617702914E-02 
2288	 2.64916447890093E-02 
2289	 3.17281033209064E-02 
2290	 3.96457827400257E-02 
2291	 0.04518177767491 
2292	 4.60643214293496E-02 
2293	 4.81265598473243E-02 
2294	 4.83667491971541E-02 
2295	 4.09358729311976E-02 
2296	 3.16877169366926E-02 
2297	 2.18799065037285E-02 
2298	 0.017985914328029 
2299	 2.24165691214996E-02 
2300	 3.08141153961384E-02 
2301	 4.02295434472061E-02 
2302	 4.20856511825963E-02 
2303	 3.26505662086031E-02 
2304	 0.026152716450007 
2305	 2.16927338626992E-02 
2306	 1.57392201795248E-02 
2307	 1.90168780953024E-02 
2308	 3.06458703629614E-02 
2309	 5.02594282029927E-02 
2310	 6.13282105441652E-02 
2311	 6.04156995666374E-02 
2312	 5.81939847868013E-02 
2313	 4.92788350736655E-02 
2314	 4.59051248597918E-02 
2315	 5.61798319991054E-02 
2316	 0.056840761047276 
2317	 0.053230310345084 
2318	 5.78094842930422E-02 
2319	 5.70998084594844E-02 
2320	 6.88836501578394E-02 
2321	 8.10796953586716E-02 
2322	 8.33879785780356E-02 
2323	 7.65091399177502E-02 
2324	 4.44701343128638E-02 
2325	 2.31901607095671E-02 
2326	 4.55484102939494E-03 
2327	-1.51519001358727E-02 
2328	-2.50345019265466E-03 
2329	 3.04731334782551E-03 
2330	-8.64996343292236E-03 
2331	 6.79518970291735E-04 
2332	 0.01632920818183 
2333	 2.04145791629792E-02 
2334	 2.78747875903914E-02 
2335	 2.82383654187459E-02 
2336	 2.20465457590684E-02 
2337	 3.21053239181647E-02 
2338	 3.77944317062818E-02 
2339	 0.046741057087141 
2340	 5.38254269298276E-02 
2341	 1.87992353758802E-02 
2342	 4.22917391450591E-03 
2343	 1.15118271740847E-02 
2344	-6.69535170901766E-03 
2345	 1.24881685634694E-02 
2346	 4.91408385850009E-02 
2347	 5.19161983605144E-02 
2348	 5.06591779670332E-02 
2349	 2.76379638395533E-02 
2350	 2.40181654138934E-03 
2351	 7.87864660807037E-03 
2352	 2.02739070625981E-02 
2353	 2.50562457478579E-02 
2354	 2.16679054627348E-02 
2355	 1.86183231598674E-03 
2356	-1.88273480465362E-02 
2357	 4.84871828823325E-03 
2358	 1.57898330706793E-02 
2359	 1.25040497885807E-02 
2360	 2.97727121071954E-02 
2361	 3.49527515308588E-02 
2362	 6.08953950946049E-02 
2363	 6.33194496479053E-02 
2364	 5.27397915197103E-02 
2365	 5.33825511175794E-02 
2366	 2.76224521208339E-02 
2367	 1.64737922732367E-02 
2368	-3.79570728226319E-03 
2369	-4.59309899670101E-03 
2370	 0.043530746270173 
2371	 9.80155278095698E-02 
2372	 0.119632162282657 
2373	 0.105853754163407 
2374	 0.028073511564156 
2375	-0.084362620587092 
2376	-0.160017335483463 
2377	-0.159340871554783 
2378	-1.56937483554254E-02 
2379	 0.122447801082768 
2380	 0.175360311834067 
2381	 0.248676983005523 
2382	 0.210485265394679 
2383	 0.103119345438237 
2384	 7.06095863966135E-02 
2385	 2.76266860937519E-02 
2386	-4.68975851729182E-02 
2387	-1.99893466715451E-03 
2388	 8.44998883702214E-02 
2389	 0.138074747442704 
2390	 0.231313185669483 
2391	 0.224348355703197 
2392	 6.55308499571908E-03 
2393	-0.22365058638076 
2394	-0.53306604901146 
2395	-0.54437766390859 
2396	-0.288421993311503 
2397	-0.225172000558302 
2398	-0.237974097187351 
2399	-0.171524787137206 
2400	-0.20748510360715 
2401	-0.151610503670489 
2402	 3.16634504864342E-02 
2403	 1.87136172837613E-02 
2404	-8.19786303369501E-02 
2405	-4.81348561270742E-03 
2406	 6.78847328427548E-02 
2407	 0.11100379844523 
2408	 0.269184338476888 
2409	 0.200082354989536 
2410	-7.58432002331113E-02 
2411	-5.77995108117234E-02 
2412	 0.12707433676136 
2413	 0.369922162376555 
2414	 0.360839718670574 
2415	 7.85095611602059E-02 
2416	-0.15052144079575 
2417	-3.18260516177467E-02 
2418	 0.21605654948869 
2419	 0.576162025289777 
2420	 0.819808889079181 
2421	 0.443078506942712 
2422	-0.291211177283473 
2423	-1.45432929312869 
2424	-1.50870850797244 
2425	-6.24630293603622E-02 
2426	 2.38811859030036 
2427	 0.987158007246874 
2428	 0.493765947393773 
2429	 0.227779629975155 
2430	 0.276046768433839 
2431	 0.475179726744883 
2432	 0.904034823747729 
2433	 1.0550273290919 
2434	 0.738225062057871 
2435	 4.05386947302923E-02 
2436	-0.308991510557767 
2437	 209.550736735218 
2438	-1.35543968356042 
2439	-2.99403168190526 
2440	 44.9978071305171 
2441	 0.113464919064369 
2442	-0.689764023352451 
2443	-0.168147066103812 
2444	 7.72529710544582 
2445	 1.10438380858599 
2446	-0.422966284814161 
2447	 0.261959425365384 
2448	 0.107657396559 
2449	-0.265375314648212 
2450	-0.361682572712182 
2451	-0.575230303202696 
2452	-0.526071668926005 
2453	-0.346695736588661 
2454	 0.209529504512458 
2455	 0.131876412599043 
2456	 0.192620300311843 
2457	 0.328696014582093 
2458	 0.628339910605606 
2459	 2.255074452035 
2460	 1.87379514873293 
2461	 0.971950875198431 
2462	 0.899506869782806 
2463	 0.310907637776662 
2464	 0.239607675919985 
2465	 0.461355833614625 
2466	 0.526543865175065 
2467	 2.02987471282977 
2468	 3.69618709695406 
2469	 7.00588769070682 
2470	-3.81788266812449 
2471	-5.09662382036367 
2472	-1.26819938229531 
2473	 8.92169484963179E-02 
2474	 0.91236648167672 
2475	 0.367166876526622 
2476	 7.27891295528767E-02 
2477	-0.394040182051862 
2478	-0.884206220852242 
2479	 4.19110805682148E-02 
2480	 4.79940003547835E-02 
2481	 0.142503141097588 
2482	 0.158390936224468 
2483	 7.19838226270636E-02 
2484	 7.53642484197443E-03 
2485	 0.186850460400261 
2486	 0.699805527096861 
2487	 1.8001654237934 
2488	 0.739649084234764 
2489	 0.138754503348276 
2490	-0.115761821242707 
2491	-0.257865050002888 
2492	-0.157239740024699 
2493	-0.27035493517377 
2494	-0.291218658315864 
2495	 0.91606161603172 
2496	-1.54432595826819 
2497	 3.33240130693716 
2498	 10.4852541032666 
2499	 6.73887234869099 
2500	 5.59525219697568 
