Wavelength	rt0713east_close00005.asd
350	 9.17466406718735E-02 
351	 9.21026041694831E-02 
352	 9.09162897725226E-02 
353	 9.03168813343095E-02 
354	 9.10467172126373E-02 
355	 9.00636597762487E-02 
356	 8.90888682491277E-02 
357	 8.92512143677743E-02 
358	 9.06551955106708E-02 
359	 9.00781094047786E-02 
360	 8.99211598358878E-02 
361	 9.01667835716311E-02 
362	 8.92907806197075E-02 
363	 8.95673914315316E-02 
364	 8.94479862479835E-02 
365	 8.86160876213644E-02 
366	 8.93067438016855E-02 
367	 8.90471230276317E-02 
368	 8.88469563833969E-02 
369	 8.97396230861973E-02 
370	 8.95245914916304E-02 
371	 8.93192268798437E-02 
372	 8.92752652010269E-02 
373	 8.90354150175296E-02 
374	 8.91622513228584E-02 
375	 8.93523207109164E-02 
376	 8.94585838309565E-02 
377	 0.089670728814561 
378	 8.97617979580156E-02 
379	 8.96825577483717E-02 
380	 0.089475568530052 
381	 8.92383052895178E-02 
382	 8.95433861829438E-02 
383	 9.00205705261354E-02 
384	 8.99551733093825E-02 
385	 8.97517647570233E-02 
386	 9.00592187760727E-02 
387	 9.05906929306277E-02 
388	 9.01053050925212E-02 
389	 9.00411188896982E-02 
390	 9.04243436685394E-02 
391	 9.08177458893061E-02 
392	 9.03470904774601E-02 
393	 0.090492212089875 
394	 9.07675938337737E-02 
395	 9.03141477578554E-02 
396	 9.04651901715291E-02 
397	 9.07507828170983E-02 
398	 9.10142429021976E-02 
399	 9.14341571426667E-02 
400	 9.12994636563163E-02 
401	 9.10212482038054E-02 
402	 9.10112426604688E-02 
403	 0.091356100185332 
404	 9.13388529934655E-02 
405	 9.13603518455968E-02 
406	 9.19648174634846E-02 
407	 9.19223650883915E-02 
408	 9.18169977630493E-02 
409	 9.18971862888602E-02 
410	 0.091968037370469 
411	 9.20133468166024E-02 
412	 9.21173105684996E-02 
413	 9.23117056269284E-02 
414	 9.24537410557249E-02 
415	 9.26641147381559E-02 
416	 9.28534153081924E-02 
417	 9.29121524414374E-02 
418	 9.31436389170597E-02 
419	 9.33991873295931E-02 
420	 9.35776352964767E-02 
421	 9.36730204482102E-02 
422	 9.39799850988786E-02 
423	 9.41931363529562E-02 
424	 9.41800829697765E-02 
425	 9.46605586455599E-02 
426	 9.50833757677467E-02 
427	 9.52863958870999E-02 
428	 9.53597658154022E-02 
429	 9.56625032859318E-02 
430	 9.62138976883412E-02 
431	 9.67455639382049E-02 
432	 9.67275245574373E-02 
433	 9.70009389123209E-02 
434	 9.74324105381564E-02 
435	 9.77948260796604E-02 
436	 9.83115910622942E-02 
437	 9.86165246842087E-02 
438	 9.88038988601864E-02 
439	 9.91819789503045E-02 
440	 9.94984348308762E-02 
441	 9.98201153587535E-02 
442	 0.100184440390697 
443	 0.100543146971689 
444	 0.100732673913996 
445	 0.100983904932767 
446	 0.101479253222426 
447	 0.101780861259262 
448	 0.102071361193459 
449	 0.102376816261374 
450	 0.102613482813762 
451	 0.102921662777525 
452	 0.103248534840995 
453	 0.103514361729159 
454	 0.10361503424596 
455	 0.103977123441664 
456	 0.104342754294211 
457	 0.104359478961095 
458	 0.104632823259162 
459	 0.104876089503357 
460	 0.105019732994664 
461	 0.105250331393421 
462	 0.105521974532545 
463	 0.105719325490089 
464	 0.105805730773239 
465	 0.105993106609656 
466	 0.106202416323003 
467	 0.106405790738364 
468	 0.106613969586857 
469	 0.106974352758219 
470	 0.107186087652687 
471	 0.107215770507017 
472	 0.107432444724691 
473	 0.107666903146081 
474	 0.107837211904934 
475	 0.107958601676669 
476	 0.108322183924773 
477	 0.108670156423852 
478	 0.108952832017104 
479	 0.109253196889833 
480	 0.109346620141443 
481	 0.109557441628053 
482	 0.110026148734624 
483	 0.110381984577199 
484	 0.110749952475373 
485	 0.111058623681859 
486	 0.11126869501693 
487	 0.111837053176229 
488	 0.112304494477348 
489	 0.112561337695119 
490	 0.112879457417997 
491	 0.113224760784027 
492	 0.113560411337057 
493	 0.113878717907507 
494	 0.114268221061497 
495	 0.11471472745451 
496	 0.115182735174059 
497	 0.115618989981045 
498	 0.115923242952616 
499	 0.116328408760921 
500	 0.11684689039806 
501	 0.117100503255792 
502	 0.117500050947495 
503	 0.117936311739439 
504	 0.118249776678453 
505	 0.118684864170416 
506	 0.119302079763115 
507	 0.120001441494176 
508	 0.120564555611682 
509	 0.120925604584522 
510	 0.121315783141325 
511	 0.121889301105957 
512	 0.122532461811292 
513	 0.123118141559067 
514	 0.123628538275526 
515	 0.124117131532328 
516	 0.124716934160889 
517	 0.125351143308123 
518	 0.125923659895833 
519	 0.126349523279532 
520	 0.126843394200926 
521	 0.127448148724453 
522	 0.12812595141925 
523	 0.128732627846582 
524	 0.129257140065884 
525	 0.129742453271352 
526	 0.130277258340724 
527	 0.130958149069073 
528	 0.13158849029188 
529	 0.132107308632788 
530	 0.132812608842942 
531	 0.133490593301049 
532	 0.134132130589793 
533	 0.134776015281581 
534	 0.135282223451294 
535	 0.13589189391508 
536	 0.136629664235383 
537	 0.137249727545107 
538	 0.137672270251266 
539	 0.138194023735976 
540	 0.138995962038028 
541	 0.139573923805434 
542	 0.140111800657238 
543	 0.140739050582616 
544	 0.141512268458955 
545	 0.14207496131787 
546	 0.142680233286952 
547	 0.143440852579232 
548	 0.144043826933241 
549	 0.144706981735776 
550	 0.145379059440835 
551	 0.145964498241548 
552	 0.146667434149344 
553	 0.147311807654017 
554	 0.147851612445702 
555	 0.148406900199717 
556	 0.148972824890662 
557	 0.149606155831392 
558	 0.150300734628309 
559	 0.150854849810227 
560	 0.151269897755611 
561	 0.151678895651817 
562	 0.152270689507525 
563	 0.152859937313416 
564	 0.153368568084271 
565	 0.15374691591281 
566	 0.15395318840232 
567	 0.154231655040725 
568	 0.154606128822128 
569	 0.155009172808003 
570	 0.1554240399392 
571	 0.155803318165443 
572	 0.156144083955865 
573	 0.156488183567962 
574	 0.156739721512515 
575	 0.156983343043457 
576	 0.157316653596008 
577	 0.157768825192663 
578	 0.15804967795329 
579	 0.1582527238186 
580	 0.158667099762659 
581	 0.158939329259908 
582	 0.159147386606544 
583	 0.159286768649798 
584	 0.159081911118812 
585	 0.158920089217644 
586	 0.158658819587661 
587	 0.158057118255373 
588	 0.157532644205352 
589	 0.157314196541938 
590	 0.157405446059432 
591	 0.157566781372403 
592	 0.157585848712789 
593	 0.157521764759332 
594	 0.157486349046774 
595	 0.157544298101813 
596	 0.157555594637249 
597	 0.157552352406014 
598	 0.157639104723486 
599	 0.157607729965733 
600	 0.157518573179245 
601	 0.157477494750815 
602	 0.157629174664209 
603	 0.157510605753081 
604	 0.157367594563129 
605	 0.157529543356338 
606	 0.157448226499601 
607	 0.157511279471637 
608	 0.157722047606863 
609	 0.157659936002095 
610	 0.157613338120173 
611	 0.157653585479928 
612	 0.157772969809965 
613	 0.157868841770954 
614	 0.158020373832067 
615	 0.158140490324656 
616	 0.15808034558315 
617	 0.158014867158437 
618	 0.158101749625754 
619	 0.158296037277247 
620	 0.158233840168656 
621	 0.158244981609225 
622	 0.158253496045229 
623	 0.158141135510596 
624	 0.158245612190327 
625	 0.158273331471344 
626	 0.158119847412269 
627	 0.157903685148547 
628	 0.158009623008319 
629	 0.158243546624536 
630	 0.158374883477018 
631	 0.158394746081286 
632	 0.158490717849697 
633	 0.158576522440758 
634	 0.158497533035974 
635	 0.158701259821464 
636	 0.158807339238366 
637	 0.158751511046791 
638	 0.159035441101351 
639	 0.159168490445776 
640	 0.159078332879752 
641	 0.158886412980356 
642	 0.158969843989375 
643	 0.158804010043666 
644	 0.158303541082487 
645	 0.157771308828542 
646	 0.157390604448273 
647	 0.157133089212542 
648	 0.157037015828343 
649	 0.157480326449106 
650	 0.157542180294109 
651	 0.157273129859744 
652	 0.157074031199355 
653	 0.156796303510761 
654	 0.156472848708453 
655	 0.156165733668265 
656	 0.155992753496298 
657	 0.155760048525785 
658	 0.155572584207821 
659	 0.155503288981964 
660	 0.155364402183947 
661	 0.155187377202418 
662	 0.154954337388951 
663	 0.154645903160757 
664	 0.154468203582937 
665	 0.154383558665571 
666	 0.154304272640253 
667	 0.15411927300881 
668	 0.153876646402002 
669	 0.153788425906096 
670	 0.15398828562155 
671	 0.153945504696505 
672	 0.153936846873134 
673	 0.154038174536502 
674	 0.154105387379636 
675	 0.15415062287327 
676	 0.154177669382155 
677	 0.154236720933196 
678	 0.154508084165751 
679	 0.154709923643978 
680	 0.154917092571748 
681	 0.155290296860912 
682	 0.155352131079929 
683	 0.155405146022508 
684	 0.155479291527169 
685	 0.155134739792515 
686	 0.154693912086862 
687	 0.15457357523512 
688	 0.154918699626906 
689	 0.155080020563822 
690	 0.155035225417635 
691	 0.154674949987478 
692	 0.153912697768727 
693	 0.153560089957981 
694	 0.153921737578007 
695	 0.154642175386327 
696	 0.154732977150206 
697	 0.154211358951181 
698	 0.153396568982714 
699	 0.152770862163664 
700	 0.152478851529801 
701	 0.152419694133396 
702	 0.152413115696986 
703	 0.152252821111373 
704	 0.151834561303798 
705	 0.151379979781505 
706	 0.151011155629523 
707	 0.150499052338014 
708	 0.149832849376422 
709	 0.149055701638654 
710	 0.148234574158048 
711	 0.147396377912569 
712	 0.146421795482484 
713	 0.145118878844316 
714	 0.143172757636841 
715	 0.140376076967507 
716	 0.137242400499928 
717	 0.134820441081087 
718	 0.132820061872883 
719	 0.132424542341459 
720	 0.132567559600142 
721	 0.13180148921095 
722	 0.129998083637047 
723	 0.127534305895769 
724	 0.125334936993393 
725	 0.124142905097967 
726	 0.122542040261058 
727	 0.120703934347856 
728	 0.118968721111725 
729	 0.116896981427386 
730	 0.115300996034009 
731	 0.114290873351199 
732	 0.113421046256684 
733	 0.112099960803409 
734	 0.110663775667463 
735	 0.109454142437426 
736	 0.108750784369455 
737	 0.108466927255065 
738	 0.108278542729216 
739	 0.108014767625176 
740	 0.10810608284842 
741	 0.108289652839191 
742	 0.10833390934817 
743	 0.108103497920613 
744	 0.107971854213065 
745	 0.108065198386214 
746	 0.108277179308156 
747	 0.108239685202842 
748	 0.10816907426982 
749	 0.108151879763744 
750	 0.108173136115628 
751	 0.107974106948253 
752	 0.107875522197263 
753	 0.10791916137198 
754	 0.107982235940077 
755	 0.108053865125599 
756	 0.107992541009676 
757	 0.107625110913567 
758	 0.106472834528105 
759	 0.104883429813863 
760	 0.103606911014074 
761	 0.103719341694071 
762	 0.103919741774441 
763	 0.104782975916235 
764	 0.105905561371514 
765	 0.106781305946401 
766	 0.107626694150545 
767	 0.108125522418994 
768	 0.108396751538509 
769	 0.10893596608133 
770	 0.109064627045272 
771	 0.109207019373745 
772	 0.109671179028574 
773	 0.109836735085755 
774	 0.110083161202943 
775	 0.110307168068568 
776	 0.110321793243528 
777	 0.110717778382944 
778	 0.111094054386159 
779	 0.111310971863737 
780	 0.11156770295073 
781	 0.111890309430548 
782	 0.112175551025941 
783	 0.112388748871975 
784	 0.11273951111506 
785	 0.112759628462034 
786	 0.11267617513579 
787	 0.112891698345193 
788	 0.113203839224169 
789	 0.113519191829551 
790	 0.113900050642891 
791	 0.114520503772098 
792	 0.115359036461293 
793	 0.115794438673849 
794	 0.1157563350031 
795	 0.116156934473894 
796	 0.11651729257661 
797	 0.116795040884972 
798	 0.117060225454837 
799	 0.117310516730717 
800	 0.117517594463343 
801	 0.117694719221351 
802	 0.11791884107826 
803	 0.1185014531443 
804	 0.11892061333023 
805	 0.119061102978107 
806	 0.119297710844788 
807	 0.119091914519577 
808	 0.118556280115237 
809	 0.117944861752703 
810	 0.117557982256114 
811	 0.116587503851953 
812	 0.115178356254389 
813	 0.113934468699346 
814	 0.112953785997702 
815	 0.112402243098684 
816	 0.112105252150444 
817	 0.111712518481608 
818	 0.111952390912398 
819	 0.112176793525784 
820	 0.111828705655978 
821	 0.110493151271495 
822	 0.109086253973629 
823	 0.107988282551969 
824	 0.10709644950258 
825	 0.105677817934754 
826	 0.103803828970531 
827	 0.101918979680839 
828	 0.100578177808372 
829	 9.88621869134621E-02 
830	 9.73524424086468E-02 
831	 9.62102911340807E-02 
832	 9.52940852426122E-02 
833	 9.48412128374577E-02 
834	 9.44057784993117E-02 
835	 9.37959640849738E-02 
836	 9.32475921722157E-02 
837	 9.30813526772986E-02 
838	 9.30544279328792E-02 
839	 9.29219159895806E-02 
840	 9.28000620102558E-02 
841	 9.24066218237688E-02 
842	 9.20917706869381E-02 
843	 0.092220210777996 
844	 9.21390618778677E-02 
845	 9.16328081287525E-02 
846	 0.091120406418796 
847	 9.12855952328833E-02 
848	 9.11736216059924E-02 
849	 9.07052779994154E-02 
850	 9.01452808412052E-02 
851	 9.00082919384955E-02 
852	 8.97465408271897E-02 
853	 8.95763619492506E-02 
854	 8.95147626155145E-02 
855	 8.88206469448554E-02 
856	 8.85295090367484E-02 
857	 8.85196757665906E-02 
858	 8.84469788181127E-02 
859	 8.84724347949244E-02 
860	 8.82118257671414E-02 
861	 8.77630909021239E-02 
862	 8.74885949018719E-02 
863	 8.76724229619003E-02 
864	 8.76754952707174E-02 
865	 8.70932226895191E-02 
866	 8.60271386358384E-02 
867	 8.64282530914492E-02 
868	 8.64776360858615E-02 
869	 8.56526706037209E-02 
870	 8.57283644418342E-02 
871	 8.57095453494398E-02 
872	 8.53050949556471E-02 
873	 8.46462161224538E-02 
874	 8.44754715730628E-02 
875	 8.41207905365317E-02 
876	 8.35026368824385E-02 
877	 8.28472645887124E-02 
878	 8.27361063608402E-02 
879	 8.24890335200879E-02 
880	 8.21942055384543E-02 
881	 8.21528196911775E-02 
882	 8.16365837449176E-02 
883	 8.07591384555779E-02 
884	 8.01201091992878E-02 
885	 8.03750129669628E-02 
886	 7.98375544134318E-02 
887	 7.93995779237444E-02 
888	 7.93340741653692E-02 
889	 7.88904564261675E-02 
890	 7.78830945590686E-02 
891	 7.69959762926727E-02 
892	 7.66254291050151E-02 
893	 0.076245738280703 
894	 7.52771036253192E-02 
895	 7.39776299819321E-02 
896	 7.28283825874785E-02 
897	 7.18439275229491E-02 
898	 7.13943898811461E-02 
899	 7.15361239691154E-02 
900	 7.18664408205174E-02 
901	 7.11626153108434E-02 
902	 7.12831093412281E-02 
903	 0.071685820862381 
904	 0.071075167388935 
905	 6.90105339981514E-02 
906	 6.95162340632001E-02 
907	 7.08714333793353E-02 
908	 6.79755296301654E-02 
909	 6.72175773618329E-02 
910	 6.73994804242157E-02 
911	 6.75298174381219E-02 
912	 6.75507839942881E-02 
913	 6.77899415402028E-02 
914	 6.61767782179722E-02 
915	 6.38319927869635E-02 
916	 6.49763345881808E-02 
917	 6.50854653776057E-02 
918	 6.46158553477336E-02 
919	 6.42471623185885E-02 
920	 6.39524485418793E-02 
921	 6.37762366601405E-02 
922	 6.35840369989195E-02 
923	 6.28681356279806E-02 
924	 6.03664181074303E-02 
925	 6.04276672090545E-02 
926	 6.04790003520724E-02 
927	 5.73170182405376E-02 
928	 5.52797226745735E-02 
929	 5.62810016660565E-02 
930	 5.75250093627509E-02 
931	 5.35977941744649E-02 
932	 5.26809350224333E-02 
933	 0.05127452009961 
934	 5.07985239952614E-02 
935	 5.32588013794839E-02 
936	 5.32209588042651E-02 
937	 0.048690141028725 
938	 4.49576512137602E-02 
939	 4.64391899196784E-02 
940	 4.90890379911016E-02 
941	 4.54490165391918E-02 
942	 4.24457618680117E-02 
943	 5.02476379060461E-02 
944	 5.01031780393487E-02 
945	 4.56462667174524E-02 
946	 4.05122865870351E-02 
947	 0.038122527293822 
948	 4.78161138804485E-02 
949	 4.37465973104225E-02 
950	 3.69421353871152E-02 
951	 5.26475895181989E-02 
952	 5.20979710236491E-02 
953	 4.49726695704614E-02 
954	 4.05412013817904E-02 
955	 4.30587149097613E-02 
956	 4.62171648325501E-02 
957	 4.38078127240708E-02 
958	 4.13274071355447E-02 
959	 4.82388786568554E-02 
960	 0.047505604662069 
961	 4.75629769117701E-02 
962	 4.87369797494225E-02 
963	 0.045908374872363 
964	 4.54384364672135E-02 
965	 4.79279377347978E-02 
966	 5.10498285071225E-02 
967	 5.16180781973068E-02 
968	 5.18437956153458E-02 
969	 4.97829331516927E-02 
970	 4.76633798242485E-02 
971	 5.02417621470466E-02 
972	 5.09394788639864E-02 
973	 4.93861587324356E-02 
974	 4.84236724592553E-02 
975	 5.17582962757757E-02 
976	 4.97560004182899E-02 
977	 4.91241305585765E-02 
978	 5.12233816727997E-02 
979	 5.13935643351562E-02 
980	 0.048938094673258 
981	 4.80903544661955E-02 
982	 5.05069240370178E-02 
983	 5.44842138801203E-02 
984	 5.37805387298567E-02 
985	 5.17648953358271E-02 
986	 0.05111222706705 
987	 5.24557283563783E-02 
988	 5.29059387806589E-02 
989	 5.25852394083944E-02 
990	 5.29246749783215E-02 
991	 5.50187214163562E-02 
992	 5.28098675976202E-02 
993	 5.36862589445315E-02 
994	 0.05555782481514 
995	 5.14178524955653E-02 
996	 5.04248227078877E-02 
997	 0.056033189844284 
998	 5.90510151927895E-02 
999	 4.96100017538067E-02 
1000	 5.48313654166375E-02 
1001	 4.81516268140902E-02 
1002	 4.81148203345845E-02 
1003	 4.81797012200644E-02 
1004	 4.82968356540384E-02 
1005	 4.80832412551296E-02 
1006	 4.77789956590664E-02 
1007	 4.74852724781947E-02 
1008	 4.70582490087143E-02 
1009	 4.69225894739002E-02 
1010	 4.62827663835387E-02 
1011	 4.63070568215149E-02 
1012	 4.70209466086153E-02 
1013	 0.047300854960304 
1014	 4.73491611349986E-02 
1015	 4.72121836279837E-02 
1016	 4.76068719301866E-02 
1017	 4.78816440202504E-02 
1018	 4.82582908045922E-02 
1019	 4.97594420054983E-02 
1020	 5.03554996924522E-02 
1021	 5.04134441520884E-02 
1022	 4.99811836176013E-02 
1023	 4.96269781892888E-02 
1024	 4.94380254597331E-02 
1025	 0.049586642682821 
1026	 4.95179908621021E-02 
1027	 4.96116687572718E-02 
1028	 4.99821110629573E-02 
1029	 5.00098847311186E-02 
1030	 4.97562762003661E-02 
1031	 4.99306249558952E-02 
1032	 5.04062559013928E-02 
1033	 5.04974061980643E-02 
1034	 0.050515828090671 
1035	 0.050651928098524 
1036	 5.04316439173387E-02 
1037	 5.04433724837419E-02 
1038	 5.06669870957496E-02 
1039	 5.12389957802961E-02 
1040	 5.09478836732802E-02 
1041	 5.10637341490277E-02 
1042	 5.16129654895833E-02 
1043	 5.24264028689122E-02 
1044	 5.29565911976908E-02 
1045	 5.43335547632168E-02 
1046	 5.44620321991865E-02 
1047	 5.35407760787331E-02 
1048	 5.31939595078504E-02 
1049	 5.21621233435198E-02 
1050	 5.20344220779803E-02 
1051	 5.28383801301309E-02 
1052	 5.30589410107173E-02 
1053	 5.32556997349335E-02 
1054	 0.053675603959859 
1055	 5.41488169368621E-02 
1056	 5.43442458416246E-02 
1057	 5.45020944787365E-02 
1058	 0.055014333348775 
1059	 5.49464204912788E-02 
1060	 5.42549952397431E-02 
1061	 5.39155435309785E-02 
1062	 0.05318869479951 
1063	 0.053413642684862 
1064	 0.054365462807374 
1065	 5.47323050995265E-02 
1066	 5.58600118425444E-02 
1067	 0.056070378782039 
1068	 5.50719994404132E-02 
1069	 0.054698959335755 
1070	 5.40138881346856E-02 
1071	 5.38893281823944E-02 
1072	 5.43715969988654E-02 
1073	 5.49477602366108E-02 
1074	 5.49079060224733E-02 
1075	 5.48669892674778E-02 
1076	 5.47142613079427E-02 
1077	 5.38431598256065E-02 
1078	 5.36815412859324E-02 
1079	 5.41417193750512E-02 
1080	 5.40788065278672E-02 
1081	 5.39967963090465E-02 
1082	 5.37034404878081E-02 
1083	 5.27776907308137E-02 
1084	 5.25367760376292E-02 
1085	 5.27976504103501E-02 
1086	 5.26365338967394E-02 
1087	 5.27999571076926E-02 
1088	 5.25879051242558E-02 
1089	 5.18783591789672E-02 
1090	 5.08195685612342E-02 
1091	 5.03455329598567E-02 
1092	 4.99346180289431E-02 
1093	 5.00729655815912E-02 
1094	 5.11169705584074E-02 
1095	 5.11139295066926E-02 
1096	 0.050965319539751 
1097	 5.05945757412229E-02 
1098	 4.95059460781131E-02 
1099	 4.85319221869497E-02 
1100	 4.69791965008659E-02 
1101	 4.66473101001616E-02 
1102	 4.70842311926352E-02 
1103	 4.68510007691416E-02 
1104	 4.74314165779702E-02 
1105	 4.80496851716289E-02 
1106	 4.57701608720706E-02 
1107	 4.46126401534229E-02 
1108	 4.46289789686205E-02 
1109	 4.36725239624284E-02 
1110	 4.41103836382383E-02 
1111	 4.73476240023813E-02 
1112	 4.74754184776376E-02 
1113	 4.63516430006987E-02 
1114	 4.50949056746417E-02 
1115	 3.95391167356528E-02 
1116	 3.69869296348126E-02 
1117	 3.75568086671175E-02 
1118	 3.72180210996271E-02 
1119	 0.037599354912422 
1120	 3.90998364413011E-02 
1121	 4.41994036706582E-02 
1122	 4.60127722817287E-02 
1123	 4.49538262572917E-02 
1124	 4.99699616694504E-02 
1125	 4.28642608022125E-02 
1126	 2.95785079941729E-02 
1127	 2.61197259948398E-02 
1128	 2.83012655199181E-02 
1129	 2.99660744476319E-02 
1130	 3.65988497188377E-02 
1131	 3.89961862941958E-02 
1132	 3.78134177125609E-02 
1133	 3.94578440516319E-02 
1134	 0.045470181512249 
1135	 4.44013107674968E-02 
1136	 4.19690860448309E-02 
1137	 3.94490722515378E-02 
1138	 3.31798344443194E-02 
1139	 2.56120304005418E-02 
1140	 2.94935218164148E-02 
1141	 3.53995726312066E-02 
1142	 3.81398594194854E-02 
1143	 4.03731070138032E-02 
1144	 3.28059593969038E-02 
1145	 2.46825888008534E-02 
1146	 2.65999475482304E-02 
1147	 3.11602718635615E-02 
1148	 3.75242725873588E-02 
1149	 3.77406596754979E-02 
1150	 3.82457892847555E-02 
1151	 3.52260506693627E-02 
1152	 3.53262079195146E-02 
1153	 3.72524136715248E-02 
1154	 3.83710021098677E-02 
1155	 4.03225481443804E-02 
1156	 3.76692582745112E-02 
1157	 3.67229044379564E-02 
1158	 3.84154664168923E-02 
1159	 3.80268994961855E-02 
1160	 3.73964943309984E-02 
1161	 3.94730902341376E-02 
1162	 3.97637612109729E-02 
1163	 3.96898435494847E-02 
1164	 4.14806602658069E-02 
1165	 4.15889819844833E-02 
1166	 4.10386073981543E-02 
1167	 4.11192259358311E-02 
1168	 4.09810636052061E-02 
1169	 4.11518414286222E-02 
1170	 4.21614925818013E-02 
1171	 4.25972157812968E-02 
1172	 4.27869044281229E-02 
1173	 4.30941619542532E-02 
1174	 4.35788028196359E-02 
1175	 4.34463026788061E-02 
1176	 4.27840807513642E-02 
1177	 4.32045080140396E-02 
1178	 4.38253169695325E-02 
1179	 0.043416229887734 
1180	 4.32523169557122E-02 
1181	 4.34645440030013E-02 
1182	 4.27213412107328E-02 
1183	 0.0426937630613 
1184	 4.36708674709786E-02 
1185	 4.38925695984077E-02 
1186	 0.043693061738667 
1187	 4.34589431975372E-02 
1188	 4.30135298779181E-02 
1189	 0.042873364226726 
1190	 4.32405068103704E-02 
1191	 4.37112945802026E-02 
1192	 4.38535345496563E-02 
1193	 4.37493034206307E-02 
1194	 0.043543279743508 
1195	 4.38096305050589E-02 
1196	 4.42640807911411E-02 
1197	 4.43658903930519E-02 
1198	 4.39868087377781E-02 
1199	 4.37832539716933E-02 
1200	 4.35979073308642E-02 
1201	 4.34825303718811E-02 
1202	 4.44997582586201E-02 
1203	 4.50627771467611E-02 
1204	 4.44912595358584E-02 
1205	 4.39331486285782E-02 
1206	 4.39190702230856E-02 
1207	 4.45055434390609E-02 
1208	 4.45155019855962E-02 
1209	 4.46636958682184E-02 
1210	 4.51847469474256E-02 
1211	 0.044712332383891 
1212	 4.43549359376863E-02 
1213	 4.48296153054453E-02 
1214	 4.51059924661423E-02 
1215	 4.52374136483652E-02 
1216	 0.044965048758282 
1217	 4.48903543441452E-02 
1218	 4.52456029820785E-02 
1219	 4.53120222319352E-02 
1220	 0.04542331496246 
1221	 4.60609893869405E-02 
1222	 4.59129730756572E-02 
1223	 4.52451569143683E-02 
1224	 4.56528598276915E-02 
1225	 4.61364395856977E-02 
1226	 4.58650240922873E-02 
1227	 4.57363864317292E-02 
1228	 4.57822158968832E-02 
1229	 4.58052773328686E-02 
1230	 0.045910622949677 
1231	 4.60092194862421E-02 
1232	 4.62221202400776E-02 
1233	 0.046344665524829 
1234	 4.63544450742353E-02 
1235	 4.65251906686026E-02 
1236	 4.71817313579244E-02 
1237	 4.71298979441324E-02 
1238	 4.65797738630708E-02 
1239	 4.63075931894883E-02 
1240	 4.67153252857691E-02 
1241	 4.66883374041892E-02 
1242	 4.64732845791238E-02 
1243	 4.69015114192706E-02 
1244	 4.69967419286222E-02 
1245	 4.64792966051618E-02 
1246	 4.64946003532735E-02 
1247	 4.72283655892136E-02 
1248	 4.70752526445681E-02 
1249	 4.63974887523731E-02 
1250	 4.65194555304684E-02 
1251	 4.64749162914048E-02 
1252	 0.04654077278554 
1253	 4.71126994066681E-02 
1254	 4.70612076492109E-02 
1255	 4.66541713015253E-02 
1256	 4.65240836120991E-02 
1257	 0.046244371738077 
1258	 4.61410067878776E-02 
1259	 4.64340028494615E-02 
1260	 4.65218458539218E-02 
1261	 4.63681077331155E-02 
1262	 4.62762882787713E-02 
1263	 4.61772791004067E-02 
1264	 4.64264330495137E-02 
1265	 4.62406197637042E-02 
1266	 0.046275597471805 
1267	 4.67802218804393E-02 
1268	 4.64393402566636E-02 
1269	 4.57138727807459E-02 
1270	 4.58682078814812E-02 
1271	 4.62521771760753E-02 
1272	 0.046183975585446 
1273	 4.62475987737441E-02 
1274	 0.046497705508222 
1275	 4.64484836721313E-02 
1276	 4.60605084412716E-02 
1277	 4.59412149458324E-02 
1278	 4.58706687125453E-02 
1279	 4.55613303053135E-02 
1280	 4.59167144909096E-02 
1281	 0.046204586664822 
1282	 4.70083589318047E-02 
1283	 4.70175032353867E-02 
1284	 4.64794631721332E-02 
1285	 4.64090022708468E-02 
1286	 4.63459555901155E-02 
1287	 4.61278764635165E-02 
1288	 4.60715900298477E-02 
1289	 4.61378588073963E-02 
1290	 4.62728633335103E-02 
1291	 4.55957231926105E-02 
1292	 4.51955063604563E-02 
1293	 0.045391591275309 
1294	 4.54357501983445E-02 
1295	 4.54900837483255E-02 
1296	 4.56784598215779E-02 
1297	 4.56959115465092E-02 
1298	 4.56235143881565E-02 
1299	 4.54913469881746E-02 
1300	 4.50032438949171E-02 
1301	 4.40928032281847E-02 
1302	 0.043335778224846 
1303	 0.043217799493826 
1304	 4.34309670116455E-02 
1305	 4.36149596766642E-02 
1306	 4.35418775353133E-02 
1307	 4.21366992350061E-02 
1308	 4.21766144500027E-02 
1309	 4.36268908345156E-02 
1310	 4.35739606060047E-02 
1311	 4.30720987420349E-02 
1312	 4.31296098882982E-02 
1313	 4.25920489350451E-02 
1314	 4.23578514301116E-02 
1315	 4.30510166537803E-02 
1316	 4.32227461481318E-02 
1317	 4.29185357370376E-02 
1318	 4.25289288576137E-02 
1319	 4.18245926416747E-02 
1320	 0.041683975164303 
1321	 4.14210349909348E-02 
1322	 4.13623992943227E-02 
1323	 4.14754701910571E-02 
1324	 4.15057120924277E-02 
1325	 4.09343992038698E-02 
1326	 3.93379309722207E-02 
1327	 3.82886658937162E-02 
1328	 3.82791893903286E-02 
1329	 3.78292171773774E-02 
1330	 3.78766898766429E-02 
1331	 3.67113034786705E-02 
1332	 3.67883816330627E-02 
1333	 4.01943905974548E-02 
1334	 3.99193433009178E-02 
1335	 3.90623596615644E-02 
1336	 3.84902551410908E-02 
1337	 3.88037721503404E-02 
1338	 3.70381524602264E-02 
1339	 3.58131693758562E-02 
1340	 3.78235327217318E-02 
1341	 3.74845675773668E-02 
1342	 3.13721258135363E-02 
1343	 2.84987487916279E-02 
1344	 2.86840438250016E-02 
1345	 2.97010093594848E-02 
1346	 3.32052420052627E-02 
1347	 3.48705005671093E-02 
1348	 3.94481069229158E-02 
1349	 4.25570608430134E-02 
1350	 4.45394110596358E-02 
1351	 4.29184416044282E-02 
1352	 0.016612553833576 
1353	 9.82366934347262E-03 
1354	 1.50016917799443E-02 
1355	 8.23935941441151E-03 
1356	 8.53140860012687E-02 
1357	 0.138365824129934 
1358	 0.216252267201503 
1359	 0.335629900442179 
1360	 0.163392691542255 
1361	 0.264336172569071 
1362	 0.680730219400863 
1363	 0.325330008820159 
1364	 0.219013868536425 
1365	 0.997929785947742 
1366	 1.17141591902306 
1367	 6.84957267227928E-02 
1368	-0.247197110926898 
1369	-0.617481650569123 
1370	-0.513283581449366 
1371	-1.48226946165693E-02 
1372	 1.55761560231471E-02 
1373	 0.133459463017656 
1374	 0.20500818480273 
1375	-6.99075319706547E-02 
1376	-0.163461882332911 
1377	-1.38887281804704E-02 
1378	 0.10131034026875 
1379	 0.214830382386208 
1380	 0.198903551800695 
1381	-6.93642235465619E-02 
1382	-3.62157748166996E-02 
1383	-7.71781354850139E-03 
1384	-3.32356709261443E-02 
1385	 0.593874698436184 
1386	 0.679891142088987 
1387	 0.679319418054098 
1388	 0.984118999491098 
1389	 1.52456420887119 
1390	 1.45238321962668 
1391	 3.14883824643982 
1392	 2.88734312712452 
1393	 4.37484231082138 
1394	 8.45013277271205 
1395	 1.21680230230705 
1396	 0.68787398603823 
1397	-0.894705979184931 
1398	-4.53784013455508E-02 
1399	 0.196510167574645 
1400	-0.7859847043334 
1401	-1.45211342930148 
1402	-0.770770876943658 
1403	-1.99735334057627E-03 
1404	 0.348750194064363 
1405	 1.03272185917612 
1406	 0.513014687511725 
1407	 0.489730599585733 
1408	 0.890576520349455 
1409	 0.637786420847939 
1410	 9.17510397744607E-02 
1411	 9.91552817857418E-02 
1412	 0.315471594287942 
1413	 0.185756979071286 
1414	 0.338545677478279 
1415	 0.319348785818692 
1416	 0.040493433791043 
1417	 1.40268828312163E-02 
1418	 0.145600234671484 
1419	 0.17435216579445 
1420	 0.142687240786052 
1421	 8.34548641915776E-02 
1422	 2.66058476332352E-02 
1423	 4.42853522142425E-04 
1424	-8.91395024270567E-02 
1425	-8.40300852440898E-02 
1426	-2.79906452555655E-02 
1427	 7.04350049792998E-03 
1428	 7.59829640778506E-02 
1429	 0.108295574334748 
1430	 0.144916886983457 
1431	 0.157282200241345 
1432	 0.140008182220341 
1433	 0.12940935625662 
1434	 0.102901739372157 
1435	 8.71799480895809E-02 
1436	 8.10032395607625E-02 
1437	 4.94730396389741E-02 
1438	 8.60700751241965E-02 
1439	 0.101965671161633 
1440	 8.35089927265253E-02 
1441	 8.77809575164624E-02 
1442	 2.88116945323114E-02 
1443	-9.78072745272051E-04 
1444	 2.40125300956335E-02 
1445	 3.40537663173132E-02 
1446	 4.55180416430726E-02 
1447	 5.36390545216168E-02 
1448	 5.25369685753869E-02 
1449	 4.07144258210756E-02 
1450	 2.33848531306193E-02 
1451	 1.86828515955043E-02 
1452	 2.06242704707034E-02 
1453	 2.14304803085355E-02 
1454	 2.61069500643029E-02 
1455	 4.14266732762649E-02 
1456	 4.07086596248633E-02 
1457	 3.15366117189995E-02 
1458	 3.31806897439499E-02 
1459	 3.47685737757077E-02 
1460	 0.034257558259207 
1461	 3.89863215738886E-02 
1462	 4.18256036554788E-02 
1463	 4.03956137038075E-02 
1464	 0.038717215577409 
1465	 3.98588189292145E-02 
1466	 3.92440729941032E-02 
1467	 3.14790362854933E-02 
1468	 3.01382018986762E-02 
1469	 3.84079996101545E-02 
1470	 3.56108027386892E-02 
1471	 2.37411779894111E-02 
1472	 2.41132258198181E-02 
1473	 2.53879819217251E-02 
1474	 2.67407132770524E-02 
1475	 0.038458573062671 
1476	 3.94333184198741E-02 
1477	 3.11547283613827E-02 
1478	 3.10479129914097E-02 
1479	 3.22535558959032E-02 
1480	 0.032627487144322 
1481	 3.64487965471699E-02 
1482	 3.72919975241088E-02 
1483	 3.41665329450649E-02 
1484	 3.49740397386489E-02 
1485	 0.038841805156088 
1486	 3.86745800515413E-02 
1487	 3.79885536808354E-02 
1488	 3.75247702573552E-02 
1489	 3.42532141177253E-02 
1490	 3.35382040696128E-02 
1491	 3.42804674031481E-02 
1492	 3.54880761527439E-02 
1493	 3.82582086154653E-02 
1494	 3.89414386579304E-02 
1495	 3.86457117022476E-02 
1496	 0.039157372830435 
1497	 3.95419632506397E-02 
1498	 3.92392475008928E-02 
1499	 3.88759962221466E-02 
1500	 3.91971085452331E-02 
1501	 0.039198152737682 
1502	 3.91048028427403E-02 
1503	 0.039839888883154 
1504	 4.02515211537057E-02 
1505	 3.99035226923865E-02 
1506	 3.97196483667451E-02 
1507	 4.05405411026731E-02 
1508	 0.041256135721317 
1509	 4.16651683754893E-02 
1510	 0.042029385001356 
1511	 4.18778710937615E-02 
1512	 4.13923909188355E-02 
1513	 4.10601600659461E-02 
1514	 4.13157178670163E-02 
1515	 4.21006358067075E-02 
1516	 4.23717038168453E-02 
1517	 4.20206476269432E-02 
1518	 4.21430730366999E-02 
1519	 4.24103569381503E-02 
1520	 4.22341497050856E-02 
1521	 4.23018227570034E-02 
1522	 4.28850518743293E-02 
1523	 4.30437914838679E-02 
1524	 4.30846324233145E-02 
1525	 0.044115207077753 
1526	 4.44654096686304E-02 
1527	 4.37119847371243E-02 
1528	 4.38662334976394E-02 
1529	 4.40587114528048E-02 
1530	 4.36200845820149E-02 
1531	 4.37445509006135E-02 
1532	 0.043985091059004 
1533	 4.40425555442994E-02 
1534	 4.40903042077855E-02 
1535	 4.41215749431438E-02 
1536	 4.47824267051114E-02 
1537	 4.53022632041098E-02 
1538	 4.49684529077995E-02 
1539	 4.49966113372813E-02 
1540	 4.54408322730784E-02 
1541	 4.57062059639531E-02 
1542	 4.60037899008891E-02 
1543	 4.60192571095857E-02 
1544	 4.57003128991948E-02 
1545	 4.54039370643463E-02 
1546	 4.50389002600304E-02 
1547	 4.51927499901811E-02 
1548	 4.57084336899209E-02 
1549	 4.58383287973808E-02 
1550	 4.60386722797715E-02 
1551	 4.59640882712016E-02 
1552	 4.58174059487376E-02 
1553	 4.59994960449675E-02 
1554	 4.59994029256662E-02 
1555	 4.61714746861507E-02 
1556	 4.61201500802522E-02 
1557	 4.56452997731475E-02 
1558	 4.55222449342203E-02 
1559	 4.56834047961978E-02 
1560	 0.045768427060461 
1561	 4.58023467626174E-02 
1562	 4.61499532350951E-02 
1563	 0.046358192390828 
1564	 4.61841853227002E-02 
1565	 4.65036850008828E-02 
1566	 4.66749892749233E-02 
1567	 4.64807868115527E-02 
1568	 4.68586439037478E-02 
1569	 4.66679006676668E-02 
1570	 0.046137264266698 
1571	 4.64932877506798E-02 
1572	 4.66926514799102E-02 
1573	 4.67505808477555E-02 
1574	 0.046829150161446 
1575	 4.66074860457124E-02 
1576	 4.64299931856192E-02 
1577	 4.61230428584541E-02 
1578	 0.046167039834063 
1579	 0.046974298983705 
1580	 0.047568675874237 
1581	 4.71965341657492E-02 
1582	 4.67206531745218E-02 
1583	 4.69437959040189E-02 
1584	 4.70219797562936E-02 
1585	 4.70299312789527E-02 
1586	 4.75682166104844E-02 
1587	 4.74756175078093E-02 
1588	 0.046847618918593 
1589	 4.69578596652782E-02 
1590	 4.71435911038045E-02 
1591	 4.67926533574488E-02 
1592	 4.64945839344966E-02 
1593	 4.64722601671964E-02 
1594	 4.66805415176385E-02 
1595	 4.68069406641659E-02 
1596	 4.66578097106839E-02 
1597	 4.63775231138376E-02 
1598	 4.63497783795754E-02 
1599	 4.67983059014319E-02 
1600	 4.67956942537075E-02 
1601	 4.64766559521066E-02 
1602	 4.68731109563378E-02 
1603	 4.70970358103094E-02 
1604	 4.67662008553628E-02 
1605	 4.71530945932085E-02 
1606	 4.73670211213925E-02 
1607	 4.64187275281477E-02 
1608	 4.63948388132624E-02 
1609	 4.75082601194772E-02 
1610	 4.75093358684294E-02 
1611	 4.68979015626855E-02 
1612	 4.69686743678347E-02 
1613	 4.67957697433821E-02 
1614	 0.046598505353945 
1615	 4.69754251581571E-02 
1616	 4.66321511170516E-02 
1617	 4.62861512578687E-02 
1618	 4.68894463093866E-02 
1619	 4.71814237422404E-02 
1620	 4.73462419615315E-02 
1621	 4.74421342827863E-02 
1622	 4.72146499476512E-02 
1623	 4.72400201030283E-02 
1624	 4.77565388213213E-02 
1625	 4.80663708226214E-02 
1626	 4.73211358925201E-02 
1627	 4.69883418334893E-02 
1628	 4.75757874656293E-02 
1629	 4.78978028915215E-02 
1630	 4.75723692512425E-02 
1631	 4.69949383323997E-02 
1632	 4.69878882398973E-02 
1633	 4.73305553358621E-02 
1634	 4.74782687295261E-02 
1635	 4.72967345195914E-02 
1636	 4.73346095387111E-02 
1637	 4.75792847522414E-02 
1638	 4.71512035655091E-02 
1639	 4.68718634385707E-02 
1640	 4.72060628113331E-02 
1641	 4.69298406945204E-02 
1642	 4.66250078602349E-02 
1643	 4.75219994344588E-02 
1644	 4.79789256397891E-02 
1645	 4.73101104095539E-02 
1646	 4.73203916733879E-02 
1647	 4.75801883298778E-02 
1648	 4.72498486875579E-02 
1649	 4.72029536047904E-02 
1650	 4.73379796895524E-02 
1651	 4.74470149229852E-02 
1652	 4.73236179739547E-02 
1653	 4.71843093526859E-02 
1654	 4.72854949739577E-02 
1655	 4.64813380600827E-02 
1656	 4.62595106565794E-02 
1657	 4.71168931312004E-02 
1658	 4.74685194664614E-02 
1659	 4.78231234736422E-02 
1660	 4.79797112923588E-02 
1661	 4.78890364653462E-02 
1662	 4.76501584937701E-02 
1663	 4.70976938932378E-02 
1664	 4.68947153392445E-02 
1665	 4.66541512530231E-02 
1666	 4.66521967363903E-02 
1667	 4.66888287785544E-02 
1668	 4.74810319850785E-02 
1669	 4.79821055919492E-02 
1670	 4.71203234414561E-02 
1671	 4.72871290687366E-02 
1672	 4.80388176492721E-02 
1673	 0.047873360864278 
1674	 4.76879038843314E-02 
1675	 4.77763191924006E-02 
1676	 4.68373834788618E-02 
1677	 4.63739724413557E-02 
1678	 4.77431322465048E-02 
1679	 4.81591102316399E-02 
1680	 4.78412547018052E-02 
1681	 4.79061962810947E-02 
1682	 4.72794503789865E-02 
1683	 4.73929314932107E-02 
1684	 4.81627325985851E-02 
1685	 0.047635248647909 
1686	 4.76990240813499E-02 
1687	 4.85036555679447E-02 
1688	 4.80581948714713E-02 
1689	 4.76403026030051E-02 
1690	 4.74467109847973E-02 
1691	 4.72382898172486E-02 
1692	 4.74568534302249E-02 
1693	 4.69102946447487E-02 
1694	 0.046238383497413 
1695	 4.65533461000004E-02 
1696	 4.68671330937167E-02 
1697	 4.72213557264481E-02 
1698	 4.79987808951854E-02 
1699	 0.04817889672221 
1700	 4.70516744748175E-02 
1701	 4.61969791421826E-02 
1702	 4.68531652442489E-02 
1703	 4.66795993422424E-02 
1704	 4.55915215119802E-02 
1705	 4.62805231390521E-02 
1706	 4.73105598555838E-02 
1707	 4.65860757772743E-02 
1708	 4.55465593097951E-02 
1709	 4.52929541870361E-02 
1710	 0.045251761121569 
1711	 4.53209312361348E-02 
1712	 4.65595773475801E-02 
1713	 0.048401359676114 
1714	 4.86762683025718E-02 
1715	 4.80423426888699E-02 
1716	 4.82538523579928E-02 
1717	 4.70533427463584E-02 
1718	 4.68719135449482E-02 
1719	 0.047760512979186 
1720	 4.73538337760776E-02 
1721	 4.75118673987199E-02 
1722	 4.81883782913699E-02 
1723	 4.71359187774804E-02 
1724	 4.63342082690666E-02 
1725	 4.70263331882087E-02 
1726	 4.68282765528587E-02 
1727	 4.60592985074932E-02 
1728	 4.66320796120279E-02 
1729	 0.046665100841627 
1730	 4.53817967495953E-02 
1731	 4.57355707565799E-02 
1732	 4.69390702753302E-02 
1733	 4.61106764496455E-02 
1734	 4.53195350402548E-02 
1735	 4.54873857462426E-02 
1736	 4.45634811235638E-02 
1737	 0.044838110220161 
1738	 4.59897088611586E-02 
1739	 0.045801483605242 
1740	 4.53372087156533E-02 
1741	 4.44529257922527E-02 
1742	 4.39955852942733E-02 
1743	 0.044106388307278 
1744	 4.46483377347967E-02 
1745	 4.54705209517558E-02 
1746	 0.047377591865781 
1747	 4.75669458933188E-02 
1748	 4.45998008448772E-02 
1749	 4.39304714531743E-02 
1750	 4.37183459268419E-02 
1751	 4.37142079530105E-02 
1752	 4.64082011260308E-02 
1753	 4.70607012258385E-02 
1754	 4.61325141763162E-02 
1755	 4.55025579929302E-02 
1756	 4.32166252816036E-02 
1757	 4.08968663209157E-02 
1758	 4.26470316785386E-02 
1759	 4.53106776493748E-02 
1760	 4.80321080564965E-02 
1761	 4.89324353478844E-02 
1762	 4.63022896412454E-02 
1763	 4.28494994042243E-02 
1764	 4.04091016643989E-02 
1765	 4.08369841249651E-02 
1766	 4.26022261727894E-02 
1767	 4.40384706133132E-02 
1768	 4.57579302370624E-02 
1769	 4.47679255054221E-02 
1770	 4.27767272879939E-02 
1771	 4.21357117668414E-02 
1772	 0.038972774582819 
1773	 3.92471976015433E-02 
1774	 4.49400365410078E-02 
1775	 4.52017770510428E-02 
1776	 4.50925975480626E-02 
1777	 4.05581236160973E-02 
1778	 3.77810547887399E-02 
1779	 3.75589422503247E-02 
1780	 3.75063422190405E-02 
1781	 3.80725725926012E-02 
1782	 3.67401950863899E-02 
1783	 3.27288512734757E-02 
1784	 3.24330961362288E-02 
1785	 3.47585550831061E-02 
1786	 3.69190083718875E-02 
1787	 4.29023957735295E-02 
1788	 0.045515331211934 
1789	 4.48444333800724E-02 
1790	 4.24310473512384E-02 
1791	 4.17652705798666E-02 
1792	 3.24904870244098E-02 
1793	 2.37946814530772E-02 
1794	 2.57368468326813E-02 
1795	 2.91011538737116E-02 
1796	 3.13973653061061E-02 
1797	 2.90028522892573E-02 
1798	 2.11716207869498E-02 
1799	 3.94848646206633E-03 
1800	 3.30077720275259E-02 
1801	 0.043603442306847 
1802	 1.64364945747885E-02 
1803	 1.62320453489609E-02 
1804	 3.27300573640101E-02 
1805	 1.02563013822254E-02 
1806	-0.026173573459669 
1807	-0.025682775692995 
1808	-0.190988867847762 
1809	-0.170136017173239 
1810	 0.250562756533193 
1811	 0.228263060847591 
1812	-0.087467358967525 
1813	-0.132632685371212 
1814	 1.87992598410165 
1815	 0.703864290080198 
1816	 91.6002929615534 
1817	 0.197255911224929 
1818	-0.335506198753635 
1819	-1.78951685238533 
1820	-6.18293743328817 
1821	 0.122733913255129 
1822	-0.227979734909826 
1823	 1.76903415489054 
1824	 0.951844886231275 
1825	-0.787663822221346 
1826	-0.654637050630801 
1827	 5.05494822976719 
1828	-0.59026525699056 
1829	 6.22518276359216 
1830	 4.05003675227169 
1831	 2.56578252864938 
1832	 2.03264138443977 
1833	-0.147579223705707 
1834	-0.879517663010236 
1835	-5.46167276645757 
1836	 41.1979966336816 
1837	 0.474186348006354 
1838	 0.723561613819456 
1839	 0.364799262309371 
1840	 0.205649758513653 
1841	-7.67022166787893E-02 
1842	-0.302910942470777 
1843	-0.494162960884485 
1844	-2.84259006850679 
1845	-9.74111561131851 
1846	-1.77359759325397 
1847	-0.714872568163067 
1848	 0.625206911533718 
1849	 0.908211541041701 
1850	 0.215316817431425 
1851	 2.83841507665169E-02 
1852	-3.18292476128185E-02 
1853	 2.23032255355676 
1854	-3.66426587474561 
1855	-1.88852399388163 
1856	-1.61975118550123 
1857	-1.58826027891295 
1858	-1.46148243624297 
1859	-0.452447920531861 
1860	-1.33920645811448 
1861	-11.8539230102981 
1862	 2.07866482150045 
1863	 2.27147000165155 
1864	-3.61872273546586 
1865	-0.89960803891877 
1866	-0.321758210554384 
1867	-0.275587519125222 
1868	-1.63093574043298 
1869	 2.43657379388702 
1870	-0.204515265567475 
1871	-0.462529717623937 
1872	-0.926905012078752 
1873	-0.545627163394135 
1874	-8.21316666969752E-02 
1875	-5.32799404753223E-02 
1876	 5.80972980830234E-02 
1877	 0.313451901391835 
1878	 0.269989160797918 
1879	-0.316423255964904 
1880	-0.391692178121551 
1881	-5.09534909813139E-02 
1882	-0.337645806926879 
1883	-0.39938890234603 
1884	-0.166082159417306 
1885	-1.14760552424637 
1886	-0.724354650036841 
1887	 2.27012989878124 
1888	 1.86352329181065 
1889	 2.2829534606152 
1890	 1.49776769545389 
1891	 1.09076126284527 
1892	 3.51203880674813 
1893	 1.95682972398005 
1894	 1.13514046763518 
1895	 0.719502475408296 
1896	 9.95440150438785E-03 
1897	-0.301394427364774 
1898	 1.77497601324957 
1899	 1.24085661033923 
1900	 0.472441684439514 
1901	 0.683094390106165 
1902	 0.624369869167567 
1903	-0.137322276613472 
1904	-0.146469663066896 
1905	 0.250459652940468 
1906	 0.147418882423474 
1907	 0.173946469737497 
1908	 0.192339121955237 
1909	-1.15451532092839 
1910	 4.35791162891424 
1911	-2.94847330686162E-02 
1912	 2.07812113064079 
1913	 2.48650844047937 
1914	 2.39055939428523 
1915	 1.99524966474024 
1916	 2.00182064769034 
1917	 0.252974156588945 
1918	-0.158184813630071 
1919	 0.188703822326374 
1920	 0.166254017780186 
1921	-0.139554052959378 
1922	-2.41214388483456E-03 
1923	-3.18588393429064E-02 
1924	 5.59894275020381E-02 
1925	 1.02789946893211 
1926	 2.10944595230044 
1927	 4.65729745425291 
1928	-7.6357673405529 
1929	 6.38084882547862 
1930	 0.617944720615017 
1931	 0.247590566407045 
1932	 0.525544103760307 
1933	 1.15417866855815 
1934	 0.829278753396253 
1935	-0.717231957240234 
1936	-0.567478050405022 
1937	-1.15919231693387E-03 
1938	 0.625358439614075 
1939	 0.825708831761034 
1940	-51.3622237945818 
1941	 0.32493812519742 
1942	-0.153226033416363 
1943	 3.12804781186651 
1944	 1.94730145933274 
1945	-0.991157283007394 
1946	-1.00742346692998 
1947	-0.68379993588307 
1948	-0.850882316740435 
1949	-0.742607131923733 
1950	-0.32624575296854 
1951	-0.144555855831241 
1952	-6.34277916292455E-02 
1953	-5.36049086075667E-02 
1954	 2.58477054755391E-02 
1955	 5.95303489775154E-02 
1956	-5.66137009329198E-02 
1957	-0.161013006952472 
1958	-0.14617578980226 
1959	-8.87856526278104E-02 
1960	-5.05270541199998E-02 
1961	-2.60935796531084E-02 
1962	 2.75471136259834E-02 
1963	 4.41409194855521E-02 
1964	 4.17892389012478E-02 
1965	 5.03928678609906E-02 
1966	 4.26211548950775E-02 
1967	 0.017032702643132 
1968	 2.23498737014136E-03 
1969	 6.62457379684589E-03 
1970	 1.05270595471083E-02 
1971	 1.71400159784431E-02 
1972	 2.63506984919084E-02 
1973	 3.39761829659751E-02 
1974	 3.66779714274747E-02 
1975	 0.043985688075698 
1976	 4.60465468678511E-02 
1977	 3.74854501824469E-02 
1978	 3.47052036302613E-02 
1979	 3.06832981706055E-02 
1980	 2.43051555025442E-02 
1981	 2.03177165879362E-02 
1982	 2.23852287205883E-02 
1983	 2.03983610627219E-02 
1984	 2.00648982140455E-02 
1985	 2.39003877380418E-02 
1986	 2.79990839902033E-02 
1987	 3.18063832300544E-02 
1988	 3.68443682557907E-02 
1989	 3.63112391260549E-02 
1990	 0.030838992713811 
1991	 2.69716673289512E-02 
1992	 2.44434891344203E-02 
1993	 2.49168963427886E-02 
1994	 2.42025307853037E-02 
1995	 2.57131463818015E-02 
1996	 2.36446817357211E-02 
1997	 2.16834797920304E-02 
1998	 2.51083930898395E-02 
1999	 2.79312297228077E-02 
2000	 3.25026859767888E-02 
2001	 4.16808610050033E-02 
2002	 4.15103830282212E-02 
2003	 0.046622420678983 
2004	 6.20499214214148E-02 
2005	 0.066581425045816 
2006	 0.059065864764559 
2007	 5.33612007769465E-02 
2008	 4.01222183029512E-02 
2009	 3.54045296730618E-02 
2010	 4.41528158288112E-02 
2011	 0.045267561664116 
2012	 0.041180530504312 
2013	 4.53089268651553E-02 
2014	 5.71352782398113E-02 
2015	 4.72011053619138E-02 
2016	 4.27458572432492E-02 
2017	 0.03867747561051 
2018	 3.17074505187537E-02 
2019	 3.59573802199328E-02 
2020	 4.21808486417362E-02 
2021	 4.89236133533945E-02 
2022	 4.81208858889948E-02 
2023	 4.18981002447591E-02 
2024	 3.98411850827263E-02 
2025	 0.038246766262086 
2026	 3.69909163319374E-02 
2027	 3.64956618967769E-02 
2028	 3.63145054482225E-02 
2029	 3.79477293118032E-02 
2030	 3.87841158433256E-02 
2031	 3.94893599819325E-02 
2032	 3.99893366887465E-02 
2033	 3.89275711536394E-02 
2034	 0.039100398554691 
2035	 3.75502580337368E-02 
2036	 3.74086681667499E-02 
2037	 4.06959912521876E-02 
2038	 4.04833442550196E-02 
2039	 4.01225058324131E-02 
2040	 3.99778545314404E-02 
2041	 4.11209191333835E-02 
2042	 4.17415591862943E-02 
2043	 4.25359521737007E-02 
2044	 4.59755665808734E-02 
2045	 4.64300599518893E-02 
2046	 4.39388450096642E-02 
2047	 4.15255178771646E-02 
2048	 3.72866853590773E-02 
2049	 3.64659105768103E-02 
2050	 3.75362619914704E-02 
2051	 3.47068960501751E-02 
2052	 3.28678553460632E-02 
2053	 3.12809667747603E-02 
2054	 3.34346581488862E-02 
2055	 3.50078788353912E-02 
2056	 3.53707375193255E-02 
2057	 3.85666361175341E-02 
2058	 4.01138192920988E-02 
2059	 3.71334886483256E-02 
2060	 3.73886752903335E-02 
2061	 4.19440802446456E-02 
2062	 3.87290801254538E-02 
2063	 3.58593788847534E-02 
2064	 3.68292268000297E-02 
2065	 3.63985916630409E-02 
2066	 3.62054785066732E-02 
2067	 3.25770327845276E-02 
2068	 2.88263663079002E-02 
2069	 2.95696750490457E-02 
2070	 3.09236655961189E-02 
2071	 3.41576443822845E-02 
2072	 3.93764404419998E-02 
2073	 4.15580277780746E-02 
2074	 3.91447100545212E-02 
2075	 3.97345161572528E-02 
2076	 4.21708137085028E-02 
2077	 4.31655224285197E-02 
2078	 4.40857572164365E-02 
2079	 4.53627710174309E-02 
2080	 4.81956311150882E-02 
2081	 4.60520463655949E-02 
2082	 4.29027028740537E-02 
2083	 4.16227511644012E-02 
2084	 4.09800445279768E-02 
2085	 4.08079183913982E-02 
2086	 4.22976679811251E-02 
2087	 4.53628748595177E-02 
2088	 4.48379222145667E-02 
2089	 4.52163448552077E-02 
2090	 0.048172457270536 
2091	 4.70913213035933E-02 
2092	 4.53446457140327E-02 
2093	 4.13132519377662E-02 
2094	 4.01371053100904E-02 
2095	 3.81402446412576E-02 
2096	 3.79349281023335E-02 
2097	 4.16977986445131E-02 
2098	 4.23636880797655E-02 
2099	 0.041525341013227 
2100	 4.13044199788973E-02 
2101	 4.04487644821209E-02 
2102	 0.040075806609086 
2103	 4.11142943836395E-02 
2104	 4.12078529679393E-02 
2105	 0.039678439657636 
2106	 3.82707428063936E-02 
2107	 3.73522456599954E-02 
2108	 3.76636312009631E-02 
2109	 0.040703155382354 
2110	 0.043577516409761 
2111	 4.64452331748115E-02 
2112	 4.67538931019405E-02 
2113	 4.56428809377066E-02 
2114	 4.10737054302951E-02 
2115	 4.01909350689599E-02 
2116	 3.95164868164018E-02 
2117	 3.92042131222684E-02 
2118	 0.040717793889075 
2119	 4.20519746726625E-02 
2120	 4.36764678688125E-02 
2121	 4.35045516983923E-02 
2122	 4.41123948510681E-02 
2123	 4.59616764963367E-02 
2124	 4.54201989937117E-02 
2125	 4.47348818376264E-02 
2126	 4.27783708415052E-02 
2127	 4.02499785890683E-02 
2128	 3.85919837868011E-02 
2129	 0.037456698790124 
2130	 4.03517764692187E-02 
2131	 4.18740859836155E-02 
2132	 4.06909254566628E-02 
2133	 4.02173124889166E-02 
2134	 4.01121540220918E-02 
2135	 3.93519139092283E-02 
2136	 3.94484076906243E-02 
2137	 4.06632072575459E-02 
2138	 4.17764228132858E-02 
2139	 4.21973157475643E-02 
2140	 4.25676846242612E-02 
2141	 4.49788671664581E-02 
2142	 4.54915646423413E-02 
2143	 0.044098064276276 
2144	 4.32268741760827E-02 
2145	 4.55800175608538E-02 
2146	 4.51130342282723E-02 
2147	 0.04542842292121 
2148	 4.85792902022861E-02 
2149	 4.74645320532498E-02 
2150	 4.58373792136003E-02 
2151	 4.37379948659696E-02 
2152	 4.25441795560374E-02 
2153	 0.043145136293824 
2154	 3.95306029128124E-02 
2155	 0.038574759980115 
2156	 4.00280693040833E-02 
2157	 3.96409850033455E-02 
2158	 3.89141949378631E-02 
2159	 4.00027434427086E-02 
2160	 4.03662775667035E-02 
2161	 4.16416584046873E-02 
2162	 0.046523460736044 
2163	 4.76431018406507E-02 
2164	 4.75571005565466E-02 
2165	 4.63320190573182E-02 
2166	 4.09624922252463E-02 
2167	 3.90814084570625E-02 
2168	 3.86976443149545E-02 
2169	 3.80081335445438E-02 
2170	 3.82072191138146E-02 
2171	 3.88885069937823E-02 
2172	 4.03392655734152E-02 
2173	 4.17016460970932E-02 
2174	 4.39045474673733E-02 
2175	 4.68689856282742E-02 
2176	 4.71056368017373E-02 
2177	 4.35363720086648E-02 
2178	 3.85916027107953E-02 
2179	 3.36428170234085E-02 
2180	 2.91852908431685E-02 
2181	 2.67880837665271E-02 
2182	 2.95750026764394E-02 
2183	 3.37099966922302E-02 
2184	 3.88514351819128E-02 
2185	 4.39498832012913E-02 
2186	 4.55507150238562E-02 
2187	 4.40920240725287E-02 
2188	 4.39904803056028E-02 
2189	 4.04113535751528E-02 
2190	 3.98612992918361E-02 
2191	 0.041925031456351 
2192	 4.17219938956221E-02 
2193	 4.16722896772576E-02 
2194	 0.041881528026028 
2195	 4.23328771005473E-02 
2196	 4.18224644191151E-02 
2197	 0.038491699654661 
2198	 3.82292320474454E-02 
2199	 4.13290804571007E-02 
2200	 3.85569018741753E-02 
2201	 3.64793452293275E-02 
2202	 3.83781119798118E-02 
2203	 3.77206001493178E-02 
2204	 3.65023268510493E-02 
2205	 3.44934855200313E-02 
2206	 3.35454277231566E-02 
2207	 0.035871069867475 
2208	 3.99598631057202E-02 
2209	 4.31844515824781E-02 
2210	 4.60790866867097E-02 
2211	 4.77915060600921E-02 
2212	 4.50033047935571E-02 
2213	 4.09661321073596E-02 
2214	 4.08570044312262E-02 
2215	 3.95181519946912E-02 
2216	 3.25696425486385E-02 
2217	 3.15347048870533E-02 
2218	 3.50116284364199E-02 
2219	 0.040020943555227 
2220	 0.047995244724196 
2221	 5.29796492203038E-02 
2222	 6.26507661834782E-02 
2223	 6.26427018501988E-02 
2224	 5.48317951447501E-02 
2225	 5.15972816429549E-02 
2226	 4.38640709089708E-02 
2227	 4.01776475899863E-02 
2228	 3.98796442239663E-02 
2229	 3.77740415770708E-02 
2230	 3.58698420616297E-02 
2231	 3.54100644975957E-02 
2232	 3.58499329162493E-02 
2233	 3.66044447274129E-02 
2234	 4.04298786214486E-02 
2235	 4.01797967719627E-02 
2236	 3.60704074126939E-02 
2237	 3.56462074312368E-02 
2238	 3.62693494074827E-02 
2239	 3.79456316441743E-02 
2240	 4.52108089134531E-02 
2241	 4.77254992010529E-02 
2242	 4.24111052034821E-02 
2243	 3.84638878449877E-02 
2244	 3.67770757543338E-02 
2245	 3.36374535373274E-02 
2246	 3.29078115299487E-02 
2247	 3.63903959910138E-02 
2248	 3.45741897958462E-02 
2249	 3.91068274905207E-02 
2250	 5.24678467787583E-02 
2251	 5.36517944779565E-02 
2252	 4.72232148866419E-02 
2253	 4.23382610481162E-02 
2254	 3.84494137561642E-02 
2255	 3.38739459414557E-02 
2256	 3.43368820017905E-02 
2257	 3.61507782282116E-02 
2258	 3.24098645923785E-02 
2259	 3.37160236290145E-02 
2260	 3.49012246852979E-02 
2261	 3.93846259497517E-02 
2262	 4.13371875922916E-02 
2263	 4.16576722803505E-02 
2264	 4.14676782629547E-02 
2265	 4.51125787038696E-02 
2266	 4.34931330747332E-02 
2267	 3.52291046776438E-02 
2268	 3.17555135643973E-02 
2269	 2.57584167034523E-02 
2270	 2.26255566034924E-02 
2271	 2.17595308829771E-02 
2272	 2.68162819574162E-02 
2273	 4.01948458425888E-02 
2274	 4.59933916280807E-02 
2275	 5.51829486856354E-02 
2276	 5.47033641113282E-02 
2277	 0.040776185488612 
2278	 3.50811677171284E-02 
2279	 2.85692246141888E-02 
2280	 2.61425361540392E-02 
2281	 3.06723926859519E-02 
2282	 3.05013120946244E-02 
2283	 2.63439269949169E-02 
2284	 2.35390633517424E-02 
2285	 2.28556082584489E-02 
2286	 2.37607857606089E-02 
2287	 2.32511479807997E-02 
2288	 2.65467000438264E-02 
2289	 2.69859642314712E-02 
2290	 2.45652879998411E-02 
2291	 3.15310209699745E-02 
2292	 3.35405785411428E-02 
2293	 3.22629921442148E-02 
2294	 3.27627785755224E-02 
2295	 2.72991163984341E-02 
2296	 2.58850170545112E-02 
2297	 3.30698519028365E-02 
2298	 3.78266145710495E-02 
2299	 3.88240156050477E-02 
2300	 4.13082211115845E-02 
2301	 3.57975199725784E-02 
2302	 3.09827937774378E-02 
2303	 3.51525165695849E-02 
2304	 3.70224410385957E-02 
2305	 3.42676900775155E-02 
2306	 3.16372367500219E-02 
2307	 0.031582008489148 
2308	 2.28422875677868E-02 
2309	 1.65212185173169E-02 
2310	 1.41285176030112E-02 
2311	 1.02236750598326E-02 
2312	 2.03020537366524E-02 
2313	 2.95621046218446E-02 
2314	 3.79486476531998E-02 
2315	 3.64404835279291E-02 
2316	 1.87581258123507E-02 
2317	 1.24434979060416E-02 
2318	 3.66193460830642E-03 
2319	 9.68447571242339E-05 
2320	 1.33106399865557E-02 
2321	 2.55864022115409E-02 
2322	 3.85981184322193E-02 
2323	 5.01109568770716E-02 
2324	 4.82990285411229E-02 
2325	 3.35762949696394E-02 
2326	 3.15995586944018E-02 
2327	 3.46814827441012E-02 
2328	 3.56262993505437E-02 
2329	 3.83878873626003E-02 
2330	 2.11279260620242E-02 
2331	 6.78472982687988E-03 
2332	-2.27839093481562E-03 
2333	-3.37997632813769E-03 
2334	 8.45194242814047E-03 
2335	 6.56835403018054E-04 
2336	-4.89236052924884E-03 
2337	-9.43806561063863E-03 
2338	-2.11239941549031E-02 
2339	-7.23232989409988E-03 
2340	 1.45916075232128E-03 
2341	 1.37963438996994E-02 
2342	 3.63346093924568E-02 
2343	 2.69021716792219E-02 
2344	 1.56408516517536E-02 
2345	 1.32466900772922E-02 
2346	 1.73908129861442E-03 
2347	-1.76355003682869E-03 
2348	 1.53602073227569E-02 
2349	 1.97031732085036E-02 
2350	 6.74184692878306E-03 
2351	 8.16017734221198E-03 
2352	 1.35610819328102E-02 
2353	 0.030435988453239 
2354	 4.40101174080437E-02 
2355	 4.91817233620883E-02 
2356	 4.15756449348554E-02 
2357	 2.37137584488592E-02 
2358	 2.81596986907079E-02 
2359	 3.56512168524914E-02 
2360	 0.058277800438384 
2361	 6.01407330749342E-02 
2362	 2.64281398844155E-02 
2363	-1.73197299826535E-02 
2364	-8.63671374972643E-02 
2365	-0.131686499771579 
2366	-0.145723921329957 
2367	-8.85311095023063E-02 
2368	-1.38199942578549E-03 
2369	 4.29193928585308E-03 
2370	-9.36319291100469E-03 
2371	-0.016218999539518 
2372	-4.62656177378605E-02 
2373	-0.079265347261799 
2374	-3.90224472724706E-02 
2375	-2.60486310765591E-02 
2376	-6.18157662103287E-02 
2377	-5.60997354811527E-02 
2378	-4.12197605953826E-02 
2379	 2.88044023638331E-04 
2380	 2.87200646724607E-02 
2381	 7.53092456988202E-02 
2382	 0.113180503556332 
2383	 7.60854389546848E-02 
2384	 4.91200308659491E-02 
2385	 7.18779910140158E-02 
2386	 0.139445043403764 
2387	 0.217810434492452 
2388	 0.300167803629512 
2389	 0.315758701723345 
2390	 0.30690702775671 
2391	 0.347007582035307 
2392	 0.236801665515523 
2393	 8.07276293813337E-02 
2394	 8.04392492958827E-02 
2395	 1.77358510676037E-02 
2396	-7.26998839457811E-02 
2397	-5.79934609687414E-02 
2398	-0.128190807767078 
2399	-0.193531403290806 
2400	-0.178412669952589 
2401	-0.188446648901648 
2402	-8.46465038757582E-02 
2403	 4.01007034125166E-02 
2404	 0.116856363866762 
2405	 0.133696748562062 
2406	 1.13706553148948E-02 
2407	-8.25718117692434E-02 
2408	-0.183957028179049 
2409	-0.386185782715455 
2410	-0.505982415760637 
2411	-0.539660389343083 
2412	-0.397676028371806 
2413	-9.45656721223641E-02 
2414	 0.121375651665666 
2415	 0.128828680407728 
2416	-0.11167960352348 
2417	-0.169159112763491 
2418	-0.117334013977689 
2419	-0.018125715264229 
2420	-2.20609716897457E-02 
2421	-3.41926672184754E-02 
2422	 8.47915357270811E-02 
2423	-0.688653856126339 
2424	-1.60634264810379 
2425	-2.07723149288289 
2426	-3.74980120511113 
2427	-0.453324983508331 
2428	-9.30984510649648E-02 
2429	 0.338538459416515 
2430	 0.406471626519233 
2431	 7.36128515703371E-02 
2432	-0.357296733997137 
2433	-0.716083814976557 
2434	-1.3394153153832 
2435	-1.42353629754714 
2436	-1.31154829888295 
2437	-91.2462591926344 
2438	-0.351481916339197 
2439	-3.52459175395803 
2440	 49.1289331307683 
2441	 21.9753080938227 
2442	 0.270720152220314 
2443	-1.04790457605455 
2444	 14.1653542092541 
2445	 1.83193289725857 
2446	 0.378717181021117 
2447	-0.289523651857772 
2448	-0.391038220403718 
2449	-0.268828095730754 
2450	-0.285335035479728 
2451	-5.71611824992223E-02 
2452	-9.22308738295962E-02 
2453	 5.08868775194843E-02 
2454	 0.572607193127568 
2455	 0.419677539062958 
2456	 0.334462921548176 
2457	 0.377504859879682 
2458	 0.534845826389928 
2459	 0.993651942828588 
2460	 0.248522911938745 
2461	-0.503778861428817 
2462	-0.592587216883843 
2463	-0.452464509123107 
2464	-0.270498725873406 
2465	-0.386517243542702 
2466	-0.747171071684629 
2467	-0.745926567900501 
2468	 0.988836861828818 
2469	 8.66792491088207 
2470	-6.58415454565343 
2471	-9.34757140958227 
2472	-3.07726977858674 
2473	-0.232329525158563 
2474	-1.45895834876062 
2475	-0.733041156875849 
2476	-4.56177149985398E-02 
2477	-0.163825241228377 
2478	-1.42364817248072 
2479	-0.25201950441558 
2480	-0.293066021448116 
2481	-0.424974372552971 
2482	-0.428985327934771 
2483	 3.14914687687413E-02 
2484	 0.506609766187212 
2485	 0.595478683756487 
2486	 0.800175407489538 
2487	 0.68385852379959 
2488	-0.138533236337956 
2489	 0.212555815858072 
2490	 0.541667101996643 
2491	 0.678657889886194 
2492	 0.940230539382208 
2493	 2.07987204544463 
2494	 1.72313946184273 
2495	 4.01177205111702 
2496	-15.3890846038804 
2497	-2.60709741729561 
2498	-7.22631829147661 
2499	-7.16287145893968 
2500	-5.93032477454269 
