Wavelength	rt0713west_far00007.asd
350	 8.44900889781893E-02 
351	 8.40186634757333E-02 
352	 8.36040755920334E-02 
353	 8.36194714282397E-02 
354	 8.38293817365382E-02 
355	 8.27884360026812E-02 
356	 8.24773539083702E-02 
357	 8.26821979002696E-02 
358	 8.26374798134097E-02 
359	 8.24911235820728E-02 
360	 8.20340909652318E-02 
361	 8.15165021294509E-02 
362	 8.14193073991009E-02 
363	 8.12702552355119E-02 
364	 8.11009121043433E-02 
365	 8.10317871195377E-02 
366	 8.12319825848501E-02 
367	 8.11292997417386E-02 
368	 8.08058829875608E-02 
369	 8.05080510211543E-02 
370	 8.03526209441433E-02 
371	 8.02861824412589E-02 
372	 8.02626645116321E-02 
373	 8.02271876827163E-02 
374	 8.00211133687112E-02 
375	 7.98551961746838E-02 
376	 7.98820678893487E-02 
377	 8.01112782309163E-02 
378	 8.00287529962278E-02 
379	 7.97136398024392E-02 
380	 7.93912177818726E-02 
381	 0.079159883123721 
382	 7.95081879576994E-02 
383	 7.98227423584993E-02 
384	 7.92631381358849E-02 
385	 7.93615129244168E-02 
386	 7.94820208423262E-02 
387	 0.079393063765992 
388	 7.94893524261899E-02 
389	 7.93049643218341E-02 
390	 7.92733114402475E-02 
391	 7.95772141378138E-02 
392	 7.93806828463917E-02 
393	 7.94147446119733E-02 
394	 7.95290443486751E-02 
395	 7.93847002936057E-02 
396	 7.94901287340106E-02 
397	 7.95176213428324E-02 
398	 7.94321889593946E-02 
399	 7.94750265778453E-02 
400	 7.95491236147062E-02 
401	 7.95702156133724E-02 
402	 7.95149309738463E-02 
403	 0.079482140167668 
404	 7.93883201666269E-02 
405	 7.94192754601901E-02 
406	 7.97107863799004E-02 
407	 7.95556512280924E-02 
408	 7.94220903299923E-02 
409	 7.94738819322139E-02 
410	 7.95070944617983E-02 
411	 7.95255800304417E-02 
412	 7.96045141097968E-02 
413	 7.97406990253243E-02 
414	 7.96973711226868E-02 
415	 7.97389615445379E-02 
416	 7.98289087981538E-02 
417	 7.98403177249179E-02 
418	 7.98930307233316E-02 
419	 8.00169192955446E-02 
420	 8.02052645235387E-02 
421	 8.04177309301589E-02 
422	 8.04746303727046E-02 
423	 8.05051167709629E-02 
424	 8.06465219929846E-02 
425	 8.08753931949435E-02 
426	 8.10771462379013E-02 
427	 8.12989560682017E-02 
428	 0.081627404280236 
429	 0.08183411238297 
430	 0.081962821510857 
431	 8.20995418756476E-02 
432	 8.23420541675082E-02 
433	 8.25770068919704E-02 
434	 8.27996471124381E-02 
435	 8.30335233387701E-02 
436	 8.33115792301822E-02 
437	 0.083579753893877 
438	 8.38231869107069E-02 
439	 8.40517521157463E-02 
440	 8.42936596076474E-02 
441	 8.44875985785692E-02 
442	 8.46511860244875E-02 
443	 8.49298130481305E-02 
444	 8.52375280470379E-02 
445	 8.54696897340805E-02 
446	 8.55951114604688E-02 
447	 8.58781008468604E-02 
448	 8.61604291718166E-02 
449	 8.63767979806722E-02 
450	 8.65441391160825E-02 
451	 8.67038620552686E-02 
452	 0.086867752582854 
453	 8.70338121238017E-02 
454	 8.71858550421618E-02 
455	 8.72904287023937E-02 
456	 8.74463230148132E-02 
457	 8.77135556729726E-02 
458	 8.76896044949088E-02 
459	 8.76738426457448E-02 
460	 8.77973735234287E-02 
461	 8.79805469832467E-02 
462	 8.81480322597483E-02 
463	 8.82512169661073E-02 
464	 8.82948506920311E-02 
465	 0.088384882066702 
466	 0.08859132712596 
467	 8.87446760399326E-02 
468	 8.86378427446443E-02 
469	 8.87506945524406E-02 
470	 8.88544423321911E-02 
471	 8.88722381026903E-02 
472	 8.90148487076776E-02 
473	 8.91643181600782E-02 
474	 8.92950787246146E-02 
475	 8.94280990319128E-02 
476	 8.96732804314645E-02 
477	 8.98607380433398E-02 
478	 9.00069235734403E-02 
479	 9.02429006931892E-02 
480	 0.090410001647521 
481	 0.090621531836573 
482	 9.09226483535619E-02 
483	 9.11433320268989E-02 
484	 9.14483685414427E-02 
485	 9.17409080825149E-02 
486	 9.18984675972801E-02 
487	 9.21869902735567E-02 
488	 9.25092830968598E-02 
489	 9.27990425716075E-02 
490	 9.30469461232988E-02 
491	 9.33585685500316E-02 
492	 9.36819765230128E-02 
493	 9.39759528776769E-02 
494	 9.43273379378099E-02 
495	 9.46455466847797E-02 
496	 0.094949434186753 
497	 9.53092379069458E-02 
498	 9.57230211408862E-02 
499	 0.096054560825566 
500	 9.63076643345416E-02 
501	 9.67206819625504E-02 
502	 9.70185117027506E-02 
503	 9.73074984295907E-02 
504	 9.77344433580086E-02 
505	 9.81362315098241E-02 
506	 9.86113016757824E-02 
507	 9.91710724638716E-02 
508	 0.099744618517836 
509	 0.100171989902671 
510	 0.100656714463984 
511	 0.101282217041821 
512	 0.101699429421819 
513	 0.102262070030675 
514	 0.102925601739538 
515	 0.103488191546193 
516	 0.103996679826325 
517	 0.104599800664955 
518	 0.10527333393861 
519	 0.105778984789427 
520	 0.106313508004988 
521	 0.106864340076278 
522	 0.107399775290567 
523	 0.107982914372127 
524	 0.108575959985988 
525	 0.109179426264646 
526	 0.109817309508708 
527	 0.110418958445299 
528	 0.110992084765914 
529	 0.111560417324947 
530	 0.112157251590929 
531	 0.112760984335492 
532	 0.113362609165336 
533	 0.113953458805107 
534	 0.114519079110573 
535	 0.115055249343494 
536	 0.115589933872934 
537	 0.116180404885115 
538	 0.116686857666053 
539	 0.117165640896914 
540	 0.117693696028468 
541	 0.118243391277925 
542	 0.118838671902548 
543	 0.119446069362497 
544	 0.12000844407728 
545	 0.120591433333752 
546	 0.121176363920208 
547	 0.121750572273539 
548	 0.12233868858508 
549	 0.12288911129715 
550	 0.123432135108984 
551	 0.124013234942063 
552	 0.124579512858162 
553	 0.125122117480584 
554	 0.125631765926459 
555	 0.126094039191405 
556	 0.126586573328993 
557	 0.12708775042033 
558	 0.12755604995147 
559	 0.127995117411299 
560	 0.128393313915562 
561	 0.128759140961455 
562	 0.129114752030395 
563	 0.129467695099501 
564	 0.129761762196956 
565	 0.129961805267669 
566	 0.130082453217937 
567	 0.130204921078274 
568	 0.130354875962702 
569	 0.130528920705385 
570	 0.130716154815431 
571	 0.130871621128518 
572	 0.131002178180266 
573	 0.131168533161562 
574	 0.131256128904452 
575	 0.131356283227294 
576	 0.131533878101101 
577	 0.131614868730999 
578	 0.13170755267443 
579	 0.131767844141146 
580	 0.131680883420758 
581	 0.131616542686891 
582	 0.131492656284921 
583	 0.131232061565586 
584	 0.130825916195907 
585	 0.13024216062236 
586	 0.129488616107963 
587	 0.128602792884523 
588	 0.127688803027783 
589	 0.127057220423258 
590	 0.126776872245983 
591	 0.126594860926821 
592	 0.126252016084154 
593	 0.125804354852923 
594	 0.125344067915556 
595	 0.124788068036775 
596	 0.124247452753027 
597	 0.123691372902974 
598	 0.12303476239018 
599	 0.122471894271209 
600	 0.12194314873177 
601	 0.121435662243879 
602	 0.121066819685513 
603	 0.120825701292694 
604	 0.120659827642647 
605	 0.120517055483377 
606	 0.120438538200364 
607	 0.12035772687534 
608	 0.120274105435029 
609	 0.120255774771469 
610	 0.120197712963547 
611	 0.120132539494236 
612	 0.120090032970341 
613	 0.119998091080725 
614	 0.11994137087975 
615	 0.119865805767261 
616	 0.119672554685385 
617	 0.119587892529458 
618	 0.119570331003563 
619	 0.119543905037938 
620	 0.119428207635297 
621	 0.119315721203357 
622	 0.119201529527432 
623	 0.119052222142759 
624	 0.118866162429926 
625	 0.118585836534863 
626	 0.118272317220376 
627	 0.118096879700695 
628	 0.11808190691477 
629	 0.118096601902835 
630	 0.118041509142207 
631	 0.117988115280489 
632	 0.117910168035515 
633	 0.117832791433205 
634	 0.117781664114919 
635	 0.117596899707877 
636	 0.117436444650922 
637	 0.117345221484281 
638	 0.117164270140183 
639	 0.116935336787284 
640	 0.116740780733282 
641	 0.116601504274488 
642	 0.116235054249158 
643	 0.115801921540597 
644	 0.115275791543274 
645	 0.114496717217422 
646	 0.113758505203291 
647	 0.113373593335062 
648	 0.113401271775443 
649	 0.113366372086375 
650	 0.113139868498633 
651	 0.112840708743938 
652	 0.112656782258512 
653	 0.112329838132164 
654	 0.111878014824643 
655	 0.11134529658564 
656	 0.110858995221571 
657	 0.110565512110195 
658	 0.11034115666675 
659	 0.110064697870306 
660	 0.109805151222897 
661	 0.109576349621109 
662	 0.109366937015277 
663	 0.109154459185844 
664	 0.108941698018145 
665	 0.108762911968866 
666	 0.10862029286138 
667	 0.108455343788523 
668	 0.108335052778577 
669	 0.108243680460648 
670	 0.108149587369914 
671	 0.108092210854591 
672	 0.107992151100781 
673	 0.107886332567293 
674	 0.107909585804931 
675	 0.107813619803232 
676	 0.10776403199872 
677	 0.107857709767953 
678	 0.107806260087523 
679	 0.107886295332062 
680	 0.107995625575374 
681	 0.107930847837119 
682	 0.108088178079298 
683	 0.108210458434639 
684	 0.10809978593241 
685	 0.107681011841835 
686	 0.10734451882361 
687	 0.107330417533985 
688	 0.107596233227345 
689	 0.107640936860054 
690	 0.107457132862387 
691	 0.107000047200218 
692	 0.106267975120838 
693	 0.105990080318921 
694	 0.106096631160021 
695	 0.10630939641751 
696	 0.106358770072944 
697	 0.105837385207161 
698	 0.104895170423124 
699	 0.103956264336943 
700	 0.10338504221641 
701	 0.103018411570701 
702	 0.102665265962529 
703	 0.102142966706046 
704	 0.101329140868195 
705	 0.100472524899681 
706	 9.97331621506681E-02 
707	 9.89091026286526E-02 
708	 9.78506583309136E-02 
709	 9.66637010140613E-02 
710	 9.54865579843323E-02 
711	 9.39987178250369E-02 
712	 9.24015510367927E-02 
713	 9.06088443596493E-02 
714	 8.81486580274404E-02 
715	 8.52946679050056E-02 
716	 0.082036653279289 
717	 0.078859307517009 
718	 7.66118035808757E-02 
719	 7.55579579577612E-02 
720	 0.075063822368886 
721	 7.41863364795504E-02 
722	 0.07223484648638 
723	 6.97392334238521E-02 
724	 6.75558661510207E-02 
725	 6.60018231720148E-02 
726	 6.43600397855363E-02 
727	 6.26213249157564E-02 
728	 6.08864858809103E-02 
729	 5.88820705343678E-02 
730	 5.75038541970294E-02 
731	 5.68008244367211E-02 
732	 0.056260201166492 
733	 5.54991645515442E-02 
734	 5.45050920926952E-02 
735	 5.35369299285153E-02 
736	 5.31710605795049E-02 
737	 5.29504253887456E-02 
738	 5.29117641896423E-02 
739	 5.30782895315403E-02 
740	 5.30744277375973E-02 
741	 5.31191931311935E-02 
742	 5.32408579465803E-02 
743	 5.33549431599642E-02 
744	 5.33476887080325E-02 
745	 5.32837797222995E-02 
746	 5.32399281184721E-02 
747	 5.32792274325037E-02 
748	 5.32306256634019E-02 
749	 5.31535212952565E-02 
750	 5.31343494051584E-02 
751	 5.31470859403487E-02 
752	 0.053070870680028 
753	 5.29978276887532E-02 
754	 5.30824177879787E-02 
755	 5.29640328629062E-02 
756	 0.052765339997797 
757	 5.24512478655692E-02 
758	 5.14857847391232E-02 
759	 4.98168689067261E-02 
760	 4.82279378367737E-02 
761	 4.82668241203994E-02 
762	 4.83210088846155E-02 
763	 4.88903260871705E-02 
764	 4.99128236630963E-02 
765	 5.10715411863031E-02 
766	 5.18007074655767E-02 
767	 5.23185427202007E-02 
768	 5.27286700194677E-02 
769	 5.29882785243489E-02 
770	 5.31295031825667E-02 
771	 5.32567811394092E-02 
772	 5.34138795190104E-02 
773	 5.34283866567118E-02 
774	 5.35518090346051E-02 
775	 0.053725106405757 
776	 5.37987174682788E-02 
777	 0.053977599913031 
778	 5.41531140613847E-02 
779	 5.42586247730604E-02 
780	 5.43061238145426E-02 
781	 5.45154542281846E-02 
782	 5.47464268614193E-02 
783	 0.054846434371086 
784	 5.47860695130764E-02 
785	 5.47204489873103E-02 
786	 5.46532175791883E-02 
787	 5.45496416168602E-02 
788	 5.44556450593143E-02 
789	 5.46660561556496E-02 
790	 5.51916981793351E-02 
791	 5.57753855670856E-02 
792	 0.056116668834316 
793	 5.63028512144628E-02 
794	 5.64309885708788E-02 
795	 5.64940091085901E-02 
796	 5.66326505574023E-02 
797	 5.68615304932402E-02 
798	 5.71088143830711E-02 
799	 5.71319771887599E-02 
800	 5.72245335781447E-02 
801	 5.74098162320123E-02 
802	 5.75826070434163E-02 
803	 5.79656438729603E-02 
804	 5.83552425721056E-02 
805	 5.85539879151602E-02 
806	 5.84319844725955E-02 
807	 5.81725682052144E-02 
808	 5.78296134109752E-02 
809	 5.73715286334263E-02 
810	 5.65900111300503E-02 
811	 5.57912138886039E-02 
812	 5.49264487048384E-02 
813	 5.38576550942958E-02 
814	 5.27785378616614E-02 
815	 5.23814624200464E-02 
816	 5.24443909662776E-02 
817	 5.21104677638412E-02 
818	 5.24114881433586E-02 
819	 5.24970891279046E-02 
820	 5.19749716046052E-02 
821	 5.11446486483041E-02 
822	 5.05477492800842E-02 
823	 5.00449972926225E-02 
824	 0.049399013898797 
825	 0.048630400140063 
826	 4.76223468060146E-02 
827	 4.66048058981156E-02 
828	 4.58840796678475E-02 
829	 4.48350260750631E-02 
830	 4.41501850805831E-02 
831	 0.043909388741712 
832	 4.37260028369859E-02 
833	 4.36887838869662E-02 
834	 0.043627967537315 
835	 4.35300846829639E-02 
836	 4.36022299077364E-02 
837	 4.34946551599536E-02 
838	 4.34514965373628E-02 
839	 0.04363929830405 
840	 4.37151869430317E-02 
841	 4.36698647159771E-02 
842	 4.36209893497272E-02 
843	 4.36934907613473E-02 
844	 4.37538723852086E-02 
845	 0.043870919760528 
846	 4.39176685779015E-02 
847	 4.36876083089341E-02 
848	 4.35382060208775E-02 
849	 4.34550016777543E-02 
850	 4.33336897829055E-02 
851	 4.30403937277334E-02 
852	 4.31505721362183E-02 
853	 4.32425435035592E-02 
854	 4.30133094699644E-02 
855	 4.28560871564963E-02 
856	 4.30546163039629E-02 
857	 4.31532445476068E-02 
858	 4.28227941906488E-02 
859	 4.29590263542907E-02 
860	 4.29838444368884E-02 
861	 4.28120248141516E-02 
862	 4.26554063360594E-02 
863	 4.28199508194125E-02 
864	 4.28400063117041E-02 
865	 4.25698347435831E-02 
866	 4.22510726179522E-02 
867	 4.22441336481963E-02 
868	 4.22437378358377E-02 
869	 4.20894131713097E-02 
870	 4.19412219464014E-02 
871	 4.19568228423354E-02 
872	 4.18559340839536E-02 
873	 4.15475413414781E-02 
874	 4.15788709897069E-02 
875	 4.15533615047747E-02 
876	 4.14301827671001E-02 
877	 4.12678764963872E-02 
878	 4.10472124276275E-02 
879	 4.09173579210061E-02 
880	 4.08124764152606E-02 
881	 4.06108207581993E-02 
882	 4.05292656689165E-02 
883	 4.03624212657863E-02 
884	 4.01694263346764E-02 
885	 4.01738668709332E-02 
886	 4.00846002365929E-02 
887	 3.99220363361834E-02 
888	 3.96786821459318E-02 
889	 3.92824678835096E-02 
890	 3.87868653349713E-02 
891	 3.82567642700074E-02 
892	 3.76672368478698E-02 
893	 3.68259531858749E-02 
894	 3.61196699522945E-02 
895	 3.53814969841521E-02 
896	 3.44772277687465E-02 
897	 3.38857798680235E-02 
898	 3.41066207369248E-02 
899	 3.43111713610709E-02 
900	 3.37489209501646E-02 
901	 3.35611695313849E-02 
902	 3.38714486952144E-02 
903	 3.41022646043216E-02 
904	 3.37456965085798E-02 
905	 3.40640155108951E-02 
906	 3.37576703130678E-02 
907	 3.28191612410933E-02 
908	 3.22254782907134E-02 
909	 3.16930704982651E-02 
910	 3.15512640109484E-02 
911	 3.16993444725955E-02 
912	 3.16679230849266E-02 
913	 3.16795603812036E-02 
914	 3.11751391414591E-02 
915	 3.06415994695314E-02 
916	 3.15230678977964E-02 
917	 3.20848431143706E-02 
918	 3.23072717178613E-02 
919	 3.23855512038301E-02 
920	 0.032409149714952 
921	 3.19136066034435E-02 
922	 3.14732607506236E-02 
923	 3.13983030299096E-02 
924	 3.10201079191203E-02 
925	 3.06534098467532E-02 
926	 3.02131505595706E-02 
927	 2.93829683847772E-02 
928	 2.74032285419237E-02 
929	 2.62839317616065E-02 
930	 2.51623809889424E-02 
931	 2.21709292844214E-02 
932	 2.30987126559541E-02 
933	 2.36189907913015E-02 
934	 0.022163076513432 
935	 2.03822648945202E-02 
936	 0.020734169276696 
937	 2.00446297734504E-02 
938	 1.85951038304508E-02 
939	 1.79352976347288E-02 
940	 2.01028964985966E-02 
941	 2.17841201320279E-02 
942	 2.09072019664724E-02 
943	 1.74827793243507E-02 
944	 1.95578647773145E-02 
945	 0.021048369158398 
946	 2.01245535609571E-02 
947	 1.89285600409102E-02 
948	 2.08513024516375E-02 
949	 2.16828027591226E-02 
950	 2.16999245856516E-02 
951	 0.023431736537048 
952	 2.36400275603417E-02 
953	 2.10162014059789E-02 
954	 1.98581389308786E-02 
955	 2.52135331872693E-02 
956	 2.44974736486236E-02 
957	 2.32251724500239E-02 
958	 2.39824118177855E-02 
959	 2.55457573315937E-02 
960	 2.36459330786997E-02 
961	 2.32229198382115E-02 
962	 0.024882039958416 
963	 2.58404460106667E-02 
964	 2.63871355390305E-02 
965	 2.70043612518167E-02 
966	 2.78904643607194E-02 
967	 2.87831809779579E-02 
968	 2.75746665254226E-02 
969	 2.85002184612031E-02 
970	 3.05254628188504E-02 
971	 2.87962381038473E-02 
972	 2.93535155379511E-02 
973	 2.91704533288856E-02 
974	 2.75882875733529E-02 
975	 0.027225476567367 
976	 2.95032325999485E-02 
977	 2.98711354215987E-02 
978	 2.87004964699556E-02 
979	 3.01554603582999E-02 
980	 0.028481441340756 
981	 3.01495054995553E-02 
982	 3.35619516256021E-02 
983	 0.031478712760933 
984	 3.10063284753293E-02 
985	 3.20197279038607E-02 
986	 3.29128161403624E-02 
987	 0.032134814781521 
988	 3.29915345519857E-02 
989	 3.28850240056894E-02 
990	 3.20776611696593E-02 
991	 3.29397519268206E-02 
992	 0.034071273164835 
993	 3.42281738911014E-02 
994	 3.36665902497103E-02 
995	 3.35995743657142E-02 
996	 3.39717811911038E-02 
997	 3.43096555315704E-02 
998	 3.40554504621047E-02 
999	 0.033174743072373 
1000	 0.034261731819444 
1001	 3.18675870751127E-02 
1002	 0.032035795651571 
1003	 0.032034164759498 
1004	 3.17166643800646E-02 
1005	 3.16746392928487E-02 
1006	 3.16219128046643E-02 
1007	 3.18152302960601E-02 
1008	 3.18836194408522E-02 
1009	 3.20528928671131E-02 
1010	 3.21901393912465E-02 
1011	 3.19615389745125E-02 
1012	 3.20509624156784E-02 
1013	 3.22233176175461E-02 
1014	 3.22024146089945E-02 
1015	 3.21494687295179E-02 
1016	 3.20675683606579E-02 
1017	 3.16892096604991E-02 
1018	 3.15991895079613E-02 
1019	 3.16807613425664E-02 
1020	 0.031741135003856 
1021	 3.19040105887857E-02 
1022	 3.20889767294181E-02 
1023	 3.23245363244165E-02 
1024	 3.22727383747736E-02 
1025	 0.032238655223205 
1026	 0.032455962693392 
1027	 3.24994124605859E-02 
1028	 3.24534143710083E-02 
1029	 3.25187431271087E-02 
1030	 3.26808819701222E-02 
1031	 3.26153995728576E-02 
1032	 3.23396914185657E-02 
1033	 3.23510437966836E-02 
1034	 3.23632703925801E-02 
1035	 3.24052040351218E-02 
1036	 3.27141529330349E-02 
1037	 3.29207913968338E-02 
1038	 3.31027098084588E-02 
1039	 3.31710557487589E-02 
1040	 3.30527504853961E-02 
1041	 3.31378905855153E-02 
1042	 3.30137493176588E-02 
1043	 3.26128213200386E-02 
1044	 3.24734070938323E-02 
1045	 3.23741608486664E-02 
1046	 3.23400388295577E-02 
1047	 3.24271957878954E-02 
1048	 3.24455304381226E-02 
1049	 3.25435513870988E-02 
1050	 3.25592241616126E-02 
1051	 3.23802202744169E-02 
1052	 3.24346252009193E-02 
1053	 3.25975907923497E-02 
1054	 3.27423370305815E-02 
1055	 3.33235001189576E-02 
1056	 3.34275682403766E-02 
1057	 3.33077062366534E-02 
1058	 3.28501264177311E-02 
1059	 3.27128982521966E-02 
1060	 3.23847241066963E-02 
1061	 3.22092071666183E-02 
1062	 0.032241214007875 
1063	 3.22882493037728E-02 
1064	 3.23011119516254E-02 
1065	 3.23287346903392E-02 
1066	 3.27269760422595E-02 
1067	 3.26892399992758E-02 
1068	 0.032142675203934 
1069	 3.19731380185072E-02 
1070	 3.17878898098547E-02 
1071	 3.16806646763533E-02 
1072	 3.19793433705307E-02 
1073	 0.031989708552911 
1074	 3.20041578176833E-02 
1075	 3.19351801456572E-02 
1076	 3.18332728947852E-02 
1077	 0.031679998504825 
1078	 3.15729101476409E-02 
1079	 3.14825580227023E-02 
1080	 3.12524971991823E-02 
1081	 3.08063707706377E-02 
1082	 3.06848005931325E-02 
1083	 3.06104434802739E-02 
1084	 3.05462927265688E-02 
1085	 3.09124355640578E-02 
1086	 3.09404856911087E-02 
1087	 3.06988648961285E-02 
1088	 3.05246485553723E-02 
1089	 3.04097490879581E-02 
1090	 0.02987026528282 
1091	 2.97214947250182E-02 
1092	 2.98051714824801E-02 
1093	 0.029481933353733 
1094	 2.90131637445307E-02 
1095	 0.028818508069157 
1096	 2.83907211507529E-02 
1097	 2.80927424303632E-02 
1098	 2.83908473647604E-02 
1099	 2.81764894117678E-02 
1100	 2.73062698429713E-02 
1101	 2.69553246869041E-02 
1102	 2.68722966880815E-02 
1103	 2.65096966101801E-02 
1104	 2.60719350045159E-02 
1105	 2.60252758968194E-02 
1106	 2.54054967280508E-02 
1107	 2.49453495404572E-02 
1108	 2.50184086475392E-02 
1109	 2.45427506524209E-02 
1110	 2.41777877065966E-02 
1111	 2.40116607891552E-02 
1112	 2.32619486286635E-02 
1113	 2.14654199897565E-02 
1114	 2.09950654765373E-02 
1115	 0.020978090542744 
1116	 2.05680748532712E-02 
1117	 2.25077605087965E-02 
1118	 2.23853007967354E-02 
1119	 1.80632447276128E-02 
1120	 1.59642705864071E-02 
1121	 1.48086638208017E-02 
1122	 1.22414348572112E-02 
1123	 0.010598867046414 
1124	 1.49826573308952E-02 
1125	 1.65242213548987E-02 
1126	 0.012341702692199 
1127	 1.43353524466501E-02 
1128	 1.68780704358432E-02 
1129	 1.64539906893788E-02 
1130	 0.016615471110121 
1131	 1.65318757261613E-02 
1132	 1.21448236398523E-02 
1133	 1.26245380036623E-02 
1134	 1.75086708154043E-02 
1135	 1.73180308269485E-02 
1136	 1.61274643042063E-02 
1137	 1.58611621587439E-02 
1138	 1.35149738755823E-02 
1139	 1.22863491701038E-02 
1140	 1.47655744037711E-02 
1141	 1.64208659110351E-02 
1142	 1.78853245462074E-02 
1143	 1.88756556480046E-02 
1144	 1.68136636742036E-02 
1145	 1.54390928346108E-02 
1146	 1.57893544721149E-02 
1147	 1.58306372683779E-02 
1148	 0.016502902434142 
1149	 1.73088332907759E-02 
1150	 1.79247129399983E-02 
1151	 1.77306722639194E-02 
1152	 1.81358473110514E-02 
1153	 1.89434929276753E-02 
1154	 1.97837078022776E-02 
1155	 2.07073877169652E-02 
1156	 0.021067368905149 
1157	 0.021401863832192 
1158	 0.021599036583616 
1159	 2.18745798721639E-02 
1160	 2.23256534403296E-02 
1161	 2.30869945072984E-02 
1162	 2.35413624003062E-02 
1163	 2.34945908471197E-02 
1164	 2.36524357080531E-02 
1165	 2.38552074721245E-02 
1166	 2.44179356240318E-02 
1167	 2.53779186396911E-02 
1168	 2.57629998164518E-02 
1169	 0.025848513001357 
1170	 2.60338490446432E-02 
1171	 2.61658288939424E-02 
1172	 2.60955914411498E-02 
1173	 0.026295120658892 
1174	 2.67427906902927E-02 
1175	 2.69338414310678E-02 
1176	 2.69431196482626E-02 
1177	 2.69040395388926E-02 
1178	 2.68750765347308E-02 
1179	 0.026872240150026 
1180	 2.68427258427376E-02 
1181	 2.71265647772226E-02 
1182	 2.74621367980786E-02 
1183	 2.71716276460508E-02 
1184	 2.69317735365695E-02 
1185	 2.71086757874805E-02 
1186	 2.71384159868223E-02 
1187	 2.71041560630137E-02 
1188	 2.71440588725553E-02 
1189	 2.69915738689757E-02 
1190	 2.67083912210493E-02 
1191	 2.70849900758748E-02 
1192	 2.73665999773936E-02 
1193	 2.79858055215515E-02 
1194	 0.027890866721367 
1195	 2.77143356881456E-02 
1196	 2.77421055914284E-02 
1197	 2.77091617217976E-02 
1198	 2.78010768233745E-02 
1199	 2.80559548143646E-02 
1200	 0.02801109095477 
1201	 2.76705814317939E-02 
1202	 2.78009717282597E-02 
1203	 2.81376729831767E-02 
1204	 2.80427765162351E-02 
1205	 2.79601362181988E-02 
1206	 2.80361466847185E-02 
1207	 2.81513780446051E-02 
1208	 2.82345666248816E-02 
1209	 2.82885113217202E-02 
1210	 0.02843129620119 
1211	 0.02837212825097 
1212	 2.83834559159284E-02 
1213	 2.86154817335818E-02 
1214	 2.87244591483315E-02 
1215	 2.86642727194819E-02 
1216	 2.87917216338888E-02 
1217	 2.90630996161069E-02 
1218	 2.90263286433468E-02 
1219	 2.90510052063767E-02 
1220	 2.92795982605789E-02 
1221	 2.94142879985839E-02 
1222	 2.94078918920684E-02 
1223	 2.94258213544142E-02 
1224	 2.95710749279591E-02 
1225	 2.97167247913119E-02 
1226	 2.99449388741057E-02 
1227	 3.01721007026002E-02 
1228	 3.01547458031861E-02 
1229	 3.01139379021457E-02 
1230	 3.01427594291561E-02 
1231	 3.02224496396126E-02 
1232	 3.03684569695531E-02 
1233	 3.06163991815086E-02 
1234	 3.08692458056835E-02 
1235	 3.08876191559572E-02 
1236	 3.06949329651653E-02 
1237	 3.07546594360622E-02 
1238	 3.07552338550648E-02 
1239	 0.03076517609521 
1240	 3.08908921466574E-02 
1241	 0.031068183208367 
1242	 3.09504129641889E-02 
1243	 3.07507985339724E-02 
1244	 3.09038390396073E-02 
1245	 3.10373432216501E-02 
1246	 3.10639106295659E-02 
1247	 3.11039423629103E-02 
1248	 3.08954599144121E-02 
1249	 0.030714184398069 
1250	 3.06626631775352E-02 
1251	 3.05923674393598E-02 
1252	 3.06077111908933E-02 
1253	 3.06085772396036E-02 
1254	 3.06158376869508E-02 
1255	 3.06126897501975E-02 
1256	 3.05308571819387E-02 
1257	 3.04102608730396E-02 
1258	 3.03022751326782E-02 
1259	 3.01105210550439E-02 
1260	 0.029930971845685 
1261	 2.97300984688625E-02 
1262	 2.96294844995441E-02 
1263	 2.95883512306118E-02 
1264	 2.94624296075272E-02 
1265	 2.94014426630907E-02 
1266	 2.94624021993106E-02 
1267	 2.94528882320525E-02 
1268	 2.94095955659582E-02 
1269	 2.93465128960459E-02 
1270	 2.92811517140008E-02 
1271	 2.93983840830635E-02 
1272	 2.95923058689265E-02 
1273	 2.95991622640773E-02 
1274	 2.96041581609867E-02 
1275	 2.96639501053232E-02 
1276	 2.96392300009102E-02 
1277	 2.96420164293348E-02 
1278	 2.97815910869801E-02 
1279	 2.98701117284036E-02 
1280	 0.029791365162384 
1281	 2.98157865514026E-02 
1282	 3.00992046264596E-02 
1283	 0.030122732298504 
1284	 2.99248105940385E-02 
1285	 2.98879548183715E-02 
1286	 2.98877354169427E-02 
1287	 0.029767341356663 
1288	 2.96737694414175E-02 
1289	 2.95161813572294E-02 
1290	 2.92222036553465E-02 
1291	 0.028915499407704 
1292	 0.028793951879989 
1293	 2.87789646150245E-02 
1294	 0.028582816282765 
1295	 2.83829228663537E-02 
1296	 2.84194123030151E-02 
1297	 2.83659664766608E-02 
1298	 2.81784484050309E-02 
1299	 2.80930761895162E-02 
1300	 2.78345021958996E-02 
1301	 2.74336916255254E-02 
1302	 2.73045408711658E-02 
1303	 2.72165269317713E-02 
1304	 2.70722118639453E-02 
1305	 2.68906703986357E-02 
1306	 2.64975630560513E-02 
1307	 0.025758694758189 
1308	 2.55030646982335E-02 
1309	 2.53425299373466E-02 
1310	 2.50714383921421E-02 
1311	 2.51802510140137E-02 
1312	 2.50717826800841E-02 
1313	 2.45626305582189E-02 
1314	 2.42960761059281E-02 
1315	 2.43541885967637E-02 
1316	 2.41871710977261E-02 
1317	 2.38469926852632E-02 
1318	 2.35672410083301E-02 
1319	 2.31130282261257E-02 
1320	 2.28948810935437E-02 
1321	 2.28720002693118E-02 
1322	 2.29203768748885E-02 
1323	 2.26375784192677E-02 
1324	 2.22164598141343E-02 
1325	 2.20951468337373E-02 
1326	 2.19960406621813E-02 
1327	 2.16070679912146E-02 
1328	 2.12078262917113E-02 
1329	 2.08322226287307E-02 
1330	 2.03416742844865E-02 
1331	 1.98940265325475E-02 
1332	 1.97001693482383E-02 
1333	 0.01916655787904 
1334	 1.79096025073678E-02 
1335	 1.73418604216791E-02 
1336	 1.77638484128385E-02 
1337	 1.79123475457555E-02 
1338	 1.81340090874839E-02 
1339	 1.76593084014941E-02 
1340	 1.65452706885647E-02 
1341	 1.65440967182423E-02 
1342	 1.69435758483315E-02 
1343	 1.67693005188378E-02 
1344	 1.74109969755186E-02 
1345	 1.79510203483039E-02 
1346	 1.76569637189008E-02 
1347	 1.63101571618253E-02 
1348	 1.26648954470096E-02 
1349	 1.23474384024195E-02 
1350	 1.59469463613142E-02 
1351	 0.01370074124676 
1352	 1.20319957644403E-02 
1353	 1.77456338131045E-02 
1354	 2.39736902069939E-02 
1355	-3.40811389675661E-03 
1356	-5.78366927736727E-03 
1357	 3.27587084441028E-02 
1358	 0.030593358846164 
1359	-1.61649759519513E-02 
1360	-6.88936552064249E-03 
1361	 0.103151291407155 
1362	 8.47644182917229E-02 
1363	-0.163843976269952 
1364	-0.215065629536113 
1365	-4.57986902105843E-02 
1366	 1.73952449944695E-02 
1367	 7.38953379924916E-02 
1368	 0.145052202278824 
1369	 0.151437646730092 
1370	 3.66817976096445E-02 
1371	-5.36677223785964E-03 
1372	-9.38616892758748E-03 
1373	-0.161840847566755 
1374	-0.20111560342954 
1375	-0.135408914067624 
1376	-3.93217019843368E-02 
1377	 0.228182478616989 
1378	 0.1975622663244 
1379	-2.80180052291779E-02 
1380	-7.76038571799913E-02 
1381	-0.332893367856677 
1382	-0.429355359037262 
1383	-0.199180027137714 
1384	-7.79725352889443E-02 
1385	 0.147983674958342 
1386	 0.108539094832746 
1387	-0.131121733076738 
1388	-0.114674682610471 
1389	-2.50513256755118E-02 
1390	-0.180453642662834 
1391	-0.214784355395871 
1392	-0.216186874350708 
1393	-0.194006631247707 
1394	-0.333567803948924 
1395	-0.236841451272684 
1396	-9.4796641978687E-03 
1397	-0.143811267685439 
1398	-0.125011832000567 
1399	-5.42928659493589E-02 
1400	-7.89894289979238E-02 
1401	-7.88417674799288E-02 
1402	-0.204724176588278 
1403	-0.233937854618434 
1404	-0.146764722272378 
1405	-0.177515759196641 
1406	-0.229831479116227 
1407	-0.140742896434372 
1408	-3.72187046709588E-02 
1409	-5.61048657017021E-02 
1410	-6.31453820784908E-03 
1411	-2.85653401743972E-02 
1412	-0.212118297140359 
1413	-0.174524100872004 
1414	 4.68562607379982E-02 
1415	 5.27881440913081E-02 
1416	-1.40265039257339E-03 
1417	-5.24550811936429E-04 
1418	-5.19868635052145E-02 
1419	-5.17140155575008E-02 
1420	 4.91424030728636E-03 
1421	 1.14134373806233E-02 
1422	-9.85490333601835E-03 
1423	-1.50422564058962E-02 
1424	-1.43065671017962E-02 
1425	-1.56165917951314E-02 
1426	-2.01125410951507E-02 
1427	-1.65340647265391E-02 
1428	-1.03634628667919E-02 
1429	-5.92950275906647E-03 
1430	 3.75512810141129E-04 
1431	 7.30778690834229E-03 
1432	 1.80261868223976E-02 
1433	 2.24296060964153E-02 
1434	 3.08460853035516E-02 
1435	 3.03298634147974E-02 
1436	 1.38290954328191E-02 
1437	 8.11355536256212E-03 
1438	 1.38214558511598E-02 
1439	 6.11379221420081E-03 
1440	 6.68748055037706E-03 
1441	 1.36401579904647E-02 
1442	 9.04235394036229E-03 
1443	 1.26841795862746E-02 
1444	 2.20417403170944E-02 
1445	 1.81498891149736E-02 
1446	 1.15021119160306E-02 
1447	 1.10070954103557E-02 
1448	 1.03721765686698E-02 
1449	 9.0091846295765E-03 
1450	 1.14105466059719E-02 
1451	 0.013984444027227 
1452	 1.17355359790744E-02 
1453	 1.00824078894119E-02 
1454	 1.07018127884549E-02 
1455	 1.09664344760432E-02 
1456	 1.16175229898713E-02 
1457	 1.47720267836023E-02 
1458	 1.53027092546681E-02 
1459	 1.44106695779948E-02 
1460	 0.013839570405407 
1461	 1.25491604950757E-02 
1462	 1.23889986598751E-02 
1463	 0.011864543322366 
1464	 0.012745442549629 
1465	 1.66234464271183E-02 
1466	 1.66345327446782E-02 
1467	 1.43788629046778E-02 
1468	 0.014366622356953 
1469	 1.35408335230457E-02 
1470	 1.28177608746284E-02 
1471	 1.43732186624413E-02 
1472	 1.43842751191456E-02 
1473	 0.011280787692309 
1474	 1.10308552418607E-02 
1475	 1.34265328791995E-02 
1476	 1.36169362910318E-02 
1477	 1.30265001336441E-02 
1478	 1.32230302408751E-02 
1479	 1.27785979134249E-02 
1480	 1.32523193500911E-02 
1481	 1.48407030584216E-02 
1482	 1.55338381011147E-02 
1483	 1.61418812286974E-02 
1484	 1.62053613872678E-02 
1485	 1.54705599093188E-02 
1486	 1.58794752237593E-02 
1487	 1.66497673655539E-02 
1488	 1.69276643387277E-02 
1489	 1.70880579777877E-02 
1490	 0.017706899501121 
1491	 0.01868138477103 
1492	 1.88794642872897E-02 
1493	 1.85925843312046E-02 
1494	 1.90935890237372E-02 
1495	 1.97647622548222E-02 
1496	 1.99991240363083E-02 
1497	 2.05527258839155E-02 
1498	 2.10533901033596E-02 
1499	 2.11536856095041E-02 
1500	 0.021170337112762 
1501	 2.14554096902592E-02 
1502	 0.021677564261036 
1503	 0.02134582857935 
1504	 2.14185130051206E-02 
1505	 2.17799193874278E-02 
1506	 2.22497200689463E-02 
1507	 0.022624171991126 
1508	 0.023109186511668 
1509	 2.33635564851876E-02 
1510	 2.32750981539176E-02 
1511	 2.30838797736265E-02 
1512	 2.31735256788731E-02 
1513	 2.34565261293718E-02 
1514	 2.33755464215854E-02 
1515	 2.33555284059958E-02 
1516	 2.37740179377679E-02 
1517	 2.42114727140839E-02 
1518	 2.43859555409707E-02 
1519	 0.024250607981796 
1520	 2.43438259300828E-02 
1521	 2.47041662079309E-02 
1522	 2.49878977073956E-02 
1523	 2.54259771765248E-02 
1524	 2.56885179485987E-02 
1525	 2.55199919027903E-02 
1526	 2.53835158480382E-02 
1527	 2.53132282088159E-02 
1528	 2.52463356074245E-02 
1529	 2.53761252222304E-02 
1530	 2.55766592004775E-02 
1531	 2.58039439870539E-02 
1532	 0.025933658199789 
1533	 2.59864411626349E-02 
1534	 2.62343314318156E-02 
1535	 2.63362723395882E-02 
1536	 2.63081818457454E-02 
1537	 2.63342014341633E-02 
1538	 2.63624766121863E-02 
1539	 2.64603494647353E-02 
1540	 2.65273665104817E-02 
1541	 0.026647395336198 
1542	 2.67040226929709E-02 
1543	 2.66508083928982E-02 
1544	 2.67359793887517E-02 
1545	 2.67974593588835E-02 
1546	 2.67918519319039E-02 
1547	 2.68956239520206E-02 
1548	 2.70711908016543E-02 
1549	 2.72063622655837E-02 
1550	 2.71428717012479E-02 
1551	 2.71286328578456E-02 
1552	 2.73303088284965E-02 
1553	 0.027293163736289 
1554	 2.72156148745992E-02 
1555	 2.73734744651561E-02 
1556	 2.73893005986703E-02 
1557	 2.73446055561012E-02 
1558	 2.74316431372141E-02 
1559	 2.75056722176327E-02 
1560	 2.74169303825269E-02 
1561	 2.73685906575906E-02 
1562	 2.74754408000185E-02 
1563	 2.75430236678451E-02 
1564	 2.76515069667262E-02 
1565	 2.77002011051276E-02 
1566	 0.027645211495508 
1567	 2.74896944427189E-02 
1568	 2.73392000973119E-02 
1569	 2.75184991620891E-02 
1570	 2.76260230622179E-02 
1571	 2.74610931353243E-02 
1572	 2.74499841336094E-02 
1573	 2.74828695309143E-02 
1574	 2.73483515139696E-02 
1575	 2.74950234968426E-02 
1576	 0.027787719259307 
1577	 2.77249421669085E-02 
1578	 2.76176271259698E-02 
1579	 2.75425723831122E-02 
1580	 2.74044643385068E-02 
1581	 2.73452374735132E-02 
1582	 2.75653287144538E-02 
1583	 2.78393879816399E-02 
1584	 2.77051392358032E-02 
1585	 2.77059905525848E-02 
1586	 2.79392165385258E-02 
1587	 2.78023928295172E-02 
1588	 2.77482980330902E-02 
1589	 2.79615795764666E-02 
1590	 2.78906676542514E-02 
1591	 2.77193303241584E-02 
1592	 2.78166970300181E-02 
1593	 2.78841847219645E-02 
1594	 2.76556572913976E-02 
1595	 2.75651479250945E-02 
1596	 2.76915045181468E-02 
1597	 2.75421882324606E-02 
1598	 2.73329195198515E-02 
1599	 2.75074716116098E-02 
1600	 2.78106943768902E-02 
1601	 2.78637596297599E-02 
1602	 2.78094917879857E-02 
1603	 0.027847353362372 
1604	 2.77555764759419E-02 
1605	 2.75506619767995E-02 
1606	 0.027599658804339 
1607	 0.027652470307114 
1608	 2.74610245342998E-02 
1609	 2.73927087127617E-02 
1610	 2.75518652374588E-02 
1611	 2.76557338979991E-02 
1612	 2.77401595900791E-02 
1613	 2.80132952901698E-02 
1614	 2.81130513133804E-02 
1615	 2.77850319388677E-02 
1616	 2.75738883335443E-02 
1617	 2.77321186747884E-02 
1618	 2.79453304680998E-02 
1619	 2.81639427541461E-02 
1620	 0.028242594404593 
1621	 2.81274748448921E-02 
1622	 2.79209296609498E-02 
1623	 2.77354546971636E-02 
1624	 2.78968192182119E-02 
1625	 2.79678555440443E-02 
1626	 2.77398208520292E-02 
1627	 2.77925150942597E-02 
1628	 2.78668611738688E-02 
1629	 2.78290161155849E-02 
1630	 2.78172310681632E-02 
1631	 2.77929687333995E-02 
1632	 2.80360588647609E-02 
1633	 2.80545922070114E-02 
1634	 2.78003320953239E-02 
1635	 2.79126746007585E-02 
1636	 0.027979488604723 
1637	 2.77946321395314E-02 
1638	 2.78426181689023E-02 
1639	 0.02801841444553 
1640	 2.79323826307384E-02 
1641	 2.78432058281308E-02 
1642	 2.80622602379479E-02 
1643	 2.81629127163657E-02 
1644	 2.78965383497305E-02 
1645	 2.77707222689374E-02 
1646	 2.79403821767196E-02 
1647	 2.79357004267172E-02 
1648	 2.78083140357264E-02 
1649	 2.78675278058721E-02 
1650	 2.79360626341765E-02 
1651	 2.79422605834708E-02 
1652	 2.78938670388769E-02 
1653	 2.77176428508145E-02 
1654	 2.76762949170832E-02 
1655	 2.77083199071918E-02 
1656	 2.75713361731887E-02 
1657	 2.73404855771821E-02 
1658	 0.027410209766791 
1659	 2.75220456892055E-02 
1660	 2.75280713798832E-02 
1661	 2.77850171918446E-02 
1662	 2.78153166450052E-02 
1663	 2.74806096367738E-02 
1664	 2.73927042031735E-02 
1665	 2.74665581382768E-02 
1666	 2.75367923588508E-02 
1667	 2.76455030665232E-02 
1668	 2.75430512906704E-02 
1669	 2.76506524081981E-02 
1670	 0.027721763065986 
1671	 2.76627639954082E-02 
1672	 2.78118157848805E-02 
1673	 2.79037775181665E-02 
1674	 2.79512102287342E-02 
1675	 2.80176185867479E-02 
1676	 2.78348986502437E-02 
1677	 2.76964079551176E-02 
1678	 2.77224705826856E-02 
1679	 2.75308683330339E-02 
1680	 2.76585517766595E-02 
1681	 2.79757028956718E-02 
1682	 2.76061918428456E-02 
1683	 2.74994741515516E-02 
1684	 2.78548544101545E-02 
1685	 2.77934243426127E-02 
1686	 2.76303352048923E-02 
1687	 2.75272632826899E-02 
1688	 2.75156831229292E-02 
1689	 2.77549268632146E-02 
1690	 2.79349559375646E-02 
1691	 2.75002682687179E-02 
1692	 2.66971352128752E-02 
1693	 2.63513646316804E-02 
1694	 2.66153641619123E-02 
1695	 2.71770143600856E-02 
1696	 0.0275492187183 
1697	 2.73279571753969E-02 
1698	 2.67350896428965E-02 
1699	 2.66520410963741E-02 
1700	 2.72146247397267E-02 
1701	 2.73461841822081E-02 
1702	 2.69002295458119E-02 
1703	 2.67841602108269E-02 
1704	 2.65332361804356E-02 
1705	 2.62014355547094E-02 
1706	 2.66552215559434E-02 
1707	 2.67162469195311E-02 
1708	 2.61618864829772E-02 
1709	 2.61459393690013E-02 
1710	 2.64737049451994E-02 
1711	 2.67484527121973E-02 
1712	 2.68685704281426E-02 
1713	 2.66043869070141E-02 
1714	 2.66749674038445E-02 
1715	 2.70696232735343E-02 
1716	 2.71416772488586E-02 
1717	 2.68028544057274E-02 
1718	 2.60807347212981E-02 
1719	 2.55458430681108E-02 
1720	 2.58192677325074E-02 
1721	 2.63519901119592E-02 
1722	 2.65030692074694E-02 
1723	 2.64084048740061E-02 
1724	 2.64541913501864E-02 
1725	 2.62923102325433E-02 
1726	 2.58470881390774E-02 
1727	 2.58106286800467E-02 
1728	 2.59305722562223E-02 
1729	 2.58689090672254E-02 
1730	 2.59112779415556E-02 
1731	 2.58174628292283E-02 
1732	 2.54367826237803E-02 
1733	 2.51203824830874E-02 
1734	 2.49404161506507E-02 
1735	 2.51186316235515E-02 
1736	 2.53741035040229E-02 
1737	 2.50328609055233E-02 
1738	 2.47609785133346E-02 
1739	 2.50082125012124E-02 
1740	 2.50075993884925E-02 
1741	 2.48557162129158E-02 
1742	 2.46574534982012E-02 
1743	 2.41236267783202E-02 
1744	 2.38984958173207E-02 
1745	 2.40434115844033E-02 
1746	 2.42678474704103E-02 
1747	 2.43127549473044E-02 
1748	 2.37249805379172E-02 
1749	 2.35704191234734E-02 
1750	 2.39872706867073E-02 
1751	 2.39982457224684E-02 
1752	 2.38619926479743E-02 
1753	 2.38701296667225E-02 
1754	 2.37061746814933E-02 
1755	 2.35332447915906E-02 
1756	 2.36194575036241E-02 
1757	 2.29041730049584E-02 
1758	 2.25411409204689E-02 
1759	 2.29510570418906E-02 
1760	 2.26200448615878E-02 
1761	 0.021891061348484 
1762	 2.17544329441963E-02 
1763	 2.16714758790166E-02 
1764	 2.17033477052827E-02 
1765	 0.022223505277937 
1766	 2.24155306867624E-02 
1767	 2.16297185495376E-02 
1768	 2.09517187812419E-02 
1769	 2.07271087214227E-02 
1770	 2.02873557979238E-02 
1771	 2.01951345940542E-02 
1772	 2.02706721646412E-02 
1773	 2.03361815900081E-02 
1774	 0.020368227221259 
1775	 2.02544619138921E-02 
1776	 0.020128567635252 
1777	 1.94548194298892E-02 
1778	 1.93525116601068E-02 
1779	 1.97827319957846E-02 
1780	 1.92890963376196E-02 
1781	 1.88509960834713E-02 
1782	 1.87831318311361E-02 
1783	 1.81652889095097E-02 
1784	 1.79934418846758E-02 
1785	 1.83963650335723E-02 
1786	 1.77153309939545E-02 
1787	 1.59178469355265E-02 
1788	 1.62093932870429E-02 
1789	 1.76938863458093E-02 
1790	 2.05585888365463E-02 
1791	 2.14889733018353E-02 
1792	 1.87076272084718E-02 
1793	 1.71839239320128E-02 
1794	 1.62822212846667E-02 
1795	 1.40732177474233E-02 
1796	 1.43984215120313E-02 
1797	 1.02797535438326E-02 
1798	 1.54749463202626E-03 
1799	-1.61687180302955E-03 
1800	 5.63682171288441E-03 
1801	 7.30092010913083E-03 
1802	 9.75254861882349E-03 
1803	 9.36504940011505E-03 
1804	-1.27615072153548E-02 
1805	-1.77152850485291E-02 
1806	 1.05746266825682E-02 
1807	 2.61165567189744E-02 
1808	 6.87864082674174E-02 
1809	 7.50344953023958E-02 
1810	-2.41911171991356E-02 
1811	-6.31363413853299E-02 
1812	-9.41005487963276E-02 
1813	-0.142053989084746 
1814	-0.171755713275077 
1815	-0.198260985635796 
1816	-0.21387556848815 
1817	-0.193403049843398 
1818	 4.55494856511704E-02 
1819	 3.99793656580826E-02 
1820	 0.042965458741512 
1821	-0.206092339143385 
1822	-0.304485395836882 
1823	-0.2579336416304 
1824	-0.282330849546254 
1825	-0.153745060979206 
1826	-9.32739006441331E-02 
1827	-0.156710545424237 
1828	-0.179591570186188 
1829	-0.19461487430568 
1830	-0.190212737679253 
1831	 1.00257801284697 
1832	 1.27712073275264 
1833	 0.215940979211008 
1834	 6.51563953818194 
1835	 1.85671224005405 
1836	 2.05036710472934 
1837	 1.40222015074114 
1838	 2.20504517630278 
1839	-2.26231782651242 
1840	 0.237956583867981 
1841	 0.43954561768918 
1842	 0.18741166912071 
1843	 0.276093104678818 
1844	-12.404483566475 
1845	-1.79329507892038 
1846	 1.53138958166988 
1847	 1.72979142829394 
1848	-3.76990114915225 
1849	-0.239238304444658 
1850	-1.04048096474111 
1851	-2.95472028502988 
1852	-3.06078453657596 
1853	 34.0892699427812 
1854	 5.53688429362264 
1855	 1.21055127191029 
1856	 1.23676129264351 
1857	 0.235888146348778 
1858	 0.249932117816777 
1859	-7.10093681066863E-02 
1860	-0.178959527768473 
1861	 0.747268926060944 
1862	-0.409859385188366 
1863	-0.42896635949483 
1864	-0.323714365873867 
1865	-0.241272090606147 
1866	 0.511332050442434 
1867	 1.25415799772341 
1868	 2.18277490169525 
1869	 2.56018933625773 
1870	 0.422141047804338 
1871	 0.60342249667912 
1872	 7.07539888046435 
1873	-4.85925906336827 
1874	-2.53801529725479 
1875	-1.844410175681 
1876	-1.37994980889453 
1877	-1.16620737150067 
1878	-0.655353178435366 
1879	 0.575477838782153 
1880	 0.717989763140986 
1881	 0.523642378551927 
1882	 0.406190759937789 
1883	 0.172485779783401 
1884	-0.479114522562469 
1885	-1.30868572457614 
1886	 2.40944685395961 
1887	 4.52222964423805 
1888	 5.53054510447009 
1889	 6.49647290427623 
1890	 3.72694756631366 
1891	 2.9709109064445 
1892	 2.30286438867668 
1893	 2.31445264216197 
1894	 3.6233466781701 
1895	 4.71088107231681 
1896	 1691.12350341198 
1897	-1.99531053247494 
1898	-0.885031989374008 
1899	-1.76409732833278 
1900	-3.45271104650458 
1901	 7.13574389258417 
1902	 2.68700032259465 
1903	 1.04954778701606 
1904	 1.00368862340287 
1905	 4.58982648304842 
1906	 2.1838647484002 
1907	 1.14942163322502 
1908	 0.680727504721345 
1909	 0.356478180296487 
1910	 1.93056745643302 
1911	-5.42829784985059 
1912	-3.08226280956664 
1913	-0.855278637936238 
1914	-0.261171924120667 
1915	 0.145852590795445 
1916	 0.97045577156569 
1917	 0.284166702913327 
1918	-100.44513867912 
1919	 0.993833657269973 
1920	-1.02472836681791 
1921	-1.25555707137117 
1922	 3.564144711131 
1923	 0.904857262516461 
1924	 0.857203791796125 
1925	 0.997140332638372 
1926	 1.45596381543908 
1927	 0.737196804532751 
1928	 0.7029094610857 
1929	 1.01021874110037 
1930	-3.66201821947771 
1931	-0.694128854721189 
1932	-1.81452099253706 
1933	-0.401855438968181 
1934	-0.469015442469943 
1935	-0.175465266772346 
1936	 0.149923008232354 
1937	 0.216902661262679 
1938	 0.417773922419553 
1939	 0.416221712410693 
1940	 0.268121322926135 
1941	 0.188860995736283 
1942	 0.171300216039024 
1943	 0.114297938912809 
1944	 6.04290023089243E-02 
1945	-1.07700060395941E-02 
1946	-0.018893050662731 
1947	-1.11898436078538E-02 
1948	-1.52049259141058E-02 
1949	 2.32490659953069E-02 
1950	 4.66635504640824E-02 
1951	 1.48902615468519E-02 
1952	 7.14913660403419E-03 
1953	-9.17766309324026E-04 
1954	-3.04955430176872E-03 
1955	-2.49405996968897E-02 
1956	-2.19525969653212E-02 
1957	-2.18778904985666E-02 
1958	-3.01954049236423E-02 
1959	-2.25248037157335E-02 
1960	-1.13344604359675E-02 
1961	-3.03655730059906E-03 
1962	 1.68615846402507E-03 
1963	 4.95943411389001E-03 
1964	 7.62759408602413E-03 
1965	 8.80685417416014E-03 
1966	 1.12661018485891E-02 
1967	 1.48644374802159E-02 
1968	 1.65033753914289E-02 
1969	 1.55732902737626E-02 
1970	 1.48031697164811E-02 
1971	 1.19446236370304E-02 
1972	 1.07447275170625E-02 
1973	 1.29551804942209E-02 
1974	 1.52009625045224E-02 
1975	 1.47547653298897E-02 
1976	 1.38931562171154E-02 
1977	 1.30039826936008E-02 
1978	 1.09581572239595E-02 
1979	 1.09533256827451E-02 
1980	 1.26711050162054E-02 
1981	 1.43921074369515E-02 
1982	 1.48377923591051E-02 
1983	 1.55744778133682E-02 
1984	 1.49956536910844E-02 
1985	 0.013320122814516 
1986	 1.24018807804968E-02 
1987	 1.27389378346619E-02 
1988	 1.32649889664395E-02 
1989	 1.44589210737309E-02 
1990	 1.58996813731288E-02 
1991	 1.56712536935141E-02 
1992	 1.45009557807821E-02 
1993	 1.38765760283427E-02 
1994	 1.37515420217211E-02 
1995	 1.37349851722238E-02 
1996	 1.41520709919428E-02 
1997	 1.40498834873442E-02 
1998	 1.44615877500674E-02 
1999	 0.01445253057875 
2000	 1.25350544208428E-02 
2001	 1.43564537134667E-02 
2002	 1.54425769440327E-02 
2003	 1.23597355735737E-02 
2004	 9.86098535782444E-03 
2005	 5.64411428295503E-03 
2006	 3.82230737439186E-03 
2007	 8.19044209716624E-03 
2008	 1.23139589008458E-02 
2009	 1.39635829144379E-02 
2010	 1.56531762247392E-02 
2011	 0.015978685554059 
2012	 1.29737797892689E-02 
2013	 1.18737839455394E-02 
2014	 1.18736549098744E-02 
2015	 1.26904745335775E-02 
2016	 1.43093263697546E-02 
2017	 0.014406135360358 
2018	 1.41307538766145E-02 
2019	 0.014152224414166 
2020	 0.015534013548397 
2021	 1.68198271010025E-02 
2022	 1.73041247104062E-02 
2023	 0.018167432812125 
2024	 1.86264720440589E-02 
2025	 1.79334143643142E-02 
2026	 1.77078609268457E-02 
2027	 1.78626622833495E-02 
2028	 1.81321254311229E-02 
2029	 1.79108420001888E-02 
2030	 1.78817018565327E-02 
2031	 0.018416325368118 
2032	 1.88227894936035E-02 
2033	 1.89863934988836E-02 
2034	 0.019318183130056 
2035	 2.00487348799214E-02 
2036	 2.06591781368642E-02 
2037	 2.09896605159775E-02 
2038	 2.13562569381098E-02 
2039	 2.17099413748496E-02 
2040	 2.19308228547782E-02 
2041	 2.19635903498215E-02 
2042	 2.19235973277321E-02 
2043	 2.18745763190064E-02 
2044	 2.15125238447694E-02 
2045	 2.12740331913058E-02 
2046	 2.13168776610214E-02 
2047	 2.21036265281496E-02 
2048	 2.17678035133365E-02 
2049	 2.13435320814642E-02 
2050	 2.17613479103373E-02 
2051	 2.02355810923411E-02 
2052	 1.88420733413507E-02 
2053	 1.88561131889902E-02 
2054	 1.91619328512536E-02 
2055	 1.93225067244367E-02 
2056	 1.90832054411485E-02 
2057	 1.91962588291686E-02 
2058	 1.93321639381959E-02 
2059	 1.86515425960112E-02 
2060	 1.83597321308821E-02 
2061	 1.88631818453721E-02 
2062	 1.93535638064055E-02 
2063	 0.018323095033706 
2064	 1.78296825321599E-02 
2065	 1.82751406372788E-02 
2066	 1.72782428356359E-02 
2067	 1.68938321340168E-02 
2068	 1.75444563248973E-02 
2069	 1.78947286354269E-02 
2070	 0.019106524875867 
2071	 1.96209343081541E-02 
2072	 1.99385241255272E-02 
2073	 2.04147818136425E-02 
2074	 2.03332672828441E-02 
2075	 2.08509697847547E-02 
2076	 2.21616761863219E-02 
2077	 2.25361554183546E-02 
2078	 2.29687657525997E-02 
2079	 2.33882730790897E-02 
2080	 2.35291772642264E-02 
2081	 2.30391723690471E-02 
2082	 2.34692797485108E-02 
2083	 2.34791847892447E-02 
2084	 0.022296864896623 
2085	 2.20102340410043E-02 
2086	 2.17387917931105E-02 
2087	 2.11633499311173E-02 
2088	 2.23341472987416E-02 
2089	 2.33647858796202E-02 
2090	 2.33756201573335E-02 
2091	 2.32751478767556E-02 
2092	 2.32886608165075E-02 
2093	 0.022861853217967 
2094	 2.24276680647845E-02 
2095	 2.20813380208852E-02 
2096	 2.20641600201836E-02 
2097	 2.17663592559813E-02 
2098	 2.16363523505919E-02 
2099	 2.20082933796852E-02 
2100	 2.23290924343789E-02 
2101	 2.25668277404577E-02 
2102	 2.28595087434144E-02 
2103	 0.023033194992816 
2104	 2.33640212617701E-02 
2105	 2.34431261501968E-02 
2106	 2.37879651398609E-02 
2107	 2.41599249161982E-02 
2108	 2.43968097596836E-02 
2109	 0.024710847107751 
2110	 2.37482997170841E-02 
2111	 2.31346271957435E-02 
2112	 2.38159910739519E-02 
2113	 2.38466533764274E-02 
2114	 2.37192649071729E-02 
2115	 2.38613339095189E-02 
2116	 2.41909833380682E-02 
2117	 2.39244389090274E-02 
2118	 2.35631802833295E-02 
2119	 2.33183692743623E-02 
2120	 2.28019321319575E-02 
2121	 0.022021333550219 
2122	 2.19586780842629E-02 
2123	 2.21236973092574E-02 
2124	 2.20763421299718E-02 
2125	 2.23746014399998E-02 
2126	 0.023402084574376 
2127	 2.38288985047074E-02 
2128	 2.37777272852453E-02 
2129	 0.024188644339834 
2130	 2.40418766715119E-02 
2131	 2.35434967745776E-02 
2132	 2.31269064718125E-02 
2133	 2.29374371770407E-02 
2134	 2.33602489046664E-02 
2135	 2.41903725673169E-02 
2136	 2.47166057224562E-02 
2137	 2.60804978996174E-02 
2138	 2.64671275104866E-02 
2139	 2.59219177375682E-02 
2140	 2.57002449437143E-02 
2141	 2.53710594463678E-02 
2142	 2.51088543872484E-02 
2143	 2.47469261117584E-02 
2144	 2.43146112627428E-02 
2145	 2.45869168202829E-02 
2146	 2.49278080478023E-02 
2147	 2.49939145249043E-02 
2148	 0.02546643709251 
2149	 2.54621558117808E-02 
2150	 2.49887896354238E-02 
2151	 2.45441488451763E-02 
2152	 2.47050177959474E-02 
2153	 2.52628091627269E-02 
2154	 2.53813651957678E-02 
2155	 2.54363633594655E-02 
2156	 2.51505596487877E-02 
2157	 2.50857109926907E-02 
2158	 2.46908316107172E-02 
2159	 2.45320125825604E-02 
2160	 2.49540707039329E-02 
2161	 2.47924884943967E-02 
2162	 2.38002765330119E-02 
2163	 2.33497621649701E-02 
2164	 2.31681994646956E-02 
2165	 2.30480523874126E-02 
2166	 2.30300031430857E-02 
2167	 2.33046114074932E-02 
2168	 2.40074390584785E-02 
2169	 2.40154168436238E-02 
2170	 2.33606349105699E-02 
2171	 2.39819212860397E-02 
2172	 2.45790507185778E-02 
2173	 2.46570149365215E-02 
2174	 0.024650002163348 
2175	 2.32192130654777E-02 
2176	 2.12838361422677E-02 
2177	 2.09142714867458E-02 
2178	 2.15104777392315E-02 
2179	 2.29032433392881E-02 
2180	 2.41286366434164E-02 
2181	 2.42072557145519E-02 
2182	 2.43886122422065E-02 
2183	 2.35794853403768E-02 
2184	 2.25116331567805E-02 
2185	 2.21632157087008E-02 
2186	 2.20604339432547E-02 
2187	 2.22041119990105E-02 
2188	 2.31091663754688E-02 
2189	 0.024977378392715 
2190	 0.02553516239 
2191	 2.65861920532308E-02 
2192	 2.66161236643691E-02 
2193	 2.45803200460368E-02 
2194	 0.024342132173478 
2195	 2.44985701977413E-02 
2196	 0.024187792584821 
2197	 2.50336899830695E-02 
2198	 2.53929600988398E-02 
2199	 2.47328248991958E-02 
2200	 2.52978353805514E-02 
2201	 2.60250063121814E-02 
2202	 2.49991655072024E-02 
2203	 2.44123714228334E-02 
2204	 2.34175237266817E-02 
2205	 2.27686131238606E-02 
2206	 2.28101145176814E-02 
2207	 2.31138381949375E-02 
2208	 2.29789033482421E-02 
2209	 0.022316091407522 
2210	 2.16890415360655E-02 
2211	 2.17443834612846E-02 
2212	 2.20910211598333E-02 
2213	 2.12583826837873E-02 
2214	 2.19712321667551E-02 
2215	 2.32339487192259E-02 
2216	 2.30551848091488E-02 
2217	 2.35078397654653E-02 
2218	 2.48645398740727E-02 
2219	 2.48555093524857E-02 
2220	 0.023996129954053 
2221	 2.38709184599229E-02 
2222	 2.32835813631595E-02 
2223	 2.32704348309894E-02 
2224	 2.37196767565246E-02 
2225	 2.40338477908632E-02 
2226	 2.50473065326149E-02 
2227	 2.51214393123233E-02 
2228	 2.44314187804943E-02 
2229	 2.46170116753899E-02 
2230	 2.49634367562882E-02 
2231	 2.46333639171617E-02 
2232	 2.52255136530276E-02 
2233	 2.39921652649203E-02 
2234	 0.019855761639997 
2235	 1.83659068705826E-02 
2236	 1.93483825081746E-02 
2237	 2.00274151359825E-02 
2238	 2.33591070460867E-02 
2239	 2.47610887790182E-02 
2240	 2.36126313433267E-02 
2241	 2.54862831747531E-02 
2242	 2.56566668291661E-02 
2243	 2.52167964321075E-02 
2244	 0.026136910386112 
2245	 2.38122349607057E-02 
2246	 2.31137663376456E-02 
2247	 2.49428121262096E-02 
2248	 2.29075136975805E-02 
2249	 2.05501842357802E-02 
2250	 2.07743172122772E-02 
2251	 2.05880098672392E-02 
2252	 0.022793255502812 
2253	 0.02501275116938 
2254	 2.50983346109895E-02 
2255	 2.51014752430022E-02 
2256	 2.24409247143845E-02 
2257	 2.09907386085496E-02 
2258	 0.021206904346401 
2259	 1.99941285527549E-02 
2260	 2.02783068382539E-02 
2261	 2.29794203242344E-02 
2262	 2.41560759329355E-02 
2263	 2.48464725681136E-02 
2264	 2.58568577593612E-02 
2265	 0.026910010227266 
2266	 2.69299477652324E-02 
2267	 2.67141580951501E-02 
2268	 2.67109874592292E-02 
2269	 0.026638887810828 
2270	 0.025729388380274 
2271	 2.37565855146141E-02 
2272	 2.25467357441994E-02 
2273	 2.04088567960719E-02 
2274	 1.91103338650084E-02 
2275	 2.01055960162378E-02 
2276	 1.98673349688197E-02 
2277	 1.75105407659764E-02 
2278	 1.72618671876191E-02 
2279	 1.87898643057335E-02 
2280	 1.93446143704357E-02 
2281	 2.01369693292044E-02 
2282	 2.13303277537771E-02 
2283	 2.28071531972496E-02 
2284	 2.26451545191047E-02 
2285	 2.36759341860763E-02 
2286	 2.42519085444247E-02 
2287	 2.21573342412955E-02 
2288	 1.96224775186352E-02 
2289	 1.54680153177497E-02 
2290	 1.49647452118973E-02 
2291	 1.87110286949838E-02 
2292	 0.019377161485394 
2293	 1.92861089882524E-02 
2294	 1.94730798719966E-02 
2295	 1.97498577014293E-02 
2296	 2.05220901170802E-02 
2297	 2.08573951587623E-02 
2298	 2.41232987043989E-02 
2299	 2.47792662325684E-02 
2300	 2.06909430365174E-02 
2301	 1.97092577564699E-02 
2302	 2.03882612025542E-02 
2303	 2.04219900711497E-02 
2304	 2.07475565313077E-02 
2305	 1.98874555794437E-02 
2306	 1.84781895934632E-02 
2307	 1.60645043203116E-02 
2308	 1.42685615123782E-02 
2309	 1.77992035494417E-02 
2310	 2.27500134617412E-02 
2311	 2.50095487603508E-02 
2312	 2.66228479601208E-02 
2313	 0.025913682158478 
2314	 2.09947096233085E-02 
2315	 1.59880697169411E-02 
2316	 1.65112775912028E-02 
2317	 1.83604181218619E-02 
2318	 1.87658510508044E-02 
2319	 2.00858262459897E-02 
2320	 1.88616513806029E-02 
2321	 1.81856333817596E-02 
2322	 1.80480035519253E-02 
2323	 1.76615382181926E-02 
2324	 1.80078752213675E-02 
2325	 1.58345766719068E-02 
2326	 1.70843351105627E-02 
2327	 0.020634683201595 
2328	 0.022791096413785 
2329	 2.55034043468514E-02 
2330	 2.06781299979213E-02 
2331	 1.37582283117897E-02 
2332	 0.011037806407926 
2333	 6.03167389166887E-03 
2334	 8.09581783797329E-03 
2335	 1.48830965424105E-02 
2336	 1.47129387063155E-02 
2337	 1.55940243882797E-02 
2338	 1.92341775239872E-02 
2339	 1.91653321193197E-02 
2340	 2.23541317869103E-02 
2341	 2.95662804937947E-02 
2342	 3.00235357431426E-02 
2343	 2.31054232459572E-02 
2344	 1.52541893535008E-02 
2345	 1.28254727527343E-02 
2346	 1.42613129177031E-02 
2347	 2.11097347350391E-02 
2348	 2.66951813092007E-02 
2349	 2.17830198391235E-02 
2350	 2.03600828363615E-02 
2351	 2.72941660274689E-02 
2352	 3.53848064300051E-02 
2353	 3.55450565179375E-02 
2354	 3.24947370314543E-02 
2355	 2.78363029171038E-02 
2356	 1.58569202224274E-02 
2357	 1.70120454743021E-02 
2358	 2.30150285555578E-02 
2359	 1.03850051080017E-02 
2360	 2.32649863319414E-03 
2361	 8.87809082856533E-03 
2362	 8.54228164397381E-03 
2363	 1.10167566224923E-02 
2364	 2.52838490001137E-02 
2365	 3.05155290486336E-02 
2366	 0.027442125632458 
2367	 2.72613916905601E-02 
2368	 2.03798196149595E-02 
2369	 5.64723118215267E-03 
2370	 3.13806719449524E-03 
2371	 6.53048946363692E-03 
2372	-4.32586758887679E-03 
2373	-6.72176832951342E-03 
2374	-5.55606504224677E-04 
2375	-5.18830577260263E-03 
2376	-3.72148214020482E-03 
2377	 6.93288417999514E-03 
2378	 1.07536027482049E-02 
2379	 1.54638850937659E-02 
2380	 0.022099225306397 
2381	 8.70137688121643E-03 
2382	-2.47171962276847E-03 
2383	-1.92505990043977E-02 
2384	-5.18867294531637E-02 
2385	-4.40374239091035E-02 
2386	-3.38354115304259E-02 
2387	-1.36424883652109E-02 
2388	 2.74640763786499E-02 
2389	 3.30679716382858E-02 
2390	 2.51593753485192E-02 
2391	 4.5191302619267E-03 
2392	-1.60755040919845E-02 
2393	-1.72772808139497E-04 
2394	 2.16618191685041E-02 
2395	 2.38999081369859E-02 
2396	 3.24387260242165E-02 
2397	 3.28084271539497E-02 
2398	 5.7581925257925E-03 
2399	 2.50995720116401E-03 
2400	 2.68018519467088E-02 
2401	 0.047684143931189 
2402	 5.06867865905092E-02 
2403	 4.06570450830997E-02 
2404	 4.40287778783423E-02 
2405	 4.25709206749193E-02 
2406	 2.95542508909399E-02 
2407	 8.83110161704252E-03 
2408	-3.38500869584225E-02 
2409	-6.87931320495029E-02 
2410	-7.70452315608876E-02 
2411	-3.40229481429466E-02 
2412	 6.27592017909931E-02 
2413	 0.111446413301945 
2414	 4.61000061827262E-02 
2415	-5.64352873156992E-02 
2416	-0.128113712964476 
2417	-0.218691061931222 
2418	-0.190613324970714 
2419	-6.55201972505273E-02 
2420	-0.108031434678505 
2421	-0.157755577624441 
2422	-0.134127932756726 
2423	-0.188755337362246 
2424	-0.199890886364644 
2425	-9.62851660481797E-02 
2426	-3.90689502091715E-02 
2427	-2.64187192895682E-02 
2428	-4.40301022818486E-02 
2429	-8.83361641732425E-02 
2430	-0.158691819869597 
2431	-0.113384462412648 
2432	 8.79996878942239E-02 
2433	 0.168739315242801 
2434	 7.26678481654474E-02 
2435	 3.39625767853423E-02 
2436	-1.01029660800205E-02 
2437	-5.67916250667504E-02 
2438	 7.81544440807555E-02 
2439	 0.187464879303904 
2440	 0.118095076673999 
2441	 5.02879498255326E-02 
2442	 3.53726426082066E-02 
2443	-4.12526351450635E-02 
2444	-0.199427427812492 
2445	-0.256948605204249 
2446	-0.372745411808444 
2447	-0.213810185674505 
2448	-0.157655815823917 
2449	-0.301779761277663 
2450	-0.281592745857509 
2451	-0.511475849061077 
2452	-0.624944810030873 
2453	 0.609217870775911 
2454	 0.431994510680402 
2455	 0.331408171987636 
2456	 0.422209430159093 
2457	 0.164187912816464 
2458	 0.22331862079019 
2459	 0.630169019957117 
2460	 0.269916224643062 
2461	-2.04177015725778E-02 
2462	-4.55134287255727E-02 
2463	-0.172983890885553 
2464	-0.192795848562399 
2465	-0.28753150345225 
2466	-0.521455486708262 
2467	-1.20910778917577 
2468	-1.74575366929949 
2469	-1.15871046758904 
2470	-1.92852584387491 
2471	-1.88700985659322 
2472	-0.291590673487807 
2473	-0.395297320841351 
2474	 2.14720151295747 
2475	-0.778658847332093 
2476	 11.9280200311108 
2477	 0.774202527648695 
2478	 0.524226611490784 
2479	 0.254548443881915 
2480	-2.9229720150533 
2481	-2.87476638367792 
2482	-0.837369414132106 
2483	-0.775775570506334 
2484	 9.63872428279946E-02 
2485	 0.119280611679998 
2486	-2.02525476170347E-02 
2487	-0.167209191767874 
2488	 0.110773776553002 
2489	 0.117379636045065 
2490	-0.26693058268964 
2491	-0.196924140851609 
2492	-0.397755478710827 
2493	-0.382621581780641 
2494	 0.105988997006008 
2495	-0.624934166927674 
2496	-2.78972842854481 
2497	-9.74587327061743 
2498	-1.12937084638045 
2499	 5.06790663014916 
2500	 0.340105109262752 
