Wavelength	rt0713east_far00002.asd
350	 7.45086263898808E-02 
351	 7.51629876271637E-02 
352	 7.51854256563562E-02 
353	 7.48104897797461E-02 
354	 7.44470573844642E-02 
355	 7.44816872062134E-02 
356	 7.40787562005719E-02 
357	 7.39314640748729E-02 
358	 7.46491856820533E-02 
359	 7.44622711814126E-02 
360	 7.41850684520288E-02 
361	 7.39207421211347E-02 
362	 7.33422006608579E-02 
363	 7.35655228031045E-02 
364	 7.37259971756016E-02 
365	 7.35127099013306E-02 
366	 7.38230230004865E-02 
367	 7.36156964712184E-02 
368	 7.36381357410531E-02 
369	 7.44839475111785E-02 
370	 7.45697094426349E-02 
371	 7.44846975163305E-02 
372	 7.44723916575098E-02 
373	 7.44964452585119E-02 
374	 7.39540124791339E-02 
375	 7.39277687044758E-02 
376	 7.45439060237041E-02 
377	 7.44343601472509E-02 
378	 7.46636845035566E-02 
379	 7.50095462277435E-02 
380	 7.50591118149505E-02 
381	 7.47092548187286E-02 
382	 7.47922187083499E-02 
383	 7.52370516501993E-02 
384	 7.55095831184553E-02 
385	 7.53278555055203E-02 
386	 7.59506995363767E-02 
387	 7.68901922047373E-02 
388	 7.57999010274745E-02 
389	 7.63079808685653E-02 
390	 7.67317112225202E-02 
391	 7.59043182489898E-02 
392	 0.07647984495571 
393	 7.69657331122702E-02 
394	 0.077137354838619 
395	 7.72173744564041E-02 
396	 7.70472868149688E-02 
397	 7.70161718132381E-02 
398	 7.71815775336045E-02 
399	 7.73118387636151E-02 
400	 7.77142245562892E-02 
401	 0.077992507809886 
402	 7.79342892121901E-02 
403	 7.79168711753863E-02 
404	 7.79500720400802E-02 
405	 0.078106670903195 
406	 7.83929856274339E-02 
407	 0.07837982821634 
408	 7.85015082094507E-02 
409	 7.87914252944638E-02 
410	 7.88616424771593E-02 
411	 7.89873840360068E-02 
412	 7.91327524030901E-02 
413	 7.92654946644467E-02 
414	 7.95052680772036E-02 
415	 7.97015248064355E-02 
416	 7.99031800563908E-02 
417	 8.01895595919041E-02 
418	 8.02770248869152E-02 
419	 8.04621075167426E-02 
420	 8.08131475765777E-02 
421	 8.11154718580191E-02 
422	 8.13625572547795E-02 
423	 0.081568297457666 
424	 8.17771375466993E-02 
425	 0.082083128708235 
426	 8.24673611046679E-02 
427	 8.29001744392082E-02 
428	 8.33222101188061E-02 
429	 8.35343702596886E-02 
430	 8.38992046780929E-02 
431	 8.43889404578378E-02 
432	 8.44760106505101E-02 
433	 8.49434454664792E-02 
434	 8.55130589767123E-02 
435	 8.58480660843906E-02 
436	 8.61576241381721E-02 
437	 8.64846515819024E-02 
438	 8.68838821492746E-02 
439	 8.73783812556005E-02 
440	 8.77265629310532E-02 
441	 8.80651225741421E-02 
442	 8.84530771432019E-02 
443	 8.87744067049205E-02 
444	 0.089036342925692 
445	 8.93998416482171E-02 
446	 8.99398538761794E-02 
447	 9.02371593689711E-02 
448	 9.06150889564458E-02 
449	 9.10370015726193E-02 
450	 9.12287319901347E-02 
451	 9.15802671128082E-02 
452	 9.18340803722041E-02 
453	 9.19128587190432E-02 
454	 9.22914018866434E-02 
455	 0.092772917839564 
456	 9.30935335514236E-02 
457	 9.30957661566901E-02 
458	 9.33365061759653E-02 
459	 9.36461508729687E-02 
460	 9.39129788012425E-02 
461	 9.41250739979222E-02 
462	 0.094356411171324 
463	 9.46034995829573E-02 
464	 9.48461256120173E-02 
465	 9.50610508105653E-02 
466	 9.53141212687215E-02 
467	 0.095517096185422 
468	 9.55731478095655E-02 
469	 0.09590509569271 
470	 9.62646859235178E-02 
471	 9.65095276947947E-02 
472	 9.67252300569483E-02 
473	 9.67723259253181E-02 
474	 9.69784284935966E-02 
475	 0.09753390493343 
476	 9.77288454665832E-02 
477	 9.78647005397237E-02 
478	 9.81308101069297E-02 
479	 9.85943789131449E-02 
480	 9.89572238799212E-02 
481	 9.92130981291718E-02 
482	 9.94507796136266E-02 
483	 9.98638001002769E-02 
484	 0.100268517919317 
485	 0.100630466900551 
486	 0.100981054216655 
487	 0.101373535529423 
488	 0.10180975986597 
489	 0.102262436760109 
490	 0.102679337404972 
491	 0.102888445299676 
492	 0.103221030881682 
493	 0.103831357851213 
494	 0.104116878642206 
495	 0.104542652710673 
496	 0.105092542511687 
497	 0.105525182918532 
498	 0.105885888395321 
499	 0.106371981728906 
500	 0.106983355930829 
501	 0.107396193026685 
502	 0.107846072343434 
503	 0.108328546979945 
504	 0.10880231614291 
505	 0.109359989315267 
506	 0.109885931715995 
507	 0.110389329796071 
508	 0.110972620657461 
509	 0.11152279438317 
510	 0.11201204673402 
511	 0.112478885039525 
512	 0.113087706890797 
513	 0.113707215905452 
514	 0.114296047647563 
515	 0.114860939860274 
516	 0.115502888278963 
517	 0.11614283521834 
518	 0.116718073811407 
519	 0.117211301519674 
520	 0.117915753111453 
521	 0.11861033237003 
522	 0.119106225277411 
523	 0.119743126332366 
524	 0.120366447688063 
525	 0.120979456606102 
526	 0.121686975525613 
527	 0.122339385269463 
528	 0.122973907539656 
529	 0.12364734521601 
530	 0.124423721012131 
531	 0.125091928713244 
532	 0.125694264554633 
533	 0.126346692780097 
534	 0.126965190109709 
535	 0.127565182471087 
536	 0.128233942587474 
537	 0.129123374520138 
538	 0.12975345457765 
539	 0.130347993299155 
540	 0.131132847061156 
541	 0.131740107701161 
542	 0.132355987234637 
543	 0.133055452455003 
544	 0.133823958095749 
545	 0.134468941836404 
546	 0.135146516814286 
547	 0.13592088955398 
548	 0.136599985035687 
549	 0.137183772640405 
550	 0.137799511634651 
551	 0.138573180073326 
552	 0.139316705396425 
553	 0.13997265647848 
554	 0.140566458871202 
555	 0.14120162908205 
556	 0.141874975924297 
557	 0.142529579469638 
558	 0.143136827604688 
559	 0.143859217589399 
560	 0.144375752882168 
561	 0.144797755010939 
562	 0.145465553586809 
563	 0.14600981694204 
564	 0.14650661849208 
565	 0.146990994537106 
566	 0.147289807494448 
567	 0.147711524117563 
568	 0.148188034473209 
569	 0.148557287660677 
570	 0.149013821135986 
571	 0.149464228108283 
572	 0.149857895981858 
573	 0.150206416678256 
574	 0.150457302755574 
575	 0.150732297709314 
576	 0.15111013411183 
577	 0.151419822772249 
578	 0.151627278659481 
579	 0.151832809098601 
580	 0.152186107396218 
581	 0.15241401000904 
582	 0.152660420497088 
583	 0.152920900571549 
584	 0.152802864366034 
585	 0.152775056871254 
586	 0.15269165681557 
587	 0.152300703626967 
588	 0.15217101942637 
589	 0.152037431486222 
590	 0.151864331224248 
591	 0.151895628723595 
592	 0.151883622062128 
593	 0.151742205672489 
594	 0.151490594935646 
595	 0.151334952766199 
596	 0.151259256368576 
597	 0.151139380475914 
598	 0.150825017075358 
599	 0.150551556438399 
600	 0.150358979181616 
601	 0.150217055167796 
602	 0.150020170663744 
603	 0.149800238515277 
604	 0.149749633939014 
605	 0.14996911224152 
606	 0.149795508858493 
607	 0.149848792280988 
608	 0.150138469402158 
609	 0.150008176907091 
610	 0.149965981285271 
611	 0.150027227706864 
612	 0.150107702047259 
613	 0.150141742040501 
614	 0.150196005624266 
615	 0.150233392021599 
616	 0.150191305353549 
617	 0.150330101590873 
618	 0.15046217763496 
619	 0.150481017453021 
620	 0.150481994015732 
621	 0.150507962391226 
622	 0.150528383283072 
623	 0.150520195242168 
624	 0.150653557343283 
625	 0.150670150615361 
626	 0.150562478362685 
627	 0.150572089607154 
628	 0.15066250075299 
629	 0.150759466626001 
630	 0.150816903462127 
631	 0.150899495431023 
632	 0.150874513137418 
633	 0.150834598895423 
634	 0.150942367300908 
635	 0.150980554629552 
636	 0.151007116805952 
637	 0.151080910978339 
638	 0.151227159963069 
639	 0.15135148803096 
640	 0.151328887045705 
641	 0.151134010754095 
642	 0.151157560389033 
643	 0.151041220797149 
644	 0.150725363017562 
645	 0.150409209772393 
646	 0.150099226605161 
647	 0.1499078390932 
648	 0.149893322832042 
649	 0.149993178097211 
650	 0.149849476671316 
651	 0.149561524870563 
652	 0.149376430591666 
653	 0.149099274110125 
654	 0.148718498348274 
655	 0.14826617967355 
656	 0.147878639317199 
657	 0.147514097032512 
658	 0.147177554391128 
659	 0.146877535027821 
660	 0.146650861157642 
661	 0.146378786461908 
662	 0.14607938851927 
663	 0.145847413437018 
664	 0.145515855498993 
665	 0.145363850478531 
666	 0.145405659471883 
667	 0.145085592296792 
668	 0.144849036784842 
669	 0.144796504517114 
670	 0.144857751027804 
671	 0.144695570771189 
672	 0.144706923469106 
673	 0.144889352094242 
674	 0.144858002925021 
675	 0.144874292928301 
676	 0.144943486706112 
677	 0.145049367735945 
678	 0.145241731209833 
679	 0.145500152386896 
680	 0.145754190180929 
681	 0.145921094740239 
682	 0.145993659672383 
683	 0.146192408751285 
684	 0.14645366267612 
685	 0.146311380117916 
686	 0.146067817186121 
687	 0.14598766305922 
688	 0.146183155139583 
689	 0.146377267417918 
690	 0.146418057833615 
691	 0.146216968292382 
692	 0.145757637285661 
693	 0.145412985823949 
694	 0.145432887677993 
695	 0.14568941321514 
696	 0.145615794150171 
697	 0.145299346388984 
698	 0.144711936257283 
699	 0.143955795741837 
700	 0.143615615275207 
701	 0.143340131283277 
702	 0.142987328714035 
703	 0.142605061780334 
704	 0.141949014578848 
705	 0.141320187255649 
706	 0.140839054212519 
707	 0.139999545067415 
708	 0.139141700065887 
709	 0.138248013676374 
710	 0.137214613983941 
711	 0.136195763769812 
712	 0.135089322900558 
713	 0.133768325957573 
714	 0.132051821308656 
715	 0.130093048427851 
716	 0.127807360542379 
717	 0.125450897405553 
718	 0.123607722922392 
719	 0.122370924718259 
720	 0.121507833844404 
721	 0.120482427280652 
722	 0.118860100700422 
723	 0.116632672069775 
724	 0.114413122290579 
725	 0.112891841898308 
726	 0.111183157892226 
727	 0.109295086066864 
728	 0.107352374147677 
729	 0.105065927430009 
730	 0.103002312946489 
731	 0.101321427158679 
732	 0.09979321676389 
733	 0.098336161696207 
734	 9.68589071445922E-02 
735	 9.54889531092097E-02 
736	 9.46163016280003E-02 
737	 9.41900996818321E-02 
738	 9.38400228418199E-02 
739	 9.33489807838174E-02 
740	 9.31453925410958E-02 
741	 9.30723447241049E-02 
742	 9.29880411441917E-02 
743	 9.28024029552404E-02 
744	 9.27784559938202E-02 
745	 0.092762875890988 
746	 9.27048117107656E-02 
747	 9.27452360428772E-02 
748	 9.26886776753065E-02 
749	 9.26011656232846E-02 
750	 9.26015651006881E-02 
751	 9.27982505884155E-02 
752	 9.25477415234909E-02 
753	 9.22141775943377E-02 
754	 0.09255347823965 
755	 9.25621925948176E-02 
756	 0.092475106862263 
757	 9.23732185279741E-02 
758	 9.18190689090735E-02 
759	 9.11355110565386E-02 
760	 0.090634564484294 
761	 9.06506699111236E-02 
762	 9.07189426164533E-02 
763	 9.11358112756364E-02 
764	 9.16626664011896E-02 
765	 9.20444473181375E-02 
766	 0.092649752364304 
767	 9.29205652351735E-02 
768	 9.29436061998554E-02 
769	 9.33828318405544E-02 
770	 9.35234581295697E-02 
771	 9.35717482515103E-02 
772	 9.37741920628618E-02 
773	 9.39568864645084E-02 
774	 9.43086201777087E-02 
775	 9.46423702812159E-02 
776	 9.47014095702849E-02 
777	 9.48145238195666E-02 
778	 0.095136589814354 
779	 9.56081842000719E-02 
780	 0.095974665853574 
781	 9.62472310368173E-02 
782	 9.64849008643077E-02 
783	 9.67658318763322E-02 
784	 0.097211528127768 
785	 9.73148753938604E-02 
786	 0.097416807613572 
787	 9.79753222270947E-02 
788	 9.82444446517799E-02 
789	 9.84884127484564E-02 
790	 9.89552639944009E-02 
791	 9.97643450988119E-02 
792	 0.100335121775044 
793	 0.100647678514326 
794	 0.100830700361691 
795	 0.101084663090052 
796	 0.101458659670302 
797	 0.101879396133918 
798	 0.102255143113517 
799	 0.102538202816345 
800	 0.102647177774311 
801	 0.102850823980124 
802	 0.103468734712418 
803	 0.103686772038512 
804	 0.103806576132822 
805	 0.104029272180149 
806	 0.104313525822279 
807	 0.104147041705908 
808	 0.103763976850167 
809	 0.103465034299046 
810	 0.103319026688968 
811	 0.102824471614888 
812	 0.10192198906625 
813	 0.100900885030013 
814	 0.100608102244343 
815	 0.100094275619095 
816	 0.099378086175651 
817	 9.92498410328513E-02 
818	 9.89534747012813E-02 
819	 9.85468295341802E-02 
820	 9.79525902881932E-02 
821	 9.68165048582982E-02 
822	 9.57731171929855E-02 
823	 9.45033326915355E-02 
824	 9.29031908105045E-02 
825	 9.17937228052437E-02 
826	 8.99222669250303E-02 
827	 8.78510572105585E-02 
828	 8.67113360692671E-02 
829	 8.53781428103385E-02 
830	 8.36753565698633E-02 
831	 8.20830291055788E-02 
832	 0.081404320331154 
833	 0.080678059673343 
834	 7.99340423547134E-02 
835	 7.92308366234571E-02 
836	 7.85212798227984E-02 
837	 7.83160479578859E-02 
838	 7.82774967372427E-02 
839	 7.80080861546493E-02 
840	 7.73990758401822E-02 
841	 7.71667003015779E-02 
842	 7.71020843645243E-02 
843	 7.67580607044285E-02 
844	 0.076401552520105 
845	 7.58093905224467E-02 
846	 7.54112314239386E-02 
847	 7.58547483198439E-02 
848	 7.55412587761125E-02 
849	 7.49588355481892E-02 
850	 7.46416774415946E-02 
851	 7.47882170335237E-02 
852	 7.43266225762179E-02 
853	 7.40365033400967E-02 
854	 7.42398396811803E-02 
855	 7.34358337848635E-02 
856	 7.32234723438172E-02 
857	 7.32641982768608E-02 
858	 7.29701156808327E-02 
859	 7.29155788349041E-02 
860	 7.27234782724201E-02 
861	 7.24307471027967E-02 
862	 7.22385435668522E-02 
863	 7.19119629484444E-02 
864	 7.18306385140253E-02 
865	 7.17036187061829E-02 
866	 7.08250884784467E-02 
867	 7.10926008366045E-02 
868	 7.09849110626991E-02 
869	 7.01440248576955E-02 
870	 0.070249352742954 
871	 6.99935152169866E-02 
872	 6.96106634603757E-02 
873	 6.93561816672458E-02 
874	 6.87805240423094E-02 
875	 6.84514461146483E-02 
876	 6.81732015755996E-02 
877	 6.76805714506874E-02 
878	 6.73778781235798E-02 
879	 0.067060678977385 
880	 6.68444726083495E-02 
881	 6.68292112700709E-02 
882	 6.61946897162983E-02 
883	 6.56187680393851E-02 
884	 6.53374931123458E-02 
885	 6.51643602132148E-02 
886	 6.49976886019157E-02 
887	 6.47149929839238E-02 
888	 6.43097222163969E-02 
889	 6.38957456284039E-02 
890	 6.33849677862787E-02 
891	 6.31656143437342E-02 
892	 6.32742743184965E-02 
893	 0.062903876582197 
894	 6.18385538859914E-02 
895	 6.06311778386871E-02 
896	 6.00229873907733E-02 
897	 6.02626416623469E-02 
898	 5.96834171780611E-02 
899	 5.93543077357168E-02 
900	 6.01279116178693E-02 
901	 5.85367730877153E-02 
902	 5.86882906033846E-02 
903	 5.96159562204595E-02 
904	 5.89031263665296E-02 
905	 5.69383156523195E-02 
906	 5.75077452409002E-02 
907	 5.91058841304966E-02 
908	 0.057011534852794 
909	 5.65650191964065E-02 
910	 5.63485465240551E-02 
911	 5.63123958814588E-02 
912	 5.77634240118872E-02 
913	 5.75345126527027E-02 
914	 5.52212896969222E-02 
915	 5.29528180663113E-02 
916	 5.42996371865445E-02 
917	 5.39932252187862E-02 
918	 5.32464935638396E-02 
919	 5.27610362738662E-02 
920	 5.14162349966981E-02 
921	 5.18182278701361E-02 
922	 5.18326361721833E-02 
923	 5.03181990671673E-02 
924	 5.02174628681711E-02 
925	 5.03472239956941E-02 
926	 5.06509029632265E-02 
927	 5.06544198337827E-02 
928	 4.69383609818319E-02 
929	 4.68319967275224E-02 
930	 4.84226696293812E-02 
931	 4.46957949475747E-02 
932	 4.43966996594054E-02 
933	 4.95458626704389E-02 
934	 4.96542070946236E-02 
935	 3.84466916209179E-02 
936	 4.43395367737945E-02 
937	 5.17317528736874E-02 
938	 5.17744107396142E-02 
939	 4.31895539157919E-02 
940	 3.80036825543816E-02 
941	 4.11078066223912E-02 
942	 4.45925943785645E-02 
943	 3.79424214583232E-02 
944	 3.93262158321745E-02 
945	 3.70629030592433E-02 
946	 3.27366388777138E-02 
947	 3.51704188681787E-02 
948	 4.09672900174468E-02 
949	 3.55088177418443E-02 
950	 2.97724046227094E-02 
951	 4.21854487580803E-02 
952	 3.57952559762603E-02 
953	 3.66852332953879E-02 
954	 0.043036937710574 
955	 3.61140469362225E-02 
956	 3.60828986866799E-02 
957	 3.60851843705929E-02 
958	 3.49807716648199E-02 
959	 3.60783976100556E-02 
960	 3.43308101636724E-02 
961	 3.65757064606197E-02 
962	 4.09620524914488E-02 
963	 4.04529937276388E-02 
964	 3.58746438038664E-02 
965	 3.65176876686249E-02 
966	 4.16033770280507E-02 
967	 4.36301813754467E-02 
968	 4.12911741099354E-02 
969	 3.86047410559899E-02 
970	 3.84806128939972E-02 
971	 0.041606841259548 
972	 4.29400629196874E-02 
973	 0.039260144657992 
974	 3.62318756025076E-02 
975	 4.39893212824389E-02 
976	 3.86662776079307E-02 
977	 0.036586227032629 
978	 4.03519283735621E-02 
979	 3.86397349562915E-02 
980	 4.04970849132834E-02 
981	 0.041643443485155 
982	 4.08747291486409E-02 
983	 4.04421110022733E-02 
984	 4.13412969922611E-02 
985	 4.11268554254868E-02 
986	 3.93445519168686E-02 
987	 3.79315761839338E-02 
988	 4.21267097658895E-02 
989	 4.31287865270654E-02 
990	 4.01514457062664E-02 
991	 3.89714988519919E-02 
992	 3.85712644112507E-02 
993	 0.040888168685802 
994	 4.23745681416974E-02 
995	 3.80613359009589E-02 
996	 3.72786315280557E-02 
997	 4.14672001643548E-02 
998	 4.31903025865584E-02 
999	 3.54229209851915E-02 
1000	 4.04095527806549E-02 
1001	 3.63952586757117E-02 
1002	 3.65950446553326E-02 
1003	 3.69285085306077E-02 
1004	 3.69925880746564E-02 
1005	 3.71367332739377E-02 
1006	 3.74338409805553E-02 
1007	 3.79881536777471E-02 
1008	 3.81700392153697E-02 
1009	 3.88639903759523E-02 
1010	 3.94503980859569E-02 
1011	 3.93078275241798E-02 
1012	 3.92749690704132E-02 
1013	 3.89985337869455E-02 
1014	 3.87236801816629E-02 
1015	 3.81789710175927E-02 
1016	 3.82162884844464E-02 
1017	 3.85227854472973E-02 
1018	 3.84965839771301E-02 
1019	 3.88059192372181E-02 
1020	 3.88076273164858E-02 
1021	 3.83657047250364E-02 
1022	 3.79647240127152E-02 
1023	 3.81301663333512E-02 
1024	 3.80783204823549E-02 
1025	 3.81382739886049E-02 
1026	 0.038746777770403 
1027	 3.91896516481391E-02 
1028	 3.99280243121558E-02 
1029	 4.00203565912348E-02 
1030	 3.96857455721133E-02 
1031	 3.98053684725042E-02 
1032	 3.98778372286154E-02 
1033	 3.98869347391322E-02 
1034	 4.03427082435309E-02 
1035	 4.04181416515807E-02 
1036	 3.95881822273169E-02 
1037	 0.039511810252714 
1038	 4.00250470768587E-02 
1039	 4.01688098898417E-02 
1040	 4.03832819451998E-02 
1041	 4.11973290358417E-02 
1042	 0.041253010090708 
1043	 4.08123870530305E-02 
1044	 4.06896922000633E-02 
1045	 4.02882083190254E-02 
1046	 4.03679874062593E-02 
1047	 4.07492627525813E-02 
1048	 0.041036929448218 
1049	 4.15709363231727E-02 
1050	 4.19972632179708E-02 
1051	 0.042859927677622 
1052	 4.28418443695826E-02 
1053	 4.18943457193143E-02 
1054	 4.16675251489572E-02 
1055	 4.09749355996124E-02 
1056	 4.07082120978115E-02 
1057	 4.08471957753797E-02 
1058	 0.041936575565536 
1059	 4.23865311314443E-02 
1060	 4.26914265363137E-02 
1061	 4.31597852641038E-02 
1062	 4.40413100464919E-02 
1063	 4.41058854622932E-02 
1064	 4.37950623267221E-02 
1065	 4.35333789619397E-02 
1066	 4.23122074135873E-02 
1067	 4.20788368415035E-02 
1068	 4.25836523517644E-02 
1069	 0.04279894756015 
1070	 4.36942403342512E-02 
1071	 4.38792919440823E-02 
1072	 4.37449125184326E-02 
1073	 4.29437757750926E-02 
1074	 4.28217542604114E-02 
1075	 4.25973235149748E-02 
1076	 4.24639614498042E-02 
1077	 4.28812157359702E-02 
1078	 4.27216310286156E-02 
1079	 0.042078431718869 
1080	 4.16561344257024E-02 
1081	 4.09159985008732E-02 
1082	 4.07179746656374E-02 
1083	 4.08781519212832E-02 
1084	 4.10022724126421E-02 
1085	 0.04190012488861 
1086	 4.19559808161786E-02 
1087	 4.13519353056494E-02 
1088	 4.08835971577563E-02 
1089	 3.96548104346689E-02 
1090	 0.039108164854069 
1091	 0.038815716942503 
1092	 3.89071189726005E-02 
1093	 3.90728014113301E-02 
1094	 0.039852542943047 
1095	 3.98360024560798E-02 
1096	 0.039374632339759 
1097	 3.92393024915735E-02 
1098	 3.92861162387931E-02 
1099	 3.89516208402519E-02 
1100	 3.80396433170169E-02 
1101	 3.80481512772852E-02 
1102	 3.82956616084574E-02 
1103	 3.78963374278777E-02 
1104	 3.71391182365873E-02 
1105	 3.86743626661502E-02 
1106	 3.81841649349411E-02 
1107	 3.70359690254713E-02 
1108	 3.70198339425565E-02 
1109	 3.64979752705089E-02 
1110	 3.64799674496276E-02 
1111	 3.73121565463835E-02 
1112	 3.68565015011815E-02 
1113	 3.54230568111353E-02 
1114	 3.48210478545121E-02 
1115	 0.032982989842617 
1116	 3.19472863173997E-02 
1117	 3.33624416130458E-02 
1118	 3.38839540458474E-02 
1119	 3.49759725443273E-02 
1120	 3.37917264301603E-02 
1121	 2.99563566539409E-02 
1122	 2.66165335315724E-02 
1123	 2.00561878500397E-02 
1124	 1.44930969540671E-02 
1125	 1.73022397520973E-02 
1126	 3.24822097632198E-02 
1127	 4.66114587721158E-02 
1128	 4.39418553192457E-02 
1129	 4.14072730556018E-02 
1130	 3.13763848298616E-02 
1131	 2.71695246522484E-02 
1132	 2.25208563119997E-02 
1133	 2.43778169797203E-02 
1134	 3.09738098861612E-02 
1135	 3.11128473885449E-02 
1136	 3.02228287837432E-02 
1137	 2.82515358287925E-02 
1138	 2.10238582429849E-02 
1139	 2.14997493460319E-02 
1140	 2.29527895986543E-02 
1141	 2.81269580076011E-02 
1142	 3.81784166079632E-02 
1143	 3.66805733529243E-02 
1144	 2.75518940344174E-02 
1145	 2.43635401154646E-02 
1146	 2.09455820287798E-02 
1147	 2.06855571040841E-02 
1148	 2.90125668935506E-02 
1149	 3.08751923170936E-02 
1150	 3.13210461099768E-02 
1151	 3.06968319417448E-02 
1152	 3.03648689032387E-02 
1153	 2.63873139008221E-02 
1154	 2.64855206438292E-02 
1155	 2.87971501302104E-02 
1156	 2.84784304362639E-02 
1157	 2.76738390244913E-02 
1158	 3.10879201938243E-02 
1159	 3.41366095268258E-02 
1160	 3.32914684298545E-02 
1161	 3.26777734625079E-02 
1162	 3.35150450824181E-02 
1163	 3.27256352955239E-02 
1164	 3.27525027597808E-02 
1165	 0.034459376276252 
1166	 3.43509203061556E-02 
1167	 0.034358403652265 
1168	 3.55781279712112E-02 
1169	 3.50701397652112E-02 
1170	 3.41050955865573E-02 
1171	 3.41822978935888E-02 
1172	 3.46517472722373E-02 
1173	 3.46055745633595E-02 
1174	 3.49159098092958E-02 
1175	 3.52351247075743E-02 
1176	 3.44424910082188E-02 
1177	 3.34455714372082E-02 
1178	 3.34928318316918E-02 
1179	 3.42436433216654E-02 
1180	 3.44010987506783E-02 
1181	 3.36977409229041E-02 
1182	 3.32999939927627E-02 
1183	 3.35232507501476E-02 
1184	 3.39585367369448E-02 
1185	 3.47121352158584E-02 
1186	 3.48596690244484E-02 
1187	 3.44322213045275E-02 
1188	 3.47550649830066E-02 
1189	 3.48991219780743E-02 
1190	 0.034332175413491 
1191	 0.034496142715221 
1192	 3.47108250854824E-02 
1193	 0.034901613988081 
1194	 3.48259672813912E-02 
1195	 3.53061380500023E-02 
1196	 3.51830564777021E-02 
1197	 3.42413051751314E-02 
1198	 3.44141343693902E-02 
1199	 0.035076635458279 
1200	 3.50585431966854E-02 
1201	 3.55003994478865E-02 
1202	 3.58249614243741E-02 
1203	 3.47465997010214E-02 
1204	 3.43838785549014E-02 
1205	 3.51119859452645E-02 
1206	 0.03467283816355 
1207	 3.44390175462037E-02 
1208	 3.48464327927871E-02 
1209	 3.41213182219043E-02 
1210	 3.39018345525404E-02 
1211	 3.46394972254553E-02 
1212	 3.45089115222356E-02 
1213	 3.46501063398051E-02 
1214	 3.48675483236827E-02 
1215	 3.52375666988699E-02 
1216	 3.47728403064255E-02 
1217	 3.47878208268856E-02 
1218	 3.52999152101414E-02 
1219	 3.54761428908381E-02 
1220	 3.52415193595153E-02 
1221	 3.50246503989421E-02 
1222	 3.53454302106587E-02 
1223	 3.56900796953183E-02 
1224	 3.59148980308263E-02 
1225	 3.62545148520455E-02 
1226	 3.58223707141888E-02 
1227	 0.034824975357672 
1228	 3.49030959901605E-02 
1229	 3.56509922592066E-02 
1230	 0.035635618927234 
1231	 3.52759136029433E-02 
1232	 3.51902757822716E-02 
1233	 3.50516436515393E-02 
1234	 0.03506682924956 
1235	 3.51359911558606E-02 
1236	 3.55236272456136E-02 
1237	 0.035361247282931 
1238	 3.47923120911848E-02 
1239	 3.47005285233398E-02 
1240	 3.49386477062217E-02 
1241	 3.47554662904867E-02 
1242	 3.48535419486126E-02 
1243	 3.54765556950264E-02 
1244	 0.035677111470742 
1245	 3.56913468142567E-02 
1246	 3.59996079996448E-02 
1247	 3.62091313883901E-02 
1248	 3.60139029069911E-02 
1249	 3.58702913020859E-02 
1250	 0.035737980218482 
1251	 3.52494416018169E-02 
1252	 3.49128577658327E-02 
1253	 3.49109560705676E-02 
1254	 3.48547028571561E-02 
1255	 3.47733160232276E-02 
1256	 3.49325705692129E-02 
1257	 3.53944334543504E-02 
1258	 3.50972541838372E-02 
1259	 3.43265935992743E-02 
1260	 0.034539157265543 
1261	 3.48147286211936E-02 
1262	 3.47818241455493E-02 
1263	 3.53827263770064E-02 
1264	 3.58909179858592E-02 
1265	 3.54357823995069E-02 
1266	 3.45834194853978E-02 
1267	 3.46124008326858E-02 
1268	 3.52363576645171E-02 
1269	 3.48714390892229E-02 
1270	 3.45865439925854E-02 
1271	 3.51206066893526E-02 
1272	 0.034909394011351 
1273	 3.43603895606204E-02 
1274	 3.45140407901298E-02 
1275	 3.42875592779526E-02 
1276	 3.36844980458558E-02 
1277	 0.034023575968985 
1278	 3.45059515753425E-02 
1279	 3.46969239114498E-02 
1280	 3.49945374777987E-02 
1281	 3.50088549732773E-02 
1282	 3.46231202653839E-02 
1283	 3.44584029195171E-02 
1284	 3.41266820280668E-02 
1285	 3.40981220472336E-02 
1286	 0.034396607699304 
1287	 3.44373653047556E-02 
1288	 3.44573274920804E-02 
1289	 3.44895701929473E-02 
1290	 3.44553130065173E-02 
1291	 0.034350168419362 
1292	 3.40015552056304E-02 
1293	 3.41168847411218E-02 
1294	 3.43710877924231E-02 
1295	 3.44539186524455E-02 
1296	 3.48667073388427E-02 
1297	 3.49939810382829E-02 
1298	 3.40840124409335E-02 
1299	 3.32440048138279E-02 
1300	 3.32505084088057E-02 
1301	 3.33011768137626E-02 
1302	 3.33809004542816E-02 
1303	 3.35897576917378E-02 
1304	 3.37438388589906E-02 
1305	 3.35229478828984E-02 
1306	 0.03306491083355 
1307	 3.27317658436153E-02 
1308	 3.25520214056754E-02 
1309	 3.14932827634856E-02 
1310	 3.13048816939751E-02 
1311	 0.032424459314191 
1312	 3.27846681537229E-02 
1313	 3.29960520634188E-02 
1314	 3.29370912162755E-02 
1315	 3.23478967956946E-02 
1316	 3.19367104103087E-02 
1317	 3.14156273597973E-02 
1318	 3.14475715912741E-02 
1319	 3.19710517121862E-02 
1320	 3.19876777875199E-02 
1321	 3.20065902901614E-02 
1322	 3.18174608831397E-02 
1323	 3.11074961492842E-02 
1324	 3.14174431711024E-02 
1325	 3.20069226649351E-02 
1326	 3.14974316359129E-02 
1327	 0.031011756461218 
1328	 3.10406962592011E-02 
1329	 3.13775500477883E-02 
1330	 3.22789681431991E-02 
1331	 3.29376549108529E-02 
1332	 3.22647872238447E-02 
1333	 3.18865877562556E-02 
1334	 3.25544509074215E-02 
1335	 3.16715854076202E-02 
1336	 2.84934548541599E-02 
1337	 2.82641717977749E-02 
1338	 2.97017372934487E-02 
1339	 2.95504698899402E-02 
1340	 3.06677254421703E-02 
1341	 3.12418996903656E-02 
1342	 2.92084481630003E-02 
1343	 2.87015291098608E-02 
1344	 3.09248550567478E-02 
1345	 3.15803556202393E-02 
1346	 3.01294938857336E-02 
1347	 2.92341930192433E-02 
1348	 2.89799069108857E-02 
1349	 2.63921049439304E-02 
1350	 1.40212027722657E-02 
1351	 1.63911317601581E-02 
1352	 5.64073589999321E-02 
1353	 7.42841508769286E-02 
1354	 0.110978959231751 
1355	 0.123707811691704 
1356	 8.48056014980262E-02 
1357	-3.96306973651055E-02 
1358	-0.184126091247465 
1359	-8.10129967921352E-02 
1360	 0.117822959075255 
1361	 5.67507249788774E-02 
1362	 5.14547729009312E-02 
1363	 0.204396187715534 
1364	 4.36232301209346E-02 
1365	-0.325358194448677 
1366	-0.410463960468891 
1367	-0.304548448890528 
1368	-0.286038422023508 
1369	-0.22170189455463 
1370	-2.15096736317341E-02 
1371	 0.128408254601345 
1372	 0.243915763532054 
1373	 1.09427474299992 
1374	 0.521736649237124 
1375	-0.551085114799123 
1376	-0.528328092215282 
1377	-0.113216111959273 
1378	-0.20885010144714 
1379	-6.93525254337686E-02 
1380	-4.64467073696105E-02 
1381	-1.00174396463893 
1382	-1.0899360800866 
1383	-0.488833053032025 
1384	-2.10696667503532E-02 
1385	 1.10541745409737 
1386	 0.883002669509541 
1387	 0.491300282101262 
1388	 0.777964846408122 
1389	 0.949649800984359 
1390	 0.365625196998765 
1391	-0.376149729689896 
1392	 0.288425650618394 
1393	 2.03537274642321 
1394	 4.83670130300129 
1395	 1.05000762568084 
1396	 2.38851946461602 
1397	 2.47113945260227 
1398	-0.203184229394178 
1399	-0.197140305229871 
1400	 0.226309639030572 
1401	 0.450882194837474 
1402	 1.01850155023077 
1403	 1.9461094456274 
1404	 1.89365988162625 
1405	 2.32861300615339 
1406	 1.58978866770864 
1407	 0.733062953795172 
1408	-0.206073705144267 
1409	-0.234850950740852 
1410	-0.157238250793228 
1411	-0.133220295646515 
1412	 0.671476431501106 
1413	 0.849608658449547 
1414	 0.194156561187051 
1415	 0.302566056321176 
1416	 0.447405774041272 
1417	 0.374889895976073 
1418	 0.326743991624004 
1419	 0.338975078932484 
1420	 0.283513989329096 
1421	 0.221151351770505 
1422	 0.204471623888996 
1423	 0.20418307847313 
1424	 0.15285792140104 
1425	 0.12256246467359 
1426	 0.166441832276411 
1427	 0.156235676865732 
1428	 9.85113338141962E-02 
1429	 6.47743336099227E-02 
1430	 1.45012937912635E-02 
1431	 8.34797895787152E-03 
1432	 3.04915283972503E-02 
1433	 0.029991651736801 
1434	 4.73873942844104E-02 
1435	 5.80728907055203E-02 
1436	 4.78360593078412E-02 
1437	 4.22210698068138E-02 
1438	 4.92086172463604E-02 
1439	 4.16220730126194E-02 
1440	 1.98849526981562E-02 
1441	 3.64837997579136E-02 
1442	 4.78964205178341E-02 
1443	 4.95354706067102E-02 
1444	 5.89761826616537E-02 
1445	 4.43603375942224E-02 
1446	 2.27882502056844E-02 
1447	 2.17725876386827E-02 
1448	 2.27691985426643E-02 
1449	 3.01295202998068E-02 
1450	 3.79208355860824E-02 
1451	 2.96172317306766E-02 
1452	 0.022295664216559 
1453	 2.07639879783573E-02 
1454	 2.21003496528424E-02 
1455	 2.95528370788821E-02 
1456	 2.90336172254245E-02 
1457	 0.025980790376313 
1458	 2.60601919973711E-02 
1459	 0.025835899772126 
1460	 2.54509945199598E-02 
1461	 2.62073746074858E-02 
1462	 2.59189746302885E-02 
1463	 2.24288618557599E-02 
1464	 2.28044841236879E-02 
1465	 2.74207205053923E-02 
1466	 2.94627665721965E-02 
1467	 3.45087565865551E-02 
1468	 3.13578813274109E-02 
1469	 2.00404201675571E-02 
1470	 1.64281927864726E-02 
1471	 9.4523065553124E-03 
1472	 8.04585222785113E-03 
1473	 1.43088823471455E-02 
1474	 1.89272205129417E-02 
1475	 0.025549717072785 
1476	 2.61849151136914E-02 
1477	 0.024406022225952 
1478	 2.59250697124543E-02 
1479	 2.70414295087108E-02 
1480	 2.52192755642531E-02 
1481	 2.26382809051044E-02 
1482	 2.37124144773377E-02 
1483	 2.41886748892947E-02 
1484	 0.024050254888491 
1485	 2.60710522060988E-02 
1486	 2.78753237811401E-02 
1487	 2.80123393118531E-02 
1488	 2.79969983703221E-02 
1489	 3.00708271827768E-02 
1490	 3.05438075547663E-02 
1491	 2.84441653129309E-02 
1492	 2.82123513413963E-02 
1493	 2.91934304940016E-02 
1494	 2.90631793470605E-02 
1495	 2.90709273090077E-02 
1496	 2.87839912463045E-02 
1497	 2.71991422453045E-02 
1498	 2.73634961089871E-02 
1499	 2.87199053658223E-02 
1500	 2.89564731380228E-02 
1501	 2.96332792217081E-02 
1502	 2.98359415269805E-02 
1503	 2.85084392662887E-02 
1504	 2.84997825152565E-02 
1505	 2.94058179435223E-02 
1506	 3.01021370356299E-02 
1507	 0.030638763763829 
1508	 3.04613799993693E-02 
1509	 3.02044087385607E-02 
1510	 3.04903932394931E-02 
1511	 3.01917705070889E-02 
1512	 3.02374146747825E-02 
1513	 3.03636504525626E-02 
1514	 2.99773651112971E-02 
1515	 3.00363051789001E-02 
1516	 3.05624049608053E-02 
1517	 0.030849519954143 
1518	 3.06176652991476E-02 
1519	 0.03071901228614 
1520	 3.10675440958932E-02 
1521	 3.12965915147159E-02 
1522	 3.14871970021295E-02 
1523	 3.16892657912724E-02 
1524	 3.23053094149534E-02 
1525	 3.25303902771442E-02 
1526	 3.22911246202668E-02 
1527	 3.22653092106976E-02 
1528	 3.21176886021235E-02 
1529	 3.22784130910426E-02 
1530	 3.26311627610976E-02 
1531	 3.27877813193994E-02 
1532	 3.31533774081651E-02 
1533	 3.35577657943082E-02 
1534	 0.033461206724721 
1535	 3.28214120292457E-02 
1536	 3.24233498304569E-02 
1537	 3.22541566371023E-02 
1538	 3.24469014396793E-02 
1539	 3.35717608923902E-02 
1540	 3.40795663886745E-02 
1541	 3.31251433725192E-02 
1542	 3.23134388561062E-02 
1543	 3.19620271640467E-02 
1544	 3.18448702803864E-02 
1545	 3.25084904119678E-02 
1546	 3.30635173429584E-02 
1547	 3.27565649121601E-02 
1548	 3.24080546143064E-02 
1549	 3.26150000450382E-02 
1550	 3.30604562533308E-02 
1551	 3.30954428387064E-02 
1552	 3.24756576088633E-02 
1553	 3.20359686408438E-02 
1554	 3.20952785252269E-02 
1555	 0.032575581490743 
1556	 3.34094825049182E-02 
1557	 3.31184325136145E-02 
1558	 3.23577623075576E-02 
1559	 3.27919559116121E-02 
1560	 3.33290634974207E-02 
1561	 3.31865368947539E-02 
1562	 3.29792892729491E-02 
1563	 3.30408411089742E-02 
1564	 0.032882228676676 
1565	 3.23153264806055E-02 
1566	 3.22717921140055E-02 
1567	 3.27195002520698E-02 
1568	 3.25057654586099E-02 
1569	 3.22676189049641E-02 
1570	 3.27005991443219E-02 
1571	 3.26833709067116E-02 
1572	 3.22406833639116E-02 
1573	 3.26651402595576E-02 
1574	 3.34992552696371E-02 
1575	 3.32868881021772E-02 
1576	 3.27301147964977E-02 
1577	 3.25102975143284E-02 
1578	 3.23022715328407E-02 
1579	 3.26892181914648E-02 
1580	 3.30980642038621E-02 
1581	 3.30068779242628E-02 
1582	 3.30647736569686E-02 
1583	 3.30386258238966E-02 
1584	 3.25832506295888E-02 
1585	 3.23468988875964E-02 
1586	 3.25546910929409E-02 
1587	 3.25674984225162E-02 
1588	 3.31215155126867E-02 
1589	 3.40762817884995E-02 
1590	 0.034211061254287 
1591	 3.38814421559026E-02 
1592	 3.35915945020605E-02 
1593	 3.34799061389056E-02 
1594	 3.33945687217957E-02 
1595	 3.35777408239027E-02 
1596	 3.36174719486586E-02 
1597	 3.32455801337858E-02 
1598	 3.34598267987271E-02 
1599	 3.35320004052454E-02 
1600	 3.32627772890277E-02 
1601	 3.35137640279613E-02 
1602	 3.35638933222497E-02 
1603	 3.34023301269419E-02 
1604	 3.37302463182737E-02 
1605	 3.40569989763229E-02 
1606	 3.39569111592217E-02 
1607	 3.33243796209788E-02 
1608	 3.28883957097532E-02 
1609	 3.33024043039931E-02 
1610	 3.30029040197227E-02 
1611	 3.20261231386972E-02 
1612	 3.18329171151055E-02 
1613	 3.19168820804581E-02 
1614	 0.032450049490148 
1615	 3.34049656320421E-02 
1616	 3.35597822817069E-02 
1617	 3.32226445453028E-02 
1618	 3.26824238710542E-02 
1619	 3.23364728262442E-02 
1620	 3.29922014600448E-02 
1621	 3.35558315511696E-02 
1622	 3.31729182161353E-02 
1623	 3.29695097346026E-02 
1624	 3.30503801407347E-02 
1625	 3.29208422199543E-02 
1626	 3.28541477472275E-02 
1627	 0.032925088889187 
1628	 3.32613521646153E-02 
1629	 3.33173418814289E-02 
1630	 3.29095579317144E-02 
1631	 3.26705433249668E-02 
1632	 3.30890425214087E-02 
1633	 0.033614551379539 
1634	 3.33847109350854E-02 
1635	 0.03340267509524 
1636	 3.39513203175678E-02 
1637	 3.37623267960497E-02 
1638	 0.033242545949978 
1639	 3.36471440879892E-02 
1640	 3.39886511764573E-02 
1641	 3.33327980094355E-02 
1642	 3.29637395136089E-02 
1643	 3.29102568374492E-02 
1644	 3.23303343108718E-02 
1645	 3.17880737909134E-02 
1646	 3.23107276028927E-02 
1647	 3.32007192966057E-02 
1648	 3.29381962321675E-02 
1649	 3.22608500066064E-02 
1650	 3.26129923580962E-02 
1651	 3.34091567257082E-02 
1652	 3.32723395590339E-02 
1653	 0.034314543508016 
1654	 3.46171786168014E-02 
1655	 3.28318561762473E-02 
1656	 3.24300099576775E-02 
1657	 3.33597341878093E-02 
1658	 3.32030005291384E-02 
1659	 3.25561068886862E-02 
1660	 3.26833197056076E-02 
1661	 3.25929187185601E-02 
1662	 3.25783923597028E-02 
1663	 3.35955092470259E-02 
1664	 0.033722996383721 
1665	 3.28340493672299E-02 
1666	 3.32358014455795E-02 
1667	 3.41750129564622E-02 
1668	 3.44682736531271E-02 
1669	 3.44705066611293E-02 
1670	 3.37523642727117E-02 
1671	 3.33081750451345E-02 
1672	 3.27265364334164E-02 
1673	 3.26196985471231E-02 
1674	 3.30126209264203E-02 
1675	 3.30478519701622E-02 
1676	 3.35895450455024E-02 
1677	 3.41528579758258E-02 
1678	 3.33278228123398E-02 
1679	 3.26349289573658E-02 
1680	 3.35066876568744E-02 
1681	 3.40000118929766E-02 
1682	 3.32275746137844E-02 
1683	 3.27342550036623E-02 
1684	 3.22655498817093E-02 
1685	 3.19761622288995E-02 
1686	 3.24776001052258E-02 
1687	 3.25453646845793E-02 
1688	 3.26594254705944E-02 
1689	 3.30862019576584E-02 
1690	 3.35205793029264E-02 
1691	 3.43642960434106E-02 
1692	 3.47479220389291E-02 
1693	 3.40792785250147E-02 
1694	 3.30231430325406E-02 
1695	 3.28287581966582E-02 
1696	 3.35341633288748E-02 
1697	 3.34320279558869E-02 
1698	 3.32561779980963E-02 
1699	 3.37659670257618E-02 
1700	 3.30521627427486E-02 
1701	 3.23218704038253E-02 
1702	 3.27830636859234E-02 
1703	 3.30574769721261E-02 
1704	 3.30006211185796E-02 
1705	 3.29197120938678E-02 
1706	 0.033095478658217 
1707	 3.35524508777263E-02 
1708	 3.36522176232807E-02 
1709	 3.34275022869503E-02 
1710	 3.28713942716316E-02 
1711	 3.22264253564006E-02 
1712	 3.20149852331839E-02 
1713	 3.22307307368221E-02 
1714	 3.25508181322883E-02 
1715	 3.38916273254845E-02 
1716	 3.36334246734787E-02 
1717	 3.25605373047836E-02 
1718	 3.26924938164043E-02 
1719	 3.28800433829713E-02 
1720	 3.24746149150236E-02 
1721	 3.28067759752433E-02 
1722	 3.26603698031409E-02 
1723	 3.12527853566502E-02 
1724	 3.15978810777769E-02 
1725	 3.24124761778031E-02 
1726	 3.18692277041749E-02 
1727	 3.26478931505321E-02 
1728	 3.35053638539733E-02 
1729	 3.30597560178128E-02 
1730	 0.033455015148481 
1731	 3.30060813730136E-02 
1732	 3.18795005083004E-02 
1733	 3.31478027596456E-02 
1734	 3.37407455443941E-02 
1735	 3.37540424894157E-02 
1736	 3.37961569296941E-02 
1737	 3.17956130236412E-02 
1738	 3.14073780796907E-02 
1739	 3.18480862945245E-02 
1740	 3.16250044189579E-02 
1741	 3.26773426238724E-02 
1742	 0.031566248568014 
1743	 2.98372707129498E-02 
1744	 3.07425267424394E-02 
1745	 3.11559060311921E-02 
1746	 0.032442470846958 
1747	 3.28252100068027E-02 
1748	 3.18813010419441E-02 
1749	 0.031349470694396 
1750	 3.05420593350603E-02 
1751	 3.05606378047349E-02 
1752	 3.06006540330482E-02 
1753	 0.031072775475292 
1754	 3.28324509182875E-02 
1755	 3.32262564550456E-02 
1756	 3.32877150069336E-02 
1757	 3.32544848539686E-02 
1758	 3.23793794102015E-02 
1759	 3.22407608541539E-02 
1760	 3.30282175940317E-02 
1761	 3.19113420150593E-02 
1762	 3.00688608865226E-02 
1763	 2.97679726718633E-02 
1764	 2.83618733000877E-02 
1765	 2.86022266766731E-02 
1766	 3.23035341287171E-02 
1767	 3.34363407224627E-02 
1768	 0.032658640210039 
1769	 3.08133540572047E-02 
1770	 2.73388963212918E-02 
1771	 2.83717205001682E-02 
1772	 3.14649759105722E-02 
1773	 3.11692541626341E-02 
1774	 3.17544076132722E-02 
1775	 2.68992161699113E-02 
1776	 2.49788222326448E-02 
1777	 2.80524033644721E-02 
1778	 2.83942886007519E-02 
1779	 2.78252928028388E-02 
1780	 0.027941612696258 
1781	 2.66062261156606E-02 
1782	 2.54221311622373E-02 
1783	 2.43790089434442E-02 
1784	 2.50841290412847E-02 
1785	 2.75741915379565E-02 
1786	 3.01194804605054E-02 
1787	 3.65239683026352E-02 
1788	 3.48985844503215E-02 
1789	 2.34833700089908E-02 
1790	 2.37843924240737E-02 
1791	 3.03142911074456E-02 
1792	 3.07151353732911E-02 
1793	 3.10817654691834E-02 
1794	 3.03419416307517E-02 
1795	 1.49557714827811E-02 
1796	 6.05092968759025E-03 
1797	 1.27564626024735E-02 
1798	 1.28437083374842E-03 
1799	-1.48638031725165E-02 
1800	 2.30344661426025E-02 
1801	 4.82321235408709E-02 
1802	 8.70799609656741E-02 
1803	 8.95610356341388E-02 
1804	-5.34995287799569E-05 
1805	-4.41091277810653E-02 
1806	-0.160992689050122 
1807	-0.280081228559373 
1808	-0.108160847931286 
1809	-2.44460197108314E-02 
1810	-4.40216945656172E-02 
1811	-2.17373730649479E-02 
1812	 1.56680081028199E-03 
1813	-7.43998525037247E-02 
1814	 2.06122013252907 
1815	 1.23862840297482 
1816	-117.800806645643 
1817	-0.760741276278996 
1818	 0.178711159939944 
1819	 2.42318603351636 
1820	 7.17147855934395 
1821	-0.369106743662925 
1822	-9.64332681395063E-03 
1823	-2.58365628723018 
1824	-2.0462802761326 
1825	-0.243107630180611 
1826	-0.121648817125147 
1827	 5.86298307085631 
1828	 0.572485683314691 
1829	-1.83054492793345 
1830	-0.995576162318976 
1831	 2.55658390645535 
1832	 2.78620290629946 
1833	 2.36655825132869 
1834	 3.03215549701026 
1835	 19.7114379455111 
1836	-197.771682862129 
1837	-8.81495974810934 
1838	-41.3710854681613 
1839	 3.12006892471486 
1840	 1.52663541089645 
1841	 1.05537786830265 
1842	 1.13075907416373 
1843	 1.15436546020196 
1844	 3.38388997945906 
1845	 13.9908160233379 
1846	 8.40112198135075 
1847	 6.85886670145718 
1848	 5.53510628338162 
1849	 2.29633918374119 
1850	 0.914679665381149 
1851	 0.724086283144031 
1852	 0.536064665718306 
1853	 0.415725100535479 
1854	-0.519214426619524 
1855	-0.57105704880359 
1856	-0.249486210791583 
1857	-0.557530066978627 
1858	-1.3192186577073 
1859	-2.64751694500425 
1860	-0.573321908161148 
1861	-6.59127628454998 
1862	 2.08492335824498 
1863	 2.17319084906392 
1864	-9.69589866465527 
1865	-2.98865725171592 
1866	-1.07146291483867 
1867	-1.16068612824135 
1868	-4.70043662957395 
1869	 9.3678909656669 
1870	 0.828205576421596 
1871	 0.744431234691275 
1872	 1.44369535419869 
1873	 2.05208017605888 
1874	 1.8181683227657 
1875	 1.48506963980172 
1876	 1.39272154221203 
1877	 1.05815185428943 
1878	 1.06075900067332 
1879	 2.43573559687945 
1880	 2.38952581580309 
1881	 0.853434018101463 
1882	 0.818661907718388 
1883	 1.78399301696205 
1884	 2.00968632690401 
1885	 9.87458740020633 
1886	-6.65331950339005 
1887	 7.60763137223858 
1888	 3.08416463789218 
1889	 2.48352996584999 
1890	 4.55195538521754 
1891	 3.77451973797862 
1892	 9.16524376503893 
1893	 3.18027672279388 
1894	 1.53931860291354 
1895	 1.03129076152816 
1896	 0.605169506247751 
1897	 1.3232809225738 
1898	 6.02511393569785 
1899	 6.66867252292743 
1900	 2.90357262237014 
1901	 1.04268207352474 
1902	 0.938996512967334 
1903	 1.0772188440932 
1904	 0.51978481437009 
1905	-0.217349302000064 
1906	-0.573554798864096 
1907	-0.333833942928878 
1908	-0.176097263172026 
1909	 2.00866102013214 
1910	-14.9396530969497 
1911	 4.15198053880137 
1912	 2.50328810140964 
1913	 2.05880367194641 
1914	 1.29023250418084 
1915	 1.37695579495549 
1916	 4.71856484058838 
1917	 2.49283126209553 
1918	 2.13362510341258 
1919	 3.29831236661063 
1920	 1.23243088028319 
1921	 0.502973845575793 
1922	 0.50367413571095 
1923	 0.160836291295506 
1924	-2.76103885483278E-02 
1925	 0.15485330292107 
1926	 0.130969190727811 
1927	-1.28104423938788 
1928	 4.39044335480745 
1929	-0.704174617228055 
1930	 4.29994666237868E-03 
1931	-0.291176669744364 
1932	-0.492229205048314 
1933	-0.562090036712588 
1934	-0.918886820059918 
1935	 2.21113205578578 
1936	 3.9973031429555 
1937	 2.63500399837081 
1938	 6.34327786466716 
1939	 8.93359254306832 
1940	-319.818498113569 
1941	 5.8105521195507 
1942	 5.6368462042952 
1943	-4.69424568466106 
1944	-3.11220550874103 
1945	-1.51854491293224 
1946	-0.886565648760335 
1947	-0.526454475455362 
1948	-0.39374755139257 
1949	-0.42066731566801 
1950	-6.12654532587729E-02 
1951	-0.101334714460875 
1952	-0.128356801244069 
1953	-0.182655120665589 
1954	-6.98438601967663E-02 
1955	-0.151455248204744 
1956	-0.189856834176635 
1957	-0.158596827423051 
1958	-0.153488574897517 
1959	-0.110926286461136 
1960	-0.110217013714612 
1961	-0.125778728901297 
1962	-0.105599851754956 
1963	-0.069295675835488 
1964	-5.51263510061646E-02 
1965	-0.042358659101263 
1966	-2.88291210032574E-02 
1967	-2.00799485208539E-02 
1968	-2.55927350920471E-02 
1969	-1.84894192525485E-02 
1970	-7.28257381806104E-03 
1971	-6.48407242361648E-03 
1972	-9.93476030143253E-03 
1973	-6.22603642529785E-03 
1974	 2.01571075437457E-03 
1975	 7.42300280600579E-03 
1976	 1.50221596481313E-02 
1977	 2.28632276072492E-02 
1978	 2.35858442778546E-02 
1979	 2.18283876059309E-02 
1980	 1.62028844709825E-02 
1981	 1.53810115674833E-02 
1982	 1.57978756481527E-02 
1983	 1.41221666737964E-02 
1984	 0.016469833416301 
1985	 1.62842843070543E-02 
1986	 1.21424318382832E-02 
1987	 1.28408900626655E-02 
1988	 1.53137869652632E-02 
1989	 1.59071542438474E-02 
1990	 1.38754082397169E-02 
1991	 1.02774568923216E-02 
1992	 5.24489394922107E-03 
1993	 8.51624717633166E-04 
1994	-1.99048062521892E-03 
1995	-2.70201491834184E-03 
1996	-6.51735256255767E-03 
1997	-7.07620719096941E-03 
1998	-5.15875735630059E-03 
1999	-2.67110043907811E-03 
2000	 5.84327904080638E-03 
2001	 4.54097953414746E-03 
2002	 2.93708388894838E-03 
2003	 0.012873396776769 
2004	 1.47448415219073E-02 
2005	 1.96119438107463E-02 
2006	 2.62611888262714E-02 
2007	 1.07267007817238E-02 
2008	-5.09041940111208E-03 
2009	-1.17860202546098E-02 
2010	-0.013494556284318 
2011	-1.60164373619737E-02 
2012	-1.63622361281956E-02 
2013	-9.10167786512259E-03 
2014	-3.73374205812586E-04 
2015	 7.36506934776063E-03 
2016	 1.71084617499064E-02 
2017	 1.32325771967288E-02 
2018	 8.45609854267373E-03 
2019	 1.12162402030912E-02 
2020	 9.29071991397087E-03 
2021	 1.13383809656349E-02 
2022	 1.43348271307176E-02 
2023	 1.54104428614185E-02 
2024	 1.52922109908891E-02 
2025	 1.45573802373014E-02 
2026	 1.51095199364576E-02 
2027	 1.56778551188278E-02 
2028	 1.47229551340255E-02 
2029	 1.57485190227492E-02 
2030	 2.02433419103181E-02 
2031	 2.06830002008032E-02 
2032	 1.92146997977802E-02 
2033	 2.21278883135749E-02 
2034	 2.33485698140892E-02 
2035	 2.43024257358307E-02 
2036	 2.57525210205088E-02 
2037	 2.30592774649948E-02 
2038	 2.21892766338375E-02 
2039	 2.23849468569374E-02 
2040	 2.43395568172246E-02 
2041	 2.49161984893167E-02 
2042	 0.026970766068439 
2043	 2.60313299775767E-02 
2044	 0.021881764640172 
2045	 0.020562152488193 
2046	 1.98215567956926E-02 
2047	 1.71001918391879E-02 
2048	 1.91187344524176E-02 
2049	 2.14747403096882E-02 
2050	 1.91398129101486E-02 
2051	 1.87974947595526E-02 
2052	 1.82461924837906E-02 
2053	 1.83152688450443E-02 
2054	 2.02178131963397E-02 
2055	 2.00765449999157E-02 
2056	 1.94355341752552E-02 
2057	 1.39877315465791E-02 
2058	 1.48846993308798E-02 
2059	 2.12678983571209E-02 
2060	 0.023090111814107 
2061	 2.64259837861542E-02 
2062	 0.026847377918436 
2063	 2.44901016470879E-02 
2064	 2.17077047355112E-02 
2065	 2.16126094275455E-02 
2066	 2.52061834842918E-02 
2067	 2.55697666890643E-02 
2068	 2.37097806241564E-02 
2069	 2.22272170705642E-02 
2070	 1.89052689140548E-02 
2071	 1.66263040221938E-02 
2072	 1.80644882517472E-02 
2073	 1.88491133123276E-02 
2074	 2.12714165273573E-02 
2075	 2.09635366468845E-02 
2076	 1.91646386011106E-02 
2077	 1.90345801343738E-02 
2078	 1.84978071318717E-02 
2079	 1.88450777138684E-02 
2080	 2.06742270051409E-02 
2081	 2.20402247505579E-02 
2082	 2.24494150837496E-02 
2083	 2.20421554724369E-02 
2084	 2.62315028076236E-02 
2085	 2.89287943910709E-02 
2086	 2.60248686959662E-02 
2087	 0.025208256557743 
2088	 2.30635835276674E-02 
2089	 1.92777335098005E-02 
2090	 1.96551922475139E-02 
2091	 2.05326006411557E-02 
2092	 2.06027329086625E-02 
2093	 1.92513556458222E-02 
2094	 1.91694202049668E-02 
2095	 2.07500599187247E-02 
2096	 0.021122479960671 
2097	 1.95654367246829E-02 
2098	 2.06455453478854E-02 
2099	 2.39513807057769E-02 
2100	 2.41514983614647E-02 
2101	 2.44104160500284E-02 
2102	 2.62726944379753E-02 
2103	 2.47039695352534E-02 
2104	 2.28919382015066E-02 
2105	 2.22177879824234E-02 
2106	 2.20267758351635E-02 
2107	 2.22332143134847E-02 
2108	 2.21188773924409E-02 
2109	 2.24334385068481E-02 
2110	 0.021567663453373 
2111	 1.96716182182749E-02 
2112	 1.92760129961585E-02 
2113	 1.96060738534087E-02 
2114	 2.17305659664336E-02 
2115	 0.022586015648341 
2116	 2.33397796868132E-02 
2117	 2.34619903698972E-02 
2118	 2.24529609852457E-02 
2119	 2.24986271423307E-02 
2120	 2.25265487888891E-02 
2121	 2.42700181253701E-02 
2122	 2.42768555612723E-02 
2123	 2.47382522579991E-02 
2124	 2.67415343558208E-02 
2125	 0.02693405352429 
2126	 2.74560702982254E-02 
2127	 2.70012051190367E-02 
2128	 2.49375118901653E-02 
2129	 2.39830561997113E-02 
2130	 2.45154497459832E-02 
2131	 2.53621410995461E-02 
2132	 2.52888739438363E-02 
2133	 2.42787070686888E-02 
2134	 2.36949756439749E-02 
2135	 2.24629829000604E-02 
2136	 2.21558563485881E-02 
2137	 2.28158355975431E-02 
2138	 2.30465907324252E-02 
2139	 0.023351045015731 
2140	 2.37488335731885E-02 
2141	 2.34505693592222E-02 
2142	 2.39913638995296E-02 
2143	 2.56985766538994E-02 
2144	 2.64688887950334E-02 
2145	 2.65980794650147E-02 
2146	 2.64614775350804E-02 
2147	 2.56810517858535E-02 
2148	 2.62572648790257E-02 
2149	 2.55380004982529E-02 
2150	 2.58665437219874E-02 
2151	 2.78914338437358E-02 
2152	 2.67900188042997E-02 
2153	 2.71512555749287E-02 
2154	 0.028806469277837 
2155	 0.02621437505139 
2156	 2.56502585513566E-02 
2157	 0.024949540875654 
2158	 2.33041158414713E-02 
2159	 2.22374958907805E-02 
2160	 2.20801993280549E-02 
2161	 2.17156964637172E-02 
2162	 2.28212667482246E-02 
2163	 2.19661651749367E-02 
2164	 1.74996555832932E-02 
2165	 1.89093537345029E-02 
2166	 0.023471276026434 
2167	 2.38291097858132E-02 
2168	 2.84863090064157E-02 
2169	 2.90747801394678E-02 
2170	 2.21532401397175E-02 
2171	 1.89619211835646E-02 
2172	 2.17752647905838E-02 
2173	 0.020139538209967 
2174	 0.021029963726679 
2175	 2.51848315181803E-02 
2176	 2.79387745667683E-02 
2177	 3.02829085147491E-02 
2178	 3.07085671597663E-02 
2179	 3.00058405079885E-02 
2180	 2.66986794787685E-02 
2181	 2.31673511594484E-02 
2182	 2.38418769704314E-02 
2183	 2.72773129868163E-02 
2184	 2.67714025611168E-02 
2185	 2.45827118229782E-02 
2186	 2.49207966993963E-02 
2187	 2.35169129588678E-02 
2188	 0.021623375742154 
2189	 2.32440169868563E-02 
2190	 2.26856628492385E-02 
2191	 1.94835525865069E-02 
2192	 1.79024542639469E-02 
2193	 1.56462400847217E-02 
2194	 1.59807790924497E-02 
2195	 1.73282607239117E-02 
2196	 0.01714523485555 
2197	 1.92698111050475E-02 
2198	 1.94253807034016E-02 
2199	 1.63734009075508E-02 
2200	 0.01655637536875 
2201	 1.57963931081475E-02 
2202	 2.15914181279787E-02 
2203	 2.76108240377444E-02 
2204	 2.59331031047083E-02 
2205	 2.54265708295376E-02 
2206	 2.20849647421943E-02 
2207	 1.73228015624195E-02 
2208	 1.71280786395012E-02 
2209	 1.55047610306934E-02 
2210	 1.32537960740508E-02 
2211	 1.51798308997895E-02 
2212	 1.81148351458745E-02 
2213	 1.77469643160211E-02 
2214	 1.87672706949293E-02 
2215	 1.67567037109242E-02 
2216	 1.41344414627887E-02 
2217	 1.37505299823259E-02 
2218	 1.46179495291691E-02 
2219	 1.44617136622732E-02 
2220	 1.50016558654981E-02 
2221	 0.017099585180865 
2222	 2.04413208944195E-02 
2223	 2.35082117621096E-02 
2224	 2.91753073168892E-02 
2225	 3.08887228308403E-02 
2226	 3.09960258720585E-02 
2227	 2.89665495838724E-02 
2228	 2.23515301572847E-02 
2229	 1.91717639644744E-02 
2230	 1.33579724651865E-02 
2231	 1.22369898544587E-02 
2232	 1.68957112547804E-02 
2233	 1.95950517051824E-02 
2234	 2.35055876196081E-02 
2235	 2.86932922128855E-02 
2236	 2.71650035594404E-02 
2237	 2.30910357057411E-02 
2238	 0.016630247067073 
2239	 1.08078045001908E-02 
2240	 1.48852121834568E-02 
2241	 2.03099809983129E-02 
2242	 2.11658143437664E-02 
2243	 2.42605815533375E-02 
2244	 2.43516752434173E-02 
2245	 0.017572606480803 
2246	 0.013525987740628 
2247	 1.85661246292162E-02 
2248	 2.20526085666982E-02 
2249	 2.14370838854587E-02 
2250	 2.69708652298198E-02 
2251	 2.33315973007593E-02 
2252	 1.13824128261852E-02 
2253	 1.19931200071984E-02 
2254	 1.21337022735675E-02 
2255	 5.02665561639077E-03 
2256	 2.66052567125777E-03 
2257	 5.24375715795877E-03 
2258	 6.88324806595453E-03 
2259	 1.05479364583536E-02 
2260	 1.25581046171997E-02 
2261	 1.28275217365497E-02 
2262	 1.21139937764896E-02 
2263	 1.29815965893934E-02 
2264	 1.16710954510756E-02 
2265	 6.71458332220554E-03 
2266	 7.89827784411769E-03 
2267	 8.7010430851961E-03 
2268	 1.14551330297016E-02 
2269	 2.22747314972866E-02 
2270	 2.64927363160063E-02 
2271	 2.51947266614006E-02 
2272	 2.73801245073492E-02 
2273	 3.34148070773306E-02 
2274	 3.16283467168147E-02 
2275	 2.67599200416758E-02 
2276	 2.38357164770785E-02 
2277	 1.23538270563061E-02 
2278	 7.79900921165801E-03 
2279	 1.18421086010095E-02 
2280	 0.012153545374659 
2281	 1.19531506749804E-02 
2282	 9.78500283207604E-03 
2283	 1.34749982904236E-02 
2284	 0.016384956029624 
2285	 2.00573721306335E-02 
2286	 2.47406841092963E-02 
2287	 1.83187965457958E-02 
2288	 0.013486833379308 
2289	 1.07457485802093E-02 
2290	 8.85228620910004E-03 
2291	 1.13976184118965E-02 
2292	 8.88199516213488E-03 
2293	-7.89204677347997E-04 
2294	-0.012519722958773 
2295	-1.20334178629514E-02 
2296	-6.95610762202917E-03 
2297	-5.33938489829403E-03 
2298	 6.29722858688149E-03 
2299	 1.86380619503743E-02 
2300	 1.35681128429717E-02 
2301	 0.014165133155345 
2302	 1.87925049529792E-02 
2303	 9.24301236132023E-03 
2304	 9.86614493420722E-03 
2305	 6.66918802449991E-03 
2306	-4.56252651114846E-03 
2307	-7.40305384399955E-03 
2308	-1.75322061342867E-02 
2309	-1.93433816149564E-02 
2310	-7.81961114493411E-03 
2311	 3.07036387579438E-03 
2312	 1.50107683796929E-02 
2313	 1.84309052454127E-02 
2314	 1.54345065603195E-02 
2315	 9.70401062024666E-03 
2316	 4.83868285773399E-03 
2317	 1.25580139674378E-02 
2318	 1.89096821566486E-02 
2319	 8.11885412490395E-03 
2320	 2.38057719758975E-03 
2321	 6.18604337933882E-03 
2322	 2.71937183898244E-03 
2323	 5.80439428742177E-03 
2324	 1.00271554178221E-02 
2325	 7.6603264910841E-03 
2326	 2.91711074919969E-03 
2327	-7.18985766842057E-03 
2328	-5.40748990915008E-03 
2329	-4.10344085457037E-03 
2330	 1.00495355826245E-03 
2331	 1.24747452457977E-02 
2332	 1.29849423685118E-03 
2333	-5.67291058059337E-03 
2334	-1.54620324196519E-02 
2335	-3.58414482829939E-02 
2336	-3.80173531416008E-02 
2337	-2.91876474347553E-02 
2338	-4.89928582081483E-03 
2339	 1.31096744527658E-02 
2340	 0.037084184157391 
2341	 4.62320456178091E-02 
2342	-6.8005394866863E-03 
2343	-2.54093337634266E-02 
2344	-2.29036269385227E-02 
2345	-4.75096619436016E-02 
2346	-4.51324879890463E-02 
2347	-3.45249973308551E-02 
2348	-5.10786132306528E-02 
2349	-4.95341050162909E-02 
2350	-2.41457396235753E-02 
2351	-3.13234040592905E-02 
2352	-4.32668079361914E-02 
2353	-3.05733921032926E-02 
2354	-2.03909577152712E-02 
2355	-5.25917442596579E-03 
2356	-1.12885899453395E-02 
2357	-3.58344958743727E-02 
2358	-5.47562166773921E-02 
2359	-8.47711216970181E-02 
2360	-7.75644796279713E-02 
2361	-7.97360889719327E-02 
2362	-7.61777250844838E-02 
2363	-5.37972849503727E-02 
2364	-0.07189595443417 
2365	-6.11873770006394E-02 
2366	-9.89790521136753E-02 
2367	-0.170246774017643 
2368	-0.141803489183776 
2369	-0.129713037277922 
2370	-0.121482965609243 
2371	-7.61947259310261E-02 
2372	-9.86510061808568E-02 
2373	-0.169492102515801 
2374	-0.165102625745552 
2375	-0.146110857436651 
2376	-0.213441603686697 
2377	-0.177251641509452 
2378	-0.147142579119735 
2379	-0.258641244269044 
2380	-0.245963495085578 
2381	-0.189685560200619 
2382	-0.130949544373426 
2383	-0.114965348500513 
2384	-0.15174596995405 
2385	-0.23825651955093 
2386	-0.426646923853027 
2387	-0.349524697187673 
2388	-0.160487724419093 
2389	-7.32865114514098E-02 
2390	-4.91763787395672E-02 
2391	-6.59372067681896E-02 
2392	-0.122617805702021 
2393	-0.22670029448441 
2394	-0.38656103118412 
2395	-0.331511552633336 
2396	-0.233749269334572 
2397	-0.177556946943118 
2398	 2.52490860721315E-02 
2399	 3.7520065617359E-03 
2400	-0.232966328392421 
2401	-0.271918458651208 
2402	-0.346388682391015 
2403	-0.486532344014274 
2404	-0.32400260510731 
2405	-0.255414858555556 
2406	-0.307489249612753 
2407	-0.242339785419674 
2408	-0.276439632240882 
2409	-0.304812502096297 
2410	-0.163847782951566 
2411	-9.01941118817663E-02 
2412	-2.87996456948221E-03 
2413	-0.425187495549817 
2414	-0.911153216387341 
2415	-0.828889755582869 
2416	-0.561817662978613 
2417	-0.174172998857277 
2418	-5.48912976868392E-02 
2419	 0.018683406231699 
2420	-0.160172600673663 
2421	-0.896742803741601 
2422	-1.01871771885689 
2423	-2.1705923976861 
2424	-1.61109359755925 
2425	-1.07193747947873 
2426	-2.16493998298162 
2427	-0.404590757035087 
2428	-0.582383812957795 
2429	-0.745733780321118 
2430	-0.478229459309142 
2431	-0.610739200489265 
2432	-0.559672325307098 
2433	 0.279982240852562 
2434	 0.405236088636479 
2435	-0.172085679270208 
2436	-0.895903847610344 
2437	-289.079301020101 
2438	 1.32483106058768 
2439	 0.890385913959783 
2440	 1.05523649320488 
2441	 12.1116447110894 
2442	 0.345173089575108 
2443	-0.225216504726265 
2444	 0.646025835662532 
2445	 2.2014010525006 
2446	 1.06883687780865 
2447	 0.7741458769922 
2448	 0.872026684846261 
2449	 0.239829015902512 
2450	 0.146468097542766 
2451	 0.500847104120056 
2452	 0.226275239413552 
2453	 0.163526787340727 
2454	 0.194831260667431 
2455	 0.128068443165012 
2456	-1.32034002847356E-02 
2457	 5.11695440321166E-02 
2458	-0.202657734793045 
2459	-0.861519123073776 
2460	 0.568333294150092 
2461	 0.395675626413712 
2462	 0.248074918093579 
2463	-4.41146117344481E-02 
2464	-0.523514110741605 
2465	-0.54401781025111 
2466	-0.832929605524091 
2467	-1.42747037465809 
2468	-1.55049680579999 
2469	-1.31795403088978 
2470	-2.12606585389923 
2471	-7.64143808236311 
2472	-5.58501191282747 
2473	-2.12710188306446 
2474	-3.45242369906412 
2475	-1.35546199950486 
2476	-0.727344532041522 
2477	-0.773549735074009 
2478	 1.60150422982699 
2479	-0.793437439813177 
2480	-0.409991853732132 
2481	-0.578886517920169 
2482	-0.34759803089182 
2483	-0.188681067582551 
2484	-0.47976205935034 
2485	-0.281953243178776 
2486	 0.226132462189226 
2487	 0.304843385412509 
2488	 0.939968511464203 
2489	 0.845097160583677 
2490	 0.433562124977135 
2491	 0.450243943533912 
2492	 0.785086170129251 
2493	 1.17873220431288 
2494	 0.875766397747761 
2495	 1.74382689024954 
2496	-3.32955924516901 
2497	-2.34915225986962 
2498	-4.39311747536174 
2499	-1.07959397485374 
2500	-2.10057693252914 
