Wavelength	rt0713west_far00004.asd
350	 0.118275635207264 
351	 0.118119778236806 
352	 0.117674579189871 
353	 0.117336377104379 
354	 0.117192154414041 
355	 0.116276062835734 
356	 0.115667046874227 
357	 0.11555709901855 
358	 0.115638706652805 
359	 0.114847657986865 
360	 0.114407988376498 
361	 0.114302418897351 
362	 0.113733228580026 
363	 0.113569634391411 
364	 0.113552823301409 
365	 0.113474494556259 
366	 0.113414761284577 
367	 0.113414929522263 
368	 0.113087018023933 
369	 0.112324518839623 
370	 0.112389349833035 
371	 0.112106516892766 
372	 0.111517461156462 
373	 0.111305012415517 
374	 0.110894516503333 
375	 0.110618180771658 
376	 0.11060074545256 
377	 0.11056885762144 
378	 0.110415410752665 
379	 0.110137408196662 
380	 0.109821503993186 
381	 0.109669716157529 
382	 0.109849701988241 
383	 0.109871688616486 
384	 0.109214827791073 
385	 0.109404959429986 
386	 0.109638037912054 
387	 0.109504001795336 
388	 0.109255163607767 
389	 0.108849812840361 
390	 0.108716194105703 
391	 0.108950875568623 
392	 0.108666775999752 
393	 0.108749590448557 
394	 0.108926094705474 
395	 0.1086813649766 
396	 0.108631005117696 
397	 0.108523705130193 
398	 0.108347753962528 
399	 0.108327376528939 
400	 0.108513723706768 
401	 0.108482418908351 
402	 0.108125134663091 
403	 0.108180619090132 
404	 0.108049986334104 
405	 0.107908356685128 
406	 0.108071192394546 
407	 0.107949950070645 
408	 0.107827875905186 
409	 0.107798814290062 
410	 0.10772474512591 
411	 0.10771012675561 
412	 0.10778005883616 
413	 0.107866297979444 
414	 0.107688770076536 
415	 0.107689770737341 
416	 0.107788581002254 
417	 0.107743572121663 
418	 0.107758822597517 
419	 0.107790068055898 
420	 0.107865330276887 
421	 0.108095282473077 
422	 0.108059521201036 
423	 0.108034878435669 
424	 0.108250362248442 
425	 0.10839851138696 
426	 0.108476192962209 
427	 0.108576244605788 
428	 0.108811448309583 
429	 0.109047923804265 
430	 0.109190695643088 
431	 0.109303106337421 
432	 0.109618928177544 
433	 0.109747261034082 
434	 0.109840608707434 
435	 0.110071465178227 
436	 0.110301951762192 
437	 0.110554831610433 
438	 0.110782735225318 
439	 0.110924023919316 
440	 0.11114034526388 
441	 0.111324146808413 
442	 0.111453421823285 
443	 0.111673786802725 
444	 0.111883555997352 
445	 0.112095679389558 
446	 0.112328159445326 
447	 0.11249232042735 
448	 0.112708588820882 
449	 0.112975322751187 
450	 0.113194342316983 
451	 0.113281281350092 
452	 0.113389072065168 
453	 0.113578530118612 
454	 0.113642669618203 
455	 0.113811435928967 
456	 0.113988737466226 
457	 0.114016351594312 
458	 0.114076997841653 
459	 0.114091570796599 
460	 0.11411283605619 
461	 0.11432016730188 
462	 0.114424361006704 
463	 0.114454442149293 
464	 0.114495941628778 
465	 0.114607743355217 
466	 0.114661915236196 
467	 0.114656992728769 
468	 0.114665008010975 
469	 0.114776397185151 
470	 0.114826628387505 
471	 0.114808826108267 
472	 0.114953748236066 
473	 0.11503903031005 
474	 0.115121264143332 
475	 0.115279054845506 
476	 0.115397749507987 
477	 0.115566048448704 
478	 0.115793964628123 
479	 0.116033335886625 
480	 0.116244281054695 
481	 0.116461891748488 
482	 0.116688528437779 
483	 0.116826384264041 
484	 0.117071780065989 
485	 0.117370053824134 
486	 0.117601042937995 
487	 0.117853011257302 
488	 0.118108280010375 
489	 0.118363966243554 
490	 0.118638668496183 
491	 0.119001397499615 
492	 0.119318649341927 
493	 0.119527465230262 
494	 0.119868954855283 
495	 0.120196162792906 
496	 0.120493565160317 
497	 0.120800300480606 
498	 0.121033314767378 
499	 0.121239297404583 
500	 0.121450542814334 
501	 0.121655432731302 
502	 0.121867152629394 
503	 0.122126472582891 
504	 0.122466582467764 
505	 0.122851817305824 
506	 0.123357770111679 
507	 0.123961309066104 
508	 0.124553828191714 
509	 0.12499672153492 
510	 0.125503104522763 
511	 0.126161483971637 
512	 0.126638287239901 
513	 0.127118238197994 
514	 0.127672078816472 
515	 0.128288352976049 
516	 0.128731883244033 
517	 0.129243143578426 
518	 0.129868208250352 
519	 0.130368554758434 
520	 0.130876588797245 
521	 0.13142843980867 
522	 0.1320122862131 
523	 0.132522951372398 
524	 0.132978843833744 
525	 0.133466562851376 
526	 0.134098533818869 
527	 0.134665939030768 
528	 0.135250688282176 
529	 0.135875887220155 
530	 0.136353426565927 
531	 0.13692235129831 
532	 0.137537667092741 
533	 0.138074096750936 
534	 0.138626091541355 
535	 0.139188560439532 
536	 0.139737895895499 
537	 0.140233791021907 
538	 0.140650818822106 
539	 0.141079117483395 
540	 0.141583608000105 
541	 0.14204216441482 
542	 0.142587377775833 
543	 0.143196528208492 
544	 0.143757994214423 
545	 0.144293372823192 
546	 0.144882206615537 
547	 0.145549706901973 
548	 0.146218429123434 
549	 0.146765311693794 
550	 0.147291822226288 
551	 0.147933619708411 
552	 0.148487984791145 
553	 0.14902520933425 
554	 0.149548856033175 
555	 0.149970150339303 
556	 0.1504460019673 
557	 0.150961349567314 
558	 0.151445251801805 
559	 0.151808800667984 
560	 0.152202261230815 
561	 0.152600694070102 
562	 0.152887876375133 
563	 0.153228669696602 
564	 0.153504136495824 
565	 0.153624047764617 
566	 0.153613701869026 
567	 0.153591024775515 
568	 0.153656636187635 
569	 0.153857781753245 
570	 0.154028238406313 
571	 0.154189413330147 
572	 0.154350865663035 
573	 0.154496709552283 
574	 0.154592513770192 
575	 0.154727869109389 
576	 0.154957848866879 
577	 0.15514825141651 
578	 0.15527641651046 
579	 0.155344822695243 
580	 0.155372840125419 
581	 0.155346641123664 
582	 0.1552215675128 
583	 0.154937573377839 
584	 0.154426277996543 
585	 0.153485489145298 
586	 0.152182244666671 
587	 0.150712286389613 
588	 0.149301734781333 
589	 0.148466249663627 
590	 0.148264173043502 
591	 0.148196505746175 
592	 0.147939648608497 
593	 0.147561165972187 
594	 0.147198799331239 
595	 0.146845891164087 
596	 0.146531034840639 
597	 0.146196104759671 
598	 0.145755204970811 
599	 0.145340289207677 
600	 0.144967007127885 
601	 0.144645727813168 
602	 0.144404036798162 
603	 0.14420608883063 
604	 0.144036235179502 
605	 0.143897781327633 
606	 0.143852786311836 
607	 0.143779260935008 
608	 0.143680330566796 
609	 0.143689471077387 
610	 0.143637980842751 
611	 0.143526648949296 
612	 0.143402987947668 
613	 0.143334083659136 
614	 0.143303871148931 
615	 0.14325123347806 
616	 0.143106093751064 
617	 0.14296364204876 
618	 0.142849659770842 
619	 0.142762201619303 
620	 0.142674205051161 
621	 0.142592267949544 
622	 0.142460101802532 
623	 0.142228568746695 
624	 0.141998062794178 
625	 0.141569240728177 
626	 0.141009792239348 
627	 0.14064910433606 
628	 0.140605334570059 
629	 0.140691597887976 
630	 0.140733913993291 
631	 0.140787393679318 
632	 0.140814138474223 
633	 0.140780839530508 
634	 0.140669990993327 
635	 0.140534174010044 
636	 0.140523537561786 
637	 0.140578580770772 
638	 0.140333419554395 
639	 0.14009597652848 
640	 0.139916200294669 
641	 0.139736518782192 
642	 0.13940885841164 
643	 0.138863306327039 
644	 0.137992157027028 
645	 0.136703216375528 
646	 0.135565307781342 
647	 0.135111302282365 
648	 0.135399470953981 
649	 0.135535840521634 
650	 0.135396535420261 
651	 0.135153695754464 
652	 0.135051838620379 
653	 0.134670038043067 
654	 0.134200467066064 
655	 0.133773828861072 
656	 0.133430096690581 
657	 0.133262237979488 
658	 0.133156142266518 
659	 0.133018152799315 
660	 0.132941423036797 
661	 0.132864428516009 
662	 0.132694808164417 
663	 0.132362801803717 
664	 0.132195655986478 
665	 0.132095248664721 
666	 0.131960843886433 
667	 0.131789629994983 
668	 0.131705657921132 
669	 0.131623225262602 
670	 0.131445752332913 
671	 0.131402359978647 
672	 0.131335474843692 
673	 0.13124983007851 
674	 0.131299948891842 
675	 0.131181873908569 
676	 0.131029633191096 
677	 0.130980888842563 
678	 0.13096210508955 
679	 0.131026290420089 
680	 0.131097726841458 
681	 0.131065417457457 
682	 0.13102128749315 
683	 0.130998314234898 
684	 0.130777934346891 
685	 0.129748241565017 
686	 0.128727526815201 
687	 0.128363675911543 
688	 0.12873173669567 
689	 0.128693538497465 
690	 0.128211046468877 
691	 0.127196779634236 
692	 0.125665272580115 
693	 0.125017440731033 
694	 0.125362824882385 
695	 0.126146161658731 
696	 0.126439494005141 
697	 0.125621560187522 
698	 0.124078545542316 
699	 0.122669316019862 
700	 0.121976384751582 
701	 0.121785658924898 
702	 0.121697460676638 
703	 0.121253025973652 
704	 0.120360230175598 
705	 0.119480328417353 
706	 0.118866502871521 
707	 0.11809550591637 
708	 0.117073204116835 
709	 0.115916495235338 
710	 0.114772035253459 
711	 0.1134086595551 
712	 0.111679618137236 
713	 0.109414458696527 
714	 0.106325642333309 
715	 0.10210567085634 
716	 9.71132721296617E-02 
717	 9.26935254962725E-02 
718	 9.00600315132523E-02 
719	 8.98302068703762E-02 
720	 9.05024275658357E-02 
721	 9.02993435997946E-02 
722	 8.77802417179202E-02 
723	 8.44971800713013E-02 
724	 8.20087856306708E-02 
725	 8.04052073200007E-02 
726	 7.90057190310157E-02 
727	 0.077515118680261 
728	 7.58500209981921E-02 
729	 7.39456524842096E-02 
730	 7.31248380257135E-02 
731	 7.34105632723762E-02 
732	 7.39624784289807E-02 
733	 7.36634664648026E-02 
734	 0.072722077494788 
735	 7.17089000355389E-02 
736	 0.071588873760065 
737	 7.17369997070322E-02 
738	 7.20617608461891E-02 
739	 7.25299872269336E-02 
740	 7.29388091021624E-02 
741	 7.33296914009264E-02 
742	 7.36724155154633E-02 
743	 7.39056675359697E-02 
744	 7.39620547214267E-02 
745	 7.39518198568597E-02 
746	 7.39851468423827E-02 
747	 7.41449826865572E-02 
748	 0.074070819345451 
749	 7.39327950134347E-02 
750	 7.39427608943657E-02 
751	 7.39694399936282E-02 
752	 7.39482808461405E-02 
753	 7.38878730845463E-02 
754	 7.38312890324532E-02 
755	 0.073738775475696 
756	 7.35181114908707E-02 
757	 7.29009688011534E-02 
758	 7.09304083366984E-02 
759	 6.72863158154473E-02 
760	 6.38389745907032E-02 
761	 6.41798674435028E-02 
762	 6.43211456441394E-02 
763	 6.54665736957002E-02 
764	 6.74731324936413E-02 
765	 6.96875695107848E-02 
766	 7.12608665015518E-02 
767	 7.23530105820844E-02 
768	 7.30776529949748E-02 
769	 7.34302230545112E-02 
770	 7.37786451390822E-02 
771	 7.40365640277921E-02 
772	 7.41194842119522E-02 
773	 7.42068434834589E-02 
774	 7.43416151607743E-02 
775	 7.44958356740344E-02 
776	 7.46175308861834E-02 
777	 7.47563412577211E-02 
778	 7.48904405554434E-02 
779	 0.075000370115962 
780	 7.50799411171314E-02 
781	 7.52219582812122E-02 
782	 7.53233045963101E-02 
783	 7.52770525294055E-02 
784	 7.50485767256671E-02 
785	 7.47131724572575E-02 
786	 7.42709588608155E-02 
787	 7.37647666788527E-02 
788	 7.35152824136361E-02 
789	 7.36146442563071E-02 
790	 0.074097082320356 
791	 0.074901268543876 
792	 7.55991938946284E-02 
793	 7.58704153986645E-02 
794	 7.56754036278779E-02 
795	 7.53415154430517E-02 
796	 7.53943733919909E-02 
797	 7.56734082125997E-02 
798	 7.58323527919681E-02 
799	 7.56744541302279E-02 
800	 7.55581144481551E-02 
801	 0.075635409313755 
802	 7.59116175680668E-02 
803	 7.63746889656813E-02 
804	 0.077022997230938 
805	 7.75768261694154E-02 
806	 7.74948764471855E-02 
807	 7.68594918927905E-02 
808	 7.59934281697986E-02 
809	 7.50874123763844E-02 
810	 7.38098322997666E-02 
811	 7.22700469168602E-02 
812	 7.05532535423342E-02 
813	 6.88005446132006E-02 
814	 6.71288618009686E-02 
815	 0.066382066420668 
816	 6.64796480318737E-02 
817	 6.65878652560907E-02 
818	 6.74100582920227E-02 
819	 6.80781960236374E-02 
820	 6.79467357005047E-02 
821	 6.66294638365294E-02 
822	 6.60085148724939E-02 
823	 0.065895666662482 
824	 6.56151361871812E-02 
825	 6.49835126404969E-02 
826	 6.39036336910321E-02 
827	 6.27033042796156E-02 
828	 6.18967175461883E-02 
829	 6.12429926395596E-02 
830	 6.08506511288432E-02 
831	 0.060742943016455 
832	 6.08710720503792E-02 
833	 6.11158826012337E-02 
834	 6.13874508169985E-02 
835	 6.16482598094085E-02 
836	 6.19154739927022E-02 
837	 6.21047146767349E-02 
838	 6.23310973680485E-02 
839	 6.26618986307428E-02 
840	 6.29468335118401E-02 
841	 6.31254706133358E-02 
842	 6.33114663173223E-02 
843	 6.36102605538196E-02 
844	 0.063749061106834 
845	 6.39435331750407E-02 
846	 6.40874591231918E-02 
847	 6.38987316737459E-02 
848	 6.37051566424955E-02 
849	 6.35727023779945E-02 
850	 6.34475349717172E-02 
851	 6.31867684032639E-02 
852	 6.33611563881037E-02 
853	 6.35000701853915E-02 
854	 6.32972117835591E-02 
855	 6.32589813330619E-02 
856	 6.34684015981716E-02 
857	 6.36304450352363E-02 
858	 6.35198509626643E-02 
859	 6.35492170583524E-02 
860	 6.36855072337582E-02 
861	 6.36877292554629E-02 
862	 6.33623331788218E-02 
863	 6.34624992773111E-02 
864	 6.35062428491832E-02 
865	 6.32954690977954E-02 
866	 6.30161711964395E-02 
867	 6.30567561196373E-02 
868	 6.31586119861833E-02 
869	 6.30735743199226E-02 
870	 6.27167735291122E-02 
871	 6.25815056001793E-02 
872	 6.25220616557408E-02 
873	 6.23871016249546E-02 
874	 6.23576585893123E-02 
875	 6.21685208996341E-02 
876	 6.19725320179251E-02 
877	 6.19098718476078E-02 
878	 6.15591242592345E-02 
879	 6.14452534142114E-02 
880	 6.13876758462338E-02 
881	 6.10095306913629E-02 
882	 6.09161548682025E-02 
883	 6.07339775691135E-02 
884	 0.060431162324384 
885	 6.02666883666788E-02 
886	 0.060342147148761 
887	 6.00735134261348E-02 
888	 5.94195324878692E-02 
889	 5.89785407190632E-02 
890	 5.80857313479439E-02 
891	 5.70504910675721E-02 
892	 5.59687489941151E-02 
893	 5.42157086758325E-02 
894	 5.27427316688283E-02 
895	 5.13517230131782E-02 
896	 4.97774511700975E-02 
897	 0.048658897784745 
898	 4.84957075823055E-02 
899	 4.85982259705015E-02 
900	 4.82850398145093E-02 
901	 4.85323812386914E-02 
902	 4.90275752389583E-02 
903	 4.94399043495741E-02 
904	 4.94692499965224E-02 
905	 4.89599284136007E-02 
906	 4.82694162268236E-02 
907	 4.74518879901753E-02 
908	 4.64046546456928E-02 
909	 0.04543811299906 
910	 4.50625377963893E-02 
911	 4.50670708210065E-02 
912	 4.47071580590521E-02 
913	 4.46723916559385E-02 
914	 0.044290210170245 
915	 4.38469601218678E-02 
916	 4.46500761387327E-02 
917	 4.54687412227905E-02 
918	 4.64505226851404E-02 
919	 4.74057244924682E-02 
920	 0.047483859456911 
921	 4.65828249414403E-02 
922	 4.58977809820137E-02 
923	 4.59181885478964E-02 
924	 4.51311335361101E-02 
925	 4.33143496220706E-02 
926	 4.15345276279662E-02 
927	 4.06068456911928E-02 
928	 3.82954369639804E-02 
929	 3.66700387251759E-02 
930	 3.44350173060868E-02 
931	 2.95272992942786E-02 
932	 3.06255906330311E-02 
933	 0.030894962037052 
934	 2.95822256041584E-02 
935	 2.93007344021336E-02 
936	 2.62875144967744E-02 
937	 2.58143243191522E-02 
938	 2.63678871727063E-02 
939	 2.55753578513694E-02 
940	 2.62345074039982E-02 
941	 2.68498498780895E-02 
942	 2.64216439384512E-02 
943	 2.47239529362383E-02 
944	 2.42814710561146E-02 
945	 0.02625248376043 
946	 2.69136083643244E-02 
947	 0.022585295017839 
948	 2.45168015659419E-02 
949	 2.80634477684297E-02 
950	 2.89120052250951E-02 
951	 2.58342227273314E-02 
952	 2.92473505339668E-02 
953	 2.88330535255591E-02 
954	 2.65129739032837E-02 
955	 0.03104149186872 
956	 3.28949664005865E-02 
957	 3.24296643210556E-02 
958	 3.25198713124657E-02 
959	 3.55606404133515E-02 
960	 3.34380966694793E-02 
961	 3.29182402458387E-02 
962	 3.54402570175118E-02 
963	 3.77136995993112E-02 
964	 3.84766186940473E-02 
965	 3.92555460596171E-02 
966	 4.03069574963133E-02 
967	 0.04094324982924 
968	 4.20328003441154E-02 
969	 4.33531091671841E-02 
970	 4.35800929488652E-02 
971	 4.14635007758386E-02 
972	 4.36315689338196E-02 
973	 4.42780322971732E-02 
974	 4.21184815867387E-02 
975	 4.15750286386308E-02 
976	 4.37346929977974E-02 
977	 4.42064538535455E-02 
978	 4.34839500920221E-02 
979	 4.57482561089974E-02 
980	 4.52625124144691E-02 
981	 4.65832850126685E-02 
982	 4.89687149424722E-02 
983	 4.79120656099277E-02 
984	 4.95255888962513E-02 
985	 5.09246304117343E-02 
986	 5.06883316289069E-02 
987	 4.96779084190414E-02 
988	 5.08401402345042E-02 
989	 5.14898052732549E-02 
990	 5.15328756761686E-02 
991	 5.29070045027853E-02 
992	 5.47288697248191E-02 
993	 5.46079135387632E-02 
994	 5.34676470279596E-02 
995	 5.40483866223478E-02 
996	 5.44516813358748E-02 
997	 5.49834185282326E-02 
998	 5.40466518098787E-02 
999	 5.07235589287549E-02 
1000	 5.40502907384146E-02 
1001	 5.20940285930582E-02 
1002	 5.24122025969472E-02 
1003	 5.25312524569156E-02 
1004	 5.26663882466143E-02 
1005	 0.052758686364466 
1006	 5.28211820167223E-02 
1007	 5.27556343989824E-02 
1008	 5.29660972523157E-02 
1009	 5.30721875275356E-02 
1010	 5.27079185841791E-02 
1011	 5.27572440578094E-02 
1012	 5.26577880080028E-02 
1013	 5.22726203789345E-02 
1014	 5.22996555569839E-02 
1015	 5.28207659464617E-02 
1016	 5.28820847967511E-02 
1017	 5.28736093597455E-02 
1018	 5.28897418932704E-02 
1019	 5.26522211949362E-02 
1020	 5.26213458411668E-02 
1021	 5.27031525577397E-02 
1022	 5.28188364401663E-02 
1023	 5.29684083658818E-02 
1024	 5.31214231620972E-02 
1025	 5.34014485188404E-02 
1026	 5.35863452227149E-02 
1027	 5.36541527968708E-02 
1028	 5.37222223034436E-02 
1029	 5.37059874437456E-02 
1030	 0.053456012182941 
1031	 5.33933817480025E-02 
1032	 5.32644532432135E-02 
1033	 5.33187400080857E-02 
1034	 5.35652656299574E-02 
1035	 5.37656885825613E-02 
1036	 5.43057825604331E-02 
1037	 5.44145063069545E-02 
1038	 5.42299306491288E-02 
1039	 5.40423026948072E-02 
1040	 5.38642625216138E-02 
1041	 5.37083711577158E-02 
1042	 5.35626617541321E-02 
1043	 5.35458033918019E-02 
1044	 5.34909921505546E-02 
1045	 5.32964033776077E-02 
1046	 0.053317814682008 
1047	 0.053647218531378 
1048	 0.053699724759058 
1049	 5.36159068446719E-02 
1050	 5.36116830056471E-02 
1051	 0.053595511242219 
1052	 5.35134334591667E-02 
1053	 0.053377939184495 
1054	 5.33462610128259E-02 
1055	 5.32433822258684E-02 
1056	 5.32171112269245E-02 
1057	 5.32703306963538E-02 
1058	 5.35772760082778E-02 
1059	 0.053559465981229 
1060	 5.34639688836908E-02 
1061	 5.32943962161168E-02 
1062	 5.29132726076256E-02 
1063	 5.26794948345489E-02 
1064	 5.23597482331986E-02 
1065	 5.22498268076769E-02 
1066	 0.052435452231881 
1067	 5.23231892871886E-02 
1068	 5.20120778632461E-02 
1069	 5.19719423864581E-02 
1070	 5.20607612424298E-02 
1071	 0.051928976289227 
1072	 5.18176885915984E-02 
1073	 0.051848918956496 
1074	 5.17072694580398E-02 
1075	 5.11849367007946E-02 
1076	 5.10577576991556E-02 
1077	 5.12727200616956E-02 
1078	 5.11083779544062E-02 
1079	 5.08674907968554E-02 
1080	 0.050545966161256 
1081	 4.98729783074726E-02 
1082	 4.95624755071531E-02 
1083	 4.93773483046079E-02 
1084	 4.92335681208273E-02 
1085	 4.93460201239456E-02 
1086	 0.049292333694463 
1087	 4.94770122812636E-02 
1088	 4.91903327381626E-02 
1089	 4.83096363022395E-02 
1090	 4.77220941444447E-02 
1091	 4.73437035848312E-02 
1092	 4.67790727260405E-02 
1093	 4.64431433715905E-02 
1094	 4.68057020647475E-02 
1095	 0.046381002996027 
1096	 4.54198075359748E-02 
1097	 4.46804713442992E-02 
1098	 4.37344768199073E-02 
1099	 4.29410516391578E-02 
1100	 4.21624380501565E-02 
1101	 4.14891137790892E-02 
1102	 4.07823996605043E-02 
1103	 4.01402273040068E-02 
1104	 3.95863300331728E-02 
1105	 3.94360042725759E-02 
1106	 0.038606984226418 
1107	 3.79161718363538E-02 
1108	 0.036979308831433 
1109	 3.56476263405512E-02 
1110	 0.03497537839904 
1111	 3.49515990421174E-02 
1112	 3.42761323218661E-02 
1113	 3.39361808398436E-02 
1114	 3.29050017786832E-02 
1115	 3.02146143511599E-02 
1116	 2.84549034825853E-02 
1117	 2.66285229884192E-02 
1118	 2.49283723701724E-02 
1119	 2.48709620033134E-02 
1120	 2.39128347756016E-02 
1121	 2.34030011635317E-02 
1122	 2.25427990398508E-02 
1123	 2.04364129154355E-02 
1124	 0.015224488623825 
1125	 1.04528807178981E-02 
1126	 1.02321989163709E-02 
1127	 9.22388627734879E-03 
1128	 1.18002342183258E-02 
1129	 1.46576955766615E-02 
1130	 1.89033210178797E-02 
1131	 1.95332710350306E-02 
1132	 1.94966375541823E-02 
1133	 2.01667247093551E-02 
1134	 1.98402390435231E-02 
1135	 1.99105671908522E-02 
1136	 2.07732671123145E-02 
1137	 2.14170981497516E-02 
1138	 0.02198708760222 
1139	 2.16279581843085E-02 
1140	 2.12472247375832E-02 
1141	 2.16544211762899E-02 
1142	 2.02656958159593E-02 
1143	 1.84920391727676E-02 
1144	 1.95512969960713E-02 
1145	 2.06548261571891E-02 
1146	 2.03738482840352E-02 
1147	 2.10693343621852E-02 
1148	 2.22178155316292E-02 
1149	 2.13724588919247E-02 
1150	 2.13373805376807E-02 
1151	 2.19924960375781E-02 
1152	 2.34483138503583E-02 
1153	 0.024518969288728 
1154	 2.56573517103755E-02 
1155	 2.77263234847449E-02 
1156	 2.82731331560172E-02 
1157	 2.80081745050861E-02 
1158	 2.88153598757738E-02 
1159	 2.99190269689448E-02 
1160	 0.031125251489952 
1161	 3.25024668820195E-02 
1162	 3.35139704793913E-02 
1163	 3.44895012877291E-02 
1164	 3.56200470579693E-02 
1165	 0.036493491723487 
1166	 3.71272521508854E-02 
1167	 3.77731375766053E-02 
1168	 3.80025159569481E-02 
1169	 3.83157781892727E-02 
1170	 3.95126983854219E-02 
1171	 4.01472378945197E-02 
1172	 4.05207044904591E-02 
1173	 4.09440302650266E-02 
1174	 4.14825221137132E-02 
1175	 4.14929038719252E-02 
1176	 4.12126870710623E-02 
1177	 4.15218089628589E-02 
1178	 0.041910189055157 
1179	 4.18133624923751E-02 
1180	 4.16574340266223E-02 
1181	 4.17290844640588E-02 
1182	 4.14947822070187E-02 
1183	 4.12167020101938E-02 
1184	 4.14500360090337E-02 
1185	 4.18433683017059E-02 
1186	 4.20542739487844E-02 
1187	 4.20309466351523E-02 
1188	 4.19434459652244E-02 
1189	 4.21837379184859E-02 
1190	 4.25520405951457E-02 
1191	 4.27809294749927E-02 
1192	 4.30597947957908E-02 
1193	 4.35719184147136E-02 
1194	 4.36003159063445E-02 
1195	 4.32847892586116E-02 
1196	 4.34880792634877E-02 
1197	 4.35639598215579E-02 
1198	 4.34178157668854E-02 
1199	 4.36505879943146E-02 
1200	 4.38984732629431E-02 
1201	 4.39009887058781E-02 
1202	 4.40522577651522E-02 
1203	 0.044400216203237 
1204	 4.44710795913449E-02 
1205	 4.43726034895554E-02 
1206	 4.44799585410592E-02 
1207	 4.47123499365125E-02 
1208	 4.49549223873442E-02 
1209	 4.51497850808682E-02 
1210	 4.52404212365664E-02 
1211	 4.53446805723671E-02 
1212	 4.54754975042189E-02 
1213	 4.56469502531191E-02 
1214	 4.57808505484039E-02 
1215	 4.60348762764616E-02 
1216	 4.60457844322262E-02 
1217	 4.60887675233975E-02 
1218	 0.046529948490048 
1219	 4.71066850676146E-02 
1220	 4.73765526239428E-02 
1221	 4.74167638174709E-02 
1222	 4.75287092481462E-02 
1223	 4.77529051545943E-02 
1224	 0.047985926322592 
1225	 4.82199765872819E-02 
1226	 4.84631209187125E-02 
1227	 4.87200863167074E-02 
1228	 4.90372903650658E-02 
1229	 4.92792901684574E-02 
1230	 0.049494606147847 
1231	 4.97082183623731E-02 
1232	 0.049893322186594 
1233	 5.01260010188196E-02 
1234	 5.03193079135241E-02 
1235	 5.05194419347467E-02 
1236	 5.04873202477525E-02 
1237	 5.06226724793735E-02 
1238	 5.09304397058716E-02 
1239	 5.12182339077962E-02 
1240	 5.12058806751719E-02 
1241	 5.12083043344161E-02 
1242	 5.13183365382327E-02 
1243	 5.12110253170777E-02 
1244	 5.10892478552888E-02 
1245	 5.12383644328018E-02 
1246	 5.13201648733768E-02 
1247	 5.12272412678826E-02 
1248	 5.11268302272142E-02 
1249	 5.10087115326433E-02 
1250	 5.09832961220546E-02 
1251	 5.08768019211248E-02 
1252	 5.07852284247049E-02 
1253	 5.08645222962212E-02 
1254	 0.050708237793635 
1255	 5.05477552179903E-02 
1256	 5.03956441728703E-02 
1257	 5.04098508132238E-02 
1258	 5.01839154149604E-02 
1259	 4.96787092969815E-02 
1260	 0.04935827018656 
1261	 4.91010618918928E-02 
1262	 4.88076945121282E-02 
1263	 4.84101158791905E-02 
1264	 4.83287904794776E-02 
1265	 4.84248432464796E-02 
1266	 4.82123239616581E-02 
1267	 4.80392728961068E-02 
1268	 4.80794029264586E-02 
1269	 4.79686122363109E-02 
1270	 4.79677485754202E-02 
1271	 4.81907824891836E-02 
1272	 4.82767138577795E-02 
1273	 4.83203863605013E-02 
1274	 4.85637132193625E-02 
1275	 4.88707523009734E-02 
1276	 0.049060310289962 
1277	 4.90597172015768E-02 
1278	 4.90175161967417E-02 
1279	 4.91468145378427E-02 
1280	 0.049275850213297 
1281	 4.92243414554594E-02 
1282	 4.91167197023279E-02 
1283	 4.90835199338315E-02 
1284	 4.89627294984063E-02 
1285	 4.87974746761584E-02 
1286	 4.87149039197327E-02 
1287	 4.86290008657786E-02 
1288	 4.84177643770303E-02 
1289	 4.81000985327182E-02 
1290	 4.77423747043414E-02 
1291	 4.75515555722631E-02 
1292	 4.72489193313383E-02 
1293	 4.68328926981208E-02 
1294	 4.65712577164797E-02 
1295	 0.046354314486048 
1296	 4.59846714374263E-02 
1297	 4.55665224798824E-02 
1298	 0.045201843815832 
1299	 0.044836907479742 
1300	 4.43799397332852E-02 
1301	 4.40904812105454E-02 
1302	 4.38476488788938E-02 
1303	 4.33819576348653E-02 
1304	 4.29777579307613E-02 
1305	 4.26153292125694E-02 
1306	 4.20784913836031E-02 
1307	 4.13926979359623E-02 
1308	 4.08259637322092E-02 
1309	 4.02527344642392E-02 
1310	 3.95196243928076E-02 
1311	 3.85464714631237E-02 
1312	 3.80997940183095E-02 
1313	 0.038005608684771 
1314	 0.037435043293013 
1315	 3.69819830321194E-02 
1316	 3.66727791439911E-02 
1317	 3.60137796805454E-02 
1318	 3.53818878054872E-02 
1319	 3.50262984508405E-02 
1320	 3.47497273924644E-02 
1321	 3.43443667593144E-02 
1322	 3.40057504572174E-02 
1323	 3.35453659008051E-02 
1324	 3.28733281485815E-02 
1325	 3.21611749168006E-02 
1326	 3.13466754111343E-02 
1327	 3.06220738998249E-02 
1328	 3.02818847593058E-02 
1329	 2.93814381737825E-02 
1330	 2.82250855744083E-02 
1331	 2.80189892691362E-02 
1332	 2.76300035425069E-02 
1333	 2.66077482342332E-02 
1334	 2.55809289891378E-02 
1335	 2.52139880957164E-02 
1336	 2.52295058063453E-02 
1337	 2.48940927920479E-02 
1338	 2.50084159789775E-02 
1339	 2.51619894133289E-02 
1340	 2.50420234832668E-02 
1341	 2.41521644412889E-02 
1342	 2.33029986451933E-02 
1343	 2.26926770055543E-02 
1344	 2.01691612441095E-02 
1345	 1.85210098706168E-02 
1346	 1.93156766064673E-02 
1347	 0.018791765637514 
1348	 1.47060304405661E-02 
1349	 1.30875665299981E-02 
1350	 1.82026005313444E-02 
1351	 1.79829406262799E-02 
1352	 1.45818861435901E-02 
1353	 1.61466740219692E-02 
1354	 2.43332292038603E-02 
1355	-6.70050732903722E-03 
1356	-2.48152332545674E-02 
1357	 7.59525708571865E-03 
1358	 1.35403731625103E-02 
1359	-1.38885963614795E-02 
1360	 1.09082540141609E-02 
1361	 5.60399959573531E-02 
1362	 0.156656000168352 
1363	 0.136171405904869 
1364	-7.92326907799983E-02 
1365	-5.85389001675956E-02 
1366	-7.42190364086537E-02 
1367	-0.335200135718589 
1368	-0.321860597259774 
1369	 9.92359942701842E-02 
1370	 6.84029958244892E-02 
1371	-0.177850650112148 
1372	-0.148808636618256 
1373	-0.194475304653526 
1374	-0.222241382125074 
1375	-4.36697931235079E-02 
1376	 2.88505787935058E-02 
1377	-0.116278018187447 
1378	-6.62090346940209E-02 
1379	 0.280217968338199 
1380	 0.402666095099039 
1381	 0.439414727599421 
1382	 0.355285241425388 
1383	 5.02208333147069E-03 
1384	-5.25341895422418E-02 
1385	 0.100407957665273 
1386	 0.112578492952688 
1387	 0.188227824546751 
1388	 0.157275044503783 
1389	-0.336020149082847 
1390	-0.365508692730977 
1391	-0.099080191631516 
1392	-0.18907081168999 
1393	-0.473444318802055 
1394	-0.260627692474623 
1395	 4.13500375346755E-03 
1396	-0.123138656041601 
1397	-0.177805789698255 
1398	 1.14546782868247E-02 
1399	-6.90905853234401E-02 
1400	-0.311663305186887 
1401	-0.214847730097617 
1402	-9.45395441441999E-02 
1403	-0.196564051617859 
1404	-5.09842359673167E-02 
1405	-9.18537194347214E-04 
1406	 0.116266979889493 
1407	 8.00134052123855E-02 
1408	-8.49707372299341E-02 
1409	-7.04257914150851E-02 
1410	-0.039188061505019 
1411	 2.65768262692681E-03 
1412	 0.106825120204674 
1413	 0.102869164975198 
1414	 1.99447630815968E-02 
1415	 3.88427793886989E-02 
1416	 0.145220461318267 
1417	 0.079140634767645 
1418	-5.50508568514281E-02 
1419	-4.84802178861152E-02 
1420	-3.45536558264947E-02 
1421	-4.63565994138587E-02 
1422	-1.52101504140748E-02 
1423	-2.32350412897302E-03 
1424	-3.65919894975914E-02 
1425	-3.18808910159173E-02 
1426	 6.7764467178659E-03 
1427	 1.52834984326344E-02 
1428	 1.74189723476672E-02 
1429	 1.86587726512628E-02 
1430	 7.96504628014061E-03 
1431	 6.31904278355623E-03 
1432	 1.35662618279753E-02 
1433	 1.34431897408723E-02 
1434	 9.49500240010828E-03 
1435	 1.01208691734003E-02 
1436	 9.67160000885905E-03 
1437	 9.03671128360974E-03 
1438	 0.013924627219026 
1439	 0.017938289934066 
1440	 2.34537014164998E-02 
1441	 0.017020794271577 
1442	 4.77192936532976E-03 
1443	 5.67675188461351E-03 
1444	 8.34122767413347E-03 
1445	 8.17988819975844E-03 
1446	 8.77508775551772E-03 
1447	 1.17666371191564E-02 
1448	 1.43430868118938E-02 
1449	 1.28895344813054E-02 
1450	 1.32806757111318E-02 
1451	 1.51796773657793E-02 
1452	 1.47472600256566E-02 
1453	 1.45771033936669E-02 
1454	 1.49661753409457E-02 
1455	 1.53750753907334E-02 
1456	 1.53318007236779E-02 
1457	 1.54045471799323E-02 
1458	 1.60545406638227E-02 
1459	 1.69920582762065E-02 
1460	 0.016410067210837 
1461	 1.55507290994991E-02 
1462	 1.55959470215999E-02 
1463	 0.014924985416955 
1464	 0.013923045084433 
1465	 1.30324834074292E-02 
1466	 1.35245505995235E-02 
1467	 0.014305843992271 
1468	 1.42821455062391E-02 
1469	 0.01619660434208 
1470	 1.64035396274157E-02 
1471	 1.27555724520436E-02 
1472	 1.31024463888462E-02 
1473	 1.71816938859156E-02 
1474	 1.77160576411017E-02 
1475	 1.62073293422343E-02 
1476	 1.67680481362687E-02 
1477	 1.86782348265299E-02 
1478	 1.76022694579656E-02 
1479	 1.50101709388605E-02 
1480	 1.56892763824385E-02 
1481	 1.57140048450987E-02 
1482	 1.57891796879848E-02 
1483	 1.84201445545305E-02 
1484	 1.97479703157908E-02 
1485	 1.92265980203322E-02 
1486	 1.96432212364814E-02 
1487	 2.02739232997314E-02 
1488	 2.16148633788444E-02 
1489	 2.36548351203611E-02 
1490	 2.44053688446086E-02 
1491	 0.024651667731882 
1492	 2.57036539407825E-02 
1493	 2.66986531080177E-02 
1494	 2.72679031568957E-02 
1495	 2.81488162976317E-02 
1496	 2.89473447526821E-02 
1497	 2.92913204432371E-02 
1498	 0.029714390568566 
1499	 3.05513084107457E-02 
1500	 3.11284654303579E-02 
1501	 0.031212494782679 
1502	 3.16682292631394E-02 
1503	 3.24822792805098E-02 
1504	 0.033031264453701 
1505	 3.36275522300045E-02 
1506	 3.40622155135142E-02 
1507	 3.44378855882728E-02 
1508	 3.49318544278015E-02 
1509	 3.53421647753899E-02 
1510	 3.54236169885508E-02 
1511	 3.56538607081257E-02 
1512	 3.60630960310016E-02 
1513	 0.036603022723837 
1514	 3.71331207660285E-02 
1515	 3.72680946506268E-02 
1516	 3.75065261956334E-02 
1517	 3.78006859856842E-02 
1518	 3.79840741039566E-02 
1519	 3.83244206967609E-02 
1520	 3.86793361810751E-02 
1521	 3.91652050290526E-02 
1522	 0.03948466252815 
1523	 3.96029320569452E-02 
1524	 3.98665877411219E-02 
1525	 4.01162604459417E-02 
1526	 4.05014000179946E-02 
1527	 4.06786640572824E-02 
1528	 4.05591944120785E-02 
1529	 4.07950597854913E-02 
1530	 4.12218111941769E-02 
1531	 4.16552789765107E-02 
1532	 4.21701366981786E-02 
1533	 4.23790202711511E-02 
1534	 4.22400597829973E-02 
1535	 4.23108424691092E-02 
1536	 4.25990033313917E-02 
1537	 4.26927153550543E-02 
1538	 0.042782695831918 
1539	 0.04317574312073 
1540	 4.34616905181479E-02 
1541	 4.33794400395205E-02 
1542	 0.0434660444057 
1543	 4.38221828323014E-02 
1544	 4.40880049697929E-02 
1545	 4.42091983079321E-02 
1546	 4.42873209817241E-02 
1547	 4.44540202110998E-02 
1548	 0.044526339479043 
1549	 4.46438357486522E-02 
1550	 0.044937749137968 
1551	 4.49373214600969E-02 
1552	 4.48305272390758E-02 
1553	 4.50736433256063E-02 
1554	 4.53664983750477E-02 
1555	 4.53281492706373E-02 
1556	 4.53819819191123E-02 
1557	 4.55531229845291E-02 
1558	 4.55422208303868E-02 
1559	 4.56674341524873E-02 
1560	 4.57309497806429E-02 
1561	 4.56190368140066E-02 
1562	 0.045618193413022 
1563	 4.55492805142287E-02 
1564	 4.53226821229041E-02 
1565	 4.52836174036728E-02 
1566	 4.53681808462888E-02 
1567	 4.52897484448106E-02 
1568	 4.52464259064964E-02 
1569	 4.52650945106878E-02 
1570	 4.51438673485801E-02 
1571	 4.50999802083213E-02 
1572	 4.52162349262131E-02 
1573	 4.52312671713763E-02 
1574	 4.51718922722073E-02 
1575	 4.50852001829936E-02 
1576	 4.51954126177407E-02 
1577	 4.54411839895717E-02 
1578	 4.54107742472661E-02 
1579	 4.54359649552576E-02 
1580	 4.56099432007756E-02 
1581	 4.56887795262714E-02 
1582	 4.58544750134212E-02 
1583	 4.59835946438619E-02 
1584	 4.59946812538807E-02 
1585	 4.61523934524003E-02 
1586	 0.046300187534041 
1587	 0.046204405422331 
1588	 4.61713800452973E-02 
1589	 4.63220399387466E-02 
1590	 0.046361023186066 
1591	 4.64158816546749E-02 
1592	 4.65411561576211E-02 
1593	 4.64014646619024E-02 
1594	 4.60997731524733E-02 
1595	 4.61409727899591E-02 
1596	 4.63419657716602E-02 
1597	 4.62830891853539E-02 
1598	 4.62622832079352E-02 
1599	 4.63094679124546E-02 
1600	 4.63256513673811E-02 
1601	 0.046205465551256 
1602	 4.59918360345551E-02 
1603	 4.60974056927692E-02 
1604	 4.61909056967817E-02 
1605	 4.60977475803395E-02 
1606	 4.61969738020269E-02 
1607	 4.62114883143473E-02 
1608	 4.60701445277281E-02 
1609	 4.63209708846626E-02 
1610	 4.66052536769804E-02 
1611	 4.65382370698992E-02 
1612	 4.65994388091391E-02 
1613	 4.66231310179456E-02 
1614	 4.65154496450862E-02 
1615	 4.66544463503592E-02 
1616	 4.66981064126122E-02 
1617	 4.66453469388416E-02 
1618	 4.68278601739825E-02 
1619	 4.68909450274633E-02 
1620	 4.67967827563471E-02 
1621	 4.69738393786084E-02 
1622	 4.71673598207846E-02 
1623	 4.70883976648973E-02 
1624	 4.72125495191253E-02 
1625	 4.74458537577747E-02 
1626	 4.74598085938339E-02 
1627	 4.73723979496302E-02 
1628	 4.72311495049521E-02 
1629	 4.72312118390512E-02 
1630	 4.71896771967362E-02 
1631	 4.71496787449543E-02 
1632	 4.73386917170419E-02 
1633	 0.047195408022287 
1634	 0.046916061008303 
1635	 4.70642788994055E-02 
1636	 4.71856010372982E-02 
1637	 4.71336548904814E-02 
1638	 4.71593399077788E-02 
1639	 4.69847732452347E-02 
1640	 0.046864744033826 
1641	 4.71040787265479E-02 
1642	 4.70192914769677E-02 
1643	 4.67989570326658E-02 
1644	 4.69675433945519E-02 
1645	 4.69600038261566E-02 
1646	 4.68458994595055E-02 
1647	 4.69905927553534E-02 
1648	 4.69999132271272E-02 
1649	 4.66858185852486E-02 
1650	 4.65080119540456E-02 
1651	 4.67293728671887E-02 
1652	 4.67569679943178E-02 
1653	 0.046676108888146 
1654	 4.66591407096486E-02 
1655	 0.046527368521011 
1656	 4.65275350752754E-02 
1657	 4.66346956723222E-02 
1658	 4.66456548583091E-02 
1659	 4.66543289207321E-02 
1660	 4.66980474288379E-02 
1661	 4.67938046649204E-02 
1662	 4.67288944090486E-02 
1663	 4.64877367056031E-02 
1664	 4.64139004867654E-02 
1665	 4.63408124043692E-02 
1666	 4.62589237431632E-02 
1667	 4.63824465828028E-02 
1668	 4.61717670718094E-02 
1669	 4.61364082166897E-02 
1670	 0.046271973452304 
1671	 4.64520923578028E-02 
1672	 4.68539255593256E-02 
1673	 4.66777156722084E-02 
1674	 0.046227553376356 
1675	 4.63599513553162E-02 
1676	 4.64057515766202E-02 
1677	 4.62490464535309E-02 
1678	 0.046592457164731 
1679	 4.68832183553478E-02 
1680	 4.64051006793055E-02 
1681	 4.61044253045215E-02 
1682	 4.64831839924103E-02 
1683	 4.65291926795682E-02 
1684	 4.64359040124249E-02 
1685	 4.65787219139442E-02 
1686	 4.62244045266129E-02 
1687	 4.58720388844003E-02 
1688	 4.59477486254645E-02 
1689	 4.59684343033798E-02 
1690	 4.60454272225385E-02 
1691	 4.59221963116397E-02 
1692	 4.54925216265349E-02 
1693	 4.55283209631648E-02 
1694	 4.58392237569138E-02 
1695	 4.56785530209422E-02 
1696	 4.53729136304043E-02 
1697	 4.53265675371625E-02 
1698	 4.52692100155403E-02 
1699	 4.52552488676847E-02 
1700	 4.54337381258063E-02 
1701	 4.54379475070088E-02 
1702	 4.50393116543588E-02 
1703	 4.47762553685683E-02 
1704	 4.49606445177751E-02 
1705	 4.48777175506638E-02 
1706	 4.46696091398012E-02 
1707	 4.45856877051392E-02 
1708	 4.42756518906826E-02 
1709	 4.42813797961108E-02 
1710	 4.43612856100082E-02 
1711	 4.41539967047305E-02 
1712	 4.40538838460417E-02 
1713	 4.38133776029718E-02 
1714	 4.37904323776401E-02 
1715	 4.39542541445578E-02 
1716	 4.41738832705626E-02 
1717	 4.40973609144356E-02 
1718	 4.35902077815611E-02 
1719	 4.33371792879927E-02 
1720	 4.33575607354824E-02 
1721	 0.043275418864063 
1722	 4.34498264373388E-02 
1723	 4.35349200421193E-02 
1724	 4.28656663443581E-02 
1725	 0.042577979934243 
1726	 4.26757741862621E-02 
1727	 4.22999531878006E-02 
1728	 4.20209888642861E-02 
1729	 4.19173648814054E-02 
1730	 4.20223304831314E-02 
1731	 4.22060755009094E-02 
1732	 4.18804233699663E-02 
1733	 4.16401772729688E-02 
1734	 4.14277526653994E-02 
1735	 4.08018672510527E-02 
1736	 4.09245047402183E-02 
1737	 4.12535407677005E-02 
1738	 4.05778106939498E-02 
1739	 4.03540956368818E-02 
1740	 4.03157387322006E-02 
1741	 3.94527619949486E-02 
1742	 0.039203892380845 
1743	 3.91059419118153E-02 
1744	 3.86657940073861E-02 
1745	 3.90242170764971E-02 
1746	 3.89317308682323E-02 
1747	 3.87710831653455E-02 
1748	 3.86416501724265E-02 
1749	 0.038354944793929 
1750	 3.80669244009757E-02 
1751	 3.81284293812191E-02 
1752	 0.038418794150135 
1753	 0.038103410843485 
1754	 3.73877812034652E-02 
1755	 3.70754141303842E-02 
1756	 3.66588986316361E-02 
1757	 3.63082482688629E-02 
1758	 3.63234601920906E-02 
1759	 3.63549849701838E-02 
1760	 0.036040629638771 
1761	 3.63320559160562E-02 
1762	 3.62567393949652E-02 
1763	 0.034521500442075 
1764	 3.28547745694334E-02 
1765	 3.26207892111625E-02 
1766	 3.25323993701987E-02 
1767	 0.03218363505838 
1768	 3.29688517688742E-02 
1769	 3.31767285610276E-02 
1770	 3.17685442092006E-02 
1771	 3.10816276525514E-02 
1772	 0.030136007673783 
1773	 2.85347120808733E-02 
1774	 2.84620331083532E-02 
1775	 3.07596879895172E-02 
1776	 3.07937487003911E-02 
1777	 0.029034741267738 
1778	 2.80924095609582E-02 
1779	 2.56675044769201E-02 
1780	 2.46844737694602E-02 
1781	 2.61040269588527E-02 
1782	 2.61638196641018E-02 
1783	 2.58878242022847E-02 
1784	 2.48659857110686E-02 
1785	 2.22507906107891E-02 
1786	 0.021684626797632 
1787	 2.18733207977758E-02 
1788	 2.26260669556385E-02 
1789	 2.64103624573989E-02 
1790	 2.40558279070913E-02 
1791	 2.15832907434458E-02 
1792	 0.017098722250944 
1793	 1.34021220746942E-02 
1794	 1.89137303512797E-02 
1795	 2.27085495608414E-02 
1796	 2.27170611694357E-02 
1797	 2.14719439109109E-02 
1798	 1.12453870931913E-02 
1799	 1.56441599460538E-03 
1800	 7.11253762800377E-03 
1801	 0.010185943992552 
1802	 2.37197632080136E-02 
1803	 2.71454875875241E-02 
1804	 1.33384100636449E-02 
1805	 4.22675093257142E-03 
1806	-2.94879926902526E-02 
1807	-2.90065865672866E-02 
1808	 4.89643501103338E-02 
1809	 7.93488833849626E-02 
1810	 0.127845757962552 
1811	 0.113174397311749 
1812	-0.138834467860786 
1813	-0.210266256542821 
1814	-0.218405443278807 
1815	-0.19710375754259 
1816	 0.198734583560643 
1817	 0.38090027580684 
1818	 0.10794678683 
1819	-6.64327926547175E-02 
1820	-6.36275592029358E-02 
1821	-0.135322269523492 
1822	-3.20502576026882E-02 
1823	 0.537849769781446 
1824	 0.643254182854686 
1825	 0.562470349715803 
1826	 0.339204746422803 
1827	-0.469551955122135 
1828	-0.740801217862235 
1829	-0.777829228306896 
1830	-0.694091986166019 
1831	-1.46505519977877 
1832	-1.64835728489847 
1833	-1.33894689337951 
1834	 20.7744817083989 
1835	 4.03478822326956 
1836	 5.09051293032867 
1837	 4.58249847199692 
1838	 6.29763077459061 
1839	 0.570441357339358 
1840	 0.582377702253122 
1841	 0.439030800077992 
1842	 1.1559887779695 
1843	 1.09657469261841 
1844	 8.7246737246311 
1845	 2.53158892172324 
1846	-8.69638463538064 
1847	-8.67972166302345 
1848	 3.21966564835311 
1849	-0.854437564835467 
1850	-0.515438123610892 
1851	-1.65027890196191 
1852	-1.40674707855322 
1853	-1.06913318987989 
1854	-0.994207147378049 
1855	 0.667400782112227 
1856	 0.676406696125699 
1857	 1.7717740811153 
1858	 1.57730196109368 
1859	 0.537946795336687 
1860	 0.713999612800526 
1861	-5.56754959308773 
1862	-1.08489695564627 
1863	-0.475779495830704 
1864	-0.427665241144785 
1865	-0.403317305693914 
1866	-0.221105202154282 
1867	-8.70423101261056E-02 
1868	-0.30850496417533 
1869	-1.97309945408652 
1870	-6.16147288694369 
1871	 4.12823389598579 
1872	 7.80816745249396 
1873	-4.34619577928645 
1874	-0.552726893633055 
1875	 1.44944368394053 
1876	 1.24135887505904 
1877	-7.49854001361748E-02 
1878	-0.234738768196488 
1879	-0.679768203778599 
1880	-0.873294574611653 
1881	-0.574340578578236 
1882	-0.41614914145829 
1883	-0.79046954841588 
1884	-0.807576362309477 
1885	-1.0955836058706 
1886	 4.4087486923243 
1887	-8.39351066535625 
1888	-6.20924525860504 
1889	-7.67206578352925 
1890	-7.85317473560525 
1891	-5.96519607868937 
1892	-6.66388584629692 
1893	-4.37160724484483 
1894	-2.15606512159258 
1895	-1.59399120687233 
1896	-452.098037117014 
1897	 0.142094032405487 
1898	 0.77324253189282 
1899	 1.74071080803381 
1900	 3.30663956478047 
1901	-4.86137375695279 
1902	-1.27105572678529 
1903	 1.11809385120599E-02 
1904	 0.222716697757189 
1905	 3.54517450019144 
1906	 1.56300208050037 
1907	 0.611120828337232 
1908	 0.489629559589595 
1909	-0.145759889466498 
1910	 0.183151494614276 
1911	-0.620334785732062 
1912	-1.35374681312486 
1913	-0.541674248484785 
1914	 0.119417127495685 
1915	 0.1373551934599 
1916	-0.168010251581713 
1917	-0.866940256168612 
1918	-114.333885141689 
1919	 3.70254104830384 
1920	 0.771163376527859 
1921	 2.82833471644788 
1922	-6.5480853072589 
1923	-1.09392475076203 
1924	-0.580491034942392 
1925	 0.104998210045286 
1926	 6.54390100518583 
1927	-0.74976948986622 
1928	-0.44422258125877 
1929	-0.649812867645757 
1930	 1.69089149904991 
1931	-1.02917173064762 
1932	 9.39349472323037 
1933	 0.815452157830773 
1934	 0.640971725829436 
1935	 0.192534224327767 
1936	 0.140357010946777 
1937	 0.153179789742653 
1938	-0.160577307918119 
1939	-0.191385519227805 
1940	-0.121425803922323 
1941	-6.69947000831503E-02 
1942	-4.75464164459854E-02 
1943	 1.54981897685415E-02 
1944	-1.88617243738643E-02 
1945	-7.93043668185456E-02 
1946	-8.21912650994751E-02 
1947	-8.12193016563685E-02 
1948	-3.84162119173436E-02 
1949	-1.27792622838197E-02 
1950	-1.39187626120772E-02 
1951	 1.73278265029855E-02 
1952	 2.18095141469393E-02 
1953	 1.13925159811024E-02 
1954	 1.17664645528083E-02 
1955	 4.07487675539249E-02 
1956	 4.71816117935485E-02 
1957	 3.84482245946298E-02 
1958	 2.70961361431664E-02 
1959	 1.90298192386747E-02 
1960	 7.72166929564816E-03 
1961	 8.69847995763082E-04 
1962	 5.27605954265295E-03 
1963	 1.46106450996989E-02 
1964	 2.03874658266314E-02 
1965	 0.020061581665371 
1966	 0.020852125777333 
1967	 2.30476899197003E-02 
1968	 2.03944006128517E-02 
1969	 1.76290809818887E-02 
1970	 2.09290094512476E-02 
1971	 2.17221219073131E-02 
1972	 2.02307774749417E-02 
1973	 1.87527557588366E-02 
1974	 1.70520141296617E-02 
1975	 1.71543957459664E-02 
1976	 0.018903298521795 
1977	 2.06020969110159E-02 
1978	 2.05878644456346E-02 
1979	 2.04203392648913E-02 
1980	 1.96892558969681E-02 
1981	 1.85731643279919E-02 
1982	 0.018095683259725 
1983	 1.96198073797914E-02 
1984	 1.97751114633739E-02 
1985	 1.99512029704854E-02 
1986	 2.10704036325767E-02 
1987	 0.020181132488712 
1988	 2.05883526050716E-02 
1989	 2.21882898737019E-02 
1990	 2.15167046310986E-02 
1991	 0.020587698458228 
1992	 2.06206041889159E-02 
1993	 0.019901411044548 
1994	 1.92480988068688E-02 
1995	 1.85861012253223E-02 
1996	 1.93121385632984E-02 
1997	 1.87579553465331E-02 
1998	 1.75938787182691E-02 
1999	 1.93913332415654E-02 
2000	 2.10096051744237E-02 
2001	 2.07243610231367E-02 
2002	 2.17375317378676E-02 
2003	 2.12943362074355E-02 
2004	 1.89074959521107E-02 
2005	 1.89088185824356E-02 
2006	 1.98364664776558E-02 
2007	 1.96254386798472E-02 
2008	 2.00939461250621E-02 
2009	 2.06577603334614E-02 
2010	 2.16594247486832E-02 
2011	 2.20079783125971E-02 
2012	 2.24778650992148E-02 
2013	 2.23754145845708E-02 
2014	 2.08747234587449E-02 
2015	 2.05834712961312E-02 
2016	 0.02243337413974 
2017	 2.33771297323104E-02 
2018	 2.20806786307648E-02 
2019	 2.20595996982133E-02 
2020	 2.30574237952903E-02 
2021	 2.30807324332378E-02 
2022	 2.52566786697099E-02 
2023	 2.73124088623749E-02 
2024	 2.80626189225368E-02 
2025	 2.76257444120631E-02 
2026	 2.78442024023659E-02 
2027	 2.79969052844655E-02 
2028	 2.78862118006422E-02 
2029	 2.80924833165772E-02 
2030	 2.84399586883448E-02 
2031	 2.86687902845729E-02 
2032	 2.88159387541423E-02 
2033	 2.92776677467931E-02 
2034	 2.93238218391016E-02 
2035	 2.93983986986834E-02 
2036	 0.030018586246138 
2037	 3.01833284237411E-02 
2038	 3.00050954651054E-02 
2039	 3.01506868753054E-02 
2040	 3.04859826325878E-02 
2041	 3.05680183202902E-02 
2042	 3.06939661558432E-02 
2043	 3.08107275884372E-02 
2044	 3.10354727193756E-02 
2045	 3.04070416549565E-02 
2046	 2.95703685305892E-02 
2047	 2.92559883459584E-02 
2048	 2.90346158970387E-02 
2049	 2.88148540290951E-02 
2050	 2.91302178509747E-02 
2051	 3.01203858901573E-02 
2052	 3.01073140554519E-02 
2053	 2.97581775302448E-02 
2054	 3.02053012745281E-02 
2055	 3.00796822083318E-02 
2056	 2.99264786767593E-02 
2057	 2.95349084778411E-02 
2058	 2.97332774613045E-02 
2059	 3.04559020129829E-02 
2060	 3.03312846383957E-02 
2061	 2.98347981233049E-02 
2062	 3.01650012184732E-02 
2063	 3.00723264358742E-02 
2064	 3.00513407588792E-02 
2065	 3.04992290671217E-02 
2066	 3.08689833646249E-02 
2067	 3.18558625540948E-02 
2068	 3.20367899831281E-02 
2069	 3.19529749264361E-02 
2070	 3.22363768600224E-02 
2071	 3.17449250785664E-02 
2072	 3.10617689990909E-02 
2073	 3.11878606757911E-02 
2074	 3.23781187380107E-02 
2075	 3.29401971957839E-02 
2076	 3.33861003339127E-02 
2077	 0.033766187596825 
2078	 3.41089683181871E-02 
2079	 3.40668728885632E-02 
2080	 3.35443299071922E-02 
2081	 3.40821322526605E-02 
2082	 3.36838973883122E-02 
2083	 3.35497362416666E-02 
2084	 3.42552799015033E-02 
2085	 3.39641928128512E-02 
2086	 3.39392283416201E-02 
2087	 3.37970801392853E-02 
2088	 3.35765246391277E-02 
2089	 0.033631407899387 
2090	 3.31614879576166E-02 
2091	 3.38031699086121E-02 
2092	 3.45149577195491E-02 
2093	 3.55078358705186E-02 
2094	 0.035837285014636 
2095	 3.65532418291015E-02 
2096	 3.66744929900533E-02 
2097	 3.56261668497563E-02 
2098	 3.55078256254963E-02 
2099	 3.59190754548254E-02 
2100	 3.60546647181431E-02 
2101	 0.036036014272693 
2102	 3.58499630731388E-02 
2103	 3.57959813822574E-02 
2104	 3.66032880909835E-02 
2105	 3.76063697929054E-02 
2106	 3.81130125130149E-02 
2107	 3.83538540692983E-02 
2108	 3.84083325461824E-02 
2109	 3.76836378675925E-02 
2110	 3.70175078753647E-02 
2111	 3.76904273405678E-02 
2112	 3.80045539163775E-02 
2113	 3.79373969781298E-02 
2114	 3.81481858505945E-02 
2115	 3.81710557698958E-02 
2116	 3.71438141807365E-02 
2117	 3.69713038565596E-02 
2118	 3.77169818638756E-02 
2119	 3.77934011796127E-02 
2120	 3.76524354385426E-02 
2121	 3.76600658698674E-02 
2122	 3.78419125725808E-02 
2123	 3.79224323047048E-02 
2124	 0.038399307083814 
2125	 3.87969734185376E-02 
2126	 3.81363167378139E-02 
2127	 3.82654160898201E-02 
2128	 3.94525541235939E-02 
2129	 3.95288933560955E-02 
2130	 3.92283358806801E-02 
2131	 3.93718316580388E-02 
2132	 3.92418711184729E-02 
2133	 3.93937328669105E-02 
2134	 3.96073790641136E-02 
2135	 4.07750422285806E-02 
2136	 4.08352478340045E-02 
2137	 3.96890807198977E-02 
2138	 3.96296271395954E-02 
2139	 4.02818625278864E-02 
2140	 4.05388994664212E-02 
2141	 4.08331472295148E-02 
2142	 4.13148171391503E-02 
2143	 4.22062053978753E-02 
2144	 4.17159944815462E-02 
2145	 4.13307200198374E-02 
2146	 4.12953258841786E-02 
2147	 4.02668799180496E-02 
2148	 3.94344176496169E-02 
2149	 0.039296692601129 
2150	 3.88791161301459E-02 
2151	 3.85893386715235E-02 
2152	 3.82695353339905E-02 
2153	 3.75556556772721E-02 
2154	 3.71335033064293E-02 
2155	 3.74873775388572E-02 
2156	 0.037812009749836 
2157	 3.79302349504998E-02 
2158	 3.86360355437257E-02 
2159	 0.038706347448145 
2160	 3.75509994730129E-02 
2161	 3.76538599268843E-02 
2162	 3.85326912622705E-02 
2163	 3.82880149078743E-02 
2164	 3.79297790175189E-02 
2165	 3.81389760052092E-02 
2166	 3.78189047170873E-02 
2167	 3.79975795420762E-02 
2168	 3.93199795068223E-02 
2169	 3.98676227963764E-02 
2170	 4.01471714209574E-02 
2171	 3.99402733768169E-02 
2172	 3.92638184332739E-02 
2173	 3.89890768938004E-02 
2174	 3.87674829494996E-02 
2175	 3.79450598347634E-02 
2176	 3.80000376330455E-02 
2177	 3.80943631724933E-02 
2178	 3.71606753261357E-02 
2179	 3.69935028274446E-02 
2180	 3.74750599716475E-02 
2181	 3.84591766187382E-02 
2182	 0.03985966466491 
2183	 4.02929816663583E-02 
2184	 0.03971491026278 
2185	 3.84268169648167E-02 
2186	 0.037864966705216 
2187	 3.75528459283843E-02 
2188	 3.76844642574005E-02 
2189	 0.038296821170824 
2190	 3.85215004008983E-02 
2191	 3.85676056121997E-02 
2192	 3.86329513777984E-02 
2193	 3.92087084669797E-02 
2194	 3.92632691877126E-02 
2195	 3.86315898575788E-02 
2196	 3.88265505421508E-02 
2197	 3.91116770819482E-02 
2198	 3.91706986536268E-02 
2199	 3.96622492732421E-02 
2200	 4.05253650266991E-02 
2201	 4.01981862340852E-02 
2202	 0.038801112599903 
2203	 0.038163655108353 
2204	 3.82627345256229E-02 
2205	 3.81552897696772E-02 
2206	 3.82848771219163E-02 
2207	 0.037935771568091 
2208	 3.71366755258283E-02 
2209	 3.76845312522166E-02 
2210	 3.90429543546355E-02 
2211	 3.99362983845033E-02 
2212	 4.07704783427214E-02 
2213	 4.05228233739758E-02 
2214	 3.95076199802043E-02 
2215	 3.98048838281436E-02 
2216	 4.01928676366472E-02 
2217	 4.01721055142634E-02 
2218	 4.03895334249099E-02 
2219	 4.01084967345848E-02 
2220	 3.86102743143167E-02 
2221	 3.85713801799546E-02 
2222	 3.92544034599427E-02 
2223	 3.96503144813399E-02 
2224	 4.18045292644923E-02 
2225	 4.14722356479804E-02 
2226	 0.038195669024483 
2227	 3.78209270702804E-02 
2228	 3.77116443074417E-02 
2229	 3.75589926853836E-02 
2230	 3.97592408492368E-02 
2231	 4.06809466090559E-02 
2232	 4.00960752875613E-02 
2233	 4.01961613068795E-02 
2234	 4.12452329591731E-02 
2235	 4.09872306157901E-02 
2236	 3.93589760472957E-02 
2237	 3.84686104050406E-02 
2238	 3.69962296490618E-02 
2239	 3.61419625465031E-02 
2240	 3.67453998318877E-02 
2241	 0.037310988198205 
2242	 3.84413988338658E-02 
2243	 4.01348450939095E-02 
2244	 4.18195204948798E-02 
2245	 4.25286520762331E-02 
2246	 0.041880428975743 
2247	 4.16727590294442E-02 
2248	 4.17779987370414E-02 
2249	 0.040534886588498 
2250	 4.02420730420033E-02 
2251	 3.98555973092897E-02 
2252	 3.82983762373049E-02 
2253	 3.99131026683751E-02 
2254	 4.05928696808576E-02 
2255	 3.77205745770038E-02 
2256	 3.63029452863794E-02 
2257	 3.57350591101894E-02 
2258	 3.55949440554312E-02 
2259	 3.72029102838518E-02 
2260	 3.83320607130829E-02 
2261	 0.040010767096548 
2262	 0.04080736898898 
2263	 4.15089976549294E-02 
2264	 0.041652603449777 
2265	 4.05649362695944E-02 
2266	 4.04489760344394E-02 
2267	 4.11665497258401E-02 
2268	 4.02286185037567E-02 
2269	 3.87293922440997E-02 
2270	 3.81801076744969E-02 
2271	 3.59679656520146E-02 
2272	 3.54354721137296E-02 
2273	 3.76338489540205E-02 
2274	 3.80525711322187E-02 
2275	 3.82020007963629E-02 
2276	 3.77807363345559E-02 
2277	 3.48734506128161E-02 
2278	 3.47280498686113E-02 
2279	 3.67263850681473E-02 
2280	 3.72667280207684E-02 
2281	 3.81366062599648E-02 
2282	 4.05578345543668E-02 
2283	 4.11617723426097E-02 
2284	 3.88661216600391E-02 
2285	 3.70448833586008E-02 
2286	 3.52692730960854E-02 
2287	 3.41316838660704E-02 
2288	 3.35776387073042E-02 
2289	 3.39638599540475E-02 
2290	 3.59718658734004E-02 
2291	 3.48001160672841E-02 
2292	 3.23791171835556E-02 
2293	 3.25070332817196E-02 
2294	 3.30717607467841E-02 
2295	 3.47881793243872E-02 
2296	 3.69806038793525E-02 
2297	 3.77978085916879E-02 
2298	 3.69445067294383E-02 
2299	 3.51689668438861E-02 
2300	 3.30521046397104E-02 
2301	 3.08610564716294E-02 
2302	 3.21643327583364E-02 
2303	 3.72128809951059E-02 
2304	 0.039968548091047 
2305	 3.84520164046938E-02 
2306	 3.55954416793652E-02 
2307	 3.44019395055992E-02 
2308	 3.47140977296381E-02 
2309	 3.42559978921582E-02 
2310	 3.42467445959209E-02 
2311	 3.48444419309922E-02 
2312	 3.27782244954111E-02 
2313	 3.15270523652821E-02 
2314	 3.44091819345157E-02 
2315	 0.032804252764148 
2316	 2.78188721931565E-02 
2317	 2.89417923296941E-02 
2318	 0.032038252890738 
2319	 3.26513877249984E-02 
2320	 3.43718720080928E-02 
2321	 3.49917002651638E-02 
2322	 3.24351199634644E-02 
2323	 3.07302218260398E-02 
2324	 2.86346126154112E-02 
2325	 2.85301732885578E-02 
2326	 3.07993630460396E-02 
2327	 3.10090975615884E-02 
2328	 3.35107853591646E-02 
2329	 3.72187154496847E-02 
2330	 3.93112466844446E-02 
2331	 4.21937554341929E-02 
2332	 0.041395515337316 
2333	 4.06011570842692E-02 
2334	 4.30472106391924E-02 
2335	 4.06268104213002E-02 
2336	 3.83031579596853E-02 
2337	 3.15691669929888E-02 
2338	 2.16988404182974E-02 
2339	 2.42577760845318E-02 
2340	 2.76715424733532E-02 
2341	 3.08047731014248E-02 
2342	 3.62501695927191E-02 
2343	 3.95779170643766E-02 
2344	 3.93816958535024E-02 
2345	 3.44105706838613E-02 
2346	 3.60168486361359E-02 
2347	 3.06331254629899E-02 
2348	 2.19618479597478E-02 
2349	 2.64120990279508E-02 
2350	 2.35244915561767E-02 
2351	 1.62327633760977E-02 
2352	 1.38957810365656E-02 
2353	 1.48939868143215E-02 
2354	 2.20760023440967E-02 
2355	 3.23737722740624E-02 
2356	 4.27908730810822E-02 
2357	 4.16292936399448E-02 
2358	 3.35866128841117E-02 
2359	 3.01554177101903E-02 
2360	 3.13774086647098E-02 
2361	 3.57292838363017E-02 
2362	 4.04194556731753E-02 
2363	 4.28843333368811E-02 
2364	 3.81733830308123E-02 
2365	 0.035515090247894 
2366	 3.76521103297928E-02 
2367	 3.04566066949464E-02 
2368	 2.03987970025798E-02 
2369	 1.77473541473172E-02 
2370	 1.39238358967628E-02 
2371	 1.58447935400771E-02 
2372	 2.98567200023618E-02 
2373	 4.70529922848031E-02 
2374	 5.06094107625111E-02 
2375	 4.96357719499734E-02 
2376	 6.50891547222219E-02 
2377	 6.09599112511632E-02 
2378	 4.20139845465855E-02 
2379	 4.92598414864507E-02 
2380	 6.11027323926144E-02 
2381	 5.50190561387609E-02 
2382	 5.49477197129774E-02 
2383	 6.70437477039866E-02 
2384	 5.99886389473409E-02 
2385	 0.039497045249627 
2386	 4.19024873609667E-02 
2387	 0.049718653606391 
2388	 3.74071149990845E-02 
2389	 2.88990104521456E-02 
2390	 2.33754556448223E-02 
2391	 5.28131021188975E-03 
2392	-8.12552742331712E-03 
2393	-1.70072701995164E-03 
2394	 1.1752395028311E-03 
2395	-4.8788979723689E-03 
2396	 2.91697802555323E-02 
2397	 5.78139377136163E-02 
2398	 5.10099106516834E-02 
2399	 7.08870583605935E-02 
2400	 6.88712154333713E-02 
2401	 0.03424436517814 
2402	 5.64636713625762E-02 
2403	 0.079175280774222 
2404	 4.70187324877888E-02 
2405	 2.65353355889566E-02 
2406	 4.34820428846553E-02 
2407	 5.36019007018708E-02 
2408	 4.64126416913103E-02 
2409	 7.38488612209204E-02 
2410	 5.58941783177368E-02 
2411	-2.60712479117752E-02 
2412	-3.98230581865977E-02 
2413	-6.34123446778556E-02 
2414	-6.61139064100782E-02 
2415	 1.8358034768879E-03 
2416	 2.80332022836921E-02 
2417	 0.013211749843056 
2418	-1.47168934731852E-02 
2419	-2.52817027405917E-02 
2420	 2.63409023876137E-02 
2421	 0.105573377493072 
2422	 0.101328994574514 
2423	 6.30474008885508E-02 
2424	 6.05569376020618E-02 
2425	 8.98667933472556E-02 
2426	 9.41459065874288E-02 
2427	 3.78033267397453E-02 
2428	 5.81732550313777E-02 
2429	 4.58731616506947E-02 
2430	 3.34139001245883E-02 
2431	 0.143276237313694 
2432	 7.96824657492407E-02 
2433	-3.76633295088713E-02 
2434	-0.048684785455022 
2435	-0.17634515430585 
2436	-0.21664683058449 
2437	-4.97153551974511E-02 
2438	 0.050046032554407 
2439	 0.18399749406335 
2440	 0.302246394214282 
2441	 0.198418294520289 
2442	 9.04637519964319E-03 
2443	-0.135858204054685 
2444	-0.207105025895957 
2445	-0.428253234112366 
2446	-0.431709507381336 
2447	 4.30182021619608E-02 
2448	 0.128531011782094 
2449	 0.324596609908235 
2450	 0.318893976564484 
2451	-0.463448198449653 
2452	-1.04477298597405 
2453	-0.460627481257256 
2454	-0.103326868896133 
2455	-4.44809822277822E-02 
2456	-0.184892381281777 
2457	-0.119563358702598 
2458	-0.135250371675358 
2459	-0.363535088805599 
2460	-0.253686908999559 
2461	-0.478649373848337 
2462	-1.22769828076406 
2463	-1.57710749689506 
2464	-1.98369797282653 
2465	-1.02366226909931 
2466	 6.66851286533177E-02 
2467	 0.760349299946456 
2468	 7.87385761240429E-02 
2469	 0.430771858203009 
2470	 0.520722515365008 
2471	-0.857311994130587 
2472	 0.207702651481177 
2473	-0.135769518497261 
2474	 3.30789131251744 
2475	 1.70010115873144 
2476	-10.20648227725 
2477	-0.940329209162257 
2478	 1.53901375574657 
2479	 3.14408575749924 
2480	 11.4781786224947 
2481	 16.0772017290641 
2482	 6.42492772833862 
2483	 0.834815693366991 
2484	-0.277003760755392 
2485	-0.478465127675885 
2486	-0.928231630087902 
2487	-1.02268373798015 
2488	-0.822256844028315 
2489	-1.24178158232892 
2490	-1.42678784243897 
2491	-0.801424788831858 
2492	-0.858634805588966 
2493	-1.07751777620175 
2494	 7.43568662138739E-02 
2495	-1.20221124323936 
2496	-0.418986451380475 
2497	-2.95673311740122 
2498	-0.503136888564609 
2499	 1.63067249549413 
2500	-1.56827992601322E-02 
