Wavelength	rt0713west_far_sunny00000.asd
350	 5.23005896442666E-02 
351	 5.23224446768834E-02 
352	 5.17093843693578E-02 
353	 5.13808255547633E-02 
354	 5.16835856111252E-02 
355	 5.12850339409931E-02 
356	 5.12197459714369E-02 
357	 5.14370106204884E-02 
358	 5.15139731049819E-02 
359	 5.09518222465177E-02 
360	 5.05352073935822E-02 
361	 5.05588491230924E-02 
362	 5.08679591377221E-02 
363	 5.08054185014128E-02 
364	 5.06398494512762E-02 
365	 5.05368096046816E-02 
366	 5.03145814479041E-02 
367	 5.01774250149584E-02 
368	 5.00622137450381E-02 
369	 4.98899958027162E-02 
370	 0.04978537909803 
371	 4.96488859695472E-02 
372	 4.96574836279123E-02 
373	 5.00373192541561E-02 
374	 5.00627030342782E-02 
375	 4.98321883011724E-02 
376	 4.95910646420255E-02 
377	 4.96346653999027E-02 
378	 4.96558525583632E-02 
379	 4.97443842656251E-02 
380	 4.99421298121012E-02 
381	 0.049861042354647 
382	 4.97527922509589E-02 
383	 4.98561789726917E-02 
384	 5.02962876536382E-02 
385	 5.05828153758325E-02 
386	 5.06821402412943E-02 
387	 5.05889736666958E-02 
388	 5.02971308218509E-02 
389	 5.01953633815585E-02 
390	 5.02203151445633E-02 
391	 5.03217202452789E-02 
392	 5.07870775900246E-02 
393	 5.09494008621327E-02 
394	 5.08490721328376E-02 
395	 5.07786720097165E-02 
396	 5.07048627669833E-02 
397	 5.07722125563203E-02 
398	 5.09467724026609E-02 
399	 0.051046371655037 
400	 5.09939767141972E-02 
401	 5.10103909445049E-02 
402	 5.11647286467257E-02 
403	 5.10593762517048E-02 
404	 0.051278760155553 
405	 5.15698887391629E-02 
406	 5.15093437399751E-02 
407	 5.16139769751268E-02 
408	 5.17257206892564E-02 
409	 5.17771131835667E-02 
410	 5.18326013023683E-02 
411	 5.20044986078236E-02 
412	 5.21954750293136E-02 
413	 5.23018198078789E-02 
414	 0.052271109804347 
415	 5.24064424978774E-02 
416	 5.26168088558456E-02 
417	 5.26961742858017E-02 
418	 5.28135573029411E-02 
419	 5.31077161377849E-02 
420	 5.34555016700579E-02 
421	 0.053481771635939 
422	 5.35884305565044E-02 
423	 5.38114975151075E-02 
424	 5.41066446988089E-02 
425	 5.44531586453582E-02 
426	 5.47104937379597E-02 
427	 5.49219462981755E-02 
428	 0.055216999277915 
429	 0.055621785394002 
430	 5.59668332787859E-02 
431	 5.62122164922105E-02 
432	 0.056490342314183 
433	 5.67791822975856E-02 
434	 5.71225347182463E-02 
435	 5.75100672172754E-02 
436	 5.77324866582977E-02 
437	 5.79997725899824E-02 
438	 5.83596006546024E-02 
439	 5.87521200279343E-02 
440	 5.90610854664634E-02 
441	 5.93749864360337E-02 
442	 5.97326019415963E-02 
443	 6.00668733635662E-02 
444	 6.03746073249727E-02 
445	 6.06497791087774E-02 
446	 6.09056166788395E-02 
447	 6.12306007396164E-02 
448	 6.14933259575943E-02 
449	 6.17101421837355E-02 
450	 6.20003421795017E-02 
451	 6.22781064106321E-02 
452	 6.24873476902673E-02 
453	 6.26578484868967E-02 
454	 0.062993659704603 
455	 6.32105508756785E-02 
456	 6.33244749148081E-02 
457	 6.34645231502647E-02 
458	 6.37190801597349E-02 
459	 6.39157195145738E-02 
460	 6.40531993264491E-02 
461	 6.43001198411394E-02 
462	 6.43501608142446E-02 
463	 6.44483374059978E-02 
464	 6.47484635851006E-02 
465	 6.48519361752397E-02 
466	 6.49576975734356E-02 
467	 6.51257908501266E-02 
468	 6.53373537767321E-02 
469	 6.54923926648901E-02 
470	 6.56579735255474E-02 
471	 6.58609291569327E-02 
472	 6.60535171874582E-02 
473	 6.61586258908348E-02 
474	 6.63139639391178E-02 
475	 6.66273189080247E-02 
476	 6.69047973643791E-02 
477	 6.71127069002108E-02 
478	 6.73304592390222E-02 
479	 0.067683027037125 
480	 6.78590142592485E-02 
481	 0.068063839270373 
482	 6.84126726441499E-02 
483	 6.86925292493404E-02 
484	 6.90651639038098E-02 
485	 6.94193515646746E-02 
486	 6.96350346018931E-02 
487	 7.00899839263209E-02 
488	 7.04913442195738E-02 
489	 0.070752221641886 
490	 7.10236839532964E-02 
491	 0.071443172655816 
492	 7.18701998709013E-02 
493	 7.22026326417349E-02 
494	 7.26106064117231E-02 
495	 7.30061209988627E-02 
496	 7.34483415420049E-02 
497	 7.40285732537322E-02 
498	 7.44715375082066E-02 
499	 7.48133830435924E-02 
500	 7.51605282548298E-02 
501	 7.56724529212415E-02 
502	 7.61080757260607E-02 
503	 7.64975269560948E-02 
504	 7.69368327858649E-02 
505	 7.74274540289347E-02 
506	 7.80062188331948E-02 
507	 7.85777946102185E-02 
508	 7.89699190213268E-02 
509	 7.94956546852321E-02 
510	 8.00740272874871E-02 
511	 8.06137693027327E-02 
512	 8.11590217538266E-02 
513	 8.16961536433218E-02 
514	 8.22895657353834E-02 
515	 8.29856339556433E-02 
516	 8.34926821104839E-02 
517	 8.40725711239618E-02 
518	 8.47749750349127E-02 
519	 8.53355953990898E-02 
520	 8.59897297174588E-02 
521	 8.66346215328552E-02 
522	 8.71893449425394E-02 
523	 8.79148616202913E-02 
524	 8.85483538019757E-02 
525	 8.91033293943194E-02 
526	 0.089784198399679 
527	 9.05210812658584E-02 
528	 9.12172280837716E-02 
529	 9.18309903195724E-02 
530	 9.24230387233198E-02 
531	 9.31027766276477E-02 
532	 9.38143325058784E-02 
533	 9.44533080140301E-02 
534	 9.50667844345485E-02 
535	 9.57581182623165E-02 
536	 9.65075822503357E-02 
537	 9.71536398769333E-02 
538	 9.78245952641763E-02 
539	 9.84781081422211E-02 
540	 9.90851175110635E-02 
541	 9.97896856402677E-02 
542	 0.100512698006441 
543	 0.101200279337579 
544	 0.101830948781085 
545	 0.102498451569511 
546	 0.103190117815846 
547	 0.103877745626458 
548	 0.104533026441776 
549	 0.105203856294978 
550	 0.105884902802515 
551	 0.106551257459868 
552	 0.107176856658913 
553	 0.107805786641385 
554	 0.10846956024086 
555	 0.109174117386968 
556	 0.109798008145746 
557	 0.110381539746549 
558	 0.110987467973068 
559	 0.111643934454922 
560	 0.112164043350255 
561	 0.112624154848572 
562	 0.113237934132243 
563	 0.113747230523963 
564	 0.114205253974484 
565	 0.114642366796395 
566	 0.114956862174217 
567	 0.115332574489575 
568	 0.115718509461808 
569	 0.116017900939188 
570	 0.116436357279559 
571	 0.116741411642096 
572	 0.116910735620028 
573	 0.117168516345786 
574	 0.117451236351872 
575	 0.117698652530903 
576	 0.11787010691685 
577	 0.117997652370835 
578	 0.118135675312521 
579	 0.118257079782993 
580	 0.11829010283837 
581	 0.118274235864846 
582	 0.118233138480311 
583	 0.118158582608947 
584	 0.117988493660052 
585	 0.117749771650913 
586	 0.117393333463038 
587	 0.116892552343443 
588	 0.116528510677381 
589	 0.116205349907959 
590	 0.115905903782135 
591	 0.115692269243335 
592	 0.115357589996245 
593	 0.114906930010162 
594	 0.114392603113004 
595	 0.113835716406193 
596	 0.113170326644687 
597	 0.112403791453352 
598	 0.111595651574111 
599	 0.1107922545907 
600	 0.110121939699258 
601	 0.10963553690513 
602	 0.109241719518956 
603	 0.108952654912865 
604	 0.108742160780979 
605	 0.108590594468264 
606	 0.108561831289412 
607	 0.10851221874375 
608	 0.108440415642895 
609	 0.108492824744972 
610	 0.108467893046245 
611	 0.108419520595941 
612	 0.108411797575419 
613	 0.108374971991345 
614	 0.108301763922666 
615	 0.108268070338575 
616	 0.108354174759088 
617	 0.108217970211106 
618	 0.108138332711015 
619	 0.108209763513069 
620	 0.108126860390324 
621	 0.107998893143394 
622	 0.107966812013045 
623	 0.108090966574228 
624	 0.10797596530363 
625	 0.107848881967018 
626	 0.10776873090643 
627	 0.107621570109723 
628	 0.10758797044599 
629	 0.107638612352674 
630	 0.107676351073779 
631	 0.107533299003946 
632	 0.10744710232741 
633	 0.107430901737744 
634	 0.107391169041594 
635	 0.107340799813986 
636	 0.107283417708005 
637	 0.107190349217983 
638	 0.106983082095632 
639	 0.106796050919083 
640	 0.10665145343623 
641	 0.106518357474685 
642	 0.106303169203299 
643	 0.106079467921228 
644	 0.105826874747228 
645	 0.105456011551228 
646	 0.105084084607271 
647	 0.104804964217257 
648	 0.104644474819356 
649	 0.104493099480165 
650	 0.104238660278823 
651	 0.103933364873061 
652	 0.103676662018961 
653	 0.103313242381008 
654	 0.102780761961286 
655	 0.102100449001757 
656	 0.101494215541969 
657	 0.101018175584081 
658	 0.100606241604581 
659	 0.100189410190102 
660	 9.98126098945717E-02 
661	 9.94632740960346E-02 
662	 9.91584283224869E-02 
663	 0.098932347804575 
664	 9.87379948465519E-02 
665	 9.85448963073555E-02 
666	 9.83363575511434E-02 
667	 9.81166414698235E-02 
668	 9.79189993833881E-02 
669	 9.77711573976539E-02 
670	 9.76883389014146E-02 
671	 9.76460194133649E-02 
672	 9.75889096537172E-02 
673	 9.75144982230398E-02 
674	 9.74698070020522E-02 
675	 9.74385819257107E-02 
676	 9.74148069553025E-02 
677	 9.74180671206272E-02 
678	 0.097540625766163 
679	 9.76314588760982E-02 
680	 0.097685165378323 
681	 9.77595908310743E-02 
682	 9.78304944155579E-02 
683	 9.79065134538268E-02 
684	 9.79622101444929E-02 
685	 0.097923379066376 
686	 9.78267175074562E-02 
687	 9.78268410309041E-02 
688	 9.79839754274701E-02 
689	 9.79920213207078E-02 
690	 9.78739998352487E-02 
691	 9.75830014273648E-02 
692	 9.70598092937004E-02 
693	 9.66719888793036E-02 
694	 0.096447501002971 
695	 9.62808618323883E-02 
696	 9.59728507402175E-02 
697	 0.095372770537192 
698	 9.45288216734052E-02 
699	 9.36495910940979E-02 
700	 9.30017380150397E-02 
701	 9.23788314779834E-02 
702	 9.16683157689887E-02 
703	 9.08399412353216E-02 
704	 8.98496980032479E-02 
705	 8.88066144715961E-02 
706	 8.77973016554416E-02 
707	 0.086740385082083 
708	 8.55250099358755E-02 
709	 8.41379346885592E-02 
710	 8.26210159433442E-02 
711	 0.081051158423468 
712	 7.93899716378919E-02 
713	 7.75939472444701E-02 
714	 7.55716641436595E-02 
715	 7.34854937055528E-02 
716	 7.11404161426922E-02 
717	 6.86207880529176E-02 
718	 6.64416508462878E-02 
719	 6.45809517568019E-02 
720	 6.31558419255567E-02 
721	 6.18596340274215E-02 
722	 6.00881972399841E-02 
723	 5.79500427056419E-02 
724	 5.58751163265022E-02 
725	 5.39298977504645E-02 
726	 5.21137985093653E-02 
727	 5.01566446957268E-02 
728	 4.79305036873189E-02 
729	 4.57594801134713E-02 
730	 4.37250132980062E-02 
731	 4.20334806140947E-02 
732	 0.040711567154782 
733	 3.95318779182218E-02 
734	 3.83591529458907E-02 
735	 3.72690241942086E-02 
736	 3.65758487428473E-02 
737	 3.61673830595183E-02 
738	 3.58726275997703E-02 
739	 3.55777809323297E-02 
740	 3.53506604520429E-02 
741	 0.035274786025964 
742	 0.035263903458473 
743	 3.51695068326354E-02 
744	 3.51512978995668E-02 
745	 3.50890936278024E-02 
746	 3.49670720005008E-02 
747	 3.49414147600538E-02 
748	 3.48959813440133E-02 
749	 3.48639007302232E-02 
750	 3.48749674539223E-02 
751	 3.48280891307588E-02 
752	 3.47594496328863E-02 
753	 3.47171840224475E-02 
754	 3.47392111665808E-02 
755	 3.47385676803753E-02 
756	 3.46889065633615E-02 
757	 3.45749079569851E-02 
758	 3.43357249590243E-02 
759	 0.033851727354323 
760	 3.33256508059633E-02 
761	 3.33200973793008E-02 
762	 3.34425595547798E-02 
763	 0.033632032656763 
764	 3.38865075205775E-02 
765	 3.42174075902755E-02 
766	 0.034568371222308 
767	 3.47932043278206E-02 
768	 3.49212757617333E-02 
769	 3.51272908916104E-02 
770	 3.53235736118039E-02 
771	 3.54341403554277E-02 
772	 3.54693327698393E-02 
773	 0.03566554637503 
774	 3.58589817173354E-02 
775	 3.59797891383087E-02 
776	 3.60343481320031E-02 
777	 3.61927922505564E-02 
778	 3.64269161166856E-02 
779	 3.66758681578492E-02 
780	 3.68683908383251E-02 
781	 3.70331503244389E-02 
782	 3.72217986481031E-02 
783	 3.74584611718533E-02 
784	 3.77038381661774E-02 
785	 3.78868553764649E-02 
786	 3.80493635842403E-02 
787	 3.82737028960678E-02 
788	 0.038594110853977 
789	 3.89026633048456E-02 
790	 3.92077265072553E-02 
791	 3.96080708875311E-02 
792	 3.99869065575919E-02 
793	 4.02951134520537E-02 
794	 4.05470750126532E-02 
795	 4.08287178137349E-02 
796	 4.10764462483861E-02 
797	 4.13359161008903E-02 
798	 4.16457427920108E-02 
799	 4.18901044281207E-02 
800	 4.20575726841866E-02 
801	 4.22507872735319E-02 
802	 4.25908355756601E-02 
803	 4.28251308600896E-02 
804	 4.30046005412151E-02 
805	 4.31420518901576E-02 
806	 4.31813708230413E-02 
807	 4.31865131995961E-02 
808	 4.30504663356247E-02 
809	 4.27439995939295E-02 
810	 4.25274284302113E-02 
811	 4.22250173429044E-02 
812	 0.041778831467085 
813	 4.12154637872479E-02 
814	 4.07290245663826E-02 
815	 4.03867722951539E-02 
816	 4.00693211948283E-02 
817	 3.95706339005673E-02 
818	 3.92391691554801E-02 
819	 3.89807319260395E-02 
820	 3.85811314757896E-02 
821	 3.77373647748538E-02 
822	 0.036753518538251 
823	 3.58000549802219E-02 
824	 3.49460073056673E-02 
825	 3.40680061873183E-02 
826	 3.30821964743783E-02 
827	 3.18912438666773E-02 
828	 3.05670984153588E-02 
829	 2.95294713132672E-02 
830	 2.87241837377022E-02 
831	 2.80833518880183E-02 
832	 2.75690561775914E-02 
833	 2.70984263881536E-02 
834	 2.67316502015188E-02 
835	 2.64709683355737E-02 
836	 2.62318922373688E-02 
837	 2.61539428026749E-02 
838	 2.61699658899424E-02 
839	 2.61427575078059E-02 
840	 2.58631593918546E-02 
841	 2.56362249036461E-02 
842	 2.54926425517711E-02 
843	 2.53811598124694E-02 
844	 2.54177023094891E-02 
845	 2.52642400006656E-02 
846	 2.50105800241847E-02 
847	 2.49987129431027E-02 
848	 0.024905067496724 
849	 2.47980169199926E-02 
850	 2.47296818095848E-02 
851	 2.46726725465148E-02 
852	 2.45785300740778E-02 
853	 2.43769799128372E-02 
854	 0.024138936860339 
855	 2.42085783750914E-02 
856	 2.42872878927487E-02 
857	 2.42120249575398E-02 
858	 2.39689207105438E-02 
859	 2.39012317841378E-02 
860	 2.37403957351354E-02 
861	 2.35575193441624E-02 
862	 2.35325753150938E-02 
863	 2.33552669183775E-02 
864	 0.02338924205607 
865	 2.35085837264571E-02 
866	 0.023191824046445 
867	 2.30453036772526E-02 
868	 2.29577056369002E-02 
869	 2.28297124029895E-02 
870	 2.27106966669217E-02 
871	 2.26169098903449E-02 
872	 2.25015701624192E-02 
873	 2.23753742085501E-02 
874	 2.24255007318973E-02 
875	 2.21656365679416E-02 
876	 2.18404241816603E-02 
877	 2.17957523808476E-02 
878	 2.18691824335326E-02 
879	 2.16952078695861E-02 
880	 2.15248188113756E-02 
881	 0.021721352830401 
882	 2.14874376135549E-02 
883	 2.11458712829187E-02 
884	 2.09835030950574E-02 
885	 2.11275330848741E-02 
886	 2.10764064596518E-02 
887	 2.10147130298849E-02 
888	 2.09318759358623E-02 
889	 0.02054637367303 
890	 2.02983170128298E-02 
891	 0.020073749101041 
892	 1.97695143974477E-02 
893	 1.95004794424743E-02 
894	 1.93836805147969E-02 
895	 1.90261926521528E-02 
896	 1.83462260494041E-02 
897	 1.87546662706543E-02 
898	 1.85725852805941E-02 
899	 1.82286599087407E-02 
900	 1.84503673762598E-02 
901	 1.81212043795422E-02 
902	 1.82203362976334E-02 
903	 1.85064178527027E-02 
904	 1.83840745768294E-02 
905	 1.79460873233812E-02 
906	 1.77851674403084E-02 
907	 1.79404254333866E-02 
908	 1.79364733167561E-02 
909	 1.70696864066509E-02 
910	 1.69846281864009E-02 
911	 1.76935146477339E-02 
912	 1.76406904854895E-02 
913	 1.72750781452826E-02 
914	 0.017011879194013 
915	 1.69423302422964E-02 
916	 1.68065216862633E-02 
917	 1.71081701029873E-02 
918	 1.72741958268651E-02 
919	 1.70431442977776E-02 
920	 1.67321180655285E-02 
921	 1.63323687829322E-02 
922	 1.61321653917013E-02 
923	 1.62546953277402E-02 
924	 1.63968325666409E-02 
925	 1.57288456254265E-02 
926	 1.50730816474384E-02 
927	 1.50938231177985E-02 
928	 0.013362455212156 
929	 1.32729078095381E-02 
930	 1.44805803479526E-02 
931	 1.41960612741466E-02 
932	 1.26787552272091E-02 
933	 1.17491479635803E-02 
934	 1.15354726879553E-02 
935	 1.12732304716365E-02 
936	 1.29444344752598E-02 
937	 1.28147287950708E-02 
938	 1.23326422647645E-02 
939	 0.013167126426972 
940	 1.14715564349338E-02 
941	 1.15155463282036E-02 
942	 1.28663102340588E-02 
943	 1.29100714166552E-02 
944	 1.21515287352936E-02 
945	 1.09001800995952E-02 
946	 1.01098269031845E-02 
947	 1.05724897367142E-02 
948	 1.09482386915773E-02 
949	 1.10249979130053E-02 
950	 1.15506034961805E-02 
951	 1.31739263221471E-02 
952	 1.30879729194672E-02 
953	 1.11141400794682E-02 
954	 9.82049938315719E-03 
955	 1.21527892123052E-02 
956	 1.33064193632812E-02 
957	 1.32744306829331E-02 
958	 1.35458864160391E-02 
959	 1.52973549253254E-02 
960	 1.26844562500703E-02 
961	 1.31130106693416E-02 
962	 1.52131760321805E-02 
963	 0.012615880111278 
964	 1.16013219991139E-02 
965	 1.26153789422845E-02 
966	 1.42385753430919E-02 
967	 0.014517804039146 
968	 1.44438174619178E-02 
969	 1.33328542695397E-02 
970	 1.24214213921189E-02 
971	 0.013970433665182 
972	 1.40377892441131E-02 
973	 1.36534067716879E-02 
974	 1.35850896617365E-02 
975	 1.38216525594493E-02 
976	 1.48959817863141E-02 
977	 1.62639139631478E-02 
978	 1.64351636539965E-02 
979	 1.42326756233029E-02 
980	 1.48882945505926E-02 
981	 1.54057189123505E-02 
982	 1.51637110760426E-02 
983	 0.015734220715284 
984	 1.47501191245173E-02 
985	 1.44310096725326E-02 
986	 1.50584662730489E-02 
987	 1.52248186784361E-02 
988	 1.55483987252046E-02 
989	 1.59927646532353E-02 
990	 1.57363168844837E-02 
991	 1.41294070681221E-02 
992	 1.49144208953187E-02 
993	 1.64119019791795E-02 
994	 1.68071879169597E-02 
995	 1.52903002404793E-02 
996	 0.014612286480381 
997	 1.55841792413705E-02 
998	 1.67700588462828E-02 
999	 1.61817301102388E-02 
1000	 1.63380494844641E-02 
1001	 1.28110089017806E-02 
1002	 1.31221272802471E-02 
1003	 1.31708688577247E-02 
1004	 0.013248284993369 
1005	 1.32629485173993E-02 
1006	 1.30414215336981E-02 
1007	 0.012824718701319 
1008	 1.30414884743354E-02 
1009	 0.013364213529422 
1010	 1.35739451714845E-02 
1011	 0.013671403072969 
1012	 1.32132719636839E-02 
1013	 1.27854949815865E-02 
1014	 1.27034433814198E-02 
1015	 1.26190655540121E-02 
1016	 1.28033558171263E-02 
1017	 1.35997097493513E-02 
1018	 1.39155934858266E-02 
1019	 1.40513650078678E-02 
1020	 1.42697018171255E-02 
1021	 1.45724489063632E-02 
1022	 1.44871221014709E-02 
1023	 1.44823941500791E-02 
1024	 1.44871035425169E-02 
1025	 1.40333775160189E-02 
1026	 1.39358216063366E-02 
1027	 1.38863899478358E-02 
1028	 0.013944970342376 
1029	 1.39382649195447E-02 
1030	 0.014014444753009 
1031	 1.40517937079696E-02 
1032	 1.40276355296626E-02 
1033	 1.40403417360074E-02 
1034	 1.41765960386855E-02 
1035	 1.41949750670073E-02 
1036	 1.40474569215833E-02 
1037	 1.40789035164211E-02 
1038	 0.014348649736693 
1039	 1.42604634353949E-02 
1040	 1.40548193838984E-02 
1041	 0.014005710971669 
1042	 1.41021446270428E-02 
1043	 1.41507933550251E-02 
1044	 1.42564833008741E-02 
1045	 1.47576985360105E-02 
1046	 1.48092645407202E-02 
1047	 1.45352958581513E-02 
1048	 1.44013574280286E-02 
1049	 1.40752389659581E-02 
1050	 1.40188962644761E-02 
1051	 1.41311414220103E-02 
1052	 1.41827839897028E-02 
1053	 1.44870325291627E-02 
1054	 1.45578233614018E-02 
1055	 1.42405496535529E-02 
1056	 1.42509258934944E-02 
1057	 1.43624612752555E-02 
1058	 1.45394920889568E-02 
1059	 0.01466754109365 
1060	 1.51379953056278E-02 
1061	 1.51091665663648E-02 
1062	 1.46510185140268E-02 
1063	 1.45166493917841E-02 
1064	 1.43215825091722E-02 
1065	 1.42038843198584E-02 
1066	 1.42630523439533E-02 
1067	 1.42640365032889E-02 
1068	 1.41357289048825E-02 
1069	 1.41713450561132E-02 
1070	 1.45129419061207E-02 
1071	 1.45573302489515E-02 
1072	 1.43978259201599E-02 
1073	 1.44294854670111E-02 
1074	 1.43603901564416E-02 
1075	 1.40825099815185E-02 
1076	 1.39820189558961E-02 
1077	 1.39946022529791E-02 
1078	 1.40240485414801E-02 
1079	 1.40891316406334E-02 
1080	 1.40977561916584E-02 
1081	 1.42035107955166E-02 
1082	 1.41673736820165E-02 
1083	 1.40007489240473E-02 
1084	 0.013871047268437 
1085	 1.36428501807542E-02 
1086	 1.35812217937706E-02 
1087	 1.34733363570514E-02 
1088	 1.34693159144592E-02 
1089	 1.37709502020708E-02 
1090	 1.40242707587419E-02 
1091	 1.38512841752303E-02 
1092	 1.34666217858867E-02 
1093	 1.33282724025158E-02 
1094	 1.27543483505375E-02 
1095	 1.26868009832041E-02 
1096	 1.33084102865615E-02 
1097	 1.33653397690813E-02 
1098	 1.31840602790465E-02 
1099	 0.013136277919698 
1100	 1.30081915322584E-02 
1101	 1.28439437326233E-02 
1102	 1.26610586620131E-02 
1103	 1.25812394768409E-02 
1104	 1.25247360519112E-02 
1105	 0.012341549274107 
1106	 1.21035622810345E-02 
1107	 1.20259552125494E-02 
1108	 1.23055062947503E-02 
1109	 1.21147448083282E-02 
1110	 1.15990448890681E-02 
1111	 1.06438052501877E-02 
1112	 1.06478054505213E-02 
1113	 1.06512426803501E-02 
1114	 1.04847685212386E-02 
1115	 0.01182583144388 
1116	 1.18554230361693E-02 
1117	 9.11116770813454E-03 
1118	 8.27858097443248E-03 
1119	 9.58654574209506E-03 
1120	 9.94882395054333E-03 
1121	 1.26296823155446E-02 
1122	 1.10329386899969E-02 
1123	 7.76522578667343E-03 
1124	 6.90392310591675E-03 
1125	 5.81124610915005E-03 
1126	 6.48876409193368E-03 
1127	 7.55127413085114E-03 
1128	 6.26518193443709E-03 
1129	 6.84122997727982E-03 
1130	 8.42453448783537E-03 
1131	 7.96475461305688E-03 
1132	 6.57595528488365E-03 
1133	 7.03522799224475E-03 
1134	 7.90389916190077E-03 
1135	 8.20087929954553E-03 
1136	 9.1407059628565E-03 
1137	 9.72178488481659E-03 
1138	 1.04063887894834E-02 
1139	 8.48889815415197E-03 
1140	 7.65510854959968E-03 
1141	 8.85388279496912E-03 
1142	 7.69157424251939E-03 
1143	 6.90267813562081E-03 
1144	 7.32764562776838E-03 
1145	 6.19778725092597E-03 
1146	 5.18428261099603E-03 
1147	 6.07252052458009E-03 
1148	 7.41381496950136E-03 
1149	 8.46268606467053E-03 
1150	 8.49688969457653E-03 
1151	 7.48998921677341E-03 
1152	 7.95305536018775E-03 
1153	 8.50275434228508E-03 
1154	 8.85229884760418E-03 
1155	 9.86064990156622E-03 
1156	 1.04138114794228E-02 
1157	 9.80244799249848E-03 
1158	 9.25722789970122E-03 
1159	 9.65726966350529E-03 
1160	 1.05614297414264E-02 
1161	 1.12010187879169E-02 
1162	 1.11856721021445E-02 
1163	 1.09432837540648E-02 
1164	 1.08877040488272E-02 
1165	 1.07834882173484E-02 
1166	 1.09680590945549E-02 
1167	 1.14803407377157E-02 
1168	 1.12845905798567E-02 
1169	 1.09384805388326E-02 
1170	 1.13777886153065E-02 
1171	 1.15441284068545E-02 
1172	 1.14953479890882E-02 
1173	 1.15027133678054E-02 
1174	 1.16982302816813E-02 
1175	 1.16694102553328E-02 
1176	 1.12119174386167E-02 
1177	 0.011622216644313 
1178	 1.24021100725102E-02 
1179	 1.21690978271318E-02 
1180	 1.19756546004572E-02 
1181	 1.22102240861201E-02 
1182	 0.01180627828244 
1183	 1.17162333043094E-02 
1184	 1.24026522609665E-02 
1185	 1.22099684635757E-02 
1186	 1.16745648173059E-02 
1187	 1.18905313358803E-02 
1188	 1.19809673489887E-02 
1189	 1.17920529010847E-02 
1190	 1.19223585960016E-02 
1191	 1.20764227599638E-02 
1192	 1.20519260036801E-02 
1193	 1.17131241776229E-02 
1194	 1.17520940507297E-02 
1195	 1.20655199525673E-02 
1196	 1.19825838998205E-02 
1197	 1.19347792693343E-02 
1198	 1.21803621662939E-02 
1199	 1.21830680154184E-02 
1200	 0.012081051802848 
1201	 1.21082391370844E-02 
1202	 1.21578437016355E-02 
1203	 0.012196082025531 
1204	 1.22333791565478E-02 
1205	 1.21877508511803E-02 
1206	 1.21036642195084E-02 
1207	 1.20483079574121E-02 
1208	 1.19613337442992E-02 
1209	 1.22205205191441E-02 
1210	 1.26195480324711E-02 
1211	 1.25218980537133E-02 
1212	 1.24835394065152E-02 
1213	 1.26391177749338E-02 
1214	 1.25989174190442E-02 
1215	 1.23023003492746E-02 
1216	 1.23044236683742E-02 
1217	 1.24495048143663E-02 
1218	 1.23273170363162E-02 
1219	 1.23685864086323E-02 
1220	 1.26106759641494E-02 
1221	 1.27657215614301E-02 
1222	 1.26970992933359E-02 
1223	 1.25025990726876E-02 
1224	 1.25315702177722E-02 
1225	 1.25561563603844E-02 
1226	 1.24360035346686E-02 
1227	 1.26222658552562E-02 
1228	 1.29065992932633E-02 
1229	 1.28755212040424E-02 
1230	 1.28596750129353E-02 
1231	 1.29528882088905E-02 
1232	 1.28516654349885E-02 
1233	 1.27513190739637E-02 
1234	 1.29873053972652E-02 
1235	 1.31179426787839E-02 
1236	 1.31501292629233E-02 
1237	 1.31343265867025E-02 
1238	 1.31063757267349E-02 
1239	 1.32354199020331E-02 
1240	 1.31290810332001E-02 
1241	 1.30793510357357E-02 
1242	 0.013087154839234 
1243	 1.29169921663467E-02 
1244	 1.27990607228327E-02 
1245	 1.29186109925604E-02 
1246	 1.30897391344822E-02 
1247	 1.30208090237583E-02 
1248	 0.012912601384728 
1249	 1.29541295995562E-02 
1250	 1.30270291279782E-02 
1251	 0.013198080931534 
1252	 1.33231511799519E-02 
1253	 1.31171288618112E-02 
1254	 1.29620416546586E-02 
1255	 1.30352353525952E-02 
1256	 1.29726678270537E-02 
1257	 1.29418899451923E-02 
1258	 1.29682334661958E-02 
1259	 1.29066306402582E-02 
1260	 1.28128460601849E-02 
1261	 1.28175920707541E-02 
1262	 1.28471184985466E-02 
1263	 1.29160574200493E-02 
1264	 1.27080243996544E-02 
1265	 1.25471072128014E-02 
1266	 1.28409314038631E-02 
1267	 1.28201511580056E-02 
1268	 1.24583934039068E-02 
1269	 1.26811209017685E-02 
1270	 1.27682717921731E-02 
1271	 1.24793904481785E-02 
1272	 1.25733593020384E-02 
1273	 1.25969087014004E-02 
1274	 1.24118239531525E-02 
1275	 1.24517049856572E-02 
1276	 1.26657194981834E-02 
1277	 1.28834515466946E-02 
1278	 1.28461469184435E-02 
1279	 0.012692206884425 
1280	 1.27103868651673E-02 
1281	 1.27058287792754E-02 
1282	 1.26891081855213E-02 
1283	 1.26748845491212E-02 
1284	 1.26426805734872E-02 
1285	 1.26489587713014E-02 
1286	 1.27360614524362E-02 
1287	 1.26953734672468E-02 
1288	 1.25951617867929E-02 
1289	 1.26319339821516E-02 
1290	 1.27345722960924E-02 
1291	 1.25911726235626E-02 
1292	 1.26004884130098E-02 
1293	 1.27082464641608E-02 
1294	 1.26565480531619E-02 
1295	 1.25645928730959E-02 
1296	 1.23583864980008E-02 
1297	 1.21050896657037E-02 
1298	 1.21455221448015E-02 
1299	 1.22356800817925E-02 
1300	 1.22638700345475E-02 
1301	 1.23892910920648E-02 
1302	 1.22551940104323E-02 
1303	 1.18726657380429E-02 
1304	 1.18269621519349E-02 
1305	 0.011968953293552 
1306	 1.19384548915686E-02 
1307	 1.18361332919094E-02 
1308	 1.17981080263416E-02 
1309	 1.17140431549948E-02 
1310	 1.16324432598723E-02 
1311	 1.16228099550807E-02 
1312	 1.15568609654536E-02 
1313	 1.14444802054208E-02 
1314	 1.12475301997997E-02 
1315	 1.09133769332939E-02 
1316	 1.08257719969026E-02 
1317	 0.01084067563721 
1318	 0.01076530447949 
1319	 1.08318182417891E-02 
1320	 1.08347893370354E-02 
1321	 1.06846428535712E-02 
1322	 0.010586210184598 
1323	 1.04925871510153E-02 
1324	 0.010427921305841 
1325	 1.04725874806153E-02 
1326	 1.03403071040213E-02 
1327	 1.03859487476473E-02 
1328	 1.03910120208738E-02 
1329	 9.69546158838147E-03 
1330	 9.37708734000951E-03 
1331	 9.66739499694977E-03 
1332	 9.49764811978095E-03 
1333	 9.34725458531766E-03 
1334	 9.78824781132165E-03 
1335	 1.00253697421276E-02 
1336	 1.00677228335822E-02 
1337	 1.00022479583868E-02 
1338	 1.00790612930186E-02 
1339	 1.03017099729184E-02 
1340	 1.04442368673864E-02 
1341	 1.02735608938274E-02 
1342	 1.00634190958451E-02 
1343	 9.80246291515068E-03 
1344	 8.3411550878084E-03 
1345	 7.93729005226033E-03 
1346	 1.06295350623219E-02 
1347	 1.09484485236656E-02 
1348	 6.04145898340898E-03 
1349	 5.51338687330163E-03 
1350	 1.29932711844762E-02 
1351	 1.07474576558405E-02 
1352	-2.77704828733624E-03 
1353	-5.48392872660684E-03 
1354	-0.014605120926381 
1355	-3.97925090728699E-02 
1356	-3.49931276666292E-02 
1357	-2.17516403793867E-02 
1358	-2.88185441061635E-02 
1359	-0.100860663588985 
1360	-0.123581580057856 
1361	 1.14939944068168E-02 
1362	 0.114974764092897 
1363	 3.70146246049961E-02 
1364	-6.51178238901797E-02 
1365	-8.79357604437631E-02 
1366	-0.100561319987461 
1367	-0.197785888898812 
1368	-0.194020671851963 
1369	-0.13496742443995 
1370	 5.26464563109419E-02 
1371	 0.455699667696519 
1372	 0.379969405977201 
1373	 5.56196681720474E-02 
1374	 0.132334715736648 
1375	 0.12346560771762 
1376	 2.20617719290813E-02 
1377	 0.146776114196173 
1378	 0.153828482307282 
1379	-0.437988344414429 
1380	-0.486266454341002 
1381	-6.03728286933464E-02 
1382	 1.0319216777914E-03 
1383	-1.93798320868537E-02 
1384	 4.11074913227041E-03 
1385	 8.61430433573233E-02 
1386	 6.01840794170345E-02 
1387	-0.150396434765715 
1388	-0.145218288098202 
1389	-0.197800944890661 
1390	-0.24856196981575 
1391	 2.22408180924089E-02 
1392	 0.101709127089299 
1393	-0.140260870988544 
1394	-0.126058241440082 
1395	-0.231228945430513 
1396	-0.36000142209064 
1397	-0.079962338052227 
1398	-3.45793351943707E-02 
1399	-0.249069726669017 
1400	-0.278235671995561 
1401	-7.61912837415741E-02 
1402	 0.050027961547184 
1403	-7.15047735371386E-02 
1404	-1.79157605123573E-02 
1405	 8.47113696664824E-02 
1406	-0.213274767026777 
1407	-0.324291106562678 
1408	-0.020267967187213 
1409	 0.087854757283121 
1410	 3.85253697023351E-02 
1411	-3.36783023882862E-02 
1412	 2.32519198689189E-03 
1413	-3.70286737227922E-03 
1414	-0.239899745441608 
1415	-0.211980748412185 
1416	 1.65838566650598E-02 
1417	 3.88904992983485E-02 
1418	 1.18235340868336E-02 
1419	 1.52618303868836E-02 
1420	 1.48421507605098E-03 
1421	-5.0118019760469E-03 
1422	-6.08265983973304E-03 
1423	-6.51941046926756E-03 
1424	-1.12392766343543E-02 
1425	-1.43914155222731E-02 
1426	-1.25593124479752E-02 
1427	-7.3366496038978E-03 
1428	-2.8206151650069E-03 
1429	-7.88634930591242E-04 
1430	 1.28302164838985E-02 
1431	 7.40742351127059E-03 
1432	-2.25681818501954E-02 
1433	-2.58370167348238E-02 
1434	-0.0168793736566 
1435	-2.20061323048926E-02 
1436	-2.66144985862867E-02 
1437	-2.03423201655631E-02 
1438	-1.29079596580373E-02 
1439	-6.19391220595315E-03 
1440	 3.50876374156501E-04 
1441	 8.0214669972288E-03 
1442	 1.06905746454531E-02 
1443	 9.20166513050239E-04 
1444	-5.27540367512886E-03 
1445	-1.79572835949426E-03 
1446	-1.92586390168451E-03 
1447	-2.83066080351698E-03 
1448	-1.19828106015267E-03 
1449	 2.21413954005118E-03 
1450	 6.35861415752863E-03 
1451	 5.61188318188315E-03 
1452	 4.60276631453936E-03 
1453	 5.86569958809599E-03 
1454	 6.70769624431685E-03 
1455	 5.78898915714548E-03 
1456	 5.7230841676356E-03 
1457	 7.47089061380787E-03 
1458	 7.68667174620243E-03 
1459	 6.04611801534124E-03 
1460	 5.67320531686233E-03 
1461	 6.62276321175976E-03 
1462	 6.46096969675862E-03 
1463	 5.40056927434858E-03 
1464	 5.15376385527522E-03 
1465	 5.30701821440074E-03 
1466	 4.29590344438652E-03 
1467	 1.47912585289611E-03 
1468	 2.09631622665453E-03 
1469	 5.77121618062101E-03 
1470	 5.48570306679698E-03 
1471	 4.57295320804244E-03 
1472	 5.56230684001906E-03 
1473	 4.27231432332877E-03 
1474	 3.69311444623915E-03 
1475	 6.06199918442662E-03 
1476	 7.38549876626819E-03 
1477	 7.43594858466283E-03 
1478	 7.04638343914904E-03 
1479	 6.5973507988023E-03 
1480	 7.22680754166557E-03 
1481	 7.62853824581114E-03 
1482	 7.37942213761741E-03 
1483	 7.97607092233949E-03 
1484	 8.39751919256001E-03 
1485	 7.6024997575455E-03 
1486	 7.45931323691213E-03 
1487	 8.31224329401031E-03 
1488	 8.54775314980827E-03 
1489	 7.90836973349212E-03 
1490	 8.19128507937428E-03 
1491	 9.19901970019022E-03 
1492	 9.43953685406539E-03 
1493	 9.5364182924454E-03 
1494	 9.79936249677164E-03 
1495	 9.94602631364285E-03 
1496	 9.85834736896451E-03 
1497	 9.74152264992501E-03 
1498	 9.77656959034754E-03 
1499	 9.49621463135244E-03 
1500	 9.5472323274529E-03 
1501	 1.01338998432082E-02 
1502	 1.03241587444981E-02 
1503	 1.03613217836829E-02 
1504	 1.05292305550053E-02 
1505	 1.07404487844877E-02 
1506	 1.06483351634955E-02 
1507	 1.08480058035786E-02 
1508	 1.08082597748228E-02 
1509	 1.06060086110734E-02 
1510	 1.06338858490365E-02 
1511	 1.07026842437254E-02 
1512	 1.06241140752907E-02 
1513	 1.04612082740087E-02 
1514	 1.04200233309138E-02 
1515	 1.04877039011145E-02 
1516	 1.06569077716648E-02 
1517	 1.09795095102449E-02 
1518	 1.11173854057568E-02 
1519	 1.10742349696701E-02 
1520	 1.10594605889576E-02 
1521	 1.09704616302621E-02 
1522	 1.10475331607204E-02 
1523	 1.11511756524046E-02 
1524	 1.11464084123157E-02 
1525	 1.14031998013496E-02 
1526	 1.15121475079869E-02 
1527	 1.13736202661046E-02 
1528	 1.14759621960742E-02 
1529	 1.14151678287388E-02 
1530	 1.11705703905831E-02 
1531	 1.12776611828117E-02 
1532	 1.13877044004004E-02 
1533	 1.13751624941136E-02 
1534	 1.14903943562182E-02 
1535	 0.011597893699642 
1536	 1.15842072429225E-02 
1537	 1.14482880949179E-02 
1538	 1.15720289697254E-02 
1539	 1.18055509631323E-02 
1540	 1.15972746766237E-02 
1541	 1.14623309330273E-02 
1542	 1.17078642318918E-02 
1543	 1.17821102697613E-02 
1544	 1.16034493230842E-02 
1545	 1.16280349537702E-02 
1546	 1.17904931660785E-02 
1547	 1.16902119033183E-02 
1548	 1.15635498812537E-02 
1549	 1.17947319654115E-02 
1550	 1.19583301442842E-02 
1551	 1.17995036708679E-02 
1552	 1.19897428166154E-02 
1553	 1.21998986868069E-02 
1554	 0.011983274527225 
1555	 1.19912574715954E-02 
1556	 1.19985939789215E-02 
1557	 1.18693401537102E-02 
1558	 1.19202851004166E-02 
1559	 1.19515657093381E-02 
1560	 0.012083171553548 
1561	 1.21400119342898E-02 
1562	 1.18927099246675E-02 
1563	 1.18413088304281E-02 
1564	 1.19877283184672E-02 
1565	 0.01202728296365 
1566	 1.19613016614759E-02 
1567	 1.17889995965321E-02 
1568	 1.17302231019916E-02 
1569	 1.17756502386822E-02 
1570	 1.17883104339253E-02 
1571	 1.18665389920418E-02 
1572	 1.19016785673035E-02 
1573	 1.18384365782208E-02 
1574	 1.18643468291503E-02 
1575	 1.19891699138166E-02 
1576	 1.20104038460303E-02 
1577	 1.20156922448472E-02 
1578	 1.21618045329544E-02 
1579	 0.012115117184839 
1580	 1.19427080489985E-02 
1581	 1.21259410799537E-02 
1582	 1.21377432825016E-02 
1583	 1.18883801177769E-02 
1584	 1.18875695958045E-02 
1585	 1.17344673531613E-02 
1586	 0.011539909971492 
1587	 1.16580832766664E-02 
1588	 1.17829735593913E-02 
1589	 1.17988806121565E-02 
1590	 0.011831855089499 
1591	 1.20180887464967E-02 
1592	 1.21480015420564E-02 
1593	 1.20293054856909E-02 
1594	 1.20699315943267E-02 
1595	 1.21659971671851E-02 
1596	 1.19739810947786E-02 
1597	 1.18574665099917E-02 
1598	 1.18895007318297E-02 
1599	 1.18508283752079E-02 
1600	 1.19384388108526E-02 
1601	 1.21683872968843E-02 
1602	 1.21175606082245E-02 
1603	 1.20174499846089E-02 
1604	 1.20705803201706E-02 
1605	 1.18387286734271E-02 
1606	 1.17376455298035E-02 
1607	 1.18299515102085E-02 
1608	 1.16658547444567E-02 
1609	 1.15753063355119E-02 
1610	 1.17008270845012E-02 
1611	 1.18366997848322E-02 
1612	 1.18333852267195E-02 
1613	 1.17680741509214E-02 
1614	 1.17804144355359E-02 
1615	 1.18307152012733E-02 
1616	 1.19273851325875E-02 
1617	 1.20122037144611E-02 
1618	 1.19177064700615E-02 
1619	 1.17075436485396E-02 
1620	 1.16541595065909E-02 
1621	 1.19606936925373E-02 
1622	 1.21017900756983E-02 
1623	 1.18361875201247E-02 
1624	 1.19098200225374E-02 
1625	 1.20688547854524E-02 
1626	 1.19647545320057E-02 
1627	 1.20765427381283E-02 
1628	 1.20372198266696E-02 
1629	 1.18176884698824E-02 
1630	 0.012010585749572 
1631	 1.21306562396752E-02 
1632	 1.19048972965868E-02 
1633	 1.17716476060109E-02 
1634	 1.17359432408574E-02 
1635	 1.18109455462078E-02 
1636	 1.20267694424818E-02 
1637	 1.20031252956605E-02 
1638	 1.17827244740085E-02 
1639	 1.17573627703938E-02 
1640	 1.18093773858111E-02 
1641	 1.18413788842275E-02 
1642	 0.01186477190856 
1643	 1.18966668552217E-02 
1644	 1.20734049542891E-02 
1645	 1.20938891133002E-02 
1646	 1.20107983876712E-02 
1647	 1.22758175770176E-02 
1648	 1.23680665290895E-02 
1649	 1.21219011863971E-02 
1650	 1.20064566549636E-02 
1651	 1.18614828787671E-02 
1652	 1.16527308119851E-02 
1653	 1.16941534060315E-02 
1654	 1.17612852691083E-02 
1655	 1.17424493454016E-02 
1656	 1.17147849007041E-02 
1657	 1.18417948982257E-02 
1658	 1.18468076552275E-02 
1659	 1.16478179993416E-02 
1660	 1.17786388500683E-02 
1661	 1.22578073967424E-02 
1662	 1.22170066988582E-02 
1663	 1.18498536743475E-02 
1664	 1.18385033458572E-02 
1665	 0.011743235212447 
1666	 1.17041195661249E-02 
1667	 0.01210177147721 
1668	 1.19665761538467E-02 
1669	 1.18275711181957E-02 
1670	 1.19066232906867E-02 
1671	 1.20550434647759E-02 
1672	 1.22802361216867E-02 
1673	 0.012195978668071 
1674	 1.17993350312259E-02 
1675	 1.16735019588536E-02 
1676	 1.19080065923233E-02 
1677	 1.19189650380809E-02 
1678	 1.18344307261358E-02 
1679	 1.20684140086276E-02 
1680	 1.20207024398957E-02 
1681	 1.16647640501762E-02 
1682	 1.18133025870519E-02 
1683	 1.20080028859319E-02 
1684	 1.16661991555155E-02 
1685	 1.15403061152956E-02 
1686	 1.17365626846908E-02 
1687	 1.15864790031687E-02 
1688	 1.13840056508157E-02 
1689	 1.17124162618509E-02 
1690	 1.19718263553877E-02 
1691	 1.16759614382984E-02 
1692	 1.18247427626918E-02 
1693	 1.22935093040575E-02 
1694	 1.19694120835983E-02 
1695	 1.15811848916096E-02 
1696	 1.16790741140471E-02 
1697	 1.16260793544839E-02 
1698	 1.14971120736272E-02 
1699	 1.15779646002555E-02 
1700	 1.14911220167549E-02 
1701	 1.12235952129173E-02 
1702	 1.12441126531953E-02 
1703	 1.14954616353496E-02 
1704	 1.16859449618629E-02 
1705	 1.16622436243298E-02 
1706	 1.14873619029661E-02 
1707	 1.14485168406107E-02 
1708	 1.16667968624194E-02 
1709	 1.17571946528824E-02 
1710	 0.011451184408126 
1711	 1.12302825144605E-02 
1712	 0.011269677767111 
1713	 1.15433886548321E-02 
1714	 1.14299859574677E-02 
1715	 1.13526329766213E-02 
1716	 1.11216721396866E-02 
1717	 0.01080889653863 
1718	 1.09616650601791E-02 
1719	 1.14448479154227E-02 
1720	 1.14258077162663E-02 
1721	 1.12601716964599E-02 
1722	 1.13445627922911E-02 
1723	 1.12052037562473E-02 
1724	 1.09032454378215E-02 
1725	 0.010979523089178 
1726	 1.12044577263896E-02 
1727	 0.011093405906461 
1728	 1.09194962731205E-02 
1729	 1.05870043304747E-02 
1730	 1.05660573841086E-02 
1731	 1.12977844614771E-02 
1732	 1.15212186089175E-02 
1733	 1.13454775178369E-02 
1734	 1.11727548702573E-02 
1735	 1.02938904133287E-02 
1736	 1.00598958270961E-02 
1737	 1.11181042011143E-02 
1738	 1.15093912717718E-02 
1739	 1.13136889089787E-02 
1740	 1.08486277641153E-02 
1741	 9.78005239305992E-03 
1742	 9.50470682767176E-03 
1743	 9.7285756990656E-03 
1744	 1.01914949039774E-02 
1745	 1.11187907940255E-02 
1746	 1.04902133174072E-02 
1747	 1.04157827705369E-02 
1748	 1.07657040500676E-02 
1749	 1.07614234584946E-02 
1750	 1.08153202634014E-02 
1751	 1.07735550964276E-02 
1752	 0.010084746718268 
1753	 1.00056288352867E-02 
1754	 1.07026691909402E-02 
1755	 1.06183334424774E-02 
1756	 1.03250282739289E-02 
1757	 1.07953250885837E-02 
1758	 1.02167345221107E-02 
1759	 1.00164696389283E-02 
1760	 9.98349177305248E-03 
1761	 9.36869766383898E-03 
1762	 9.46412419257231E-03 
1763	 0.010062958878751 
1764	 1.05659591324158E-02 
1765	 0.010455332831839 
1766	 9.62878615335114E-03 
1767	 9.31415757683076E-03 
1768	 9.23714143382543E-03 
1769	 9.21416161900989E-03 
1770	 1.02738890474336E-02 
1771	 1.11592940646645E-02 
1772	 0.010390916343637 
1773	 9.42228193538273E-03 
1774	 8.91938810208323E-03 
1775	 9.76405059899342E-03 
1776	 9.61602008152956E-03 
1777	 8.8963134269954E-03 
1778	 8.98475685816515E-03 
1779	 8.25537712943165E-03 
1780	 8.13528920168951E-03 
1781	 1.10241664401741E-02 
1782	 1.13965901866048E-02 
1783	 9.32592055849924E-03 
1784	 8.09774591918794E-03 
1785	 5.49907850283904E-03 
1786	 5.29038331386084E-03 
1787	 7.07939846129929E-03 
1788	 7.47433316691691E-03 
1789	 9.83957692693405E-03 
1790	 7.04393656194299E-03 
1791	 3.99896843594056E-03 
1792	 3.03289825750318E-03 
1793	-5.19118076304345E-04 
1794	 3.88761435130711E-03 
1795	 8.67220112540509E-03 
1796	 4.38206969579048E-03 
1797	 4.78017254609175E-03 
1798	 4.38599302791725E-04 
1799	-6.74479916954527E-03 
1800	 1.00268810631827E-02 
1801	 1.51622383555073E-02 
1802	 8.4073046278521E-03 
1803	 4.89194567677157E-03 
1804	-1.46017267259785E-02 
1805	-3.34141119270537E-02 
1806	-4.87279642630395E-02 
1807	-6.20221848866225E-02 
1808	-8.91700350111555E-02 
1809	-7.35311436604085E-02 
1810	 7.37405678306895E-02 
1811	 0.12326880446238 
1812	 0.160021060813547 
1813	 6.82412271213488E-02 
1814	-0.414097806414799 
1815	-0.465660056961066 
1816	-0.294686283894962 
1817	-0.141840406569405 
1818	 0.522315406787909 
1819	 0.442499381994795 
1820	-4.92962365839492E-02 
1821	-0.693806598846696 
1822	-1.04223719051767 
1823	-0.677099488862367 
1824	-0.529206092948728 
1825	-0.115689543628212 
1826	 2.01491547213064E-02 
1827	 0.215358243277824 
1828	 0.542042992162127 
1829	-0.205280887253283 
1830	-0.112641515591174 
1831	 0.857908611336576 
1832	 0.877329014517286 
1833	-1.93527147230653 
1834	-4.24718245571298 
1835	-3.32263244039584 
1836	-10.7308299279758 
1837	 1.44605021938257 
1838	 1.74003701980834 
1839	 11.9972979262799 
1840	-1.15671254840262 
1841	 0.437401027396002 
1842	 0.226936703741222 
1843	 0.246333019198814 
1844	 0.314931765097043 
1845	 0.336313994622952 
1846	-0.206943429962607 
1847	-0.635882141615718 
1848	-4.77577879507393 
1849	 1.18275079683935 
1850	 0.910865259639668 
1851	-1.40043489480156 
1852	-0.665981801550288 
1853	-1.33403598039259 
1854	 0.313059375721081 
1855	-1.97180244243522 
1856	-1.76160091074736 
1857	-0.581693252431684 
1858	-0.464062310730441 
1859	-0.693244170563828 
1860	-0.952581340966132 
1861	 1.70127774120872 
1862	 1.339326509952 
1863	 1.14647619630838 
1864	 1.80415196803926 
1865	 0.936468601764697 
1866	-2.01775066532026 
1867	-5.00766096854511 
1868	-1.3159594862552 
1869	-1.23795270518435 
1870	-1.44646764907791 
1871	-3.01106146724294 
1872	-2.54756243783601 
1873	-2.03000221795583 
1874	-11.1400555708619 
1875	-1.57985181227909 
1876	-3.44356153666446 
1877	-8.84470415370889E-03 
1878	 0.104872408371891 
1879	-0.379551971984283 
1880	-0.586777035038961 
1881	-2.57312647017069 
1882	-11.0528137362719 
1883	-0.583170452861893 
1884	 60.1555895573316 
1885	 0.685923015263991 
1886	-0.828536409643482 
1887	-57.6426809715642 
1888	 42.5106067085794 
1889	-3.39647505136172 
1890	-1.32773786760735 
1891	-0.890289237269114 
1892	 0.355426411481412 
1893	-0.607511121732325 
1894	-0.984553888783289 
1895	-1.1079975926664 
1896	-1.01560120269213 
1897	-0.844590256428149 
1898	-1.2256356652991 
1899	-2.40656081205332 
1900	-3.69674043018205 
1901	 0.281724526512573 
1902	 0.768082177852555 
1903	-1.16754255405022 
1904	-0.579428135609977 
1905	-0.577718609813083 
1906	-0.742273323855074 
1907	-0.705015555504753 
1908	 0.158512898790616 
1909	-0.314544852521996 
1910	-0.128613207187848 
1911	 6.57736669816122E-02 
1912	 0.483069959508139 
1913	 0.773877579522128 
1914	 31.357876643222 
1915	-1.45381323210724 
1916	-0.158380014420187 
1917	 1.31670478308609 
1918	 1.68206714334351 
1919	 2.37814564957629 
1920	-8.73825389898728 
1921	-4.50606810721088 
1922	 0.300684069046426 
1923	-8.71606141601695E-02 
1924	 0.196272416139274 
1925	 0.327547493329038 
1926	 0.354963306873699 
1927	 7.28761480058975E-02 
1928	 8.04220963877349E-02 
1929	-0.517211711169983 
1930	-0.441441142922335 
1931	-0.709757722811061 
1932	-0.667107565854115 
1933	-0.829446143292019 
1934	-1.49009908206019 
1935	-1.28108887339455 
1936	-0.5252868017498 
1937	-0.359140326992757 
1938	-0.311921122599206 
1939	-0.182316102669979 
1940	 3.84393871174876E-02 
1941	 6.36984355688391E-02 
1942	-2.86028124434919E-02 
1943	-1.17778176402858E-02 
1944	 1.81460093859016E-02 
1945	-5.51132733373995E-03 
1946	-2.53399522090307E-02 
1947	 2.9415505285281E-03 
1948	 2.06293801713136E-02 
1949	 7.2144677866978E-03 
1950	 1.06851120964057E-02 
1951	 6.03310746635257E-03 
1952	-2.20953559188595E-03 
1953	-3.11723872220704E-02 
1954	-3.53407474751303E-02 
1955	-1.39438951646487E-02 
1956	 3.80632589514574E-03 
1957	 4.92298125933117E-03 
1958	 2.56678081939863E-03 
1959	 5.24151128031395E-03 
1960	 1.94548993194823E-03 
1961	-3.16921992376177E-04 
1962	 4.06555464148473E-03 
1963	 4.63253666852839E-03 
1964	 1.5897656651658E-03 
1965	 1.32253156266588E-03 
1966	 3.27202666504921E-03 
1967	 6.43089456097167E-03 
1968	 7.19248714398578E-03 
1969	 7.71380924269261E-03 
1970	 8.99915207751935E-03 
1971	 6.21330485278818E-03 
1972	 3.34351323543672E-03 
1973	 3.86542106755862E-03 
1974	 3.68170713532229E-03 
1975	 3.8208406120079E-03 
1976	 4.92786552763806E-03 
1977	 4.87252089431357E-03 
1978	 4.66254127369922E-03 
1979	 4.6942118836531E-03 
1980	 5.18707235870838E-03 
1981	 4.73092326335622E-03 
1982	 3.47529617585802E-03 
1983	 3.10542286684022E-03 
1984	 3.18262665624138E-03 
1985	 3.28311198935796E-03 
1986	 3.4237243190778E-03 
1987	 3.64532241740505E-03 
1988	 3.90762793265421E-03 
1989	 4.10999136071216E-03 
1990	 4.15964791754866E-03 
1991	 5.50046209921135E-03 
1992	 7.0549846957342E-03 
1993	 5.81952575612283E-03 
1994	 5.37984448261409E-03 
1995	 5.57310726477059E-03 
1996	 5.30764327349175E-03 
1997	 2.77034603651852E-03 
1998	 3.49280240368261E-03 
1999	 5.28526454853682E-03 
2000	 4.19574358870874E-03 
2001	 4.8671647625292E-03 
2002	 7.96126276837357E-03 
2003	 8.79126794739915E-03 
2004	 7.74719300203986E-03 
2005	 6.58453667072548E-03 
2006	 5.87674294871152E-03 
2007	 6.19467372153766E-03 
2008	 6.71871605591439E-03 
2009	 7.09597966179885E-03 
2010	 7.48029689251913E-03 
2011	 7.9492675878922E-03 
2012	 7.6340686668556E-03 
2013	 8.90344788717147E-03 
2014	 1.12067937550146E-02 
2015	 8.89824923417448E-03 
2016	 4.85808447468696E-03 
2017	 4.19056931153694E-03 
2018	 4.8286910497946E-03 
2019	 5.62604974049882E-03 
2020	 7.09749946417045E-03 
2021	 7.0548241967238E-03 
2022	 6.88964767220941E-03 
2023	 6.67221023541644E-03 
2024	 6.30520166066394E-03 
2025	 6.06756035007675E-03 
2026	 5.95029915522107E-03 
2027	 5.36392012812198E-03 
2028	 5.64026831970019E-03 
2029	 5.9809257815999E-03 
2030	 6.93569137006016E-03 
2031	 8.16491826243534E-03 
2032	 8.39171270826901E-03 
2033	 8.54181519976958E-03 
2034	 8.57792674806243E-03 
2035	 8.02339576487368E-03 
2036	 7.95887666861519E-03 
2037	 7.96939556411406E-03 
2038	 7.42854539545763E-03 
2039	 7.26543770066045E-03 
2040	 7.14248823460752E-03 
2041	 7.11142658475454E-03 
2042	 7.55815562594292E-03 
2043	 7.58535918135558E-03 
2044	 7.41135870243338E-03 
2045	 7.31717945534589E-03 
2046	 7.16497749180618E-03 
2047	 7.33123539364373E-03 
2048	 8.11291397461967E-03 
2049	 7.97637896001428E-03 
2050	 7.84453235197018E-03 
2051	 8.55603402297586E-03 
2052	 8.69964596247498E-03 
2053	 9.04568711536608E-03 
2054	 9.43775332423276E-03 
2055	 8.67531291074091E-03 
2056	 8.51365738414014E-03 
2057	 8.59866342987254E-03 
2058	 8.91875786750201E-03 
2059	 9.59932891271206E-03 
2060	 9.57171255383907E-03 
2061	 9.35201476563136E-03 
2062	 9.26248901236047E-03 
2063	 8.13497198559444E-03 
2064	 7.44490287448213E-03 
2065	 7.76130856130344E-03 
2066	 7.69102102365376E-03 
2067	 7.04746694536004E-03 
2068	 6.96605504051843E-03 
2069	 7.53639396351215E-03 
2070	 7.81092487449282E-03 
2071	 7.73863280128155E-03 
2072	 8.03639297425995E-03 
2073	 8.16073187351645E-03 
2074	 0.007229360385385 
2075	 7.07742315265473E-03 
2076	 7.72123923002252E-03 
2077	 8.25042227075804E-03 
2078	 8.76269262160103E-03 
2079	 9.28063473218563E-03 
2080	 1.03549761578761E-02 
2081	 1.05778854771119E-02 
2082	 9.49589933567496E-03 
2083	 8.76750627379399E-03 
2084	 8.50111908009847E-03 
2085	 8.35663792429766E-03 
2086	 8.98677954505933E-03 
2087	 9.58302375313346E-03 
2088	 9.30242879197102E-03 
2089	 8.80301075863464E-03 
2090	 8.70382362049687E-03 
2091	 8.83403676239966E-03 
2092	 8.84315593295121E-03 
2093	 8.9902307262066E-03 
2094	 9.20745806301924E-03 
2095	 9.34789642784246E-03 
2096	 9.40845993715441E-03 
2097	 9.52449350551861E-03 
2098	 9.59632888167769E-03 
2099	 9.38162597093385E-03 
2100	 9.74449802768351E-03 
2101	 9.93014894095373E-03 
2102	 9.70821681643131E-03 
2103	 9.37945706100377E-03 
2104	 9.24146496493595E-03 
2105	 9.40431388273124E-03 
2106	 9.99930788426508E-03 
2107	 9.68682332161885E-03 
2108	 8.78624081738005E-03 
2109	 9.27840449384915E-03 
2110	 1.01831839257933E-02 
2111	 1.03202344034624E-02 
2112	 1.04845885328822E-02 
2113	 1.06297454266177E-02 
2114	 9.41152233091804E-03 
2115	 8.95430763756382E-03 
2116	 9.59755357663032E-03 
2117	 9.84937092855798E-03 
2118	 9.3827176358189E-03 
2119	 9.50807559977135E-03 
2120	 1.02478595038207E-02 
2121	 1.07577376294525E-02 
2122	 1.06364576228419E-02 
2123	 1.09278423338439E-02 
2124	 1.03621122140142E-02 
2125	 9.41683024478129E-03 
2126	 9.33352067547399E-03 
2127	 9.0405175687902E-03 
2128	 9.5522343088219E-03 
2129	 1.01880643572909E-02 
2130	 9.83393553341697E-03 
2131	 9.4880752681782E-03 
2132	 9.11613778528198E-03 
2133	 9.16709425540325E-03 
2134	 9.11371200750924E-03 
2135	 9.44430719110619E-03 
2136	 9.64703134033104E-03 
2137	 9.50129509724854E-03 
2138	 9.47795421837138E-03 
2139	 1.00288320583324E-02 
2140	 1.01254861367437E-02 
2141	 9.73332041299125E-03 
2142	 9.77698688124775E-03 
2143	 1.01129136438584E-02 
2144	 9.63789080488541E-03 
2145	 1.02473126916996E-02 
2146	 1.06467415142627E-02 
2147	 1.01086324324188E-02 
2148	 1.06840429787489E-02 
2149	 1.04024476043814E-02 
2150	 9.93834024470657E-03 
2151	 1.07596650299729E-02 
2152	 1.08572759750794E-02 
2153	 1.08065497234584E-02 
2154	 1.15163868039751E-02 
2155	 1.18935681091511E-02 
2156	 1.15345329295425E-02 
2157	 1.09384961130575E-02 
2158	 9.86969879488105E-03 
2159	 8.93764575292678E-03 
2160	 7.20253400850679E-03 
2161	 6.99169439977889E-03 
2162	 7.66272951601973E-03 
2163	 7.93584110720742E-03 
2164	 9.06206853394033E-03 
2165	 9.46747996151361E-03 
2166	 9.47771384809909E-03 
2167	 9.62351745329301E-03 
2168	 9.51555274562128E-03 
2169	 9.31821552980236E-03 
2170	 8.92245290598375E-03 
2171	 8.60363596087607E-03 
2172	 8.6127387420121E-03 
2173	 9.46698303464697E-03 
2174	 9.68753412984921E-03 
2175	 9.53048753818358E-03 
2176	 8.98596788560984E-03 
2177	 8.29258476103466E-03 
2178	 8.2704679538484E-03 
2179	 0.008808805644938 
2180	 1.04172564096036E-02 
2181	 1.10860544177397E-02 
2182	 1.05605205226709E-02 
2183	 1.06503117806934E-02 
2184	 9.82973972832012E-03 
2185	 8.69475098543466E-03 
2186	 8.3675948474313E-03 
2187	 8.84964402986405E-03 
2188	 9.31717552150461E-03 
2189	 1.01179753362208E-02 
2190	 1.07313427849521E-02 
2191	 1.26481730721505E-02 
2192	 1.22568976105849E-02 
2193	 9.10010983296746E-03 
2194	 8.87696904275766E-03 
2195	 9.36815785782513E-03 
2196	 8.9039476143895E-03 
2197	 9.91181711651647E-03 
2198	 1.04782753393501E-02 
2199	 9.95703641563676E-03 
2200	 9.1685752143812E-03 
2201	 7.79532691595822E-03 
2202	 7.8629309855143E-03 
2203	 8.8989831277139E-03 
2204	 7.51642045150351E-03 
2205	 0.007625906088398 
2206	 8.81875472582335E-03 
2207	 9.02314335919294E-03 
2208	 1.01278961995509E-02 
2209	 1.02011951174122E-02 
2210	 9.98980153024237E-03 
2211	 1.02039379463143E-02 
2212	 9.39014088646075E-03 
2213	 9.30489036689657E-03 
2214	 9.98174517869447E-03 
2215	 9.88883033857439E-03 
2216	 0.009957188919118 
2217	 0.010398282778416 
2218	 1.30447274287615E-02 
2219	 1.27865168353202E-02 
2220	 9.7460790391165E-03 
2221	 9.29187603873635E-03 
2222	 9.70499544742958E-03 
2223	 9.37041280497419E-03 
2224	 9.60405508420269E-03 
2225	 1.03207857885422E-02 
2226	 9.64410453350434E-03 
2227	 1.00621869664533E-02 
2228	 1.40590247183468E-02 
2229	 1.44514620332222E-02 
2230	 0.012003526240149 
2231	 1.16201227353504E-02 
2232	 9.6193514742925E-03 
2233	 9.14620764765658E-03 
2234	 0.010748488854203 
2235	 1.30831021692668E-02 
2236	 1.23968977823156E-02 
2237	 1.12844236694522E-02 
2238	 0.011149693662774 
2239	 1.07202439880732E-02 
2240	 1.01895525981871E-02 
2241	 1.11287326494616E-02 
2242	 1.17898232119133E-02 
2243	 9.57614066166515E-03 
2244	 7.32396747857119E-03 
2245	 7.50782056439988E-03 
2246	 7.42528773232876E-03 
2247	 6.53730814877563E-03 
2248	 7.9136478203896E-03 
2249	 7.97763154224704E-03 
2250	 5.29355051743025E-03 
2251	 5.53925262664177E-03 
2252	 7.0927780491022E-03 
2253	 7.4062337307145E-03 
2254	 8.5025791663887E-03 
2255	 9.59463795401212E-03 
2256	 9.06545062916523E-03 
2257	 9.23095193267477E-03 
2258	 0.010178794594459 
2259	 9.46141972181463E-03 
2260	 1.02895751612776E-02 
2261	 1.22782977696592E-02 
2262	 1.25192180169006E-02 
2263	 1.31985757894601E-02 
2264	 1.35729189008832E-02 
2265	 1.18889258823956E-02 
2266	 1.20785914822532E-02 
2267	 1.37652424006564E-02 
2268	 1.35731289535906E-02 
2269	 1.30777196337609E-02 
2270	 1.23116851793563E-02 
2271	 9.89831648244631E-03 
2272	 9.3360059922485E-03 
2273	 9.34853168381923E-03 
2274	 9.6234246037942E-03 
2275	 1.17600333929993E-02 
2276	 1.21737756421558E-02 
2277	 1.21450826691524E-02 
2278	 1.21722698641747E-02 
2279	 1.10415737301124E-02 
2280	 1.04494647087102E-02 
2281	 1.04185878362148E-02 
2282	 9.25315279979503E-03 
2283	 9.59677431793801E-03 
2284	 9.53733319329069E-03 
2285	 8.76336314240134E-03 
2286	 9.4923414221276E-03 
2287	 1.02195696615611E-02 
2288	 9.44688859193989E-03 
2289	 1.00989754567747E-02 
2290	 1.19103295770226E-02 
2291	 1.09823141258335E-02 
2292	 9.38746853194027E-03 
2293	 1.04878404282402E-02 
2294	 1.24808511665742E-02 
2295	 1.11553251718498E-02 
2296	 9.51323590016413E-03 
2297	 1.29169157961566E-02 
2298	 1.34955346580696E-02 
2299	 1.08247114166962E-02 
2300	 0.014184649202326 
2301	 1.44175631158384E-02 
2302	 1.00953444479273E-02 
2303	 0.012086786300415 
2304	 0.013932801905325 
2305	 1.15517030620211E-02 
2306	 9.1020857895475E-03 
2307	 6.63135631352761E-03 
2308	 6.24421991844841E-03 
2309	 6.06461092552353E-03 
2310	 5.11752774086925E-03 
2311	 5.55402785120924E-03 
2312	 3.98804011183517E-03 
2313	 8.55573326359863E-04 
2314	 1.4378235721821E-04 
2315	 1.99698536548578E-03 
2316	 3.03452407208409E-03 
2317	 3.78284171556262E-03 
2318	 6.43688620836473E-03 
2319	 8.52079443504632E-03 
2320	 1.13162354006578E-02 
2321	 1.64472892294002E-02 
2322	 1.94210959698051E-02 
2323	 1.68583149223041E-02 
2324	 1.22321246839922E-02 
2325	 8.29679288493592E-03 
2326	 2.56647832902811E-03 
2327	-5.21579407531278E-04 
2328	-1.84665739138283E-03 
2329	-2.64092241034821E-03 
2330	 2.56630026730064E-03 
2331	 2.92519453402891E-03 
2332	-1.25636109876216E-04 
2333	 2.98861009464289E-03 
2334	 3.26910495650325E-03 
2335	 5.23620442676297E-03 
2336	 1.33029332043964E-02 
2337	 1.42353985638225E-02 
2338	 1.04980886524409E-02 
2339	 7.75047922356284E-03 
2340	 5.56339677946951E-03 
2341	 9.39728235439391E-03 
2342	 1.31050545361681E-02 
2343	 0.011580435451357 
2344	 1.00353558178992E-02 
2345	 7.55730857419525E-03 
2346	 3.08906785747888E-03 
2347	-4.19810095729235E-03 
2348	-9.74974343690495E-03 
2349	-7.88555940212501E-03 
2350	-1.06825843025234E-02 
2351	-1.38192019374964E-02 
2352	-1.11436787430529E-02 
2353	-8.65204672879985E-03 
2354	 1.22098848716747E-03 
2355	 5.27683827266893E-03 
2356	-3.40999288670202E-03 
2357	-0.011514092787049 
2358	-0.017033212847812 
2359	-0.014728953657889 
2360	-3.68157145464156E-03 
2361	 5.53033005793306E-03 
2362	 4.36407807500432E-03 
2363	 4.01353118748582E-03 
2364	 7.49912887814098E-03 
2365	 9.67216080410272E-03 
2366	 1.07143560671924E-02 
2367	 8.72239720725095E-03 
2368	 9.2715330543045E-03 
2369	 2.93663671166674E-03 
2370	-6.33832823316209E-03 
2371	-4.87445666690812E-03 
2372	 8.05997558307469E-04 
2373	 4.3478051561496E-03 
2374	-2.24518122842019E-03 
2375	-2.50422475243826E-02 
2376	-4.97345301341584E-02 
2377	-6.68426817805512E-02 
2378	-5.14621493105544E-02 
2379	-1.07787201419759E-02 
2380	 7.23927533837966E-03 
2381	 1.81100291922572E-02 
2382	 1.84027641198845E-02 
2383	 9.15238332810875E-04 
2384	-2.52639140917417E-03 
2385	-8.11809820694412E-03 
2386	-2.70345005268935E-02 
2387	-4.36492011932984E-02 
2388	-5.85147123418318E-02 
2389	-5.28920503945045E-02 
2390	-3.59071948498396E-02 
2391	-0.01418384050216 
2392	 1.13650189405705E-02 
2393	 1.78464648938091E-02 
2394	 3.57191826056205E-02 
2395	 5.75830368384456E-02 
2396	 5.49991698861799E-02 
2397	 5.34489588455499E-02 
2398	 4.25536282120325E-02 
2399	 1.88199639958723E-02 
2400	 2.37886518851699E-02 
2401	 2.46722147810474E-02 
2402	 1.15842004625731E-02 
2403	 3.34394063437724E-03 
2404	-1.09559701879374E-02 
2405	 5.22078509065975E-03 
2406	 4.41871330827453E-02 
2407	 8.08472628436002E-02 
2408	 0.105550460764821 
2409	 6.07550210243155E-02 
2410	-2.55063198145165E-02 
2411	-0.053641781229973 
2412	-6.90204565883323E-02 
2413	-3.79190410560074E-02 
2414	-2.04918421322514E-02 
2415	-9.74000808052911E-02 
2416	-5.95076338844849E-02 
2417	-9.73715562196398E-02 
2418	-0.195327435884515 
2419	-9.93509128331415E-02 
2420	-6.95257743884246E-02 
2421	-8.48089099232475E-02 
2422	 2.20904386739994E-02 
2423	 8.25838585138118E-02 
2424	 1.68779050230487E-02 
2425	-5.72055314603119E-02 
2426	-0.104597606730578 
2427	-0.193384639468736 
2428	-0.272748869257666 
2429	-0.278006491844023 
2430	-0.226725643523446 
2431	-0.182304324876044 
2432	-0.15196760325508 
2433	-8.95894889856151E-02 
2434	-3.11282160454328E-02 
2435	-5.65938461039374E-02 
2436	-0.105117181962114 
2437	-0.101052913490487 
2438	-0.115271758701034 
2439	-7.35801316880062E-02 
2440	 5.18061651332624E-02 
2441	 3.67886347668202E-02 
2442	 2.83912748500496E-03 
2443	 3.43780029142544E-04 
2444	-5.02014128004376E-02 
2445	 2.47133267836218E-03 
2446	-0.022727400206656 
2447	-0.295210381515298 
2448	-0.314956594217651 
2449	-0.195255771829754 
2450	-0.2605990220258 
2451	-9.29504555881256E-02 
2452	 6.22678588135073E-02 
2453	-0.347533534642086 
2454	-0.269775278247482 
2455	-0.25222323906816 
2456	-0.747438977041815 
2457	-0.572659014556289 
2458	-0.606075574612199 
2459	-0.604511084369227 
2460	-0.358206100500595 
2461	-0.625928189928619 
2462	-0.668306412527247 
2463	-0.501816638258567 
2464	-0.759853248207408 
2465	-0.648799931879955 
2466	-0.547267655966896 
2467	-0.406783440177303 
2468	-0.069341965261072 
2469	-1.02683229319584E-03 
2470	 0.36524393722734 
2471	 0.115665803521584 
2472	-0.386190726252075 
2473	 7.20089523772773E-02 
2474	-5.43728795602401E-02 
2475	-1.01844452298916 
2476	-3.38002311137928 
2477	 2.73273050362437 
2478	 1.64318701278016 
2479	 1.06973170577248 
2480	 0.627925253074969 
2481	 0.332179356254754 
2482	-0.710483593649278 
2483	-1.51726735252408 
2484	-2.52379679378587 
2485	-1.72059620281397 
2486	-0.579065831003089 
2487	 1.21332165822211 
2488	 0.722331365976337 
2489	 1.41276351073907 
2490	 1.36505621549528 
2491	 0.520248062380012 
2492	-0.403540511623499 
2493	 1.870393112422 
2494	-0.198689907628854 
2495	-0.498311711639856 
2496	 0.502903005026141 
2497	-1.63407220935313 
2498	 3.42029556544486 
2499	 0.652125947279631 
2500	 0.587783788728627 
