Wavelength	rt0727far200005.asd
350	 5.77685789018854E-02 
351	 5.74457745424957E-02 
352	 0.056539452278904 
353	 5.67286000783227E-02 
354	 5.82049948195804E-02 
355	 5.79455451956193E-02 
356	 5.78930738891411E-02 
357	 5.80311766176319E-02 
358	 5.79398827258192E-02 
359	 5.81631909010442E-02 
360	 5.80227844656441E-02 
361	 0.057625438884718 
362	 5.75984116345401E-02 
363	 5.78035254205739E-02 
364	 0.058154341980724 
365	 5.84336309101987E-02 
366	 5.82226406637097E-02 
367	 5.83833857408287E-02 
368	 5.85950548515154E-02 
369	 5.85274899330826E-02 
370	 5.90634275883554E-02 
371	 5.90737266156831E-02 
372	 0.058816778442809 
373	 5.92289794545498E-02 
374	 5.93281057519965E-02 
375	 5.91461585212003E-02 
376	 5.90359405298934E-02 
377	 5.96020181596535E-02 
378	 5.98558491644009E-02 
379	 0.059926817533472 
380	 6.01583365202763E-02 
381	 6.06561657057181E-02 
382	 6.11657098077267E-02 
383	 6.12021249226015E-02 
384	 6.04628016997635E-02 
385	 6.04091274573189E-02 
386	 6.07881219930592E-02 
387	 6.11195508833936E-02 
388	 6.09092244715023E-02 
389	 6.10032138882542E-02 
390	 6.15162392392973E-02 
391	 6.22305833011557E-02 
392	 6.26576075460751E-02 
393	 6.21888124274006E-02 
394	 6.17633091156719E-02 
395	 6.23992560281058E-02 
396	 6.23165954223556E-02 
397	 6.23802193758558E-02 
398	 6.27104417200657E-02 
399	 6.26950272903901E-02 
400	 6.27411189536025E-02 
401	 6.28381162083043E-02 
402	 0.063011332563082 
403	 6.36083632818123E-02 
404	 6.35787462758899E-02 
405	 6.34110193448877E-02 
406	 6.38995897010694E-02 
407	 6.39575395307802E-02 
408	 0.064067251265314 
409	 6.43357369586575E-02 
410	 6.44259597122753E-02 
411	 0.064585137762933 
412	 6.47228427532847E-02 
413	 6.47505328217395E-02 
414	 6.46813394733647E-02 
415	 0.064940398265859 
416	 6.53123608778201E-02 
417	 6.54052257056799E-02 
418	 6.55423367202231E-02 
419	 0.065775922927707 
420	 6.60510895984106E-02 
421	 6.62255842065497E-02 
422	 6.63164120877161E-02 
423	 6.65627904615551E-02 
424	 0.067017395677725 
425	 6.70591336535939E-02 
426	 6.74244469840455E-02 
427	 0.067909345137895 
428	 6.79671105751334E-02 
429	 0.068154765895596 
430	 6.84532514439116E-02 
431	 6.87958400931248E-02 
432	 6.91274223723688E-02 
433	 0.069375226747346 
434	 6.96381387041798E-02 
435	 7.00115348125277E-02 
436	 7.04765652300575E-02 
437	 7.09139027382665E-02 
438	 7.12293432450474E-02 
439	 0.071394635741639 
440	 7.17669570226001E-02 
441	 0.07216914753646 
442	 7.25078969942161E-02 
443	 7.29097123382326E-02 
444	 7.31380218545696E-02 
445	 7.33775143360943E-02 
446	 7.38161868344169E-02 
447	 7.41940215102754E-02 
448	 7.45746942796153E-02 
449	 0.074847775828183 
450	 0.074834293475196 
451	 0.075165757257407 
452	 7.56167136359027E-02 
453	 0.075960865275063 
454	 7.62375079052357E-02 
455	 0.076514508142106 
456	 7.67017216694584E-02 
457	 7.67572200686713E-02 
458	 7.72357670310661E-02 
459	 7.74299849170211E-02 
460	 7.73548956378244E-02 
461	 7.77674072633143E-02 
462	 7.78641870264739E-02 
463	 7.78778521975246E-02 
464	 7.81096302835613E-02 
465	 7.84678184941367E-02 
466	 7.89514114820902E-02 
467	 7.93198032168052E-02 
468	 7.93234978046576E-02 
469	 7.95231143648432E-02 
470	 7.97674175823361E-02 
471	 7.99776550096952E-02 
472	 8.02636498877324E-02 
473	 0.080492954567643 
474	 8.08263220545576E-02 
475	 8.13196257745284E-02 
476	 8.13499386853954E-02 
477	 8.16304597029449E-02 
478	 8.21567039957293E-02 
479	 0.082448172886152 
480	 8.27363994855306E-02 
481	 8.29770212035367E-02 
482	 8.31571910681911E-02 
483	 8.33889975665817E-02 
484	 8.36519643549141E-02 
485	 8.39579229106531E-02 
486	 8.43218450364012E-02 
487	 0.084753764780349 
488	 8.50838466125915E-02 
489	 8.53906262444647E-02 
490	 8.59734423588428E-02 
491	 8.63715652165019E-02 
492	 8.66656171640844E-02 
493	 8.70203275236097E-02 
494	 8.75367449594164E-02 
495	 8.80374097080883E-02 
496	 8.85005329261633E-02 
497	 8.89805714090646E-02 
498	 8.94240071741465E-02 
499	 8.98814423691521E-02 
500	 9.04029464197911E-02 
501	 9.10233142617112E-02 
502	 9.16388267695878E-02 
503	 9.22054829519768E-02 
504	 0.092723815451225 
505	 9.32843011216676E-02 
506	 9.37470004376581E-02 
507	 9.42189462271715E-02 
508	 9.49599971505312E-02 
509	 9.54276001220686E-02 
510	 9.58225582777028E-02 
511	 9.63832192394869E-02 
512	 0.09719990892681 
513	 9.77754602775198E-02 
514	 9.82498882625246E-02 
515	 9.90004629210525E-02 
516	 9.98594373065924E-02 
517	 0.100688992600886 
518	 0.101397814594828 
519	 0.101959157080449 
520	 0.102785945409798 
521	 0.10355514056027 
522	 0.10403345691877 
523	 0.104899168998908 
524	 0.105774244401437 
525	 0.106500355907456 
526	 0.107119635627693 
527	 0.107982259544149 
528	 0.108872824895639 
529	 0.109608353024872 
530	 0.110215384485642 
531	 0.110953314373806 
532	 0.111795861761213 
533	 0.112631011194687 
534	 0.113618778416723 
535	 0.114487108863238 
536	 0.115228588277402 
537	 0.116149115857875 
538	 0.116826688862959 
539	 0.117608006247337 
540	 0.118761592894761 
541	 0.119706134975681 
542	 0.120595470122491 
543	 0.121413155132191 
544	 0.122079545118885 
545	 0.122943932482553 
546	 0.123882599830129 
547	 0.124795693499323 
548	 0.125774231981369 
549	 0.126577743786003 
550	 0.127308014491264 
551	 0.128156383400851 
552	 0.129014500825869 
553	 0.129995181433422 
554	 0.131055391809898 
555	 0.131963050067081 
556	 0.132716872102477 
557	 0.133554206734067 
558	 0.134595489061067 
559	 0.135413667243829 
560	 0.13622895465024 
561	 0.136996611679279 
562	 0.137553163552488 
563	 0.138272183949319 
564	 0.138972163396183 
565	 0.139525655415641 
566	 0.140052546107371 
567	 0.140559546637701 
568	 0.141057585747441 
569	 0.14154150635669 
570	 0.141965399463776 
571	 0.142249066383329 
572	 0.142473938262827 
573	 0.142880572305573 
574	 0.143175157481734 
575	 0.14332969394954 
576	 0.14340973333507 
577	 0.143583710342093 
578	 0.143598599516832 
579	 0.143514703487121 
580	 0.14354401761668 
581	 0.143318003428246 
582	 0.143098920951042 
583	 0.142981790360767 
584	 0.142602919717239 
585	 0.142325989983111 
586	 0.142134501679066 
587	 0.141859676111884 
588	 0.141333621719435 
589	 0.140945305321949 
590	 0.140731183623884 
591	 0.140272071238185 
592	 0.139681206156316 
593	 0.138926733132786 
594	 0.138046654963008 
595	 0.137336882281188 
596	 0.136274137319161 
597	 0.134966669565791 
598	 0.133836720123808 
599	 0.132537384057491 
600	 0.131445385386664 
601	 0.130715025598946 
602	 0.129998238440057 
603	 0.129451303147471 
604	 0.129090575316087 
605	 0.128873639637325 
606	 0.128656490262733 
607	 0.128536666468354 
608	 0.128426904893252 
609	 0.128064964761589 
610	 0.128067599997257 
611	 0.128084497540681 
612	 0.127811045708496 
613	 0.127699023159577 
614	 0.127628683807718 
615	 0.127512948168992 
616	 0.127298429306372 
617	 0.12709849325807 
618	 0.127013772815841 
619	 0.127015253119143 
620	 0.126877064635435 
621	 0.126760829760526 
622	 0.126657121476005 
623	 0.126536917732308 
624	 0.126553726259386 
625	 0.126454808878446 
626	 0.126253673004035 
627	 0.126224785265513 
628	 0.126186383650277 
629	 0.126049718693896 
630	 0.125790889511302 
631	 0.12546092116873 
632	 0.125422482261447 
633	 0.125509079357738 
634	 0.12534039426889 
635	 0.125110833273491 
636	 0.125050161623631 
637	 0.125133156535728 
638	 0.124971066770585 
639	 0.124901379311104 
640	 0.124798105193015 
641	 0.124534683983685 
642	 0.124515853307837 
643	 0.124581051565153 
644	 0.124588077357751 
645	 0.124429235128779 
646	 0.124338587381335 
647	 0.124071885009564 
648	 0.123573109022263 
649	 0.123436511914031 
650	 0.122820630423776 
651	 0.12215845769905 
652	 0.122099308670173 
653	 0.121067852496538 
654	 0.119955906004555 
655	 0.119050819783495 
656	 0.117717217908327 
657	 0.116669130803503 
658	 0.11570955591472 
659	 0.114606908060912 
660	 0.113693838107565 
661	 0.112757546506875 
662	 0.11185415257537 
663	 0.111180170834131 
664	 0.110303122808902 
665	 0.109668526636103 
666	 0.109366946197337 
667	 0.108678276292908 
668	 0.108071989665803 
669	 0.107669697902771 
670	 0.107472218463791 
671	 0.10744563006716 
672	 0.107423354368093 
673	 0.10734962670043 
674	 0.107289143057631 
675	 0.107411182437781 
676	 0.107696724646599 
677	 0.108052060747923 
678	 0.108302930915461 
679	 0.108549667030642 
680	 0.108931669508145 
681	 0.109534279098099 
682	 0.109907850740405 
683	 0.110453267487112 
684	 0.111270391458681 
685	 0.112045129239517 
686	 0.112660568929021 
687	 0.113247291061878 
688	 0.113901255595822 
689	 0.114325540063869 
690	 0.114648057912098 
691	 0.114983784862845 
692	 0.115400053360442 
693	 0.115506517087233 
694	 0.115020007042951 
695	 0.114217887016345 
696	 0.113928041870373 
697	 0.113377689702919 
698	 0.112637940448421 
699	 0.112013925391655 
700	 0.111293265907792 
701	 0.110064552345032 
702	 0.108622944711764 
703	 0.107625442265398 
704	 0.106382543848022 
705	 0.104985607064385 
706	 0.10356456895669 
707	 0.101889456233258 
708	 0.100213290207093 
709	 9.84861829126281E-02 
710	 9.65810880847062E-02 
711	 9.44795227784122E-02 
712	 9.23819783767489E-02 
713	 9.03756152901542E-02 
714	 8.83738210434184E-02 
715	 8.68364502460217E-02 
716	 8.52880359911459E-02 
717	 8.31467230099397E-02 
718	 8.01327554769306E-02 
719	 7.72621238991813E-02 
720	 7.51186507702523E-02 
721	 7.31079681104707E-02 
722	 7.12768152597318E-02 
723	 6.92475566821111E-02 
724	 6.73172761373773E-02 
725	 6.56878469733909E-02 
726	 6.36460488722311E-02 
727	 6.12485299620795E-02 
728	 5.87397149537711E-02 
729	 5.63327061727911E-02 
730	 5.39046864637131E-02 
731	 5.17486320614732E-02 
732	 4.99732715502824E-02 
733	 4.85921184539143E-02 
734	 4.74896600648114E-02 
735	 4.65862739379531E-02 
736	 4.57809538039089E-02 
737	 0.044958736151596 
738	 4.43387087299518E-02 
739	 4.40674943701461E-02 
740	 4.38569702487742E-02 
741	 4.35102332597017E-02 
742	 4.33410484076963E-02 
743	 4.37212424439753E-02 
744	 4.33358214349711E-02 
745	 4.30147183172873E-02 
746	 4.31579065722183E-02 
747	 4.33115644058181E-02 
748	 4.32659641700746E-02 
749	 4.30179132577861E-02 
750	 4.27506523252727E-02 
751	 4.30011058926234E-02 
752	 4.31633684522536E-02 
753	 4.30861941208984E-02 
754	 0.042903762180828 
755	 4.27086103315867E-02 
756	 4.27657116201881E-02 
757	 4.30470067084122E-02 
758	 4.30894024666139E-02 
759	 4.34858192746697E-02 
760	 4.41403018061196E-02 
761	 4.41230516730449E-02 
762	 4.41348984185546E-02 
763	 4.38571866023215E-02 
764	 4.35433265289974E-02 
765	 0.043466212334024 
766	 4.35277454310708E-02 
767	 4.35329892655916E-02 
768	 4.34459460312796E-02 
769	 4.33560973127839E-02 
770	 4.34314526719215E-02 
771	 4.35995011808477E-02 
772	 0.043761146390408 
773	 4.38835035324853E-02 
774	 4.41700848194384E-02 
775	 4.44314009144554E-02 
776	 4.43945923597782E-02 
777	 4.43616784989621E-02 
778	 4.45896496205659E-02 
779	 4.49840793633322E-02 
780	 4.51270841457204E-02 
781	 4.52994042015787E-02 
782	 4.55024173812861E-02 
783	 4.57212054091412E-02 
784	 4.60055715003846E-02 
785	 4.65006702151197E-02 
786	 4.68684820606519E-02 
787	 4.68116274152022E-02 
788	 4.73467456517481E-02 
789	 4.77432550646642E-02 
790	 4.79221345561444E-02 
791	 4.83554347724353E-02 
792	 4.83935025886181E-02 
793	 4.86981769438472E-02 
794	 4.94031081880731E-02 
795	 4.94835865421852E-02 
796	 4.97057854420394E-02 
797	 5.00783131447854E-02 
798	 5.04309501687186E-02 
799	 5.06814145992605E-02 
800	 5.10744971882224E-02 
801	 5.14818510435243E-02 
802	 5.15976842578754E-02 
803	 5.15289761475826E-02 
804	 5.16493784530477E-02 
805	 5.18975729685839E-02 
806	 5.17734445788392E-02 
807	 5.17893218811614E-02 
808	 5.18090319161692E-02 
809	 5.17108707674582E-02 
810	 5.17943509757219E-02 
811	 5.16550949832323E-02 
812	 5.15573944991454E-02 
813	 5.18892550338191E-02 
814	 5.14571785284014E-02 
815	 5.08723384474223E-02 
816	 5.06305109414318E-02 
817	 0.050701729132801 
818	 4.96195024410327E-02 
819	 4.91940801326213E-02 
820	 4.93755150924255E-02 
821	 4.77299466344019E-02 
822	 0.046752732748182 
823	 4.61810231531303E-02 
824	 4.53095418968986E-02 
825	 4.42407243507069E-02 
826	 4.29413830321484E-02 
827	 4.17094330979419E-02 
828	 4.10020660542321E-02 
829	 4.05662456547384E-02 
830	 3.98157909723819E-02 
831	 3.88806209770347E-02 
832	 3.83761669487852E-02 
833	 3.80116081577602E-02 
834	 3.73690285518798E-02 
835	 3.67702959620712E-02 
836	 3.73968171118631E-02 
837	 3.74782117641357E-02 
838	 3.70164597659207E-02 
839	 3.64479589381209E-02 
840	 3.62196201978739E-02 
841	 3.63646508779511E-02 
842	 3.64100424289311E-02 
843	 3.59729151812805E-02 
844	 3.60360840626344E-02 
845	 0.035642080260185 
846	 3.52120303557876E-02 
847	 3.58437221929867E-02 
848	 3.54576865612636E-02 
849	 0.035095042946888 
850	 3.53527822803506E-02 
851	 3.57445765096178E-02 
852	 3.51838941397534E-02 
853	 3.46907984548217E-02 
854	 3.49496767621777E-02 
855	 0.034935859130853 
856	 3.48598643212048E-02 
857	 3.49323621086066E-02 
858	 3.51815153170227E-02 
859	 3.49639454702199E-02 
860	 3.46521726735086E-02 
861	 3.45259544936867E-02 
862	 3.46627585488058E-02 
863	 3.43085582126608E-02 
864	 3.42103658192225E-02 
865	 3.43281788691665E-02 
866	 3.39379032945278E-02 
867	 3.39871015908656E-02 
868	 3.41660806582553E-02 
869	 3.41475172280188E-02 
870	 3.38356571561542E-02 
871	 3.36646088924762E-02 
872	 3.39726778283721E-02 
873	 3.45332674042005E-02 
874	 3.39405781783005E-02 
875	 3.39968480666447E-02 
876	 3.40854548658561E-02 
877	 3.34759630531701E-02 
878	 3.39744349841277E-02 
879	 3.38177207648378E-02 
880	 3.32862457984622E-02 
881	 3.34359442497325E-02 
882	 3.35020243304127E-02 
883	 3.33884014433896E-02 
884	 3.31900327020588E-02 
885	 3.31185615683595E-02 
886	 3.32442900660226E-02 
887	 3.30366946503923E-02 
888	 3.25946368777474E-02 
889	 3.27519523198256E-02 
890	 3.30252313420259E-02 
891	 0.033250928469665 
892	 3.32544594127968E-02 
893	 3.27503975305862E-02 
894	 3.26658164677919E-02 
895	 0.032476874559582 
896	 3.19065513950331E-02 
897	 3.32934286322797E-02 
898	 3.45703202487377E-02 
899	 3.38000900204856E-02 
900	 3.11157582492103E-02 
901	 3.16942829947441E-02 
902	 3.24452228353952E-02 
903	 3.27328568950951E-02 
904	 3.27090349220827E-02 
905	 3.11552276162738E-02 
906	 3.05510512915377E-02 
907	 3.11505474490448E-02 
908	 3.14003552006738E-02 
909	 3.16663889914787E-02 
910	 3.22956752002708E-02 
911	 3.27518829315793E-02 
912	 3.20441916426154E-02 
913	 3.28519813277216E-02 
914	 3.26558072592344E-02 
915	 3.13184883621988E-02 
916	 3.16867231186704E-02 
917	 2.98322419391196E-02 
918	 2.96482016069033E-02 
919	 0.03162743492319 
920	 3.12053905073895E-02 
921	 3.10034017322537E-02 
922	 3.03141851694358E-02 
923	 2.90754888831599E-02 
924	 2.99855057005873E-02 
925	 3.19913820923848E-02 
926	 3.29639009496421E-02 
927	 3.08319224557002E-02 
928	 2.60638187594475E-02 
929	 2.91718411515582E-02 
930	 3.05889575078628E-02 
931	 9.43716891245154E-03 
932	 1.38231864802868E-02 
933	 1.36842212070939E-02 
934	 2.37920685417776E-03 
935	-2.67128374153639E-03 
936	 0.008576999654771 
937	 1.76898809099339E-02 
938	 2.14673086607298E-02 
939	 2.32123383370186E-02 
940	 2.99519498921233E-02 
941	 2.17457215821399E-02 
942	 1.30574486788774E-02 
943	 2.66659887653315E-02 
944	 1.34377888928009E-02 
945	 1.21399190929197E-02 
946	 2.24849653641155E-02 
947	 2.06752012464117E-02 
948	 1.50954429359143E-02 
949	 8.28617880778759E-03 
950	 1.01501572038175E-02 
951	 2.58700310519906E-02 
952	 1.85963719421249E-02 
953	 1.11888903162087E-02 
954	 1.76830533920712E-02 
955	 3.54553799295311E-02 
956	 2.94618230648072E-02 
957	 1.98893801012061E-02 
958	 1.65218353406549E-02 
959	 0.019190582629272 
960	 3.31324021362011E-02 
961	 3.43006000311897E-02 
962	 0.027786027156702 
963	 3.23732527469931E-02 
964	 2.87003270909621E-02 
965	 2.93090737145012E-02 
966	 3.18233008432299E-02 
967	 2.59965453174388E-02 
968	 2.56054912892809E-02 
969	 2.71531720885477E-02 
970	 2.70567910165778E-02 
971	 2.45865495810808E-02 
972	 0.033231659876208 
973	 3.62853136668694E-02 
974	 3.07566258674369E-02 
975	 2.96342007084421E-02 
976	 0.029875581719096 
977	 3.37591377055954E-02 
978	 3.64201793099537E-02 
979	 3.01742737392576E-02 
980	 0.027293783206088 
981	 2.95937698599611E-02 
982	 3.11444205194232E-02 
983	 2.46205411309835E-02 
984	 2.63946426422361E-02 
985	 2.93771257305077E-02 
986	 2.98026045947509E-02 
987	 2.87964173580503E-02 
988	 2.99095554321695E-02 
989	 3.03775941969341E-02 
990	 2.88717810002947E-02 
991	 2.63419666684307E-02 
992	 2.78669063131286E-02 
993	 2.76577417004144E-02 
994	 2.64222648111388E-02 
995	 2.87294849927786E-02 
996	 2.98718892269807E-02 
997	 3.11632174374868E-02 
998	 0.029594416507491 
999	 2.28091361229985E-02 
1000	 2.68096803488395E-02 
1001	 2.84199954746733E-02 
1002	 2.85287514857803E-02 
1003	 0.028113845246792 
1004	 2.69938907287205E-02 
1005	 2.66934884498668E-02 
1006	 2.63140547008511E-02 
1007	 0.026797489464964 
1008	 0.027912129235468 
1009	 2.91649894607503E-02 
1010	 0.030093594135871 
1011	 3.05343272370714E-02 
1012	 3.04380626198769E-02 
1013	 3.02098121807221E-02 
1014	 3.07616711678791E-02 
1015	 3.22260437319304E-02 
1016	 3.23050960515875E-02 
1017	 3.27226755087077E-02 
1018	 3.23250679859175E-02 
1019	 2.98693173983847E-02 
1020	 2.90317636388006E-02 
1021	 2.87553011814869E-02 
1022	 2.81954327692874E-02 
1023	 2.91794322494051E-02 
1024	 2.99369537848948E-02 
1025	 0.030507056013856 
1026	 3.13233596791724E-02 
1027	 3.16334737532306E-02 
1028	 3.15627387693246E-02 
1029	 3.14087514636352E-02 
1030	 3.11113995596193E-02 
1031	 3.07472135558876E-02 
1032	 3.01472754013679E-02 
1033	 2.95861997129677E-02 
1034	 2.85353400155859E-02 
1035	 2.81858783048795E-02 
1036	 2.81913210723439E-02 
1037	 2.80632633174242E-02 
1038	 2.77341698278835E-02 
1039	 2.88437774900482E-02 
1040	 2.89479930995566E-02 
1041	 2.89600259980186E-02 
1042	 2.92627009894576E-02 
1043	 2.97689633032674E-02 
1044	 3.01143334071916E-02 
1045	 3.04290299654715E-02 
1046	 0.030929207211272 
1047	 3.19150224200848E-02 
1048	 3.20376661927835E-02 
1049	 3.21914954072394E-02 
1050	 3.16721844763936E-02 
1051	 2.92807114140067E-02 
1052	 2.86548243337884E-02 
1053	 2.83779255737173E-02 
1054	 2.85586824222003E-02 
1055	 3.07650107888502E-02 
1056	 0.03170576356972 
1057	 3.22394517712043E-02 
1058	 3.25978546134601E-02 
1059	 3.22870421591293E-02 
1060	 3.07336435775783E-02 
1061	 3.03097123407054E-02 
1062	 2.97526741088973E-02 
1063	 0.029751794072475 
1064	 3.13682244258659E-02 
1065	 3.09059658748441E-02 
1066	 2.84391542648783E-02 
1067	 2.82319129130861E-02 
1068	 2.79706232076183E-02 
1069	 0.028165388646971 
1070	 3.15335108762634E-02 
1071	 3.25028589966995E-02 
1072	 3.20251142693933E-02 
1073	 3.08101631555131E-02 
1074	 3.04200302015112E-02 
1075	 2.95209841727515E-02 
1076	 2.91168177820786E-02 
1077	 2.93300673295311E-02 
1078	 2.92398349187087E-02 
1079	 2.86630918871059E-02 
1080	 2.85987718727589E-02 
1081	 2.92543739718603E-02 
1082	 2.94445153790384E-02 
1083	 2.94020794220458E-02 
1084	 2.96570683345946E-02 
1085	 2.98478068384365E-02 
1086	 3.00604973287496E-02 
1087	 3.11141670327839E-02 
1088	 3.11947895320729E-02 
1089	 3.06130070785875E-02 
1090	 2.99152777310211E-02 
1091	 2.90449783403022E-02 
1092	 2.67181922158534E-02 
1093	 2.71205034019974E-02 
1094	 2.95020543273924E-02 
1095	 3.00881605202418E-02 
1096	 3.19970633312406E-02 
1097	 3.21090501431655E-02 
1098	 2.87359897678436E-02 
1099	 2.80918346209172E-02 
1100	 2.89869837484934E-02 
1101	 2.95698797307638E-02 
1102	 3.22964272970453E-02 
1103	 3.25818168079282E-02 
1104	 3.22426285898627E-02 
1105	 2.84376403224391E-02 
1106	 2.42106738386864E-02 
1107	 0.024290631769667 
1108	 2.50098445675949E-02 
1109	 2.62835658767931E-02 
1110	 2.72964779549464E-02 
1111	 2.93814307886752E-02 
1112	 2.91509429663962E-02 
1113	 2.51885112766266E-02 
1114	 2.59137152231784E-02 
1115	 2.84701456744646E-02 
1116	 3.16083912385793E-02 
1117	 4.82792551119118E-02 
1118	 5.68245250742759E-02 
1119	 4.51973681489116E-02 
1120	 4.68996210824299E-02 
1121	 4.92250968843141E-02 
1122	 6.61169868225129E-02 
1123	 7.62192710765742E-02 
1124	 0.095948696565974 
1125	 9.64479270469922E-02 
1126	 3.62482040555235E-02 
1127	 0.020787259766871 
1128	 6.22994926411995E-02 
1129	 6.01948852931873E-02 
1130	 6.10065858709481E-02 
1131	 4.60619304941639E-02 
1132	-1.82941904921788E-03 
1133	-1.12232524916399E-02 
1134	-6.21981610270715E-03 
1135	-3.46690035754895E-03 
1136	 8.44014386557868E-03 
1137	 1.72314591472934E-02 
1138	 0.024885537637433 
1139	 2.63490724688961E-02 
1140	 2.94425640758689E-02 
1141	 4.84340427705518E-02 
1142	 5.47883088087879E-02 
1143	 3.66030919966799E-02 
1144	 3.34720602996588E-02 
1145	 3.05192289321051E-02 
1146	 2.11344338302473E-02 
1147	 3.88048173681264E-02 
1148	 4.65503851236706E-02 
1149	 2.64134388359637E-02 
1150	 0.023005918300245 
1151	 2.57943141175519E-02 
1152	 2.52994346443542E-02 
1153	 2.05499262887711E-02 
1154	 2.36858598101434E-02 
1155	 3.11603332974882E-02 
1156	 3.13417473491077E-02 
1157	 0.026647643981287 
1158	 0.03170888031009 
1159	 3.50691570135336E-02 
1160	 3.09980179613934E-02 
1161	 0.029734012639342 
1162	 3.14271606962935E-02 
1163	 3.15983154279205E-02 
1164	 3.05800054944413E-02 
1165	 3.06075824984861E-02 
1166	 3.23399300413487E-02 
1167	 3.23877937718752E-02 
1168	 3.06645649822608E-02 
1169	 3.06541560481976E-02 
1170	 3.16604520147171E-02 
1171	 3.14737263914141E-02 
1172	 3.08919730627712E-02 
1173	 0.030954111200975 
1174	 3.14498798997762E-02 
1175	 2.97512413850703E-02 
1176	 2.87378420782931E-02 
1177	 2.97941519025067E-02 
1178	 0.030894873210824 
1179	 3.02333712601746E-02 
1180	 2.94970097416397E-02 
1181	 3.09906272140996E-02 
1182	 3.10822009773885E-02 
1183	 3.09707270358543E-02 
1184	 3.27336925345761E-02 
1185	 3.17333262883871E-02 
1186	 2.92812803842444E-02 
1187	 2.93780948339175E-02 
1188	 3.16334073541662E-02 
1189	 3.25274785131609E-02 
1190	 3.20487415802416E-02 
1191	 3.23381801614029E-02 
1192	 3.23088620085281E-02 
1193	 3.07489645697385E-02 
1194	 2.97751367379805E-02 
1195	 3.07997925187755E-02 
1196	 0.031186645461208 
1197	 2.96678296670706E-02 
1198	 2.89377809232588E-02 
1199	 2.93182389101691E-02 
1200	 2.87707406968093E-02 
1201	 2.92944744593451E-02 
1202	 3.07881329961365E-02 
1203	 3.10981486429552E-02 
1204	 3.10377144150963E-02 
1205	 3.11717454635166E-02 
1206	 3.08912249185713E-02 
1207	 3.01619517737283E-02 
1208	 2.95349440666062E-02 
1209	 2.93883267144784E-02 
1210	 2.99620969227129E-02 
1211	 3.08679121319069E-02 
1212	 3.11838029679815E-02 
1213	 0.031450734340512 
1214	 0.031703970356868 
1215	 3.15481275292915E-02 
1216	 3.08132090907504E-02 
1217	 3.01402060727448E-02 
1218	 2.94631691778309E-02 
1219	 2.87211534535132E-02 
1220	 2.87855960661145E-02 
1221	 2.94962459646824E-02 
1222	 2.96248979673191E-02 
1223	 2.97800348198147E-02 
1224	 2.99881344344333E-02 
1225	 0.029679410910819 
1226	 3.00587699294562E-02 
1227	 3.07471507650764E-02 
1228	 0.030455204035643 
1229	 3.01101641426108E-02 
1230	 3.02975503442636E-02 
1231	 2.98782095058187E-02 
1232	 2.93124475387821E-02 
1233	 3.00061471110113E-02 
1234	 3.08002350480747E-02 
1235	 3.06161551699309E-02 
1236	 2.96287470992779E-02 
1237	 2.95453102640332E-02 
1238	 2.94156379533486E-02 
1239	 2.87109896967075E-02 
1240	 2.79964370880686E-02 
1241	 2.84781116871392E-02 
1242	 2.88314728311384E-02 
1243	 2.84077285171693E-02 
1244	 2.96428322090626E-02 
1245	 0.030863669946604 
1246	 2.97266005181712E-02 
1247	 2.94357067199836E-02 
1248	 2.99466795659455E-02 
1249	 2.99088312489954E-02 
1250	 3.00718854758914E-02 
1251	 0.029478284909458 
1252	 2.91747716459967E-02 
1253	 2.94749184887287E-02 
1254	 2.96603643308271E-02 
1255	 3.06274826424558E-02 
1256	 0.030952546109156 
1257	 3.04468738159284E-02 
1258	 0.030172554728534 
1259	 2.98576901153862E-02 
1260	 2.96225993261632E-02 
1261	 2.92701968139394E-02 
1262	 2.92350485257986E-02 
1263	 2.93714211728324E-02 
1264	 2.96625513960304E-02 
1265	 3.00048847528988E-02 
1266	 3.03813750374092E-02 
1267	 3.06784291786404E-02 
1268	 3.05137075132283E-02 
1269	 3.00649892222254E-02 
1270	 2.97479116314914E-02 
1271	 2.90594312283673E-02 
1272	 2.85663342750498E-02 
1273	 2.84585755125269E-02 
1274	 2.82041740649884E-02 
1275	 2.88914429978352E-02 
1276	 3.01931010222322E-02 
1277	 3.07420168786332E-02 
1278	 3.05433908187002E-02 
1279	 2.96337699936038E-02 
1280	 2.91556869612279E-02 
1281	 2.91786573416695E-02 
1282	 3.00394705079378E-02 
1283	 3.01914248573585E-02 
1284	 3.03940766627774E-02 
1285	 3.07285321118059E-02 
1286	 3.07201156726803E-02 
1287	 3.08733894930382E-02 
1288	 3.16944118707978E-02 
1289	 3.18641682555789E-02 
1290	 3.12327678624655E-02 
1291	 3.14597211420877E-02 
1292	 3.14899849024696E-02 
1293	 2.95365588513811E-02 
1294	 2.83212518769771E-02 
1295	 2.92234669056819E-02 
1296	 2.96738413220427E-02 
1297	 2.97023902721975E-02 
1298	 3.04902207731201E-02 
1299	 3.01490821411042E-02 
1300	 3.06591957971231E-02 
1301	 3.25935714374777E-02 
1302	 0.032499207789808 
1303	 3.24931653481382E-02 
1304	 3.31302826862025E-02 
1305	 3.27890142416318E-02 
1306	 3.17124358979566E-02 
1307	 2.93747445557765E-02 
1308	 2.94540435965561E-02 
1309	 2.99043019540634E-02 
1310	 2.96950907782722E-02 
1311	 3.22065738033643E-02 
1312	 3.30184632495068E-02 
1313	 3.13152706676778E-02 
1314	 2.99006750785122E-02 
1315	 2.79655376014034E-02 
1316	 2.81813659990186E-02 
1317	 2.85365902602508E-02 
1318	 2.81117638981201E-02 
1319	 0.030561823325541 
1320	 3.18207876570395E-02 
1321	 3.04548782536045E-02 
1322	 3.01308237757956E-02 
1323	 3.13360013518882E-02 
1324	 3.07632514436046E-02 
1325	 2.99829613338635E-02 
1326	 3.13513520181724E-02 
1327	 3.20142475198384E-02 
1328	 3.02212326370355E-02 
1329	 2.65510509907391E-02 
1330	 2.21560140628601E-02 
1331	 0.022737297942597 
1332	 2.88925224347088E-02 
1333	 3.73215201058829E-02 
1334	 0.042630605384536 
1335	 4.45179349517462E-02 
1336	 4.16396940229503E-02 
1337	 4.08251504753826E-02 
1338	 3.49496499074313E-02 
1339	 3.47745928385886E-02 
1340	 4.10928098953321E-02 
1341	 3.80728111660801E-02 
1342	 2.75783823320215E-02 
1343	 2.57615470668446E-02 
1344	 0.024530546859606 
1345	 1.89900672653174E-02 
1346	 1.88375711751895E-02 
1347	 2.47499411371425E-02 
1348	 2.43723786175597E-02 
1349	 2.23882866763323E-02 
1350	 0.045914544898616 
1351	 8.89320113256744E-02 
1352	 0.153929828506798 
1353	 0.188075487259419 
1354	 0.183710730202441 
1355	 0.32074933745257 
1356	 7.21052832435737E-02 
1357	-0.163649401580333 
1358	 0.212420070048242 
1359	 0.256474144361053 
1360	 6.53467783093287E-02 
1361	 0.121104242401945 
1362	 0.113665724208696 
1363	-0.037693995478722 
1364	 0.27215384884563 
1365	 1.76280272124459 
1366	 0.852809636914738 
1367	 0.965704102658152 
1368	 0.619634827847831 
1369	 0.254307181585443 
1370	 0.20692485816089 
1371	 0.119534838583462 
1372	 0.109479201624858 
1373	 0.371958172438426 
1374	 0.314640235705824 
1375	-2.16067617610434E-02 
1376	 0.005836667401861 
1377	 0.159895066351981 
1378	 0.158572325574966 
1379	 0.177073809750604 
1380	 0.577626457619526 
1381	 2.86054892938823 
1382	 2.140411565808 
1383	-0.299654882982396 
1384	-0.251145561809298 
1385	-4.64084891225008E-02 
1386	-0.726519736228578 
1387	-0.988518808265961 
1388	-0.31547487370051 
1389	-0.37843954795715 
1390	-0.583173277483686 
1391	-0.62359939962649 
1392	 0.580793112362659 
1393	 0.488230416700548 
1394	 0.177654039489351 
1395	 0.668435445121435 
1396	 0.962510096097524 
1397	 5.38371469348961E-02 
1398	-0.749765612829852 
1399	-0.220531239257966 
1400	 4.18188119124701E-02 
1401	 2.88283037940247E-02 
1402	 0.129641066222097 
1403	-0.193056965496263 
1404	-0.793475300331491 
1405	-0.487069513511482 
1406	 0.982384944567742 
1407	 0.91089737434305 
1408	 0.555362959369871 
1409	 0.274344520013962 
1410	-0.43736596462248 
1411	-0.597928782908516 
1412	-0.620115506329862 
1413	-0.599106521072919 
1414	-0.398743817675466 
1415	-4.14398717597457E-02 
1416	 1.43604589073097 
1417	 1.65724989562277 
1418	 0.578043223016351 
1419	 0.35815928249364 
1420	-0.705063497350153 
1421	-1.17139918897689 
1422	-1.85342311673238 
1423	-1.30272305447857 
1424	 0.211662650702833 
1425	 0.270801729640986 
1426	 0.24325444109175 
1427	 0.387083446532294 
1428	 0.286497344778962 
1429	 0.268744707519559 
1430	 0.565358056581624 
1431	 0.621384498209242 
1432	 0.398225243656167 
1433	 0.208953032325923 
1434	-0.427434484444751 
1435	-0.717343805371602 
1436	-0.293441166950619 
1437	 1.92962588708844E-02 
1438	 0.31644276058215 
1439	 0.994625772766687 
1440	 0.379578170766611 
1441	 0.108723890082663 
1442	 0.219438233253117 
1443	 0.176063252011635 
1444	 0.012479998644738 
1445	 8.60345772208857E-02 
1446	 0.229596095987007 
1447	 0.187950569555483 
1448	 5.99011285466708E-02 
1449	 0.011746610858849 
1450	-0.051627896862174 
1451	-7.62063207045778E-02 
1452	-5.40005086924497E-02 
1453	-6.17218593963001E-02 
1454	-3.96935005887403E-02 
1455	-2.51150314174461E-02 
1456	-2.57147698268379E-02 
1457	-1.64550496130986E-02 
1458	 2.18212143219084E-02 
1459	 6.42191023541607E-02 
1460	 5.86608134288335E-02 
1461	 6.17330391380232E-02 
1462	 7.68163154365625E-02 
1463	 4.62113453845832E-02 
1464	 4.12456474633615E-02 
1465	 0.101986895510258 
1466	 0.124109106549672 
1467	 0.100623384827918 
1468	 8.59575308523046E-02 
1469	 7.13703129503807E-02 
1470	 7.31376872346384E-02 
1471	 7.56817244783332E-02 
1472	 5.43305012643458E-02 
1473	 3.44192530030864E-02 
1474	 0.041308668303056 
1475	 4.36517494611841E-02 
1476	 2.65526652473155E-02 
1477	 3.39712673558502E-02 
1478	 3.08607982615106E-02 
1479	-1.65182203903395E-02 
1480	-2.97248482158641E-02 
1481	-0.022425631295174 
1482	-9.83579329618059E-03 
1483	 0.013072331798612 
1484	 1.96576175020964E-02 
1485	 3.27686356615401E-02 
1486	 3.54872826569216E-02 
1487	 2.45987627556425E-02 
1488	 0.018419420116636 
1489	 1.23020399250719E-02 
1490	 1.27682389447587E-02 
1491	 1.25281072954591E-02 
1492	 0.014199306909521 
1493	 0.018719634322541 
1494	 2.39348606543129E-02 
1495	 3.51176196452525E-02 
1496	 3.62877425406946E-02 
1497	 3.20781390080058E-02 
1498	 3.06613239875152E-02 
1499	 2.32850077582236E-02 
1500	 2.10823392501731E-02 
1501	 0.025922546865972 
1502	 2.84277599280833E-02 
1503	 3.12601807907193E-02 
1504	 3.12215822736185E-02 
1505	 2.82205046495913E-02 
1506	 2.78671198819536E-02 
1507	 2.79808684067851E-02 
1508	 2.56629895495768E-02 
1509	 2.47145577083995E-02 
1510	 2.37125603684141E-02 
1511	 2.24629993787145E-02 
1512	 2.24523229295447E-02 
1513	 2.01132445118112E-02 
1514	 1.74052618670118E-02 
1515	 2.00148253298287E-02 
1516	 2.27954021889672E-02 
1517	 2.22949251301422E-02 
1518	 2.46586312121015E-02 
1519	 0.028493764255706 
1520	 2.73372184791196E-02 
1521	 2.48939181494944E-02 
1522	 2.68551738278316E-02 
1523	 2.70372902811869E-02 
1524	 2.39780561366499E-02 
1525	 2.42892572629609E-02 
1526	 2.62850935577543E-02 
1527	 2.56242641455524E-02 
1528	 2.28917080873836E-02 
1529	 2.17340462329894E-02 
1530	 2.22617637372427E-02 
1531	 2.19584437080536E-02 
1532	 2.24039873851883E-02 
1533	 2.40933362082186E-02 
1534	 2.52808741319906E-02 
1535	 2.62505776114879E-02 
1536	 2.59686055242188E-02 
1537	 2.49271581176725E-02 
1538	 2.58026839570978E-02 
1539	 2.79183458566186E-02 
1540	 2.95404420537554E-02 
1541	 3.03086040573834E-02 
1542	 2.94077712652365E-02 
1543	 2.65112782906484E-02 
1544	 2.53367730294463E-02 
1545	 2.56038397370319E-02 
1546	 2.55539363925342E-02 
1547	 2.65321830509432E-02 
1548	 2.67217689980137E-02 
1549	 2.74577950203951E-02 
1550	 2.95419040274802E-02 
1551	 3.02291704292177E-02 
1552	 2.88096622735851E-02 
1553	 2.68871634332619E-02 
1554	 2.63164519174915E-02 
1555	 2.64952629340674E-02 
1556	 2.71705837565117E-02 
1557	 2.89128808298013E-02 
1558	 2.95315086225212E-02 
1559	 2.77384127636816E-02 
1560	 0.026901276082477 
1561	 2.74659833653849E-02 
1562	 2.76097821650314E-02 
1563	 2.87130137327757E-02 
1564	 2.83886635091222E-02 
1565	 2.53673064588676E-02 
1566	 2.54536184557314E-02 
1567	 2.79568510434303E-02 
1568	 2.80084178451089E-02 
1569	 2.78249774045347E-02 
1570	 2.87882060001449E-02 
1571	 0.028244683929291 
1572	 0.026988083593231 
1573	 2.70668833361295E-02 
1574	 2.68693713431374E-02 
1575	 2.64192688606096E-02 
1576	 2.71154057766652E-02 
1577	 2.79685566478855E-02 
1578	 2.88794637866667E-02 
1579	 0.028825201366827 
1580	 2.75712181282488E-02 
1581	 2.90293610269504E-02 
1582	 3.14534190575976E-02 
1583	 2.99221260025663E-02 
1584	 2.96032516052874E-02 
1585	 3.24824092971483E-02 
1586	 3.18490191023624E-02 
1587	 2.94153016988435E-02 
1588	 2.94453741674674E-02 
1589	 0.030168518805574 
1590	 2.96867938819424E-02 
1591	 2.97137768731629E-02 
1592	 3.12837496571628E-02 
1593	 3.08595918793755E-02 
1594	 2.92983383402771E-02 
1595	 3.01710409779375E-02 
1596	 3.11996282809462E-02 
1597	 3.01564602242775E-02 
1598	 2.87980866760837E-02 
1599	 2.87478000724272E-02 
1600	 2.92528096088915E-02 
1601	 2.87725736018856E-02 
1602	 2.86061708144906E-02 
1603	 2.92494666442541E-02 
1604	 2.84248383303032E-02 
1605	 2.67478197947155E-02 
1606	 2.61059611515611E-02 
1607	 0.026040930620582 
1608	 2.66397676758276E-02 
1609	 2.95073628256661E-02 
1610	 3.16765713499026E-02 
1611	 3.01577687201705E-02 
1612	 2.85708069663666E-02 
1613	 2.94664889483943E-02 
1614	 3.03319987797967E-02 
1615	 2.98442350828486E-02 
1616	 0.030322823494961 
1617	 3.04736812546853E-02 
1618	 0.028004098554152 
1619	 2.65803149482552E-02 
1620	 2.66430372042561E-02 
1621	 2.61362695687443E-02 
1622	 0.027030438083741 
1623	 2.94874588861434E-02 
1624	 3.10319297801046E-02 
1625	 3.16140541647997E-02 
1626	 3.14070080355559E-02 
1627	 3.02487466640075E-02 
1628	 3.01550794457019E-02 
1629	 3.05492749810096E-02 
1630	 2.99001877689122E-02 
1631	 2.88080769655775E-02 
1632	 0.028295286084618 
1633	 0.028210174691432 
1634	 2.77180470679825E-02 
1635	 2.69806046325588E-02 
1636	 2.79668040836872E-02 
1637	 2.92220044391934E-02 
1638	 2.77280710035109E-02 
1639	 2.76342738640055E-02 
1640	 2.84656124946014E-02 
1641	 2.67692312350535E-02 
1642	 2.79757221460543E-02 
1643	 3.08141355288654E-02 
1644	 3.06294406049486E-02 
1645	 0.030671819955071 
1646	 3.01916985328159E-02 
1647	 2.94428758826465E-02 
1648	 0.029945802228163 
1649	 2.98450993373538E-02 
1650	 2.84269895451157E-02 
1651	 2.79408577766715E-02 
1652	 2.99425395708196E-02 
1653	 2.87995203996906E-02 
1654	 2.88661462305746E-02 
1655	 2.83861469283551E-02 
1656	 2.76862609014991E-02 
1657	 2.85032983222062E-02 
1658	 2.92789822227122E-02 
1659	 3.01636284769684E-02 
1660	 3.01954199592612E-02 
1661	 2.96907621440848E-02 
1662	 2.93163403529778E-02 
1663	 2.78685647787809E-02 
1664	 2.76296819406137E-02 
1665	 2.81126319533202E-02 
1666	 2.85780345665141E-02 
1667	 2.98082997512505E-02 
1668	 3.00021330361641E-02 
1669	 3.00563550138037E-02 
1670	 2.89535953050973E-02 
1671	 0.029824966766383 
1672	 3.10590335606064E-02 
1673	 3.10453695520522E-02 
1674	 3.14784139047393E-02 
1675	 3.07767209420873E-02 
1676	 3.03288270471922E-02 
1677	 3.05286399484247E-02 
1678	 2.93982247731394E-02 
1679	 2.77842890830207E-02 
1680	 2.73754441069133E-02 
1681	 2.77533826512831E-02 
1682	 2.86826990117661E-02 
1683	 3.11379038724389E-02 
1684	 3.21696281176142E-02 
1685	 3.20389364351252E-02 
1686	 3.29502261995819E-02 
1687	 3.22735452178946E-02 
1688	 2.98552506686815E-02 
1689	 2.87712446219163E-02 
1690	 2.95475237561841E-02 
1691	 3.01689117140445E-02 
1692	 3.18700058254366E-02 
1693	 3.21073605559792E-02 
1694	 2.83648466128312E-02 
1695	 2.60703665249713E-02 
1696	 2.55841229233796E-02 
1697	 2.62397343886944E-02 
1698	 2.85667194180026E-02 
1699	 2.98866479497261E-02 
1700	 2.89105047205754E-02 
1701	 2.78657608167737E-02 
1702	 2.80197743677025E-02 
1703	 0.027341069973262 
1704	 2.72984437167026E-02 
1705	 2.81707164675392E-02 
1706	 2.84427437311824E-02 
1707	 2.92403434260281E-02 
1708	 0.028872117548534 
1709	 2.64540604713769E-02 
1710	 0.024858345164331 
1711	 2.54478219411736E-02 
1712	 2.93408577612734E-02 
1713	 2.84282580856957E-02 
1714	 2.80986345221605E-02 
1715	 2.57805368922876E-02 
1716	 2.54869397120672E-02 
1717	 3.16465020337075E-02 
1718	 3.41624462956547E-02 
1719	 0.030183602221132 
1720	 3.05775600383622E-02 
1721	 3.28686036944847E-02 
1722	 3.01117425737233E-02 
1723	 3.24062398409797E-02 
1724	 3.46830473116837E-02 
1725	 0.026112183345976 
1726	 2.32687568161824E-02 
1727	 2.89020858263016E-02 
1728	 2.93610162228676E-02 
1729	 3.05471241539743E-02 
1730	 3.54856628782046E-02 
1731	 3.36944060785217E-02 
1732	 3.13528203351939E-02 
1733	 0.034256712470162 
1734	 3.31378600107421E-02 
1735	 2.76286141540669E-02 
1736	 0.023516107463719 
1737	 2.35863804245868E-02 
1738	 2.70097822863965E-02 
1739	 3.09892587044502E-02 
1740	 3.36260609669617E-02 
1741	 3.34185452563625E-02 
1742	 0.030080142745489 
1743	 2.90021344963262E-02 
1744	 3.18440098989349E-02 
1745	 3.06031370682144E-02 
1746	 2.53036436628077E-02 
1747	 0.02476637427224 
1748	 2.63458946415721E-02 
1749	 2.52365602417848E-02 
1750	 2.40684192589166E-02 
1751	 2.64065096341525E-02 
1752	 2.89929250804122E-02 
1753	 2.99509507886966E-02 
1754	 0.035708223144149 
1755	 3.66095500986324E-02 
1756	 2.86499377274015E-02 
1757	 2.48709598547725E-02 
1758	 2.87287397584022E-02 
1759	 3.08495915219894E-02 
1760	 3.20280426764601E-02 
1761	 3.09237801710927E-02 
1762	 0.027862451461259 
1763	 3.04661918013147E-02 
1764	 0.03218745937315 
1765	 2.94743331898519E-02 
1766	 2.25613452131403E-02 
1767	 1.20739850788107E-02 
1768	 9.92798106414428E-03 
1769	 1.70112616305087E-02 
1770	 0.021891351644692 
1771	 2.47969566966096E-02 
1772	 2.58454444499974E-02 
1773	 2.19552629017638E-02 
1774	 2.47759885860427E-02 
1775	 3.18884328998895E-02 
1776	 3.10160415816483E-02 
1777	 2.38916953980232E-02 
1778	 2.23635546211074E-02 
1779	 1.00704863857008E-02 
1780	 1.26443013375889E-02 
1781	 4.82581853989268E-02 
1782	 0.055180797434141 
1783	 4.85039854477863E-02 
1784	 4.72571604795137E-02 
1785	 2.58578783610309E-02 
1786	 1.30723984135081E-02 
1787	 8.40381243804271E-03 
1788	 1.15913485400271E-02 
1789	 1.76473774597747E-02 
1790	 1.39604729297716E-02 
1791	 3.92465507348138E-02 
1792	 6.23327969265602E-02 
1793	 1.05297586222161E-02 
1794	-1.47386787633124E-02 
1795	-2.27951403478883E-02 
1796	-1.02474116939368E-02 
1797	 0.100075459346962 
1798	 0.191414656251401 
1799	 0.214481429634289 
1800	-5.60045103382724E-02 
1801	-0.1434620941021 
1802	 7.85828176603506E-03 
1803	 0.030444225291564 
1804	 0.262412316490322 
1805	 0.28664473582181 
1806	-0.491421595613349 
1807	-1.35313765572583 
1808	-5.56880797474712 
1809	 29.2153594665049 
1810	 6.7012709143612 
1811	 2.52130053693897 
1812	 0.765531754659024 
1813	 0.4751425466731 
1814	-0.989626455650628 
1815	-0.928182927078715 
1816	 0.47673043579653 
1817	 1.03943261682906 
1818	 1.56710195552212 
1819	 5.98791631864014 
1820	-0.486627116535589 
1821	-0.208633413361045 
1822	-0.251552077298162 
1823	 0.285946027854746 
1824	 0.315000785257444 
1825	-0.220505499997073 
1826	-0.398587894640335 
1827	-11.0977883651255 
1828	-2.90547095903336 
1829	 0.164134480280484 
1830	-6.57378265605568E-02 
1831	-0.111217549619487 
1832	-8.79096607961348E-02 
1833	 0.22676972124204 
1834	 0.355055156353725 
1835	 0.361703906624275 
1836	 0.546836383396918 
1837	 0.881697534834342 
1838	 1.04930997755141 
1839	 1.35516304062074 
1840	 3.84520365610244 
1841	 5.45370916764363 
1842	 3.22659373975409 
1843	 4.70116404506198 
1844	 8.79484304244818 
1845	 15.1720529978351 
1846	-18.1171815125099 
1847	-11.4062883034497 
1848	 63.9145971793745 
1849	-6.7572788821056 
1850	-4.41468659550074 
1851	-1.64048190997538 
1852	-0.278699451897232 
1853	 5.61997511993209E-02 
1854	 5.01299671946535E-03 
1855	-2.7407969722194 
1856	-10.4720878141023 
1857	 183.195598299586 
1858	 5.46576216969237 
1859	 6.4402612028581 
1860	 2.12963302352767 
1861	 0.697397625744379 
1862	 0.474923239493217 
1863	 0.15467865456007 
1864	-0.634757679168106 
1865	-1.05946155036139 
1866	-0.932849257971314 
1867	-1.09776990295962 
1868	-0.622305722034933 
1869	-0.153388876064166 
1870	 2.78494249627173 
1871	-9.09653130240736 
1872	 0.656971158857041 
1873	 2.4433475277791 
1874	-5.87390865452647 
1875	-2.04750284534801 
1876	-2.27884836622758 
1877	-5.27383088947346 
1878	-15.2734179141797 
1879	-0.349467283892163 
1880	-0.192208667309783 
1881	 0.259721488058895 
1882	 0.76319171771644 
1883	 1.26250930930902 
1884	 1.13552776188861 
1885	 0.601076533913602 
1886	 0.739817568910324 
1887	 1.7818733379193 
1888	 3.10278428704124 
1889	 3.0186135023702 
1890	 1.92585393755589 
1891	 1.76464909426835 
1892	 0.861175322232912 
1893	 1.0934829363344 
1894	 1.36978837685347 
1895	 1.00486409581927 
1896	 1.14034983394804 
1897	 0.97279485577192 
1898	 0.944516034522816 
1899	 1.49486001612754 
1900	 1.54191946480226 
1901	 0.962582313025622 
1902	 0.855024544180125 
1903	 0.861095423035773 
1904	 0.638430111220846 
1905	 0.612388023396173 
1906	 0.842604601065832 
1907	 0.831733035557164 
1908	 0.656547789943313 
1909	 0.272565358215876 
1910	 6.56319892529311E-02 
1911	-0.122146747704923 
1912	-0.208422045007276 
1913	-0.138400037665061 
1914	 20.496496641689 
1915	-3.77587968345074 
1916	-0.84222835750508 
1917	-0.771881631623998 
1918	-1.41229731636784 
1919	-3.37581849346642 
1920	 1.68677014528981 
1921	 1.42892176932325 
1922	 1.05249831423241 
1923	-1.26450365781876 
1924	-15.1831463786248 
1925	 4.79530473381071 
1926	 3.0406133109082 
1927	 1.69202101220508 
1928	 1.43408174421475 
1929	 1.59994610625964 
1930	 2.14772700278695 
1931	 4.51076382416841 
1932	 23.9726209203628 
1933	 3.64972364847501 
1934	 1.44929929059019 
1935	 1.55827940464587 
1936	 0.781843565342909 
1937	 2.26670902466327 
1938	 2.01066725548214 
1939	 0.926914165974346 
1940	 9.84715031912794E-02 
1941	 0.235817020940573 
1942	-5.29086864195937E-03 
1943	 0.186554395221601 
1944	 2.65013065892849 
1945	-4.25044531709589 
1946	-0.903437420169415 
1947	-0.217527984557417 
1948	-0.526649038749059 
1949	-0.76252181184898 
1950	-0.875059518997704 
1951	-3.79366379261544 
1952	-29.6527291032739 
1953	-24.6988105655289 
1954	-6.22578503004627 
1955	 21.6542154223581 
1956	 8.04323592081137 
1957	 4.39381878308234 
1958	 0.950099014038356 
1959	 0.496334171890629 
1960	 0.786387800878155 
1961	 0.997265244194445 
1962	 0.780235778487652 
1963	 0.803993689612719 
1964	 0.861501182668415 
1965	 0.489096208933385 
1966	 0.373009596755289 
1967	 0.352319921891414 
1968	 0.423686484798403 
1969	 0.241590615813507 
1970	 0.197578916631975 
1971	 0.143012669626398 
1972	 8.58318475764381E-02 
1973	 0.134974069893365 
1974	 0.143359017483874 
1975	 0.110239828422261 
1976	 0.127751569471082 
1977	 0.187895160810014 
1978	 0.244801933603255 
1979	 0.290969789213196 
1980	 0.398815788674012 
1981	 0.408413061765386 
1982	 0.285720452028764 
1983	 0.182892683268453 
1984	 0.091952553155916 
1985	-5.43334282454665E-03 
1986	-5.42984617796916E-03 
1987	 9.0400383775345E-03 
1988	-1.00944579329833E-02 
1989	 4.65586570724595E-02 
1990	 0.08337134048653 
1991	 0.112112618485204 
1992	 0.168127779016072 
1993	 0.180757332784078 
1994	 0.180928639611321 
1995	 0.13283667378884 
1996	 0.115916273218585 
1997	 0.156606752761509 
1998	 0.228828392072974 
1999	 0.365522121581227 
2000	 0.501653995151354 
2001	 0.555793300537014 
2002	 0.462883475534346 
2003	 0.284870363055017 
2004	 0.107514211343298 
2005	 0.010926572175452 
2006	 2.61729463643714E-02 
2007	 0.127191046794262 
2008	 0.188943009195818 
2009	 0.193203002733609 
2010	 0.139181301771299 
2011	 8.73900463927699E-02 
2012	-6.13376501424717E-02 
2013	-3.10873832429248E-02 
2014	 4.67843610334023E-02 
2015	 5.37992080895869E-02 
2016	 0.153355665735041 
2017	 0.18512869324864 
2018	 0.137936411153194 
2019	 0.108360409013228 
2020	 9.55704939047122E-02 
2021	 5.76544890126466E-02 
2022	 3.19611713100226E-02 
2023	 7.24436475334149E-02 
2024	 7.79004209978103E-02 
2025	 8.00353987073567E-02 
2026	 5.60118525881071E-02 
2027	 2.70300735684271E-02 
2028	-1.92983306953557E-02 
2029	-0.070983476079222 
2030	-6.81575223801864E-02 
2031	-6.22010003895825E-02 
2032	-5.73208549103266E-02 
2033	-4.71902906472181E-02 
2034	-6.18102601917059E-02 
2035	-5.45068211509743E-02 
2036	-0.046500878173068 
2037	-2.48585279269866E-02 
2038	 3.53470064626187E-04 
2039	 1.69225624058761E-02 
2040	 0.037291984187523 
2041	 5.12137673866361E-02 
2042	 5.88019125648394E-02 
2043	 7.03326015957949E-02 
2044	 8.58497583021844E-02 
2045	 7.67898001652282E-02 
2046	 7.85085392948764E-02 
2047	 6.31303324123773E-02 
2048	 4.10494449883394E-02 
2049	 3.68043054220552E-02 
2050	 4.31796504592144E-02 
2051	 0.053076110739415 
2052	 0.055448610915375 
2053	 6.03132749836739E-02 
2054	 0.066725967267996 
2055	 6.80301182288297E-02 
2056	 6.56290737915521E-02 
2057	 7.10443451423268E-02 
2058	 5.91310368078318E-02 
2059	 2.40917168144249E-02 
2060	 6.47112177038675E-03 
2061	-1.58722658002835E-02 
2062	-2.12253373810188E-02 
2063	-2.23015768169551E-02 
2064	-1.60522474954141E-02 
2065	 2.51959525278676E-04 
2066	 1.02112674246976E-02 
2067	 2.23806063882722E-02 
2068	 3.98164257658222E-02 
2069	 4.49139463954709E-02 
2070	 5.35101040646682E-02 
2071	 6.65620289996046E-02 
2072	 7.29224680392299E-02 
2073	 7.64509047127137E-02 
2074	 7.48571194889194E-02 
2075	 7.49746563833368E-02 
2076	 7.82661392674546E-02 
2077	 7.33967864959307E-02 
2078	 6.13027233029689E-02 
2079	 5.78353439664105E-02 
2080	 5.34225491325264E-02 
2081	 0.048229019757441 
2082	 4.68245528097225E-02 
2083	 4.95274732603577E-02 
2084	 3.40277913626434E-02 
2085	 0.015464979120301 
2086	 0.019482602082751 
2087	 1.34999413754396E-02 
2088	 1.43957360832463E-02 
2089	 2.96021427291252E-02 
2090	 3.36118358190223E-02 
2091	 4.43094378994951E-02 
2092	 4.62923014909293E-02 
2093	 4.35797361885658E-02 
2094	 4.38881156897179E-02 
2095	 3.53840249972006E-02 
2096	 3.42818818639751E-02 
2097	 5.05728052811726E-02 
2098	 5.00747349725737E-02 
2099	 0.036630628943713 
2100	 3.42333595493919E-02 
2101	 3.90871033758281E-02 
2102	 3.48571837352805E-02 
2103	 4.00639675399737E-02 
2104	 4.63411334186703E-02 
2105	 2.39204477094613E-02 
2106	 2.5298108453983E-03 
2107	 6.50282860844417E-03 
2108	 1.13368501071449E-03 
2109	-4.72718427243381E-03 
2110	-1.76138783949489E-03 
2111	-7.75689745573594E-04 
2112	-7.93386413026349E-03 
2113	-9.76607068484175E-03 
2114	 4.42805151855247E-03 
2115	 9.0004558410464E-03 
2116	-1.4892286456307E-03 
2117	-1.24177347298898E-03 
2118	 6.72957275151427E-03 
2119	 1.17521192215042E-02 
2120	 1.35096713160315E-02 
2121	 2.87109162835097E-02 
2122	 3.66102058434357E-02 
2123	 2.99590824471225E-02 
2124	 3.29431486259304E-02 
2125	 3.42009646750948E-02 
2126	 3.61517554440378E-02 
2127	 4.17015033580841E-02 
2128	 0.044115030602828 
2129	 4.87855843960496E-02 
2130	 5.08998967591553E-02 
2131	 4.44436194214627E-02 
2132	 3.15155015944096E-02 
2133	 1.92234351492844E-02 
2134	 1.16447939488594E-02 
2135	 8.01838094340059E-03 
2136	 8.58476440952829E-03 
2137	 8.37795182568212E-03 
2138	 1.45536965149681E-02 
2139	 3.74723148960188E-02 
2140	 3.97882363347542E-02 
2141	 3.29365507500239E-02 
2142	 3.72602307361709E-02 
2143	 3.69465719606503E-02 
2144	 3.36856492868684E-02 
2145	 4.86601996406562E-02 
2146	 4.71594121780157E-02 
2147	 3.79883105374864E-02 
2148	 0.034199884142381 
2149	 4.18583557743629E-02 
2150	 5.86917046124477E-02 
2151	 0.064087058448062 
2152	 6.81755023756716E-02 
2153	 6.46383005886963E-02 
2154	 5.47967570689163E-02 
2155	 0.054886802850387 
2156	 5.36130306259732E-02 
2157	 4.64188299511737E-02 
2158	 3.31004050811455E-02 
2159	 2.28926545220093E-02 
2160	 8.99377694364146E-03 
2161	 4.97195871779495E-04 
2162	-1.01084253988856E-02 
2163	-1.14003486903531E-02 
2164	-4.02552100913964E-03 
2165	-2.37267973241694E-04 
2166	 6.32196915411949E-03 
2167	 1.56558710150477E-02 
2168	 3.76136042714529E-02 
2169	 3.98653534715994E-02 
2170	 3.45818418645986E-02 
2171	 2.11703618001112E-02 
2172	 1.49419635936927E-02 
2173	 1.24331461812727E-02 
2174	 0.017250148651005 
2175	 3.40706888740306E-02 
2176	 0.030616423938207 
2177	 1.20928074205149E-02 
2178	 3.94069212349326E-03 
2179	 3.45275540010624E-03 
2180	 9.97129519692932E-03 
2181	 3.24754072675666E-03 
2182	 2.98576128187165E-03 
2183	 2.97776400368431E-02 
2184	 3.00570539271453E-02 
2185	 2.10145833750341E-02 
2186	 2.38046629041871E-02 
2187	 1.63184391681128E-02 
2188	 1.22139416992968E-02 
2189	 2.86608439181184E-02 
2190	 3.53280927439679E-02 
2191	 2.89561201985673E-02 
2192	 2.32032078663776E-02 
2193	 0.017651314654011 
2194	 1.96977979946925E-02 
2195	 3.32493024066438E-02 
2196	 3.38723489986974E-02 
2197	 2.28794388747802E-02 
2198	 1.54462312070359E-02 
2199	-2.70948246807852E-03 
2200	-0.016457301345288 
2201	-0.016242851477157 
2202	-2.94350188090392E-03 
2203	 2.29841999283669E-02 
2204	 3.90937593083255E-02 
2205	 4.48919999692551E-02 
2206	 5.92650110621057E-02 
2207	 6.39557238666847E-02 
2208	 5.14044141254997E-02 
2209	 4.90922385381051E-02 
2210	 5.06129710571835E-02 
2211	 4.53392380716728E-02 
2212	 5.40286435822748E-02 
2213	 5.61692547150874E-02 
2214	 5.50377752621941E-02 
2215	 5.52254236861509E-02 
2216	 4.68073059029112E-02 
2217	 4.49404186311088E-02 
2218	 5.05097881791173E-02 
2219	 4.61550259006415E-02 
2220	 4.22792872518835E-02 
2221	 2.71366918324896E-02 
2222	-7.37572946096469E-03 
2223	-8.68709437201628E-03 
2224	-6.97631152779407E-04 
2225	 3.40470224232589E-03 
2226	 2.80019514416139E-02 
2227	 3.13145753948595E-02 
2228	 6.86429505521572E-03 
2229	 1.71742021073814E-02 
2230	 5.14707821206232E-02 
2231	 7.37814833260778E-02 
2232	 0.13138659564922 
2233	 0.138540154302141 
2234	 0.106542357159011 
2235	 6.83974601498978E-02 
2236	 4.99145249368928E-02 
2237	 2.81794966293691E-02 
2238	 2.35700472443405E-02 
2239	 2.36542620990792E-02 
2240	 0.022451478401623 
2241	 1.85642588548592E-02 
2242	 2.04760343504565E-02 
2243	 3.87661141901837E-02 
2244	 5.59736145273439E-02 
2245	 5.39240024205967E-02 
2246	 4.69657085621857E-02 
2247	 0.06383193013674 
2248	 8.30929776457322E-02 
2249	 9.15444611479678E-02 
2250	 9.69986661529715E-02 
2251	 7.77478392737196E-02 
2252	 3.58736104026868E-02 
2253	 5.12518326949089E-03 
2254	-4.83419432984605E-03 
2255	 1.58879249901168E-02 
2256	 3.25602233465839E-02 
2257	 1.89361224868791E-02 
2258	 1.53638210044514E-02 
2259	 2.05056455885933E-02 
2260	 1.95035310260315E-02 
2261	 1.89823018663714E-02 
2262	 1.74506395690462E-02 
2263	 1.13199217326664E-02 
2264	 2.58290493944094E-03 
2265	-7.97035121185177E-03 
2266	-9.32575470844362E-03 
2267	-1.26292825277091E-02 
2268	-1.22569235976502E-02 
2269	-4.6793356972189E-03 
2270	 8.31495091151408E-03 
2271	 3.02021071916476E-02 
2272	 4.31053552830617E-02 
2273	 5.09091681088122E-02 
2274	 7.08907427989552E-02 
2275	 0.103506755723991 
2276	 0.112822802655307 
2277	 0.134503044921225 
2278	 0.129689069974165 
2279	 7.64687142837202E-02 
2280	 0.041714656588161 
2281	 9.51799162458583E-03 
2282	-4.02858955784474E-02 
2283	-9.82677809493299E-02 
2284	-7.86480819979001E-02 
2285	-4.15320863450368E-02 
2286	-2.61052162110022E-03 
2287	 5.73939006184182E-02 
2288	 7.16123462085376E-02 
2289	 5.16552234392424E-02 
2290	 8.12021797079546E-03 
2291	-3.27938234188615E-02 
2292	-3.74137915119245E-02 
2293	-3.74514569536539E-02 
2294	-6.76714026005571E-03 
2295	 1.40649322200872E-02 
2296	-1.95537175616862E-02 
2297	-4.10396679171242E-03 
2298	 3.27600824387412E-02 
2299	 5.47582666152258E-02 
2300	 0.118762100311078 
2301	 0.101984254887235 
2302	 3.68674650968097E-02 
2303	 0.035110021940779 
2304	 5.48569755560508E-02 
2305	 6.46687762460395E-02 
2306	 8.91336169808842E-02 
2307	 0.128524921247901 
2308	 8.29393730735142E-02 
2309	 3.68549664867518E-02 
2310	 5.53365075378847E-02 
2311	 2.62627105040962E-02 
2312	 2.16684811184922E-02 
2313	 0.101584067424483 
2314	 0.135903199009064 
2315	 0.10782739285175 
2316	 9.87014399824599E-02 
2317	 7.44338364496214E-02 
2318	 7.14288999169387E-02 
2319	 0.169316516288938 
2320	 0.244895192273056 
2321	 0.2049074655023 
2322	 0.205427021178737 
2323	 0.198866650945324 
2324	 8.59849621141052E-02 
2325	 6.84662288673597E-02 
2326	 0.122395771325013 
2327	 1.45691626719941E-02 
2328	-4.28253330195555E-02 
2329	 5.61592021793479E-04 
2330	-1.09911452104228E-02 
2331	-2.30891926132729E-02 
2332	-4.18350612653462E-02 
2333	-2.81658263348085E-02 
2334	-6.56916025723194E-02 
2335	-0.074419726370807 
2336	 6.58137882275543E-02 
2337	 0.118272682240315 
2338	 0.158262492793357 
2339	 0.347144471162359 
2340	 0.633713094439427 
2341	 0.923677890383573 
2342	 1.00147069865574 
2343	 0.413242868240533 
2344	 0.141813504209127 
2345	-1.65292940718266E-02 
2346	-0.106197853465252 
2347	-4.65831684356804E-02 
2348	 3.02047864634462E-02 
2349	-5.04279011579785E-02 
2350	-0.222422211032682 
2351	-0.38378933985661 
2352	-0.475923562111937 
2353	-0.233418202947419 
2354	 6.45333285815907E-02 
2355	 9.08205690421206E-02 
2356	 9.49426329963767E-02 
2357	 8.37892478780812E-02 
2358	-0.11390786913939 
2359	 4.71335972484884E-02 
2360	 0.373704406398811 
2361	 0.297131316555026 
2362	 0.201243659588844 
2363	 0.234278775651462 
2364	 0.327561106889205 
2365	 0.162763094150643 
2366	 3.25520599595342E-02 
2367	 5.81991153420799E-02 
2368	-0.177927492713207 
2369	-2.22021310991037E-02 
2370	 0.984147575079148 
2371	 1.15614633156333 
2372	 1.73263590285842 
2373	-1.09663325340679 
2374	-0.349876189374302 
2375	 0.631728427939722 
2376	 0.601120883072665 
2377	 0.4226147202938 
2378	 0.443684002110413 
2379	 0.439227686778547 
2380	 1.19442810672242 
2381	-2.57226825049306 
2382	-1.19740180152154E-02 
2383	 1.46469728611317 
2384	 2.04645797670835 
2385	-24.9866139276045 
2386	-1.11659985756272 
2387	-0.415012655873177 
2388	-0.25394408289636 
2389	-0.173130935098625 
2390	 0.029159096756874 
2391	 1.29237768061418 
2392	-1.02795004038431 
2393	 0.645296514708404 
2394	 1.1142066769577 
2395	 0.948337609177946 
2396	 0.70807931900635 
2397	 0.184223526278682 
2398	-0.467746631738469 
2399	-1.8208296387708 
2400	-6.01770887844073 
2401	-35.0086314207279 
2402	-9.07511456149722 
2403	-2.03194361717724 
2404	-2.20168126926673 
2405	-3.1010645755266 
2406	-7.41862342518043 
2407	 1.24092540366269 
2408	 1.46426090474483 
2409	-4.41871677617886 
2410	-0.400266235803233 
2411	-0.347257994670414 
2412	 0.467823697523095 
2413	-0.235084159469314 
2414	-7.12958795161056E-02 
2415	 1.68108167034506 
2416	-1.00608564788921 
2417	-1.14483496414287 
2418	 4.30802764781477E-03 
2419	-0.434551415873928 
2420	-4.28362986833368 
2421	-2.2249930781002 
2422	-3.48228193148279 
2423	-105.199927459818 
2424	-3.92637690754241 
2425	 12.8166638922955 
2426	 1.83037232134708 
2427	-3.06983296513368 
2428	-2.83997875802349 
2429	-4.36799700485451 
2430	 493.979820928531 
2431	 6.32680083343119 
2432	 0.489760049644884 
2433	 0.123438121459653 
2434	 0.134724033734471 
2435	 0.335327831068765 
2436	 0.891855053312259 
2437	 3.09267808521108 
2438	 3.88242983467751 
2439	 3.80898860758919 
2440	 6.40853891172854 
2441	 2.1919934446466 
2442	 0.433003022053334 
2443	-0.316129236624666 
2444	-0.469925043445788 
2445	-0.89415915669857 
2446	-0.705275817750961 
2447	-0.813933570964215 
2448	-1.21925629446337 
2449	-2.34033656193879 
2450	-1.81130047115322 
2451	-0.761776792044976 
2452	-6.14377283061539E-02 
2453	 0.548582446699811 
2454	 0.973681022272503 
2455	 1.06438289038213 
2456	 1.61104873866427 
2457	 2.7531577208308 
2458	 1.27741808555063 
2459	 1.01999852180808 
2460	 0.928673249819768 
2461	-2.57426989936692E-02 
2462	 0.187078929678945 
2463	 4.50793799225458E-02 
2464	-0.120232816241399 
2465	-0.202186335905236 
2466	-0.605040936608123 
2467	-0.71280578344664 
2468	-0.834650128431438 
2469	-0.512481774780487 
2470	-8.36849605313518E-02 
2471	-9.73292698395771E-02 
2472	-0.195165147058182 
2473	 6.8156666014255E-03 
2474	 0.201668215565328 
2475	 0.522781289705339 
2476	 0.60023729819062 
2477	 0.410286525043755 
2478	 0.370689497777989 
2479	-0.607049396946383 
2480	-1.53621398983902 
2481	-0.16898362898374 
2482	-0.478023543457631 
2483	-0.925219652346873 
2484	 3.47615164403533 
2485	 0.7074345379159 
2486	 1.40731894674076 
2487	-0.301978672959938 
2488	-0.298766315693454 
2489	-0.427353202683836 
2490	-1.00915997847857E-02 
2491	 0.191705080394293 
2492	 0.204406150036821 
2493	 0.473262315627519 
2494	 0.263728685216753 
2495	-0.550438772385111 
2496	-0.544181288217824 
2497	-0.635837915198449 
2498	-1.06326218082912 
2499	-1.08764358376819 
2500	-6.04519672675074 
