Wavelength	rt0727far200003.asd
350	 5.08396789719557E-02 
351	 5.08712289423825E-02 
352	 5.10413567354183E-02 
353	 5.09179313828689E-02 
354	 5.06468720341829E-02 
355	 5.15711172528661E-02 
356	 5.20094833084098E-02 
357	 5.16529695674638E-02 
358	 0.050945848988986 
359	 0.051335589165809 
360	 5.17770154533099E-02 
361	 5.18418033284017E-02 
362	 0.051641522992265 
363	 5.13702881347467E-02 
364	 0.051841885674282 
365	 5.27191245339068E-02 
366	 5.18717164630349E-02 
367	 5.15928114165494E-02 
368	 5.16371805417355E-02 
369	 5.15470249636751E-02 
370	 5.27766808476438E-02 
371	 5.29548964367645E-02 
372	 5.21049902551131E-02 
373	 5.17463439049667E-02 
374	 5.24690128215304E-02 
375	 5.30190605929579E-02 
376	 5.28456099548427E-02 
377	 5.26560273054035E-02 
378	 5.25282762911883E-02 
379	 5.28717924471833E-02 
380	 5.37081269563673E-02 
381	 5.37501579201707E-02 
382	 5.40791487489941E-02 
383	 5.43173013656608E-02 
384	 5.36934521416627E-02 
385	 5.38993124505017E-02 
386	 5.41462398227869E-02 
387	 5.40795419840419E-02 
388	 0.054066917596961 
389	 5.42129642336923E-02 
390	 5.47181139365359E-02 
391	 5.53495947847581E-02 
392	 5.47773300111583E-02 
393	 5.46669231581677E-02 
394	 5.50900876565694E-02 
395	 5.54439886124205E-02 
396	 5.52388403059168E-02 
397	 5.48979386715688E-02 
398	 5.47608251436294E-02 
399	 5.50023602560239E-02 
400	 5.53417708643783E-02 
401	 5.54982875586261E-02 
402	 5.54991874926885E-02 
403	 5.60858165195015E-02 
404	 5.61072344026473E-02 
405	 5.58792297395418E-02 
406	 5.60950678394261E-02 
407	 5.61597155657955E-02 
408	 5.62295788404988E-02 
409	 5.64132018212233E-02 
410	 5.67083294491301E-02 
411	 5.66157363933932E-02 
412	 0.05654643447932 
413	 5.67753620310663E-02 
414	 5.68502185254702E-02 
415	 5.69370562855395E-02 
416	 5.71453953907615E-02 
417	 5.74807374609519E-02 
418	 0.057438357432498 
419	 5.75016215784892E-02 
420	 5.77633802711582E-02 
421	 5.78341005154508E-02 
422	 5.78513077407196E-02 
423	 5.81192051508048E-02 
424	 5.86661540890351E-02 
425	 5.86457188726258E-02 
426	 5.88205517877438E-02 
427	 0.059141005352217 
428	 5.92265762446697E-02 
429	 0.05938707224473 
430	 5.96144962389608E-02 
431	 5.98806997689951E-02 
432	 6.01694634961453E-02 
433	 6.05381517297882E-02 
434	 6.08526423734045E-02 
435	 0.061037190549506 
436	 6.13024666760626E-02 
437	 6.15629465162535E-02 
438	 6.18719142606336E-02 
439	 6.23150471840232E-02 
440	 6.25918223721849E-02 
441	 6.28187727075232E-02 
442	 6.31092278859837E-02 
443	 6.35053442726599E-02 
444	 6.37802537551056E-02 
445	 6.39964221347677E-02 
446	 6.42496616914625E-02 
447	 6.43926097631006E-02 
448	 6.47671206999678E-02 
449	 6.51544529243906E-02 
450	 6.50137184659089E-02 
451	 6.53092053660044E-02 
452	 0.065692505440963 
453	 6.58691277535989E-02 
454	 6.60474569714246E-02 
455	 6.62970468529751E-02 
456	 0.066460724337092 
457	 6.64315036118983E-02 
458	 6.68743411672374E-02 
459	 6.71450050234095E-02 
460	 6.71494013171106E-02 
461	 6.73922229453854E-02 
462	 6.75720905821562E-02 
463	 6.76815086283129E-02 
464	 6.78033315129157E-02 
465	 6.81320320101376E-02 
466	 6.83363731066521E-02 
467	 6.84637787560303E-02 
468	 6.87219851955094E-02 
469	 6.89411895304974E-02 
470	 6.92284018259201E-02 
471	 6.95710786971365E-02 
472	 6.97694892403666E-02 
473	 0.069902289984163 
474	 7.01360202592965E-02 
475	 7.05241756098076E-02 
476	 7.06166562091235E-02 
477	 7.08807114514162E-02 
478	 7.12805998040914E-02 
479	 0.071457326451698 
480	 7.16386761793903E-02 
481	 7.17911697192223E-02 
482	 7.19491701919497E-02 
483	 7.23739243034799E-02 
484	 7.25911058223695E-02 
485	 7.27235458634202E-02 
486	 7.30585054611405E-02 
487	 7.34535550096574E-02 
488	 7.37028167625067E-02 
489	 7.38821071826873E-02 
490	 7.43193704883971E-02 
491	 7.47017195782271E-02 
492	 7.49839603954042E-02 
493	 7.52571122139172E-02 
494	 7.58700804976074E-02 
495	 7.62858922870646E-02 
496	 0.076542109649909 
497	 7.69560535142984E-02 
498	 7.74505215923669E-02 
499	 7.79490023488269E-02 
500	 7.84490506638325E-02 
501	 7.90731998659795E-02 
502	 7.94919145826391E-02 
503	 7.99279469570311E-02 
504	 8.06131228480098E-02 
505	 8.11476237575961E-02 
506	 8.14768484131426E-02 
507	 8.18526829011666E-02 
508	 8.26832572211412E-02 
509	 8.30344952763111E-02 
510	 8.33571186871436E-02 
511	 8.40108667789574E-02 
512	 8.46418374096824E-02 
513	 8.52066243756873E-02 
514	 8.57232996228914E-02 
515	 8.62731690819062E-02 
516	 8.70827290053902E-02 
517	 8.78026546948538E-02 
518	 8.83181785754938E-02 
519	 8.88678429302319E-02 
520	 8.96131541144039E-02 
521	 0.090320063510164 
522	 9.08312445031635E-02 
523	 9.15799826270087E-02 
524	 0.092321284144679 
525	 9.29739767173043E-02 
526	 9.35949184718446E-02 
527	 9.43412329313835E-02 
528	 9.51139243431564E-02 
529	 9.58212253308856E-02 
530	 9.64558973187581E-02 
531	 0.097142870932917 
532	 9.79067627903939E-02 
533	 9.87127487259412E-02 
534	 9.94638221371478E-02 
535	 0.100175296806191 
536	 0.100939379043306 
537	 0.101913589414076 
538	 0.102624088579537 
539	 0.103300926418983 
540	 0.104203221961294 
541	 0.105092972666904 
542	 0.105994879815916 
543	 0.10681263125494 
544	 0.107437276368531 
545	 0.108378728195331 
546	 0.10935064163285 
547	 0.110163179992885 
548	 0.111012454971572 
549	 0.111869631014308 
550	 0.112738086555459 
551	 0.113606716953924 
552	 0.114331712922065 
553	 0.115161907032607 
554	 0.116109517657731 
555	 0.116896838518515 
556	 0.117703231015027 
557	 0.118605200664812 
558	 0.119564193769154 
559	 0.120275505391346 
560	 0.121077254035804 
561	 0.121879267412723 
562	 0.122385063181762 
563	 0.123118456443153 
564	 0.123849471767915 
565	 0.124436456359609 
566	 0.125114578919286 
567	 0.125685884886109 
568	 0.126120957136682 
569	 0.126472425931172 
570	 0.126873169038592 
571	 0.127204083603687 
572	 0.127503811320481 
573	 0.127981410248933 
574	 0.128165917618746 
575	 0.12824204938154 
576	 0.128442467321299 
577	 0.128653410665553 
578	 0.128687430115337 
579	 0.128655733685695 
580	 0.128801789195876 
581	 0.128667217611421 
582	 0.12851841256665 
583	 0.128481920034443 
584	 0.128254716393131 
585	 0.128135053706419 
586	 0.128119372742122 
587	 0.12808112448866 
588	 0.127893715720097 
589	 0.127612731356395 
590	 0.127331240620755 
591	 0.127115084292436 
592	 0.126802311140672 
593	 0.126307983612655 
594	 0.125656640958122 
595	 0.125133275349657 
596	 0.124338633506867 
597	 0.12335756658822 
598	 0.122524295334294 
599	 0.121711196384226 
600	 0.120847531700206 
601	 0.120026498210009 
602	 0.119616144425303 
603	 0.119249306916626 
604	 0.118901007265096 
605	 0.118638397508938 
606	 0.118373609215915 
607	 0.118337171677239 
608	 0.118382768338368 
609	 0.11799779766337 
610	 0.117946309912784 
611	 0.117896505607096 
612	 0.117552056248246 
613	 0.117432790008601 
614	 0.117221058559839 
615	 0.11699147605743 
616	 0.116985098569458 
617	 0.116822760530792 
618	 0.116669619153693 
619	 0.116601377470849 
620	 0.116462094116917 
621	 0.116167923670175 
622	 0.116029225384598 
623	 0.116286558026966 
624	 0.116183719830769 
625	 0.116040446117998 
626	 0.115983192256125 
627	 0.115914904598766 
628	 0.115901678503161 
629	 0.115797480066687 
630	 0.115540126400198 
631	 0.115380754496106 
632	 0.115170667699426 
633	 0.115044507946357 
634	 0.115182324579993 
635	 0.115086309426925 
636	 0.114852353793579 
637	 0.114675846404394 
638	 0.114804665919493 
639	 0.114978419248608 
640	 0.114986477809031 
641	 0.114762765883678 
642	 0.114722555971066 
643	 0.114746039048444 
644	 0.114746655429331 
645	 0.114681748623204 
646	 0.11472963102583 
647	 0.114666301809365 
648	 0.114348826093116 
649	 0.113996347726366 
650	 0.113513567087473 
651	 0.11293137133814 
652	 0.112326617320842 
653	 0.111503783452148 
654	 0.11076187536822 
655	 0.110013551236669 
656	 0.108717551673989 
657	 0.107415035418689 
658	 0.106226655368967 
659	 0.105148134364398 
660	 0.104281913871593 
661	 0.103405089148519 
662	 0.102438433114774 
663	 0.101439138582553 
664	 0.100619514581873 
665	 9.99142763185073E-02 
666	 9.92478647117028E-02 
667	 9.86111798566197E-02 
668	 9.81235062495723E-02 
669	 9.77886746730628E-02 
670	 9.75724004555528E-02 
671	 9.74857958366518E-02 
672	 9.73242962712863E-02 
673	 0.097176025496471 
674	 9.73880732306419E-02 
675	 9.77035020749862E-02 
676	 9.80639403980759E-02 
677	 9.84721787403593E-02 
678	 9.90018730396934E-02 
679	 9.94524862642371E-02 
680	 9.98710454753724E-02 
681	 0.100427579245748 
682	 0.101235294858715 
683	 0.102097159260941 
684	 0.102908041811618 
685	 0.103810186728543 
686	 0.105037101202116 
687	 0.106196412426486 
688	 0.106875126643202 
689	 0.107613545094453 
690	 0.108217615005244 
691	 0.108864212735914 
692	 0.109876848224096 
693	 0.110342302173514 
694	 0.110281708952812 
695	 0.109976561457289 
696	 0.1096597291438 
697	 0.109507150717266 
698	 0.109308228451897 
699	 0.108817364260056 
700	 0.108338354117145 
701	 0.107607842149607 
702	 0.106612442113251 
703	 0.105503244783868 
704	 0.104497856602142 
705	 0.10339385263688 
706	 0.102116143987678 
707	 0.100879659653502 
708	 9.94677524517461E-02 
709	 9.78966205865717E-02 
710	 9.62750048841337E-02 
711	 0.094634258148937 
712	 9.27810928166856E-02 
713	 9.08202735675958E-02 
714	 8.91444758880816E-02 
715	 8.79228286199203E-02 
716	 8.67965736260381E-02 
717	 0.085281298908264 
718	 8.28232364481525E-02 
719	 7.97720298185944E-02 
720	 7.72858322867571E-02 
721	 7.53706749302427E-02 
722	 0.073707214654827 
723	 7.18301211753907E-02 
724	 7.00200779169422E-02 
725	 6.86363896921624E-02 
726	 6.66070621796087E-02 
727	 6.40138956823649E-02 
728	 6.12617055573985E-02 
729	 5.89101644879665E-02 
730	 5.61225126405445E-02 
731	 5.35137089363526E-02 
732	 5.17231631952467E-02 
733	 5.02856747813107E-02 
734	 4.89733057449076E-02 
735	 4.77426769803853E-02 
736	 4.67119999703488E-02 
737	 4.58586007984219E-02 
738	 4.52422158477357E-02 
739	 4.48693863554452E-02 
740	 4.45233816714598E-02 
741	 4.41787799240802E-02 
742	 4.39953933993873E-02 
743	 4.41145034228625E-02 
744	 4.37799384670533E-02 
745	 4.35791057055971E-02 
746	 4.37287128800384E-02 
747	 4.37796249090767E-02 
748	 4.37649881517768E-02 
749	 0.043602684598231 
750	 4.33291425985066E-02 
751	 4.33846174040719E-02 
752	 4.35906071801557E-02 
753	 4.37208795477061E-02 
754	 4.35856224108969E-02 
755	 0.043470149130681 
756	 0.043521665956251 
757	 4.37289709829662E-02 
758	 4.39186828147556E-02 
759	 4.44346817142461E-02 
760	 4.53382602340531E-02 
761	 4.56062440631797E-02 
762	 4.48435305577727E-02 
763	 4.46744270468545E-02 
764	 0.044642529515494 
765	 4.40550411777711E-02 
766	 4.40834023118701E-02 
767	 4.41998881417877E-02 
768	 4.42248467379742E-02 
769	 4.42830208656192E-02 
770	 4.43827067584359E-02 
771	 4.45507624636583E-02 
772	 4.47638536005278E-02 
773	 4.48637501874597E-02 
774	 4.49609774631651E-02 
775	 4.51423339708473E-02 
776	 4.54261561839185E-02 
777	 4.54635257990564E-02 
778	 4.57265657977699E-02 
779	 4.62289172625392E-02 
780	 4.64859791553639E-02 
781	 4.66791191920762E-02 
782	 4.68329037425032E-02 
783	 4.70321915126196E-02 
784	 4.75658099066515E-02 
785	 4.81056362647339E-02 
786	 4.84465155278138E-02 
787	 4.85647603171593E-02 
788	 4.91301630570321E-02 
789	 4.96337801310149E-02 
790	 4.99245266627339E-02 
791	 5.02203259839891E-02 
792	 5.05568740831846E-02 
793	 5.09044902498134E-02 
794	 5.12623883114227E-02 
795	 5.16754503001915E-02 
796	 0.05197729862996 
797	 0.052212905022933 
798	 5.24945346609874E-02 
799	 5.28798810340755E-02 
800	 5.30487377366259E-02 
801	 5.32479745764835E-02 
802	 5.38659229049682E-02 
803	 5.37062837197078E-02 
804	 5.38226893718481E-02 
805	 5.43229724129198E-02 
806	 5.41798725615778E-02 
807	 5.40735217263848E-02 
808	 5.42028384533542E-02 
809	 5.45303820472575E-02 
810	 5.46392060888289E-02 
811	 5.43935502836378E-02 
812	 5.41002116227965E-02 
813	 5.41891129745826E-02 
814	 5.39613378872536E-02 
815	 5.34070121700841E-02 
816	 0.052868351587992 
817	 5.27268658213358E-02 
818	 5.19489631219677E-02 
819	 5.15350305083004E-02 
820	 5.13254607102125E-02 
821	 4.96449825915849E-02 
822	 4.87716550674081E-02 
823	 4.81564973151531E-02 
824	 4.69762521558083E-02 
825	 4.55094818579022E-02 
826	 4.41705146575683E-02 
827	 4.27549527688134E-02 
828	 4.11692231955718E-02 
829	 4.06546395703833E-02 
830	 4.00189608560642E-02 
831	 3.90271127639774E-02 
832	 3.82516416761833E-02 
833	 3.77341553513964E-02 
834	 3.69668044372944E-02 
835	 0.036187938921928 
836	 3.65746012287152E-02 
837	 3.63382359952872E-02 
838	 3.59054733468293E-02 
839	 3.57464462596982E-02 
840	 3.51415890257696E-02 
841	 3.51888151856311E-02 
842	 3.54016940183493E-02 
843	 3.50182693784312E-02 
844	 3.49079295466667E-02 
845	 3.42804864937674E-02 
846	 3.37471574702718E-02 
847	 3.45561657345346E-02 
848	 3.44344982739477E-02 
849	 3.40476635525902E-02 
850	 3.40035825232395E-02 
851	 3.43160224218673E-02 
852	 3.35753720268398E-02 
853	 3.30739388534573E-02 
854	 3.36075000930463E-02 
855	 3.37068854749657E-02 
856	 3.36574417576049E-02 
857	 3.36542613978532E-02 
858	 3.37440653098015E-02 
859	 0.033498921689586 
860	 0.032875223482568 
861	 3.24341464908512E-02 
862	 0.032753899653666 
863	 3.25869084434145E-02 
864	 3.27181608648365E-02 
865	 3.29824390850383E-02 
866	 3.24267657306016E-02 
867	 3.24793592473239E-02 
868	 3.25172935846077E-02 
869	 3.21990285502838E-02 
870	 3.19184592106221E-02 
871	 3.19055608085535E-02 
872	 3.22344250818395E-02 
873	 3.25828236829927E-02 
874	 3.18515539676263E-02 
875	 3.17609644658241E-02 
876	 3.17412358194644E-02 
877	 3.10835077579391E-02 
878	 3.13396552230516E-02 
879	 3.17007649610993E-02 
880	 3.17570025575651E-02 
881	 3.14442625140793E-02 
882	 3.13209939534891E-02 
883	 0.031130861463645 
884	 3.08648901819289E-02 
885	 3.07453504302831E-02 
886	 3.10359046604978E-02 
887	 3.08520239382791E-02 
888	 3.03346503354617E-02 
889	 3.08127853662303E-02 
890	 3.08521107981884E-02 
891	 3.11812865235874E-02 
892	 3.18179051888259E-02 
893	 3.05376685798963E-02 
894	 3.05213940149543E-02 
895	 0.031053180193052 
896	 0.03090354876079 
897	 3.20714565653111E-02 
898	 3.26423957008247E-02 
899	 3.19481509286361E-02 
900	 3.05133341552298E-02 
901	 0.030155220384771 
902	 3.03645468918374E-02 
903	 3.10583370708956E-02 
904	 3.19642710718967E-02 
905	 3.09822901168778E-02 
906	 3.01759710833964E-02 
907	 3.00621239636132E-02 
908	 3.00090591637016E-02 
909	 3.11463034292742E-02 
910	 3.23682759906698E-02 
911	 3.26582128142402E-02 
912	 3.16630487710101E-02 
913	 3.14062928699455E-02 
914	 3.05035938343515E-02 
915	 2.97959586743392E-02 
916	 3.21943953011464E-02 
917	 3.10429313563318E-02 
918	 2.91933293618505E-02 
919	 2.86046911226673E-02 
920	 2.84715781993883E-02 
921	 2.95340760395497E-02 
922	 2.94175406991362E-02 
923	 2.76060518743021E-02 
924	 2.89757501707539E-02 
925	 2.96855559169498E-02 
926	 2.82372286390707E-02 
927	 2.54465257560913E-02 
928	 2.88086330885281E-02 
929	 3.43224865998559E-02 
930	 3.51960677551218E-02 
931	 2.40530567404728E-02 
932	 2.29217078153712E-02 
933	 1.75265685648783E-02 
934	 9.34982867676209E-03 
935	 1.00332707978583E-02 
936	 1.59666018742481E-02 
937	 0.032303870912644 
938	 3.69518003887655E-02 
939	 0.017823279494904 
940	 2.58916691330461E-02 
941	 2.70179179480957E-02 
942	 0.024597172233222 
943	 3.62480441509424E-02 
944	 3.72208577536288E-02 
945	 3.65824829416768E-02 
946	 3.41546846947717E-02 
947	 2.64062137722939E-02 
948	 3.11542639449842E-02 
949	 3.12306592006566E-02 
950	 3.17071140942942E-02 
951	 4.37732526160218E-02 
952	 2.80731004734446E-02 
953	 1.92737589795303E-02 
954	 2.60690462513184E-02 
955	 3.37932534233593E-02 
956	 2.83079851718542E-02 
957	 1.75436006068344E-02 
958	 1.42237219961929E-02 
959	 0.027198626829468 
960	 3.52013161746758E-02 
961	 3.44863428477197E-02 
962	 3.25120959554377E-02 
963	 3.74878750441594E-02 
964	 2.90593288879767E-02 
965	 2.54729246021074E-02 
966	 2.93369745482248E-02 
967	 3.18474612187767E-02 
968	 3.12292468357137E-02 
969	 3.10430808813389E-02 
970	 2.97325511224806E-02 
971	 2.33400224254269E-02 
972	 2.82196427793454E-02 
973	 3.19012563523758E-02 
974	 3.13248681737321E-02 
975	 3.43430672366572E-02 
976	 3.22098377890535E-02 
977	 3.14234011071359E-02 
978	 3.21110048246371E-02 
979	 2.86547493829905E-02 
980	 2.38085879290179E-02 
981	 2.45131549675286E-02 
982	 2.84686210178036E-02 
983	 0.02779935323534 
984	 2.76530308258148E-02 
985	 2.77055284884057E-02 
986	 2.70683982407049E-02 
987	 2.56811147560982E-02 
988	 3.01215289740989E-02 
989	 3.02057430317605E-02 
990	 2.63279622573976E-02 
991	 2.64651124412242E-02 
992	 2.71581749502938E-02 
993	 2.67370921480607E-02 
994	 2.65673163107943E-02 
995	 2.88587898243113E-02 
996	 2.82602902803794E-02 
997	 0.028023706611632 
998	 2.77181608463712E-02 
999	 2.54911675203337E-02 
1000	 2.68530616069689E-02 
1001	 3.18622549426486E-02 
1002	 0.032436400158334 
1003	 3.19352746159122E-02 
1004	 2.98967800917521E-02 
1005	 2.93737304288996E-02 
1006	 2.89212352796977E-02 
1007	 2.87403994817401E-02 
1008	 2.92386901189554E-02 
1009	 3.07719933237098E-02 
1010	 3.14289401844245E-02 
1011	 3.11054268102539E-02 
1012	 3.20837081780878E-02 
1013	 3.17056817432536E-02 
1014	 3.13583275208945E-02 
1015	 3.06463328049507E-02 
1016	 3.03128637783291E-02 
1017	 2.98113153286104E-02 
1018	 2.95137151380719E-02 
1019	 2.89907468115046E-02 
1020	 2.92275010613303E-02 
1021	 3.01068662141071E-02 
1022	 3.04904954661083E-02 
1023	 3.11129930112508E-02 
1024	 3.13736885139265E-02 
1025	 3.10874604957039E-02 
1026	 0.029830178470398 
1027	 2.92242237165726E-02 
1028	 2.87157305189097E-02 
1029	 2.86035181334938E-02 
1030	 2.85571989280975E-02 
1031	 2.89253518908758E-02 
1032	 2.99443556332146E-02 
1033	 3.03691635446325E-02 
1034	 3.06465213637732E-02 
1035	 3.10618665759157E-02 
1036	 0.031970786836953 
1037	 3.19673574097257E-02 
1038	 3.15234783968016E-02 
1039	 3.10606786297943E-02 
1040	 2.99137868565454E-02 
1041	 2.83344298015415E-02 
1042	 2.81704689752107E-02 
1043	 2.90335488608726E-02 
1044	 2.89950645764545E-02 
1045	 2.91509080333211E-02 
1046	 2.94991559129404E-02 
1047	 2.94059648154815E-02 
1048	 2.97733989140092E-02 
1049	 3.15399054919056E-02 
1050	 3.16413906701945E-02 
1051	 3.02512993956318E-02 
1052	 3.00452690429582E-02 
1053	 2.99173585361665E-02 
1054	 2.94968041085356E-02 
1055	 2.94043734043552E-02 
1056	 2.95076551768117E-02 
1057	 2.95697056637154E-02 
1058	 2.90217671734988E-02 
1059	 2.91199249108716E-02 
1060	 3.02134044449715E-02 
1061	 3.02046399704055E-02 
1062	 2.97186312753334E-02 
1063	 2.92157135006398E-02 
1064	 2.77761915509745E-02 
1065	 2.75771270665692E-02 
1066	 2.84046666228931E-02 
1067	 2.82399880468402E-02 
1068	 2.76104151120259E-02 
1069	 0.027969997245484 
1070	 2.81089967259505E-02 
1071	 2.85178379758065E-02 
1072	 3.02917058274602E-02 
1073	 3.21508391149204E-02 
1074	 3.22168358009407E-02 
1075	 3.09846015820822E-02 
1076	 3.03943392809594E-02 
1077	 0.028811028466458 
1078	 2.82871747787273E-02 
1079	 2.81260968598252E-02 
1080	 2.85473033188088E-02 
1081	 3.00555823246482E-02 
1082	 3.03215497756151E-02 
1083	 3.07854215788406E-02 
1084	 3.07593063962028E-02 
1085	 2.87479769258008E-02 
1086	 2.85160145684852E-02 
1087	 2.98267877554887E-02 
1088	 3.01450288701239E-02 
1089	 3.09180303444025E-02 
1090	 3.15989927573983E-02 
1091	 3.09873635051617E-02 
1092	 2.82762663855271E-02 
1093	 2.82978165599739E-02 
1094	 2.86582717213693E-02 
1095	 2.94987002434174E-02 
1096	 3.34871040041763E-02 
1097	 3.39583042634108E-02 
1098	 0.031958131363791 
1099	 3.13420789360823E-02 
1100	 2.93157178722215E-02 
1101	 2.83862872086983E-02 
1102	 2.87873840475146E-02 
1103	 2.92716385483663E-02 
1104	 3.11781309423786E-02 
1105	 3.00673807898246E-02 
1106	 3.20401438830403E-02 
1107	 3.40459753443028E-02 
1108	 2.98595081169277E-02 
1109	 2.95552134743291E-02 
1110	 0.030845513318489 
1111	 3.30926483380082E-02 
1112	 3.34035608758465E-02 
1113	 3.78464261389415E-02 
1114	 3.85604227882081E-02 
1115	 3.00912770381241E-02 
1116	 2.66697739736481E-02 
1117	 2.72147206607722E-02 
1118	 3.10722221081836E-02 
1119	 4.27369989112563E-02 
1120	 4.72082677356031E-02 
1121	 5.19484692379038E-02 
1122	 6.41821596334299E-02 
1123	 5.01899769858748E-02 
1124	 4.35964932199827E-02 
1125	 2.03933742026129E-02 
1126	-9.17724032279913E-03 
1127	-1.76564244908542E-02 
1128	-1.78444550003156E-02 
1129	-2.65776770549588E-03 
1130	 4.98011615671288E-02 
1131	 5.23346512024226E-02 
1132	 2.97028070581002E-02 
1133	 0.039760686766669 
1134	 6.53289986355194E-02 
1135	 0.065757124355067 
1136	 0.062250721848765 
1137	 5.76182593529293E-02 
1138	 3.42555580395378E-02 
1139	 2.65805968487177E-02 
1140	 4.32603813651128E-02 
1141	 0.054225310889731 
1142	 5.42979149939316E-02 
1143	 4.65336757199347E-02 
1144	 3.02522007946776E-02 
1145	 3.94673413716906E-02 
1146	 4.87945901622101E-02 
1147	 4.60333219774028E-02 
1148	 5.17639506197928E-02 
1149	 5.32537319823452E-02 
1150	 4.63693778924759E-02 
1151	 3.34265450597794E-02 
1152	 3.20125032184531E-02 
1153	 3.17998151087004E-02 
1154	 2.85611421533013E-02 
1155	 0.025176951248337 
1156	 3.03199894427737E-02 
1157	 3.55280358444261E-02 
1158	 3.38456581712001E-02 
1159	 3.38843935339708E-02 
1160	 3.52023523924453E-02 
1161	 3.39640024356121E-02 
1162	 3.25127537274494E-02 
1163	 3.25324213898622E-02 
1164	 3.32643679908683E-02 
1165	 3.14150407781317E-02 
1166	 2.99085063725258E-02 
1167	 3.20959629399099E-02 
1168	 3.38498884409662E-02 
1169	 3.26488272467247E-02 
1170	 3.05107167271705E-02 
1171	 3.07200613866632E-02 
1172	 3.17384157377977E-02 
1173	 3.10086026928603E-02 
1174	 3.07821923294513E-02 
1175	 3.10691599766951E-02 
1176	 3.06305189863815E-02 
1177	 2.91630731322942E-02 
1178	 2.96064899844932E-02 
1179	 3.16032237604747E-02 
1180	 0.031680183037967 
1181	 3.07846649079055E-02 
1182	 3.25220269334972E-02 
1183	 3.39181550983549E-02 
1184	 3.23236567173641E-02 
1185	 3.10265983120591E-02 
1186	 3.03631937167082E-02 
1187	 2.96136549120309E-02 
1188	 3.06410150820688E-02 
1189	 3.27475336762935E-02 
1190	 3.26326269407624E-02 
1191	 3.15388966670671E-02 
1192	 3.15311061414607E-02 
1193	 3.21744802011656E-02 
1194	 3.18105217297763E-02 
1195	 0.031319673531081 
1196	 3.14794697269814E-02 
1197	 3.05492198577697E-02 
1198	 2.96157435453083E-02 
1199	 2.97701111439405E-02 
1200	 0.030731958985603 
1201	 3.16983368276543E-02 
1202	 3.18289077721552E-02 
1203	 3.17733555695699E-02 
1204	 0.032228095119089 
1205	 3.19171195299813E-02 
1206	 3.03398464001963E-02 
1207	 0.030143157391572 
1208	 3.03253363533624E-02 
1209	 2.95442395093179E-02 
1210	 3.03459879969886E-02 
1211	 3.14149440120658E-02 
1212	 3.12791313398174E-02 
1213	 0.031881370182065 
1214	 3.18366049575122E-02 
1215	 3.18929396287037E-02 
1216	 3.05413328851276E-02 
1217	 2.99188802152203E-02 
1218	 3.01715369660014E-02 
1219	 0.030851977729597 
1220	 3.20042389494515E-02 
1221	 3.15782079023688E-02 
1222	 3.02708335554907E-02 
1223	 2.97616168573949E-02 
1224	 2.88974263959895E-02 
1225	 2.92756181014409E-02 
1226	 3.06787070541663E-02 
1227	 3.05030182676307E-02 
1228	 3.02921771658642E-02 
1229	 3.06923317922338E-02 
1230	 3.04124289321243E-02 
1231	 2.99831866895803E-02 
1232	 2.98767918440297E-02 
1233	 2.91508925837695E-02 
1234	 2.85849113560288E-02 
1235	 2.86998307426048E-02 
1236	 0.030005944966573 
1237	 2.96104303939756E-02 
1238	 2.87332280717837E-02 
1239	 2.83821510355404E-02 
1240	 2.77406468126766E-02 
1241	 2.78345749113186E-02 
1242	 2.89460893366608E-02 
1243	 2.90454918177294E-02 
1244	 2.89720062053587E-02 
1245	 2.93866443980443E-02 
1246	 2.95101632776741E-02 
1247	 2.99415360549361E-02 
1248	 2.98105839698862E-02 
1249	 2.87936555315008E-02 
1250	 2.85806986838007E-02 
1251	 2.87934083037813E-02 
1252	 2.90015388547175E-02 
1253	 2.95066147542174E-02 
1254	 2.98193760044457E-02 
1255	 2.98899847518635E-02 
1256	 3.01158278897948E-02 
1257	 0.030472573674938 
1258	 0.030453702642247 
1259	 2.99750159672519E-02 
1260	 3.02012773700596E-02 
1261	 3.08356479954538E-02 
1262	 3.07736101586797E-02 
1263	 3.06545756688626E-02 
1264	 3.08765166609984E-02 
1265	 3.04775302944642E-02 
1266	 2.95773283352176E-02 
1267	 2.99822787521518E-02 
1268	 3.10599783301305E-02 
1269	 3.13194067154675E-02 
1270	 3.09926958438059E-02 
1271	 3.00443154813452E-02 
1272	 2.89665107545911E-02 
1273	 2.89269493869706E-02 
1274	 3.00188378831345E-02 
1275	 3.09599376470782E-02 
1276	 3.13844658805586E-02 
1277	 0.031224117110976 
1278	 3.03197787041267E-02 
1279	 2.95452845843555E-02 
1280	 2.90924272653054E-02 
1281	 2.86299172728011E-02 
1282	 2.77767986091256E-02 
1283	 2.79480780688352E-02 
1284	 0.029436054480345 
1285	 2.95074642493262E-02 
1286	 2.91121446353513E-02 
1287	 2.93554874110084E-02 
1288	 2.90014109595623E-02 
1289	 2.87776162390642E-02 
1290	 2.91398473080842E-02 
1291	 3.00072119286237E-02 
1292	 3.00409276092389E-02 
1293	 2.90788815527105E-02 
1294	 2.81617098995552E-02 
1295	 2.84749983488822E-02 
1296	 0.028028332494333 
1297	 2.80382484252412E-02 
1298	 2.98059940472043E-02 
1299	 2.96428348879576E-02 
1300	 2.92461413711591E-02 
1301	 3.00059902986747E-02 
1302	 3.00142942238346E-02 
1303	 3.00354697051029E-02 
1304	 3.12076682158379E-02 
1305	 3.20097825619885E-02 
1306	 3.20043081418724E-02 
1307	 3.07418642734655E-02 
1308	 3.17472683026457E-02 
1309	 3.39738693446684E-02 
1310	 3.38641156848588E-02 
1311	 3.38235501663419E-02 
1312	 0.034168037985855 
1313	 3.26723889142538E-02 
1314	 3.13359302992043E-02 
1315	 2.99362441123625E-02 
1316	 3.03239781139267E-02 
1317	 3.18479875980809E-02 
1318	 3.19858463443256E-02 
1319	 3.48653406025841E-02 
1320	 0.036042127483771 
1321	 3.47348757254349E-02 
1322	 3.02411254710628E-02 
1323	 2.89619477219683E-02 
1324	 2.95183463043221E-02 
1325	 3.39165674389004E-02 
1326	 4.00147025365155E-02 
1327	 0.041437001883229 
1328	 4.25562409427548E-02 
1329	 3.98249804492819E-02 
1330	 3.20845903594345E-02 
1331	 3.56795297367453E-02 
1332	 3.81750383758589E-02 
1333	 0.034641826471696 
1334	 3.99148867813305E-02 
1335	 3.97964242786467E-02 
1336	 0.032060955642361 
1337	 3.26717887927086E-02 
1338	 3.93107805698358E-02 
1339	 3.86260957941572E-02 
1340	 4.03003242331712E-02 
1341	 3.89593170580353E-02 
1342	 2.53497261457813E-02 
1343	 2.20027030851432E-02 
1344	 2.82125524607654E-02 
1345	 2.43966301747671E-02 
1346	 1.21918239136966E-02 
1347	 0.01517480339423 
1348	 2.82353242122746E-02 
1349	 0.029246441037272 
1350	 7.79958166702748E-02 
1351	 0.102048493876661 
1352	-2.98949470640415E-02 
1353	-9.43177840589432E-02 
1354	-2.57517451492017E-02 
1355	-5.13399301585704E-04 
1356	-6.04099592223879E-02 
1357	-6.03432968260967E-03 
1358	 0.272884679239441 
1359	 0.240587069036145 
1360	 6.74945055634509E-02 
1361	 0.278034223827746 
1362	 0.251996113574812 
1363	-0.37319555562787 
1364	-0.17891249490828 
1365	 3.81358969876014 
1366	 3.10161723309237 
1367	 1.36526135022597 
1368	 0.713127587098106 
1369	 0.143147449524572 
1370	 0.159302245954915 
1371	 0.193194260594027 
1372	 0.154717575825315 
1373	 0.464054464483263 
1374	 0.607936256582691 
1375	 0.321828044696572 
1376	 0.203130452536628 
1377	 0.149318811630066 
1378	 6.65950223325542E-02 
1379	-0.356171066516912 
1380	-0.69058502627787 
1381	-1.59765275346981 
1382	-1.11616144907874 
1383	 0.41558004199572 
1384	 0.418863603499326 
1385	-4.78859146597559E-02 
1386	 0.209982461787644 
1387	 0.397664450986141 
1388	 3.90888296116102E-02 
1389	 9.23413050037342E-02 
1390	 0.304051837981001 
1391	 1.04019726751604 
1392	 0.591380767105433 
1393	-0.364532576583299 
1394	-0.488219410896991 
1395	-0.918711906794603 
1396	-1.21375100833819 
1397	-0.631796043285904 
1398	 0.12107476734333 
1399	 0.559285487970675 
1400	 0.334259369575398 
1401	 0.041202814959289 
1402	 1.73677255763157E-02 
1403	 0.285465634179718 
1404	-0.221516913878609 
1405	-0.526232436315942 
1406	 3.89054592581832E-02 
1407	 0.319074178848427 
1408	 6.49827194873026E-02 
1409	 8.7301287008596E-03 
1410	 0.300811440155814 
1411	 0.309556838615301 
1412	-6.64081316872631E-02 
1413	-0.165951063036121 
1414	-0.110498056826036 
1415	 0.101179540841756 
1416	 0.851159310993681 
1417	 0.755988203520069 
1418	 0.257461001927191 
1419	 0.382792860040401 
1420	 0.329159045328593 
1421	 0.350947448274657 
1422	 1.18287414999124 
1423	 1.28034594205559 
1424	 0.452213888295894 
1425	 0.392835879406966 
1426	 0.675710501488426 
1427	 0.688912148324546 
1428	 0.547089411220198 
1429	 0.458202840512947 
1430	 0.330131266149132 
1431	 0.248932703660929 
1432	 5.87352896386881E-02 
1433	 5.25732288080385E-02 
1434	 0.462217102329011 
1435	 0.502563032103974 
1436	 0.409084373416432 
1437	-0.132650940208068 
1438	-0.775147157957814 
1439	-1.51677253742546 
1440	-0.844181167284953 
1441	-0.32541563548048 
1442	-0.151469281234467 
1443	-0.13811330047773 
1444	-0.203902459318406 
1445	-0.247086801788193 
1446	-8.68164529761428E-02 
1447	 6.31326916233126E-02 
1448	 0.132526977449921 
1449	 0.198497264313273 
1450	 0.20722869697249 
1451	 0.15845777556842 
1452	 0.128673561789318 
1453	 8.17710449703965E-02 
1454	 6.76393534920626E-02 
1455	 1.73685770316434E-02 
1456	 2.22055544742242E-02 
1457	 0.079915983801849 
1458	 8.83143754254992E-02 
1459	 7.43576831463485E-02 
1460	 7.09109068279273E-02 
1461	 0.06980841498773 
1462	 6.34473693270683E-02 
1463	 5.50805417499375E-02 
1464	 4.87255362515954E-02 
1465	 4.00664032165542E-02 
1466	 2.82205662897059E-02 
1467	 1.45919140064463E-05 
1468	 1.75191903621263E-02 
1469	 7.19667165054676E-02 
1470	 8.49663779976914E-02 
1471	 0.122520120703586 
1472	 0.144875376746417 
1473	 0.117939878347259 
1474	 9.95092913426736E-02 
1475	 0.104378586371063 
1476	 8.86039230698378E-02 
1477	 2.77908136027065E-02 
1478	 2.83958814835486E-02 
1479	 7.27823599385166E-02 
1480	 6.99957728618223E-02 
1481	 5.99382421814615E-02 
1482	 5.72394821440615E-02 
1483	 5.16487275479346E-02 
1484	 3.80290884227734E-02 
1485	 1.28336679449353E-02 
1486	 1.90745138675599E-02 
1487	 3.48544090993288E-02 
1488	 3.41796708551837E-02 
1489	 4.24741245613396E-02 
1490	 0.049473113773543 
1491	 4.92328692347531E-02 
1492	 4.22494593956471E-02 
1493	 3.45881394617849E-02 
1494	 3.29933382843045E-02 
1495	 2.60235623819085E-02 
1496	 2.46182917003464E-02 
1497	 3.55983458427848E-02 
1498	 3.46871181957016E-02 
1499	 0.021599139303687 
1500	 2.10876963166301E-02 
1501	 2.45116937345144E-02 
1502	 2.62483627666397E-02 
1503	 3.45835446588225E-02 
1504	 3.86041085370826E-02 
1505	 4.03229786858545E-02 
1506	 0.038276947764191 
1507	 3.53258752332801E-02 
1508	 3.19097765430435E-02 
1509	 3.02841851343902E-02 
1510	 2.91124715140482E-02 
1511	 2.80144735605688E-02 
1512	 2.96847901383276E-02 
1513	 3.07438329915629E-02 
1514	 2.92620246977332E-02 
1515	 2.82259475072287E-02 
1516	 3.07870823481789E-02 
1517	 3.19445977028529E-02 
1518	 3.06766406265985E-02 
1519	 3.21538683000911E-02 
1520	 0.032878106600595 
1521	 3.25487094834193E-02 
1522	 3.30973854833271E-02 
1523	 3.27941796538634E-02 
1524	 3.16470238633641E-02 
1525	 3.09287922905173E-02 
1526	 0.030268043991492 
1527	 2.97475556462378E-02 
1528	 3.02554482169351E-02 
1529	 2.93531286570071E-02 
1530	 2.82400133040211E-02 
1531	 2.85239271294816E-02 
1532	 2.88512346332154E-02 
1533	 2.96705490736047E-02 
1534	 3.13178445626205E-02 
1535	 3.33825629134875E-02 
1536	 3.28233583854264E-02 
1537	 3.10518051681905E-02 
1538	 3.06070589817042E-02 
1539	 2.98012306535127E-02 
1540	 2.94896321120901E-02 
1541	 2.96273777377069E-02 
1542	 3.02469049218414E-02 
1543	 3.02230013843471E-02 
1544	 2.96216219839086E-02 
1545	 3.10549848730948E-02 
1546	 3.18801419279627E-02 
1547	 0.032502345286523 
1548	 3.42895082244854E-02 
1549	 3.40499507575614E-02 
1550	 3.30454936738602E-02 
1551	 3.20283698895464E-02 
1552	 2.99661781553932E-02 
1553	 0.028430105428562 
1554	 2.74110770852239E-02 
1555	 2.70579300106077E-02 
1556	 2.74955289670299E-02 
1557	 2.88441024911723E-02 
1558	 3.15650167895418E-02 
1559	 3.26245213545985E-02 
1560	 3.09862337521161E-02 
1561	 0.029360077185905 
1562	 2.84734684521788E-02 
1563	 2.72545697667812E-02 
1564	 2.75873659006173E-02 
1565	 0.030568670808378 
1566	 3.15360697540548E-02 
1567	 3.14722382916301E-02 
1568	 3.33263803798848E-02 
1569	 3.29846486996235E-02 
1570	 3.08444750996376E-02 
1571	 0.030270957307313 
1572	 3.09050902019757E-02 
1573	 3.11279474592721E-02 
1574	 3.07877022890794E-02 
1575	 3.15768966280775E-02 
1576	 3.21681014022954E-02 
1577	 0.032258136846521 
1578	 0.032813504491039 
1579	 3.34725769832137E-02 
1580	 3.33977293930908E-02 
1581	 3.17765069970041E-02 
1582	 3.01646960727949E-02 
1583	 0.02992158697386 
1584	 3.03427274821635E-02 
1585	 2.90802637615647E-02 
1586	 2.88162521549167E-02 
1587	 0.029601526702893 
1588	 2.88754737914493E-02 
1589	 3.04078122177916E-02 
1590	 3.23006409908333E-02 
1591	 3.17285033608414E-02 
1592	 3.11704965058268E-02 
1593	 3.22113521260147E-02 
1594	 3.20444117543894E-02 
1595	 3.03808978229431E-02 
1596	 3.06318330782375E-02 
1597	 3.03489347858415E-02 
1598	 0.030227644575561 
1599	 3.17914140918691E-02 
1600	 3.20867381419651E-02 
1601	 3.12737799083403E-02 
1602	 3.11139388457569E-02 
1603	 3.15589095038216E-02 
1604	 3.16727074721387E-02 
1605	 3.20047366615739E-02 
1606	 0.032632733452361 
1607	 3.29357500903197E-02 
1608	 3.33514187099415E-02 
1609	 3.27497943234662E-02 
1610	 3.14125322476965E-02 
1611	 3.14906148971604E-02 
1612	 3.02747247813783E-02 
1613	 2.91128563369445E-02 
1614	 3.04145371901263E-02 
1615	 3.07205772789732E-02 
1616	 3.10358890786816E-02 
1617	 3.27234999946941E-02 
1618	 3.27467150646432E-02 
1619	 3.08013121541718E-02 
1620	 3.01724242422695E-02 
1621	 3.00099741072309E-02 
1622	 3.01517390715556E-02 
1623	 3.10835356150571E-02 
1624	 0.029871209929396 
1625	 2.83517727874321E-02 
1626	 0.028597058624405 
1627	 2.82450152715363E-02 
1628	 2.79916533684173E-02 
1629	 2.92307570074977E-02 
1630	 2.89673544927644E-02 
1631	 2.81168162834193E-02 
1632	 2.95041332630176E-02 
1633	 3.14520710189966E-02 
1634	 3.19283515981524E-02 
1635	 3.14994442630331E-02 
1636	 3.20579775725565E-02 
1637	 3.21911582472467E-02 
1638	 3.09436664816343E-02 
1639	 2.99244054298894E-02 
1640	 2.88563723066283E-02 
1641	 2.87239334054687E-02 
1642	 2.92519147092516E-02 
1643	 2.89380354427053E-02 
1644	 3.09512021200693E-02 
1645	 3.32546270576927E-02 
1646	 3.22939669846858E-02 
1647	 3.19254724957456E-02 
1648	 3.24512098306085E-02 
1649	 3.14701969922261E-02 
1650	 3.06374659641173E-02 
1651	 3.16373109611334E-02 
1652	 3.23648969902334E-02 
1653	 3.24934475548069E-02 
1654	 3.26610010277976E-02 
1655	 3.33001403391512E-02 
1656	 3.33083754918193E-02 
1657	 0.031986975794591 
1658	 3.17533101726555E-02 
1659	 3.24545105184766E-02 
1660	 3.20760898230368E-02 
1661	 3.16023715252484E-02 
1662	 3.06861799214077E-02 
1663	 2.84612966285137E-02 
1664	 2.84925596137929E-02 
1665	 3.03427625903519E-02 
1666	 0.030587235114711 
1667	 2.97621088627163E-02 
1668	 2.86159622024717E-02 
1669	 2.89804745295053E-02 
1670	 2.82966812496199E-02 
1671	 2.99479500992862E-02 
1672	 0.032857154811947 
1673	 3.30186744648243E-02 
1674	 3.17372425757998E-02 
1675	 3.12360119805888E-02 
1676	 3.14867874914249E-02 
1677	 3.09731184858623E-02 
1678	 3.11652746792144E-02 
1679	 3.20314494774048E-02 
1680	 3.06740571563598E-02 
1681	 3.08858117813411E-02 
1682	 3.22555566155348E-02 
1683	 3.05677070815055E-02 
1684	 3.03059660981256E-02 
1685	 3.06738272631016E-02 
1686	 2.93581792727721E-02 
1687	 2.98478599501505E-02 
1688	 3.02784260948877E-02 
1689	 2.76157963848796E-02 
1690	 2.51927317070357E-02 
1691	 2.72757647569694E-02 
1692	 2.82571355298296E-02 
1693	 2.75675819666562E-02 
1694	 3.04123420524938E-02 
1695	 3.11336007826482E-02 
1696	 3.00024345031436E-02 
1697	 3.17436997252909E-02 
1698	 3.32955139830828E-02 
1699	 3.41221928290259E-02 
1700	 3.54897126576528E-02 
1701	 3.52092742330612E-02 
1702	 0.033991882348854 
1703	 3.30619326068252E-02 
1704	 3.22487529890793E-02 
1705	 3.24487029191705E-02 
1706	 3.34424281453563E-02 
1707	 3.54391942179821E-02 
1708	 3.63134350594418E-02 
1709	 3.57721512429118E-02 
1710	 0.034391339807299 
1711	 3.05967760984703E-02 
1712	 2.70287266068486E-02 
1713	 2.88683006060897E-02 
1714	 2.95018190235537E-02 
1715	 3.02196612318801E-02 
1716	 2.94282055197925E-02 
1717	 2.95203419777376E-02 
1718	 2.95376157457717E-02 
1719	 3.01339775739744E-02 
1720	 3.16734319653909E-02 
1721	 3.21450298757182E-02 
1722	 3.18446694510393E-02 
1723	 3.41664843602529E-02 
1724	 3.47645938210985E-02 
1725	 3.04831049854418E-02 
1726	 3.05800586738252E-02 
1727	 3.18410610644477E-02 
1728	 3.03236658898262E-02 
1729	 3.28073036732133E-02 
1730	 3.14612700058221E-02 
1731	 2.55861035369837E-02 
1732	 2.68139893243001E-02 
1733	 3.01136575388011E-02 
1734	 3.07151663350257E-02 
1735	 3.47027169091462E-02 
1736	 3.48320558733505E-02 
1737	 3.07973517026787E-02 
1738	 3.40034012867734E-02 
1739	 3.61926195068037E-02 
1740	 3.66992454346634E-02 
1741	 0.038986387108505 
1742	 3.46020316316191E-02 
1743	 3.26770211471889E-02 
1744	 0.036568403270956 
1745	 0.037140417994865 
1746	 3.61895358381139E-02 
1747	 3.37219426916504E-02 
1748	 2.28401019704339E-02 
1749	 2.24130351393665E-02 
1750	 3.23657288238698E-02 
1751	 0.035605836770449 
1752	 3.82461901664947E-02 
1753	 0.039168140273566 
1754	 3.48497203909623E-02 
1755	 3.41732620620684E-02 
1756	 3.86787388817846E-02 
1757	 4.04078315005347E-02 
1758	 3.66693809090147E-02 
1759	 3.74076418086972E-02 
1760	 3.71303282584782E-02 
1761	 3.55983914340697E-02 
1762	 3.65576092267094E-02 
1763	 3.77884487324826E-02 
1764	 3.43895593083132E-02 
1765	 2.90322625443159E-02 
1766	 3.06593769165022E-02 
1767	 3.38140204070681E-02 
1768	 3.51480631578291E-02 
1769	 3.47087016715242E-02 
1770	 3.19745632645223E-02 
1771	 0.029195723727202 
1772	 2.51566860082703E-02 
1773	 2.49684748410385E-02 
1774	 2.58643022416487E-02 
1775	 2.05960493965419E-02 
1776	 2.15293745444166E-02 
1777	 3.82433640044035E-02 
1778	 4.19189904331781E-02 
1779	 3.88664427087575E-02 
1780	 3.38398310011739E-02 
1781	 6.86389146850072E-03 
1782	 2.73303594255172E-03 
1783	 2.02367028812862E-02 
1784	 1.76566055551019E-02 
1785	 2.12518250064879E-02 
1786	 0.023773130151241 
1787	-1.67490847066483E-03 
1788	 3.51742920520845E-03 
1789	 0.045085476282024 
1790	 1.91549047004231E-02 
1791	 4.47967931859235E-02 
1792	 5.4131039633789E-03 
1793	-4.57137805114179E-02 
1794	 5.53334639795196E-02 
1795	 7.82906127787568E-02 
1796	 1.50678684330492E-02 
1797	 6.35842801691203E-02 
1798	-2.70899993694872E-02 
1799	-0.104863433590357 
1800	 0.238048442699538 
1801	 0.34359709947993 
1802	 0.199288839877423 
1803	 0.150004661927775 
1804	-0.161863769591296 
1805	-0.421307918908077 
1806	-0.947720331802845 
1807	-1.30698194249126 
1808	-2.06576692704664 
1809	 2.53193357921322 
1810	 14.2288301755962 
1811	 4.34621715235663 
1812	 9.08052219567692E-02 
1813	-0.191318132679282 
1814	-0.658045636210721 
1815	-0.783271496580336 
1816	-0.902744331232679 
1817	 0.620628607837644 
1818	 0.661753665364284 
1819	 2.4444388906726 
1820	 2.62198793370395 
1821	-0.637727620278619 
1822	-1.01389947879745 
1823	-0.661528133789255 
1824	-0.616038076170831 
1825	-0.430840173354883 
1826	-0.530072966851909 
1827	 22.6086233521794 
1828	 7.98333401236051 
1829	-0.993901189413253 
1830	-0.556371143310726 
1831	 0.903337792760686 
1832	 0.885230851690196 
1833	 0.933710601575938 
1834	 0.891844855237304 
1835	 1.04237548385426 
1836	 1.06517633138358 
1837	 0.745041384613425 
1838	 0.738977356397182 
1839	 0.789248359373424 
1840	 1.78399630101514 
1841	 5.05729100789207 
1842	 4.0587965302489 
1843	 5.94910123047041 
1844	 7.87594697758181 
1845	 14.3544120827083 
1846	-18.1390687498308 
1847	-11.1126551173935 
1848	 72.6308808384523 
1849	-7.61247139248006 
1850	-2.93112870361497 
1851	-0.662701458093141 
1852	-0.116711577166061 
1853	 3.23126907877669E-02 
1854	-6.20627557789658E-02 
1855	-3.53377663962638 
1856	-12.5559022341867 
1857	 178.694234298898 
1858	 4.183543953702 
1859	 3.19047242484553 
1860	 0.188365807697626 
1861	-0.326276875011351 
1862	-0.26156686956857 
1863	-0.385163329960081 
1864	-0.453995066162507 
1865	-0.153929300059059 
1866	 0.508940357104615 
1867	 1.3119675115293 
1868	 2.96335197472736 
1869	 3.80958627108836 
1870	 10.3149943840918 
1871	-46.7647647506352 
1872	 19.4122710149973 
1873	 18.2616195075997 
1874	-48.5939639034879 
1875	-7.93835080865668 
1876	-7.51400187711236 
1877	-12.9020811911006 
1878	-38.9958171563508 
1879	 3.11610337448884 
1880	 0.794656446125572 
1881	 0.235605980546687 
1882	 9.19550154257835E-05 
1883	 0.555390407371594 
1884	 1.04702813140797 
1885	 1.17384715089393 
1886	 1.67572856342058 
1887	 3.50059099885345 
1888	 4.72983120454402 
1889	 3.99270445919574 
1890	 1.94207676183832 
1891	 1.75027824021719 
1892	 1.20381872302429 
1893	 1.42644263839997 
1894	 1.46713934672735 
1895	 1.26405091140319 
1896	 1.03440165535051 
1897	 0.706959038371162 
1898	 0.564387570120516 
1899	 0.314229376103953 
1900	 0.36522651530833 
1901	 0.300111481183645 
1902	 0.416749862233171 
1903	 1.12542509965462 
1904	 1.8446140168916 
1905	 1.72679746323445 
1906	 2.03633560585852 
1907	 1.24386444051696 
1908	 0.856816906003545 
1909	 0.757462514992698 
1910	 1.04197056192939 
1911	 1.7298781533677 
1912	 2.50681642440999 
1913	 4.16939429667298 
1914	 61.5583103999604 
1915	-8.9251094139868 
1916	-1.86024448420208 
1917	-1.4580231601242 
1918	-2.53060962358967 
1919	-9.32768011002972 
1920	-5.89610741016436 
1921	 0.754903854821978 
1922	 4.34105195466311 
1923	 1.38182021484953 
1924	-5.57467225672662 
1925	 1.69641070714477 
1926	 1.30646861432026 
1927	 1.21160492205436 
1928	 0.838854183351334 
1929	 0.641003917347833 
1930	 1.35961893632956 
1931	 1.03283306559348 
1932	-3.49067020754672 
1933	 0.310097504365744 
1934	 0.312231292122561 
1935	 0.687689759334044 
1936	 1.69392106146051 
1937	 2.98105809618219 
1938	 2.03085204216616 
1939	 0.756997899253549 
1940	 0.119716951298145 
1941	-2.37109070289583E-02 
1942	-0.504194604751792 
1943	-0.611303419192747 
1944	-1.15235669279341 
1945	-2.81866981343684 
1946	-1.35857419422828 
1947	-0.185155350708649 
1948	 9.10068177245038E-02 
1949	 0.112888228370207 
1950	 0.152960592388645 
1951	-0.170653031997006 
1952	-6.79374014263539 
1953	-13.525286283536 
1954	-5.85459945273846 
1955	 32.1403829243456 
1956	 21.9716602174347 
1957	 29.7818110960307 
1958	 3.52515368766832 
1959	 0.628955309313472 
1960	 0.309997808167471 
1961	 0.241654698039015 
1962	 0.518382231051292 
1963	 0.860762535323587 
1964	 0.977801640046744 
1965	 0.948598751349992 
1966	 0.924053484154728 
1967	 0.866202728157195 
1968	 0.779839190793103 
1969	 0.620740893405705 
1970	 0.385978912788063 
1971	 0.140668088063008 
1972	 0.156683832018026 
1973	 0.258923308774837 
1974	 0.309420834260819 
1975	 0.265238258633771 
1976	 0.203119258743131 
1977	 0.187092886310663 
1978	 0.157137882418143 
1979	 0.146411123375506 
1980	 0.229152994796217 
1981	 0.256695354494718 
1982	 0.105313493717897 
1983	 2.43638499930865E-02 
1984	 2.82138478778375E-02 
1985	-6.24341294440972E-03 
1986	 2.62090744336656E-02 
1987	 0.123889559451246 
1988	 0.138230871537635 
1989	 0.153463388263299 
1990	 0.243043796859573 
1991	 0.259653011447238 
1992	 0.234110045241906 
1993	 0.285416151468593 
1994	 0.321392470652923 
1995	 0.346018396401889 
1996	 0.31612383115068 
1997	 0.379187451072039 
1998	 0.405645094785112 
1999	 0.363823708137692 
2000	 0.386605807066885 
2001	 0.321116105735329 
2002	 0.313731264271152 
2003	 0.310676071370058 
2004	 0.231110415349538 
2005	 0.209049991910707 
2006	 0.138563521768314 
2007	 0.131804261377071 
2008	 0.226690495761868 
2009	 0.249351995373284 
2010	 0.315962700816627 
2011	 0.381596914361376 
2012	 0.408014344884038 
2013	 0.385048074407367 
2014	 0.391050770223927 
2015	 0.413697645482668 
2016	 0.366063643253146 
2017	 0.291467441634678 
2018	 0.2434081398158 
2019	 0.220685286978519 
2020	 0.189763762333563 
2021	 0.200130821615225 
2022	 0.226727924677678 
2023	 0.162713203362385 
2024	 0.121355397769656 
2025	 4.80061886162482E-02 
2026	 0.019149351270338 
2027	-1.73633003922974E-02 
2028	 2.19428948552158E-02 
2029	 4.48230099363374E-02 
2030	 7.28757133383634E-02 
2031	 0.109440136031946 
2032	 0.106389838106378 
2033	 0.114668203624627 
2034	 0.108484239847502 
2035	 0.107443221954116 
2036	 0.123562106416554 
2037	 0.112174788255919 
2038	 0.118338914060224 
2039	 0.115005529800739 
2040	 8.80989854741288E-02 
2041	 7.76586080413296E-02 
2042	 7.23481570501397E-02 
2043	 7.32278236700748E-02 
2044	 8.49779466000956E-02 
2045	 9.48544158167843E-02 
2046	 8.45985738055133E-02 
2047	 7.87812270040785E-02 
2048	 7.26464690903916E-02 
2049	 0.072357072690473 
2050	 6.81475869930107E-02 
2051	 6.71293460840006E-02 
2052	 5.87869983886219E-02 
2053	 3.40414170225268E-02 
2054	 3.76784037107759E-02 
2055	 4.77969465641573E-02 
2056	 6.18776524732589E-02 
2057	 9.03199016278355E-02 
2058	 9.53981065184464E-02 
2059	 8.40744942882153E-02 
2060	 9.99053677890277E-02 
2061	 0.135176553769042 
2062	 0.111661102617761 
2063	 0.105408349576764 
2064	 0.107593172001256 
2065	 6.57745805098577E-02 
2066	 5.40541154677156E-02 
2067	 5.75974085182967E-02 
2068	 6.16790854848861E-02 
2069	 8.25371548031265E-02 
2070	 9.95825959254706E-02 
2071	 0.114202275195616 
2072	 0.113700409186993 
2073	 0.101958295090452 
2074	 6.95959093209861E-02 
2075	 4.83984866630993E-02 
2076	 1.59672309587909E-02 
2077	 5.05578699002697E-03 
2078	 1.30432002943306E-03 
2079	 2.43269816516733E-03 
2080	 1.67815285383319E-02 
2081	 2.85637201384751E-02 
2082	 3.75730184465904E-02 
2083	 4.56852223170007E-02 
2084	 3.44998273557086E-02 
2085	 3.35073780682962E-02 
2086	 3.64779716467664E-02 
2087	 0.028461796874807 
2088	 0.035658527782576 
2089	 4.08410146288844E-02 
2090	 3.41332170168916E-02 
2091	 2.91986382904387E-02 
2092	 3.37784844198104E-02 
2093	 4.25201352360868E-02 
2094	 4.91624429424922E-02 
2095	 7.85137553984304E-02 
2096	 7.63546830274121E-02 
2097	 4.49869832290356E-02 
2098	 3.26790804562031E-02 
2099	 1.19713647484684E-02 
2100	-1.81031654745013E-03 
2101	 1.64711412381323E-02 
2102	 2.70508479524501E-02 
2103	 3.81474338576099E-02 
2104	 0.042310858007838 
2105	 3.80065623706126E-02 
2106	 5.12988828579916E-02 
2107	 4.72965547280383E-02 
2108	 4.16685277439758E-02 
2109	 0.042860677518899 
2110	 3.90216313600201E-02 
2111	 5.36458693620609E-02 
2112	 5.99697849888028E-02 
2113	 6.50490464642692E-02 
2114	 6.86215802621706E-02 
2115	 6.78873678341069E-02 
2116	 0.06261319429685 
2117	 0.065075859895807 
2118	 6.65552064117937E-02 
2119	 6.23063351599262E-02 
2120	 0.058788297798127 
2121	 5.49835391296896E-02 
2122	 5.15402287162199E-02 
2123	 5.98203394538937E-02 
2124	 6.61906712657895E-02 
2125	 0.066424979676668 
2126	 5.62981824664053E-02 
2127	 5.04084716634978E-02 
2128	 5.59819562328614E-02 
2129	 5.71277368136783E-02 
2130	 6.47802716344337E-02 
2131	 7.70078689391435E-02 
2132	 7.09945715037962E-02 
2133	 0.072501156858804 
2134	 6.95025214306761E-02 
2135	 5.34662669257114E-02 
2136	 4.70818318287104E-02 
2137	 4.79398207447584E-02 
2138	 4.50746876537079E-02 
2139	 4.43570395412974E-02 
2140	 4.41350436161921E-02 
2141	 3.64895136414536E-02 
2142	 3.90061994929124E-02 
2143	 4.51993118275977E-02 
2144	 6.40990831601929E-02 
2145	 7.38510762096218E-02 
2146	 7.81916314701757E-02 
2147	 8.13306346311153E-02 
2148	 5.78402990001328E-02 
2149	 0.031760511187936 
2150	 3.53665879917436E-02 
2151	 2.87193290884339E-02 
2152	 2.69053042686997E-02 
2153	 4.47454362766508E-02 
2154	 4.25111284676581E-02 
2155	 3.48406258878931E-02 
2156	 3.68994377106337E-02 
2157	 3.69433850196814E-02 
2158	 2.80913749405861E-02 
2159	 2.95344929650664E-02 
2160	 3.72510876407612E-02 
2161	 0.046906450364133 
2162	 7.08622351932012E-02 
2163	 7.88426949471997E-02 
2164	 8.20037028451397E-02 
2165	 8.47574558224876E-02 
2166	 7.24470830205982E-02 
2167	 6.91305618519889E-02 
2168	 7.20307978056585E-02 
2169	 0.073624531875341 
2170	 0.078834820399286 
2171	 8.06251040955635E-02 
2172	 6.77419734279533E-02 
2173	 6.16929965892839E-02 
2174	 5.46074681981226E-02 
2175	 2.83257803049642E-02 
2176	 2.51704181695242E-02 
2177	 2.43590231217111E-02 
2178	 1.13275850587404E-02 
2179	 1.44537521028989E-02 
2180	 1.68246741936194E-02 
2181	 2.97512022890058E-02 
2182	 5.13216862561076E-02 
2183	 6.73464898975825E-02 
2184	 7.88328120393988E-02 
2185	 6.65830807564257E-02 
2186	 6.08869592680501E-02 
2187	 0.048856542430242 
2188	 4.23559857662285E-02 
2189	 0.031570228528474 
2190	 3.07247916905103E-02 
2191	 3.38741380175441E-02 
2192	 3.77753984803323E-02 
2193	 6.10967802834811E-02 
2194	 6.51007906864667E-02 
2195	 5.88956637767079E-02 
2196	 4.95710592932913E-02 
2197	 1.67198890329132E-02 
2198	 4.84360143356789E-03 
2199	 3.67578442131472E-05 
2200	 2.06428776184089E-03 
2201	 1.79236729845565E-02 
2202	 3.72089564732696E-02 
2203	 5.09164989858522E-02 
2204	 6.14044179527959E-02 
2205	 5.93519386470032E-02 
2206	 5.69504543468772E-02 
2207	 6.27293062547571E-02 
2208	 6.52296220238629E-02 
2209	 6.40956622048956E-02 
2210	 5.81925424391767E-02 
2211	 0.057919874526754 
2212	 5.73457991092553E-02 
2213	 5.58473857521314E-02 
2214	 7.20669004200058E-02 
2215	 8.37950490125852E-02 
2216	 7.00547307237191E-02 
2217	 5.58822531990872E-02 
2218	 3.48896943818507E-02 
2219	 1.98507711824589E-02 
2220	-6.02558766533714E-03 
2221	-1.58200042434996E-02 
2222	-0.01483245694615 
2223	-1.50589700243873E-02 
2224	-0.015175953902627 
2225	-6.91480170307074E-03 
2226	 1.68662881280189E-02 
2227	 0.024546186978315 
2228	 3.30687885614519E-02 
2229	 3.52414958208667E-02 
2230	 1.46664813651025E-02 
2231	 1.76566853445946E-02 
2232	 3.41691544942852E-02 
2233	 4.27576895592206E-02 
2234	 5.52111131481562E-02 
2235	 7.67888655693997E-02 
2236	 8.66933308048177E-02 
2237	 0.100544857967911 
2238	 0.106733627742974 
2239	 0.1039771560184 
2240	 8.73836571347946E-02 
2241	 4.81469237996255E-02 
2242	 3.11473588878397E-02 
2243	 3.14770989816541E-02 
2244	 2.59455714660975E-02 
2245	 3.04044379111661E-02 
2246	 3.29640200080041E-02 
2247	 2.03387987520685E-02 
2248	 1.83816530395622E-02 
2249	 0.029604833714231 
2250	 3.52359427941526E-02 
2251	 4.38739225643631E-02 
2252	 0.058842776240327 
2253	 6.51842034995906E-02 
2254	 0.083925335245913 
2255	 0.105663848752031 
2256	 0.109115047554378 
2257	 0.114388165583052 
2258	 0.109888487251278 
2259	 0.106186648182926 
2260	 0.10383906125533 
2261	 0.104271271620906 
2262	 9.75754010503011E-02 
2263	 9.01429266912655E-02 
2264	 7.40661989088428E-02 
2265	 5.28876476129925E-02 
2266	 4.56039900363222E-02 
2267	 2.32912584443315E-02 
2268	 1.89697965408883E-02 
2269	 4.20288651332377E-02 
2270	 4.69698904978649E-02 
2271	 0.050629826878825 
2272	 6.18452080094199E-02 
2273	 6.99026936933312E-02 
2274	 8.46409212078775E-02 
2275	 0.111916800562729 
2276	 0.130713566297941 
2277	 0.163089972388916 
2278	 0.153083311524569 
2279	 0.108081973007013 
2280	 8.68439776279419E-02 
2281	 0.046724313436634 
2282	 5.99035583978603E-03 
2283	 0.033351370435015 
2284	 4.31304280674681E-02 
2285	 3.15048708251712E-02 
2286	 1.25693491580204E-02 
2287	-2.68205427421504E-02 
2288	-3.39844036091795E-02 
2289	-2.20437992910719E-02 
2290	-1.32922848738165E-02 
2291	 6.14110563668936E-03 
2292	 1.27265009557197E-02 
2293	 1.91651385394771E-02 
2294	 4.88663030437534E-02 
2295	 0.089937149964956 
2296	 9.68885568415792E-02 
2297	 7.55045182090926E-02 
2298	 0.106766671274409 
2299	 0.139243803041776 
2300	 0.15602818581422 
2301	 0.178740127048016 
2302	 0.179952319448607 
2303	 0.150770169440407 
2304	 0.107683351255327 
2305	 0.107838545355083 
2306	 0.078374424641874 
2307	 2.87105744362213E-02 
2308	 3.21052407606518E-02 
2309	 2.59636494161535E-02 
2310	 2.03457049466516E-02 
2311	 5.76814571561834E-02 
2312	 4.08432985659994E-02 
2313	-5.75157158030747E-02 
2314	-0.13994439455162 
2315	-0.198514732089143 
2316	-0.202119190298413 
2317	-6.32937094629306E-02 
2318	 3.23608848342926E-02 
2319	 0.123694789200571 
2320	 0.149479011452828 
2321	 0.104093769190639 
2322	 0.089864476886393 
2323	 2.29135890484178E-02 
2324	 5.34805006827007E-03 
2325	 2.68122880543486E-02 
2326	 3.49280941859489E-02 
2327	 0.102593261025757 
2328	 0.120552555866177 
2329	 0.121069218784591 
2330	 0.209743345201821 
2331	 0.303630680912008 
2332	 0.381000952817403 
2333	 0.364823137209705 
2334	 0.261910187432644 
2335	 0.300614423525486 
2336	 0.324440454868834 
2337	 0.298172800448249 
2338	 0.477836218580322 
2339	 0.604299257821469 
2340	 0.424951203459889 
2341	 0.39614858756388 
2342	 0.531201823694427 
2343	 0.30732623093922 
2344	 0.256442166414482 
2345	 0.386211448778434 
2346	 0.343531856864702 
2347	 0.178171773250702 
2348	-0.195277746526443 
2349	-0.303005602791635 
2350	-0.36691854502271 
2351	-0.494473076989498 
2352	-0.33382048760807 
2353	-0.269705142786668 
2354	-0.22134731144521 
2355	 0.372909592023088 
2356	 0.630304477155225 
2357	 0.680214603484199 
2358	 1.21876222707109 
2359	 0.972804751921349 
2360	 0.51308432550439 
2361	 0.368573890165913 
2362	 0.161138154187365 
2363	 7.54675611798518E-02 
2364	-6.63514477933897E-02 
2365	-0.126679681310608 
2366	-0.134034005436769 
2367	-8.53722292701497E-02 
2368	 0.319292881766182 
2369	 1.22296195147371 
2370	 4.69477623265146 
2371	 3.13720527972012 
2372	 3.68137969118153 
2373	-1.61057091517327 
2374	-2.39250296514133 
2375	-1.94635448635398 
2376	-0.876227273134857 
2377	-0.711445287084767 
2378	-0.695497216922353 
2379	 0.784170429270567 
2380	 0.734936341079466 
2381	 7.84323398546071E-02 
2382	-1.19949620923926 
2383	-1.96990357560024 
2384	-2.15207574484036 
2385	 29.0741921333259 
2386	 1.25134699707513 
2387	 0.782383281038948 
2388	 0.507001324413076 
2389	 0.295232481069694 
2390	 0.132287970553539 
2391	-2.65182595611279 
2392	 4.62289243805276 
2393	 3.33046351182946 
2394	 1.560597957603 
2395	 0.689574479404879 
2396	 0.101802392063523 
2397	-2.78417623797268E-02 
2398	-0.131233493149401 
2399	-0.826533650481207 
2400	-2.97831727640247 
2401	-15.7359297419453 
2402	-3.55386850012776 
2403	 0.407276206102048 
2404	 2.38086638273176 
2405	 4.80973554864248 
2406	 1.54366425713446 
2407	 1.37324353541796 
2408	 0.20408414178108 
2409	 8.83675155179873 
2410	-4.07243842986082 
2411	-3.94091776794386 
2412	-6.47288518091804 
2413	-1.92444779282637 
2414	-2.43744122236611 
2415	-10.6025614427369 
2416	-4.40219631123313 
2417	-5.81426841224654 
2418	-2.7602020647986 
2419	-1.15269941597725 
2420	 1.36019835735202 
2421	 0.599419834802137 
2422	-1.10364169815635 
2423	-58.9990641884872 
2424	-0.690637982367875 
2425	 2.51134632688194 
2426	-1.25913475060968 
2427	 6.54371135324107 
2428	-0.881177845805586 
2429	-2.32903466224143 
2430	 221.584945885519 
2431	 6.07722215686704 
2432	-0.112227850928921 
2433	-0.65101108166957 
2434	-0.395050730733345 
2435	-0.187622430186704 
2436	 0.264818733277261 
2437	-1.43429361544802 
2438	-9.8189235644924 
2439	 9.6227589956456 
2440	 7.67043312402654 
2441	-0.01733011220866 
2442	-0.910057479376628 
2443	-0.756835205024414 
2444	-0.63349010491799 
2445	-0.414759531371363 
2446	-0.133298016072673 
2447	 0.157951877163899 
2448	 0.344245478158862 
2449	-0.388593738457059 
2450	-0.612889369263816 
2451	-0.182365645473338 
2452	 3.20689885397632E-02 
2453	 0.196118200775101 
2454	 0.271809349747396 
2455	 0.585183275669792 
2456	 0.827772818932417 
2457	 0.460309548408361 
2458	 0.550491963750172 
2459	 0.195450289529159 
2460	-0.447793893327352 
2461	-8.33861167352921E-02 
2462	 0.230420568354662 
2463	 0.345809284293547 
2464	 0.431312462502626 
2465	 0.233734976484123 
2466	-0.396018312543091 
2467	-0.465630671465995 
2468	-0.596167798123725 
2469	-0.877445302421089 
2470	 0.080640789755744 
2471	 0.235227155521357 
2472	-0.005488731376472 
2473	 0.390045420373506 
2474	 0.557268667412217 
2475	 0.168929369792275 
2476	 0.103951539692113 
2477	 0.260127338173578 
2478	 0.124735821072801 
2479	-0.298428874346137 
2480	-0.388535379027333 
2481	-0.621688414210012 
2482	 0.285387234136544 
2483	 1.97403823091491 
2484	-20.5026481855539 
2485	-2.80731582082727 
2486	-3.97107833375851 
2487	 7.05693692271767 
2488	 1.36765471387105 
2489	 0.417787271424174 
2490	 0.218907632751321 
2491	-5.11810478201402E-02 
2492	-0.525313612094898 
2493	-1.38057963936527 
2494	-1.58979702227907 
2495	-1.46493372509565 
2496	-1.4072524881005 
2497	-0.895250039010774 
2498	-1.08969562900437 
2499	-1.88368123626875 
2500	-3.99762270693439 
