Wavelength	rt0727close00006.asd
350	 5.73912532081505E-02 
351	 5.74064524992621E-02 
352	 5.71179675161244E-02 
353	 5.71912169898752E-02 
354	 5.78702985481508E-02 
355	 5.83625578768228E-02 
356	 5.77385520239905E-02 
357	 5.70249746648715E-02 
358	 5.74192868289663E-02 
359	 5.80204781997977E-02 
360	 5.80433734717165E-02 
361	 0.057683951702801 
362	 5.77461363009669E-02 
363	 5.79008866024073E-02 
364	 5.81784416368473E-02 
365	 5.85532434019363E-02 
366	 5.88891069839857E-02 
367	 5.84887284394855E-02 
368	 5.79970896625669E-02 
369	 5.81706004660574E-02 
370	 5.89026355589007E-02 
371	 0.058733604912919 
372	 5.82727469302494E-02 
373	 5.91019538697879E-02 
374	 5.95818524177651E-02 
375	 5.94117455053464E-02 
376	 5.88642670253464E-02 
377	 5.87593572997309E-02 
378	 5.88355598657826E-02 
379	 5.94433266716814E-02 
380	 6.05455312596596E-02 
381	 6.05543068990954E-02 
382	 6.10182048796871E-02 
383	 6.13465901297576E-02 
384	 0.060335082400733 
385	 6.02189597397272E-02 
386	 5.99423833610754E-02 
387	 5.96287919930516E-02 
388	 6.08864989495517E-02 
389	 6.17984827817953E-02 
390	 6.20797011471686E-02 
391	 6.19455062102007E-02 
392	 0.061807712959205 
393	 6.22023505188083E-02 
394	 6.27294719693894E-02 
395	 6.27997744449039E-02 
396	 6.29378530458132E-02 
397	 6.28827572955127E-02 
398	 6.26813206689217E-02 
399	 6.26667242330918E-02 
400	 6.29721393788964E-02 
401	 0.063403291066966 
402	 0.063751323171121 
403	 6.38777232165056E-02 
404	 6.39544343970404E-02 
405	 6.40697401609548E-02 
406	 6.42646671274277E-02 
407	 6.45121668673667E-02 
408	 0.064806392839456 
409	 6.50222557152899E-02 
410	 6.49457191739908E-02 
411	 6.49359908495383E-02 
412	 6.50831916167666E-02 
413	 6.52975292884849E-02 
414	 6.51568334604825E-02 
415	 6.53442846432598E-02 
416	 6.58493103581662E-02 
417	 6.63261570237868E-02 
418	 0.06637294964318 
419	 6.63410973474975E-02 
420	 0.066525612895676 
421	 6.70722654269927E-02 
422	 6.73109138160462E-02 
423	 6.75292899010995E-02 
424	 6.79593241175955E-02 
425	 6.80530792852523E-02 
426	 6.83811343575692E-02 
427	 6.88206998330246E-02 
428	 6.89765828231067E-02 
429	 6.91113578197689E-02 
430	 6.94685300848929E-02 
431	 6.99888674384127E-02 
432	 7.02758754072128E-02 
433	 7.05660752661097E-02 
434	 0.070966243701965 
435	 7.14519248838107E-02 
436	 7.16869797602856E-02 
437	 7.20269551544586E-02 
438	 7.25457022658541E-02 
439	 7.31241513586834E-02 
440	 7.34975286587441E-02 
441	 7.38662613414709E-02 
442	 7.42983931098134E-02 
443	 7.45881089902995E-02 
444	 7.48265396899065E-02 
445	 7.52017208067377E-02 
446	 7.57740947814405E-02 
447	 7.60311305130029E-02 
448	 7.62809319834543E-02 
449	 7.65278531745883E-02 
450	 0.076582057805662 
451	 7.68913362292376E-02 
452	 7.72906251253297E-02 
453	 7.76256304717984E-02 
454	 7.79642519531708E-02 
455	 7.81836115851136E-02 
456	 7.82533049277656E-02 
457	 7.82369479324824E-02 
458	 7.84492838719829E-02 
459	 7.86361213123262E-02 
460	 7.87689513416251E-02 
461	 7.90573941346559E-02 
462	 7.91218241541234E-02 
463	 7.92334727156495E-02 
464	 7.95915683171487E-02 
465	 7.98480858547343E-02 
466	 8.00156382703615E-02 
467	 8.01549127594694E-02 
468	 8.03455059290908E-02 
469	 8.04899433214686E-02 
470	 8.07667007485139E-02 
471	 0.081147572367074 
472	 8.13031675815201E-02 
473	 8.15136079330413E-02 
474	 8.18065299980314E-02 
475	 8.20994571401427E-02 
476	 8.21414428051257E-02 
477	 8.23400639338666E-02 
478	 8.26939417614423E-02 
479	 8.29433477560172E-02 
480	 8.34178165316364E-02 
481	 8.36900216540887E-02 
482	 0.083678818436274 
483	 8.42180826782722E-02 
484	 8.45504665210825E-02 
485	 8.47199375452969E-02 
486	 8.50168893961208E-02 
487	 8.53460757392508E-02 
488	 8.56613033677669E-02 
489	 8.60394368034319E-02 
490	 8.66532597179946E-02 
491	 8.70598650241927E-02 
492	 8.73974779791869E-02 
493	 8.78315392976235E-02 
494	 8.82719033483026E-02 
495	 0.088759198044779 
496	 8.93060561725646E-02 
497	 8.98987085144292E-02 
498	 9.04306788239033E-02 
499	 0.090945672855146 
500	 9.15203335899743E-02 
501	 9.22609881802631E-02 
502	 9.28192797440336E-02 
503	 9.34156546446581E-02 
504	 9.42836101880136E-02 
505	 9.50227875027408E-02 
506	 9.55542587949474E-02 
507	 9.60533263677918E-02 
508	 9.68430454040655E-02 
509	 9.74174837788394E-02 
510	 9.79347980346705E-02 
511	 9.86082472579698E-02 
512	 9.95783393462959E-02 
513	 0.100359740310508 
514	 0.100979923891479 
515	 0.101692724675791 
516	 0.102563598138163 
517	 0.103454340370028 
518	 0.104257670983213 
519	 0.104940254440455 
520	 0.105699712233831 
521	 0.106538505836687 
522	 0.107405261061542 
523	 0.108216047666508 
524	 0.109142926298341 
525	 0.110111632537312 
526	 0.110898666863441 
527	 0.111696684251629 
528	 0.112613900834341 
529	 0.113605243838283 
530	 0.114344004418773 
531	 0.115196306272959 
532	 0.116177799547425 
533	 0.117173831294912 
534	 0.118163250731965 
535	 0.119101341002318 
536	 0.120028460371073 
537	 0.121069798678585 
538	 0.122067653481266 
539	 0.123049988810399 
540	 0.124065911203825 
541	 0.125084579273297 
542	 0.126149703712904 
543	 0.127165222828349 
544	 0.12800055819369 
545	 0.129062553386615 
546	 0.130167716279012 
547	 0.131201695241648 
548	 0.132356329460725 
549	 0.133308847798293 
550	 0.134170657752756 
551	 0.135170311862178 
552	 0.136215464799595 
553	 0.137268956327321 
554	 0.138262855668124 
555	 0.139093061683775 
556	 0.140057561995399 
557	 0.141133144951058 
558	 0.142183440302227 
559	 0.143026365190051 
560	 0.143925995909245 
561	 0.14485245046777 
562	 0.145617581660664 
563	 0.146425540636341 
564	 0.147170822686976 
565	 0.147822804751804 
566	 0.148587418898883 
567	 0.149191832673581 
568	 0.149671026603643 
569	 0.150178780083505 
570	 0.150824818470259 
571	 0.151350746401444 
572	 0.151733046624773 
573	 0.152213544415686 
574	 0.15253833755044 
575	 0.152858066090441 
576	 0.153315670333604 
577	 0.153751523838183 
578	 0.154081535041121 
579	 0.154357407235066 
580	 0.154691487766434 
581	 0.154844268420841 
582	 0.154997219681122 
583	 0.155266839452317 
584	 0.155570668063595 
585	 0.155754651506823 
586	 0.155941299321689 
587	 0.156293529237081 
588	 0.156457964836461 
589	 0.156547570430757 
590	 0.156585359877705 
591	 0.156480544769217 
592	 0.156663720758179 
593	 0.156731859367614 
594	 0.156435774910135 
595	 0.156533929365956 
596	 0.156476760189078 
597	 0.156267807766845 
598	 0.156175104685118 
599	 0.155861797068852 
600	 0.155620544611721 
601	 0.155594769575048 
602	 0.155569647332361 
603	 0.155461328172821 
604	 0.15537352244332 
605	 0.155405592314699 
606	 0.155238651780736 
607	 0.155259822284728 
608	 0.155338734269978 
609	 0.154831646654384 
610	 0.154939214501122 
611	 0.155081273245317 
612	 0.154724481844276 
613	 0.154611112466717 
614	 0.15458247778589 
615	 0.154546131666647 
616	 0.15444805913456 
617	 0.154354411488555 
618	 0.154369822753697 
619	 0.154407395733938 
620	 0.15404821527697 
621	 0.153981998863164 
622	 0.154108673467774 
623	 0.15412757432149 
624	 0.154160740170291 
625	 0.154168733480596 
626	 0.15410382062204 
627	 0.153933961356549 
628	 0.154045277440675 
629	 0.154171813364503 
630	 0.154040683939134 
631	 0.153622847009194 
632	 0.153760545252346 
633	 0.154068302780038 
634	 0.153726921012025 
635	 0.15366406196735 
636	 0.153651105464824 
637	 0.153596486667842 
638	 0.153763814047179 
639	 0.153859262523081 
640	 0.153834141464555 
641	 0.153763644089868 
642	 0.153899968465719 
643	 0.153984346031522 
644	 0.153899238270831 
645	 0.153675874043619 
646	 0.153758847237213 
647	 0.1538283585889 
648	 0.153628457112955 
649	 0.153447363381739 
650	 0.153105027353744 
651	 0.152779568799981 
652	 0.152663507331589 
653	 0.152000586454472 
654	 0.151384538804294 
655	 0.150938791875019 
656	 0.150085563563435 
657	 0.149138356530656 
658	 0.148258636208743 
659	 0.147478424864008 
660	 0.146683872549317 
661	 0.145905012808357 
662	 0.14513706338409 
663	 0.14436217024168 
664	 0.143437795874476 
665	 0.142714386134427 
666	 0.142284973974709 
667	 0.141700340880386 
668	 0.141213200991629 
669	 0.140880742618658 
670	 0.140683298781012 
671	 0.140504010930221 
672	 0.140511420319173 
673	 0.140658378075795 
674	 0.140714560792234 
675	 0.141119546247241 
676	 0.141738564831299 
677	 0.142346619669403 
678	 0.142765293255379 
679	 0.143218759362675 
680	 0.14385814011634 
681	 0.144747774636294 
682	 0.145597078815444 
683	 0.146677587138693 
684	 0.147980046619227 
685	 0.149185144730736 
686	 0.150623909935924 
687	 0.152050826848151 
688	 0.153141997350229 
689	 0.15428005498657 
690	 0.155443288272667 
691	 0.156681747293243 
692	 0.15804648884742 
693	 0.159158892937157 
694	 0.159821950249184 
695	 0.160129877047161 
696	 0.160489494010713 
697	 0.160854801227563 
698	 0.161199131508179 
699	 0.161435787948853 
700	 0.161532990832127 
701	 0.161526338895502 
702	 0.16140091177882 
703	 0.161109604788456 
704	 0.160913592207134 
705	 0.160574729101291 
706	 0.160009197108686 
707	 0.159591725382872 
708	 0.15907925999846 
709	 0.158498476596844 
710	 0.157896837592648 
711	 0.156862820334492 
712	 0.155796032886522 
713	 0.154868396409027 
714	 0.153940700081006 
715	 0.152994374788526 
716	 0.15210443116667 
717	 0.15128556520832 
718	 0.149311969739883 
719	 0.147472054672448 
720	 0.146013859297518 
721	 0.144323953029162 
722	 0.143226046166056 
723	 0.14183181681853 
724	 0.140058071523187 
725	 0.138565788174213 
726	 0.13673245222721 
727	 0.13451281817107 
728	 0.132014359500767 
729	 0.129405474241042 
730	 0.126542562069793 
731	 0.123805920529358 
732	 0.121406452722724 
733	 0.119541514085477 
734	 0.117799045624938 
735	 0.116063282017558 
736	 0.114586993180294 
737	 0.113653124954725 
738	 0.112887514852287 
739	 0.112049299182517 
740	 0.111674581575881 
741	 0.111368109401635 
742	 0.111229601673593 
743	 0.111471397225162 
744	 0.111141720923412 
745	 0.110953033710289 
746	 0.111152994397792 
747	 0.11115763155388 
748	 0.111172153505009 
749	 0.111198990007623 
750	 0.111210164760788 
751	 0.11121015703559 
752	 0.111267839699169 
753	 0.11131574113616 
754	 0.111240944218501 
755	 0.111204387065278 
756	 0.111289593011405 
757	 0.111436322505795 
758	 0.111358055716794 
759	 0.111959906440508 
760	 0.113032838016099 
761	 0.112966458243431 
762	 0.113118916213833 
763	 0.113085906260056 
764	 0.112964472663254 
765	 0.112915104043562 
766	 0.112714020158854 
767	 0.112720005209864 
768	 0.112973874155134 
769	 0.113241911846719 
770	 0.113318315683823 
771	 0.113591383514694 
772	 0.114191365320298 
773	 0.11418296540216 
774	 0.114547432837963 
775	 0.115124423477564 
776	 0.115370777291401 
777	 0.115683650986129 
778	 0.116060286491612 
779	 0.116479742471973 
780	 0.116924573966978 
781	 0.117305101270463 
782	 0.117619547415839 
783	 0.117945664478432 
784	 0.118510376007522 
785	 0.119028889218444 
786	 0.119467293482968 
787	 0.119905931805179 
788	 0.12047932242258 
789	 0.121152123350102 
790	 0.1217493250457 
791	 0.122061579297352 
792	 0.12235310258491 
793	 0.122911835388944 
794	 0.123683381192687 
795	 0.124018917713407 
796	 0.124504113545661 
797	 0.12486253586429 
798	 0.124914614958744 
799	 0.125569091275606 
800	 0.126006681092644 
801	 0.126279353782055 
802	 0.126823561715837 
803	 0.126741949119472 
804	 0.126805936292175 
805	 0.127142580449943 
806	 0.127087011949954 
807	 0.12705021946851 
808	 0.127008022706729 
809	 0.126878554337033 
810	 0.12665404706617 
811	 0.126200709574622 
812	 0.12586644027525 
813	 0.126069792182917 
814	 0.125763394913325 
815	 0.125272903060993 
816	 0.12467434688639 
817	 0.123784242445231 
818	 0.122784790794046 
819	 0.122209885350344 
820	 0.121704480959359 
821	 0.119915079617805 
822	 0.118586444599018 
823	 0.117270322293987 
824	 0.11546317053716 
825	 0.113716732062558 
826	 0.111559168639156 
827	 0.108936607524275 
828	 0.106259198664987 
829	 0.103974580070887 
830	 0.101979715110327 
831	 0.100089445610977 
832	 9.82253639882811E-02 
833	 9.66451545634363E-02 
834	 0.095369172808442 
835	 9.44500308283033E-02 
836	 0.094046839546898 
837	 9.32850926233974E-02 
838	 9.25809030839222E-02 
839	 9.21976095373268E-02 
840	 9.12275499321747E-02 
841	 9.09103258461815E-02 
842	 9.07210874905976E-02 
843	 0.089844017437524 
844	 8.92305548714761E-02 
845	 8.87545042883499E-02 
846	 8.83818237396625E-02 
847	 8.80977442956719E-02 
848	 8.72983691917442E-02 
849	 8.68746708666399E-02 
850	 8.69146755698845E-02 
851	 8.63174661818481E-02 
852	 8.58800687170066E-02 
853	 8.55279431097419E-02 
854	 8.51518672905797E-02 
855	 8.49272643845065E-02 
856	 8.46577216482292E-02 
857	 8.45469462470245E-02 
858	 8.46090140498368E-02 
859	 8.37880039039961E-02 
860	 8.32330290981774E-02 
861	 8.28341599891827E-02 
862	 0.082029707533649 
863	 8.18407021088364E-02 
864	 8.17852637375431E-02 
865	 8.14734643378454E-02 
866	 8.07904153701197E-02 
867	 8.03746806132001E-02 
868	 8.02699733016622E-02 
869	 8.00146652936036E-02 
870	 7.87225345475427E-02 
871	 7.87931953649896E-02 
872	 7.89588737042624E-02 
873	 7.81451836632638E-02 
874	 7.75558293026144E-02 
875	 7.70070546600576E-02 
876	 7.63111608833337E-02 
877	 7.54946680140775E-02 
878	 7.54692545945795E-02 
879	 7.52071867084601E-02 
880	 7.45898463400295E-02 
881	 7.39535637162746E-02 
882	 7.32624858617069E-02 
883	 7.28375028610493E-02 
884	 7.24341553442465E-02 
885	 7.15134861761193E-02 
886	 7.09100554613494E-02 
887	 7.03524462460468E-02 
888	 6.97905146336108E-02 
889	 6.95306007014889E-02 
890	 6.89975382580644E-02 
891	 6.87135475806544E-02 
892	 6.87469099400891E-02 
893	 6.78197464596405E-02 
894	 6.77067660394603E-02 
895	 6.76272472610324E-02 
896	 6.67861539610854E-02 
897	 6.75809743123902E-02 
898	 6.74626882073485E-02 
899	 6.62013099944448E-02 
900	 6.48261148527802E-02 
901	 6.46003965601281E-02 
902	 6.40672440714274E-02 
903	 6.34979647316515E-02 
904	 6.34522382293469E-02 
905	 6.24879065678066E-02 
906	 6.15181173296492E-02 
907	 6.14406911557303E-02 
908	 6.25352116938505E-02 
909	 6.10908217157454E-02 
910	 5.94389468135439E-02 
911	 0.059030390762361 
912	 5.94972412961425E-02 
913	 5.87606089934076E-02 
914	 5.69213197867283E-02 
915	 5.52417781226229E-02 
916	 5.52982940778896E-02 
917	 5.32817488533705E-02 
918	 5.17425858194516E-02 
919	 5.14488044907219E-02 
920	 5.00771539552112E-02 
921	 4.97705742695734E-02 
922	 4.84563448909161E-02 
923	 4.52786885202325E-02 
924	 4.38091965720027E-02 
925	 4.56721400888445E-02 
926	 0.04688377040862 
927	 4.37101433968124E-02 
928	 4.39044916968622E-02 
929	 4.94166617964374E-02 
930	 5.44498445848168E-02 
931	 0.046943095643944 
932	 3.83387692969184E-02 
933	 3.35147072675929E-02 
934	 3.47569453930107E-02 
935	 0.038759813376589 
936	 4.35905536683694E-02 
937	 4.40545188858329E-02 
938	 0.038502176382159 
939	 2.99004022605938E-02 
940	 3.53381420696646E-02 
941	 3.39076293703189E-02 
942	 2.74517758083912E-02 
943	 0.02797771959791 
944	 2.77530719882629E-02 
945	 0.035348673912466 
946	 4.46817579081796E-02 
947	 4.27904279576518E-02 
948	 2.47737291191996E-02 
949	 2.08271270351229E-02 
950	 3.23596088173649E-02 
951	 4.15238009120796E-02 
952	 3.69730915167534E-02 
953	 3.22212109745185E-02 
954	 3.49779231848378E-02 
955	 4.31398370816488E-02 
956	 3.52344315147401E-02 
957	 2.75575224908724E-02 
958	 2.53797845459095E-02 
959	 2.50974075144854E-02 
960	 2.85166961133423E-02 
961	 0.030480513069827 
962	 3.13242603036854E-02 
963	 3.39663530563853E-02 
964	 3.30774278812482E-02 
965	 3.22315724368908E-02 
966	 3.14727662816525E-02 
967	 2.86861671077746E-02 
968	 0.02588399571394 
969	 2.43050053504305E-02 
970	 2.50771138636665E-02 
971	 2.86377203804331E-02 
972	 3.11551962526581E-02 
973	 3.24933334749096E-02 
974	 3.39223847886426E-02 
975	 3.64801160391831E-02 
976	 3.17290235270906E-02 
977	 3.02930360473917E-02 
978	 3.25033900615712E-02 
979	 0.029709788535138 
980	 2.72097399110368E-02 
981	 2.74836329415327E-02 
982	 2.92693396928283E-02 
983	 2.91775570891883E-02 
984	 0.02756541532862 
985	 0.027040770440418 
986	 2.75279165673404E-02 
987	 2.71982886347434E-02 
988	 2.83458088441417E-02 
989	 2.82857867594608E-02 
990	 2.72611628052653E-02 
991	 2.77544619377875E-02 
992	 3.01279968082665E-02 
993	 3.09517189164218E-02 
994	 3.05115314083547E-02 
995	 3.12169869232446E-02 
996	 3.00541958596479E-02 
997	 3.07127906687159E-02 
998	 3.10742444361238E-02 
999	 2.69890848351483E-02 
1000	 2.49290747943921E-02 
1001	 3.05078902753223E-02 
1002	 3.14240799542448E-02 
1003	 0.031821726513734 
1004	 3.23683967333052E-02 
1005	 3.21899428419556E-02 
1006	 3.15483652167949E-02 
1007	 3.13886125622875E-02 
1008	 3.11729324920567E-02 
1009	 3.01548057158357E-02 
1010	 3.05432558351769E-02 
1011	 3.12213675942803E-02 
1012	 3.00313038597608E-02 
1013	 2.91877374051695E-02 
1014	 2.89579323109736E-02 
1015	 0.028306838437635 
1016	 2.87315020447841E-02 
1017	 3.07019800179863E-02 
1018	 3.16223695576506E-02 
1019	 3.32571018636433E-02 
1020	 3.34627238314945E-02 
1021	 3.25241634748966E-02 
1022	 3.15664918367115E-02 
1023	 3.11495727807967E-02 
1024	 3.00855212431704E-02 
1025	 2.92859160327326E-02 
1026	 3.02716885409218E-02 
1027	 3.11566139920158E-02 
1028	 3.29134970129511E-02 
1029	 3.31102768325263E-02 
1030	 3.32594118052871E-02 
1031	 3.31249343112019E-02 
1032	 3.10184037294153E-02 
1033	 0.030552714233095 
1034	 3.18463426620392E-02 
1035	 3.18344327877435E-02 
1036	 3.08989429671289E-02 
1037	 3.12144743983889E-02 
1038	 3.22095419234217E-02 
1039	 3.21633048100124E-02 
1040	 3.29004410559708E-02 
1041	 3.39374447166094E-02 
1042	 3.40685642148196E-02 
1043	 3.27515758520237E-02 
1044	 3.30227640711077E-02 
1045	 3.38994241386631E-02 
1046	 3.44159584089326E-02 
1047	 3.57668933815123E-02 
1048	 3.62578553669654E-02 
1049	 3.60412866469061E-02 
1050	 3.60091247482222E-02 
1051	 3.53340296069054E-02 
1052	 3.53460381844405E-02 
1053	 3.57787029902173E-02 
1054	 3.61836588503239E-02 
1055	 3.75297824833755E-02 
1056	 3.80152469326516E-02 
1057	 3.81008216225144E-02 
1058	 3.76887594641851E-02 
1059	 3.74175526334872E-02 
1060	 0.036372145295749 
1061	 3.63375381195356E-02 
1062	 3.69483805675792E-02 
1063	 3.71114948365723E-02 
1064	 3.71898850594814E-02 
1065	 3.77652586660613E-02 
1066	 0.03925190543191 
1067	 3.91954515038602E-02 
1068	 3.85981030040922E-02 
1069	 3.82340080217635E-02 
1070	 3.53053900041168E-02 
1071	 0.034962978314394 
1072	 3.74368047145625E-02 
1073	 3.90865881282293E-02 
1074	 3.93461272941501E-02 
1075	 4.01215305799208E-02 
1076	 3.96133710788252E-02 
1077	 3.59560389296044E-02 
1078	 3.57165610858553E-02 
1079	 3.76693006105929E-02 
1080	 3.76583361201422E-02 
1081	 3.78501172289458E-02 
1082	 0.037865417115076 
1083	 3.62669668788486E-02 
1084	 3.58580227301526E-02 
1085	 3.67412456032619E-02 
1086	 3.70937558975356E-02 
1087	 3.79144649836613E-02 
1088	 3.77637851389687E-02 
1089	 3.67999160592722E-02 
1090	 3.58849139124328E-02 
1091	 3.51713017772957E-02 
1092	 3.38428851658179E-02 
1093	 3.29966859081261E-02 
1094	 3.23040472163664E-02 
1095	 3.27272432385247E-02 
1096	 3.37515346572113E-02 
1097	 3.41756639337183E-02 
1098	 3.66335967269212E-02 
1099	 3.69815937470557E-02 
1100	 3.46521598518557E-02 
1101	 3.39761070403346E-02 
1102	 3.28014719944346E-02 
1103	 3.21761165406546E-02 
1104	 3.17773281058703E-02 
1105	 3.33821773140377E-02 
1106	 3.48867122314848E-02 
1107	 3.50887274941044E-02 
1108	 3.47392173734242E-02 
1109	 3.49339009262081E-02 
1110	 3.54143508711324E-02 
1111	 3.62745377823562E-02 
1112	 3.82291497867321E-02 
1113	 4.16601329863972E-02 
1114	 0.042149230798001 
1115	 4.29835689628907E-02 
1116	 4.15120155437172E-02 
1117	 2.82567097049546E-02 
1118	 2.78493498652507E-02 
1119	 4.12858909718509E-02 
1120	 4.50167043348925E-02 
1121	 0.050721800489083 
1122	 8.70249313953298E-02 
1123	 7.49405650200161E-02 
1124	 3.02294298263001E-02 
1125	 5.28463761707528E-02 
1126	 6.77278479067844E-02 
1127	 6.72330383388536E-02 
1128	 8.94022223800237E-02 
1129	 6.78672537347764E-02 
1130	-1.88515495436701E-02 
1131	-1.26746508542187E-02 
1132	 3.63404719233851E-02 
1133	 3.79701416755944E-02 
1134	 4.69104096349284E-02 
1135	 5.62669791079538E-02 
1136	 4.15261445359643E-02 
1137	 4.10234415660746E-02 
1138	 6.02421926769277E-02 
1139	 6.82711865855583E-02 
1140	 5.53373338250905E-02 
1141	 4.80379809326389E-02 
1142	 5.02589010159352E-02 
1143	 4.82930240139395E-02 
1144	 0.059772474616098 
1145	 6.80721297912244E-02 
1146	 5.96940506010981E-02 
1147	 6.36571738837759E-02 
1148	 6.07105765603918E-02 
1149	 4.18157775836176E-02 
1150	 3.47484356001676E-02 
1151	 2.77579574203715E-02 
1152	 3.07728151954853E-02 
1153	 4.50655550620501E-02 
1154	 4.33517354235217E-02 
1155	 3.92299917425738E-02 
1156	 3.66883477469555E-02 
1157	 3.28767823497677E-02 
1158	 3.03966529496086E-02 
1159	 3.64935110481507E-02 
1160	 4.04595299850263E-02 
1161	 3.76198650877769E-02 
1162	 3.52305355998976E-02 
1163	 3.40570324555258E-02 
1164	 3.34921256482901E-02 
1165	 3.32593668857062E-02 
1166	 3.08800473742448E-02 
1167	 2.96290359763631E-02 
1168	 3.01231417890673E-02 
1169	 2.89887776806565E-02 
1170	 3.04746777125688E-02 
1171	 3.14414337993033E-02 
1172	 3.14865563438039E-02 
1173	 3.10848186424159E-02 
1174	 3.11283437352546E-02 
1175	 3.11675873046157E-02 
1176	 2.93998453608811E-02 
1177	 2.86383232385872E-02 
1178	 2.87352863979079E-02 
1179	 2.96871120068667E-02 
1180	 3.08572220175693E-02 
1181	 3.06503620897652E-02 
1182	 3.03567406071616E-02 
1183	 2.98575178236534E-02 
1184	 2.83596428868063E-02 
1185	 0.029230192701086 
1186	 3.09872561156139E-02 
1187	 0.029994292696676 
1188	 2.95749984949488E-02 
1189	 3.03871242672695E-02 
1190	 2.89475014309828E-02 
1191	 2.76911026158436E-02 
1192	 2.77352227094235E-02 
1193	 2.89772195564885E-02 
1194	 2.91515171685084E-02 
1195	 2.90449007406007E-02 
1196	 2.91687827455146E-02 
1197	 2.94784048325785E-02 
1198	 2.89905914566053E-02 
1199	 2.82329945484357E-02 
1200	 2.83505208323388E-02 
1201	 2.85855946481205E-02 
1202	 2.92111508664211E-02 
1203	 2.99204372259643E-02 
1204	 2.94958153400039E-02 
1205	 2.79422090853281E-02 
1206	 2.74018140359341E-02 
1207	 2.74569258368975E-02 
1208	 2.75434221734655E-02 
1209	 2.86647149794027E-02 
1210	 2.88143853874235E-02 
1211	 0.028764368495734 
1212	 2.96029761545623E-02 
1213	 2.97679889157743E-02 
1214	 2.97493858551993E-02 
1215	 0.029173291492881 
1216	 2.82633199345992E-02 
1217	 2.81983453453168E-02 
1218	 2.93278019495147E-02 
1219	 2.91295439714007E-02 
1220	 2.86241837523005E-02 
1221	 2.92449954894025E-02 
1222	 2.88054384694421E-02 
1223	 2.85000327592376E-02 
1224	 2.94378787790871E-02 
1225	 0.029554571793015 
1226	 2.89133261953736E-02 
1227	 0.028643655228351 
1228	 2.90498101413917E-02 
1229	 2.91199389733537E-02 
1230	 2.84325658413306E-02 
1231	 2.83723266235495E-02 
1232	 2.84514504352369E-02 
1233	 2.81839274665014E-02 
1234	 2.89591507588864E-02 
1235	 2.89777043014701E-02 
1236	 2.80950810636693E-02 
1237	 2.82090149359063E-02 
1238	 2.88024049598628E-02 
1239	 2.87902947351936E-02 
1240	 2.81287597687234E-02 
1241	 2.82466337438772E-02 
1242	 2.74413882982964E-02 
1243	 2.65246567191562E-02 
1244	 2.74454897322988E-02 
1245	 2.86281553034108E-02 
1246	 2.83154513676342E-02 
1247	 2.76789848886205E-02 
1248	 2.77735969920813E-02 
1249	 2.79796494356781E-02 
1250	 2.81016841119451E-02 
1251	 2.87236594598615E-02 
1252	 2.86102805347679E-02 
1253	 0.027103556421984 
1254	 2.73929195589205E-02 
1255	 2.86283047113365E-02 
1256	 0.028428205695583 
1257	 2.75420228208427E-02 
1258	 2.77697515244021E-02 
1259	 2.74884851149544E-02 
1260	 2.72014957184562E-02 
1261	 2.79575051576625E-02 
1262	 2.83613389463484E-02 
1263	 2.83820283524762E-02 
1264	 2.79021382780756E-02 
1265	 2.75611131765391E-02 
1266	 2.82266737841651E-02 
1267	 0.028239017443539 
1268	 2.71006753213969E-02 
1269	 0.027036150744469 
1270	 2.76353704299677E-02 
1271	 2.79146918589121E-02 
1272	 2.86162652108663E-02 
1273	 2.90106840452922E-02 
1274	 2.86053764439143E-02 
1275	 2.80376142788436E-02 
1276	 2.77960553993482E-02 
1277	 2.81578791927313E-02 
1278	 2.88937390028346E-02 
1279	 2.99381847972535E-02 
1280	 2.99303361534403E-02 
1281	 2.95205618887632E-02 
1282	 2.81732440557759E-02 
1283	 0.027932808888102 
1284	 2.78116214861849E-02 
1285	 2.76769163471229E-02 
1286	 2.76006162040744E-02 
1287	 2.80893152789895E-02 
1288	 2.94823990425628E-02 
1289	 2.93259420606086E-02 
1290	 2.85675794680875E-02 
1291	 2.89843924871839E-02 
1292	 2.91816900773989E-02 
1293	 0.028264310951444 
1294	 2.85126127454563E-02 
1295	 2.95588413765333E-02 
1296	 2.91674473132867E-02 
1297	 2.82866854840175E-02 
1298	 2.78073426486467E-02 
1299	 2.74875183744611E-02 
1300	 2.79430211784173E-02 
1301	 2.83562282912338E-02 
1302	 2.81507288733222E-02 
1303	 2.83816626467166E-02 
1304	 2.81825715184429E-02 
1305	 2.72750017876744E-02 
1306	 2.70925756108956E-02 
1307	 0.028834462274315 
1308	 2.92933783418728E-02 
1309	 2.88454594095869E-02 
1310	 2.85619110383213E-02 
1311	 2.88861088954125E-02 
1312	 2.82587252504098E-02 
1313	 0.024472585643491 
1314	 2.42878283018545E-02 
1315	 2.67589432429723E-02 
1316	 2.81551964151994E-02 
1317	 3.32430130735162E-02 
1318	 3.54092453291373E-02 
1319	 3.43522854715593E-02 
1320	 0.032812870815405 
1321	 2.90295504580048E-02 
1322	 2.58818846756123E-02 
1323	 2.45421575878495E-02 
1324	 2.61615182701573E-02 
1325	 0.028345228514724 
1326	 3.16399945702538E-02 
1327	 3.31428288308245E-02 
1328	 3.07910356770508E-02 
1329	 3.35413021184926E-02 
1330	 3.77774506434711E-02 
1331	 3.57955603264143E-02 
1332	 3.57689394499698E-02 
1333	 3.59415162623242E-02 
1334	 3.41559061169927E-02 
1335	 0.033326879233012 
1336	 3.54093520230662E-02 
1337	 3.95236182098374E-02 
1338	 4.55975043183492E-02 
1339	 4.45202273533003E-02 
1340	 4.15834083812688E-02 
1341	 4.21673791518794E-02 
1342	 3.83870329401502E-02 
1343	 3.39290061969088E-02 
1344	 3.34199823708849E-02 
1345	 0.032902517250911 
1346	 2.04137721895965E-02 
1347	 1.49232891244629E-02 
1348	 2.95910262643006E-02 
1349	 0.048851075262363 
1350	 9.43612686691886E-02 
1351	 0.113572941399708 
1352	 0.102629002460938 
1353	 0.121505675500749 
1354	 5.95356357386052E-02 
1355	-7.75079028532539E-02 
1356	 3.84866543531896E-02 
1357	 0.335262778059534 
1358	 0.348498008046053 
1359	 0.121659721224021 
1360	 0.406112292065233 
1361	 0.612923832356778 
1362	 2.45382054985556E-02 
1363	 1.79562519676609E-02 
1364	 0.306574982160448 
1365	 6.06931242910829 
1366	 2.36644309655059 
1367	 0.664714173773223 
1368	 0.596155134346261 
1369	 0.129758649518303 
1370	-0.109008503366069 
1371	 2.95917650584458E-02 
1372	 0.133075860046171 
1373	-0.12076856106132 
1374	-0.248464234777254 
1375	 8.24659237105078E-02 
1376	 0.22376297343292 
1377	 0.250771448977253 
1378	 7.97933623560308E-02 
1379	-0.31216347697662 
1380	-0.44315754899403 
1381	-1.94465710236619 
1382	-2.63501143789095 
1383	-0.214785642593607 
1384	 1.47361872086668E-02 
1385	-0.497130865789145 
1386	-0.564550758872299 
1387	-0.132022982000411 
1388	 0.186166143383004 
1389	 0.196846630745173 
1390	 0.16853142988133 
1391	 0.35957983194074 
1392	 3.46081286932302E-02 
1393	-0.245769547835607 
1394	-0.163358046533693 
1395	-0.29255209299174 
1396	-0.473968820968798 
1397	-5.22500951168198E-02 
1398	 5.57735689561452E-02 
1399	-0.199432767547405 
1400	-0.200606262544666 
1401	-0.109091111994691 
1402	 4.59720143428086E-02 
1403	-0.354207687482122 
1404	-0.024877395848919 
1405	 0.594890385017177 
1406	 0.910632252823902 
1407	 0.576993966394998 
1408	 0.316342327491646 
1409	 0.598828875623923 
1410	 0.765627822688441 
1411	 0.556683455118438 
1412	 0.511303250397818 
1413	 0.701847024908098 
1414	 0.442051372704796 
1415	 0.203509022203148 
1416	 2.0030429918782 
1417	 2.32093063024103 
1418	 0.346659173521483 
1419	-0.151072191360487 
1420	-0.799302554963934 
1421	-0.364503700204027 
1422	 0.593156109400534 
1423	 0.83773799082803 
1424	 1.3527814888296 
1425	 1.1308600660632 
1426	 0.246697846842839 
1427	 9.50866000109823E-02 
1428	 0.260850882843901 
1429	 0.256831385069175 
1430	 0.319682230714257 
1431	 0.374881654700499 
1432	 0.271889604643179 
1433	 0.273141895808175 
1434	 0.60060572398398 
1435	 0.92177477915626 
1436	 1.83033009906198 
1437	 1.76431978846447 
1438	 1.798568854177 
1439	 1.66831285615018 
1440	 0.870059935679864 
1441	 0.558166123868167 
1442	 0.548145752654759 
1443	 0.390015893693214 
1444	 0.202629916932877 
1445	 0.200288566320868 
1446	 0.207566301895049 
1447	 0.134442600055525 
1448	 9.98630784935262E-02 
1449	 0.113018723493337 
1450	 0.145187204516994 
1451	 0.148811997620941 
1452	 0.129281453751506 
1453	 0.15079698002973 
1454	 0.15929559191771 
1455	 0.116331810627106 
1456	 7.31009853115369E-02 
1457	 0.052325745388872 
1458	 6.94508641290562E-02 
1459	 7.37048950915596E-02 
1460	 7.39525231258017E-02 
1461	 0.122232353768325 
1462	 0.143087755430709 
1463	 0.122723840504532 
1464	 0.11081917806427 
1465	 0.127408505836276 
1466	 0.128896669382743 
1467	 8.62431633983306E-02 
1468	 6.84889037085757E-02 
1469	 7.81388606357844E-02 
1470	 0.091125974440667 
1471	 0.105368532067927 
1472	 8.96742546338462E-02 
1473	 5.93084530980503E-02 
1474	 6.50213775817655E-02 
1475	 8.70945419323219E-02 
1476	 6.82272159850915E-02 
1477	 3.24719979745082E-02 
1478	 4.28187689407665E-02 
1479	 3.51230769666631E-02 
1480	 4.02166937836613E-02 
1481	 0.110337147597209 
1482	 0.116952698857274 
1483	 7.93095693013249E-02 
1484	 0.065849977892701 
1485	 5.61187280388031E-02 
1486	 4.75639155301301E-02 
1487	 0.034496255556217 
1488	 3.66548904032404E-02 
1489	 5.55868247761579E-02 
1490	 5.10984182412324E-02 
1491	 0.03666780389417 
1492	 3.69437906755904E-02 
1493	 3.56607373715927E-02 
1494	 3.14788003846649E-02 
1495	 3.52488275943848E-02 
1496	 3.58681662838706E-02 
1497	 2.96638892515767E-02 
1498	 2.60810545250249E-02 
1499	 2.47586775823548E-02 
1500	 2.44532743804111E-02 
1501	 2.48873773598811E-02 
1502	 2.31094547553607E-02 
1503	 1.98957978244576E-02 
1504	 1.98826074260325E-02 
1505	 1.92551459819372E-02 
1506	 2.00981801327752E-02 
1507	 2.23353593587651E-02 
1508	 2.41233423283493E-02 
1509	 2.62155100116622E-02 
1510	 2.67434445352465E-02 
1511	 2.78319977740939E-02 
1512	 3.06834752834706E-02 
1513	 3.26255271013364E-02 
1514	 3.27779362832875E-02 
1515	 3.05588857553963E-02 
1516	 2.92909644399154E-02 
1517	 2.99239531111821E-02 
1518	 2.98059581149403E-02 
1519	 2.98588307805246E-02 
1520	 3.03274279547548E-02 
1521	 2.97123328740909E-02 
1522	 2.78588068188616E-02 
1523	 2.66473087650388E-02 
1524	 2.64630917394173E-02 
1525	 2.49097009725574E-02 
1526	 2.45137890368301E-02 
1527	 2.61498167181102E-02 
1528	 2.62260594823495E-02 
1529	 2.54752112059603E-02 
1530	 2.54832151415535E-02 
1531	 2.60814632229692E-02 
1532	 2.51851311966143E-02 
1533	 2.48028807130298E-02 
1534	 2.61738334712943E-02 
1535	 0.025469672068447 
1536	 2.54016439156929E-02 
1537	 2.58903572059718E-02 
1538	 2.48460461821832E-02 
1539	 2.43458669869216E-02 
1540	 2.35584465174732E-02 
1541	 2.25887355627774E-02 
1542	 2.21773123640365E-02 
1543	 2.21712892088686E-02 
1544	 2.24214770606948E-02 
1545	 2.35126205126892E-02 
1546	 2.45788014378857E-02 
1547	 0.023627297315904 
1548	 0.024036543208277 
1549	 0.026365870716086 
1550	 2.64027165609461E-02 
1551	 2.57660683874119E-02 
1552	 2.58184823834117E-02 
1553	 2.45403738371369E-02 
1554	 2.33836534125216E-02 
1555	 2.29940318842987E-02 
1556	 2.32650939215766E-02 
1557	 2.44899285305199E-02 
1558	 0.024690964360547 
1559	 2.44925626568326E-02 
1560	 2.45610225204238E-02 
1561	 0.023833777191939 
1562	 2.40054396316458E-02 
1563	 2.59210933114367E-02 
1564	 2.63592897557026E-02 
1565	 2.62751979489835E-02 
1566	 2.74287197768829E-02 
1567	 2.69008450762772E-02 
1568	 0.026873984938811 
1569	 2.82666054288889E-02 
1570	 2.69227901664888E-02 
1571	 2.36085539870629E-02 
1572	 2.29415117423587E-02 
1573	 2.41554301482087E-02 
1574	 2.38483291623607E-02 
1575	 2.45577159933768E-02 
1576	 2.62060548842833E-02 
1577	 2.61235765717351E-02 
1578	 2.62165442797671E-02 
1579	 2.75289530852439E-02 
1580	 2.77090060895327E-02 
1581	 0.026068587363741 
1582	 2.52179484370303E-02 
1583	 2.60316113652435E-02 
1584	 2.71072184828978E-02 
1585	 2.67190483131932E-02 
1586	 2.57083420723082E-02 
1587	 2.59703151088853E-02 
1588	 2.61025057531798E-02 
1589	 2.64952431746645E-02 
1590	 2.76254542515693E-02 
1591	 2.66987378192963E-02 
1592	 2.53002191373269E-02 
1593	 2.52795479738782E-02 
1594	 2.56537131655636E-02 
1595	 2.56042014579124E-02 
1596	 2.44920259918773E-02 
1597	 2.52419453040684E-02 
1598	 2.61404591507109E-02 
1599	 2.46693907060669E-02 
1600	 2.45189738131287E-02 
1601	 0.024423210566201 
1602	 2.44133733774486E-02 
1603	 0.027382540851711 
1604	 2.90655058035285E-02 
1605	 2.84965580042476E-02 
1606	 2.82984443013841E-02 
1607	 0.028189401971535 
1608	 2.81321623557485E-02 
1609	 2.79408347382492E-02 
1610	 0.028170815969773 
1611	 2.73059722803928E-02 
1612	 2.62704394895949E-02 
1613	 0.026781234144608 
1614	 2.64436049449266E-02 
1615	 2.51168615797253E-02 
1616	 2.51647095066947E-02 
1617	 2.55618276714206E-02 
1618	 2.50101880961329E-02 
1619	 2.64768298358535E-02 
1620	 2.70752003520872E-02 
1621	 2.66392270880151E-02 
1622	 2.70332064020066E-02 
1623	 2.52556581171252E-02 
1624	 2.37817425621058E-02 
1625	 2.38856851922573E-02 
1626	 2.46819542616044E-02 
1627	 2.60346947680988E-02 
1628	 2.64801501358698E-02 
1629	 2.55740373387249E-02 
1630	 2.46434217502464E-02 
1631	 2.40403294008535E-02 
1632	 2.43306493760634E-02 
1633	 2.54460245409453E-02 
1634	 2.48800972884299E-02 
1635	 0.023782863478499 
1636	 2.37761236444191E-02 
1637	 2.40615439562986E-02 
1638	 2.42960263421557E-02 
1639	 2.52476562686602E-02 
1640	 2.48240542519444E-02 
1641	 2.22189679145268E-02 
1642	 2.13978640639859E-02 
1643	 2.10460332800825E-02 
1644	 2.17634803959589E-02 
1645	 2.44591015118958E-02 
1646	 2.53706416657617E-02 
1647	 2.59595042749441E-02 
1648	 0.026547053812793 
1649	 0.026462483913233 
1650	 2.68356120346378E-02 
1651	 2.68333263393654E-02 
1652	 2.67523208545295E-02 
1653	 2.56725475705176E-02 
1654	 0.025867201622246 
1655	 2.66302064266543E-02 
1656	 2.61716063325275E-02 
1657	 2.58154502871761E-02 
1658	 2.68672026238832E-02 
1659	 0.02824045982137 
1660	 2.79520344850632E-02 
1661	 0.027320801469652 
1662	 0.02755682641743 
1663	 2.63871432641807E-02 
1664	 2.63432770037434E-02 
1665	 2.93380296197517E-02 
1666	 2.97503712067292E-02 
1667	 2.82237863407869E-02 
1668	 2.68813722555291E-02 
1669	 2.69719081381583E-02 
1670	 2.83105657272301E-02 
1671	 0.027921594913084 
1672	 2.63039292635621E-02 
1673	 2.43070025954401E-02 
1674	 2.43715524073923E-02 
1675	 0.02529855955158 
1676	 2.50272157146094E-02 
1677	 2.61637454745656E-02 
1678	 2.68163224171482E-02 
1679	 2.55906530370932E-02 
1680	 2.55020749834759E-02 
1681	 2.64352066169828E-02 
1682	 2.70631710435698E-02 
1683	 2.65130473265839E-02 
1684	 2.68521626357479E-02 
1685	 0.028708112930335 
1686	 0.028278929417272 
1687	 2.69695054769456E-02 
1688	 2.90406859958637E-02 
1689	 3.03968754393562E-02 
1690	 2.88133477158024E-02 
1691	 2.92295693982842E-02 
1692	 0.028444290595735 
1693	 0.024803081779429 
1694	 2.37954425519912E-02 
1695	 0.024689188782921 
1696	 2.44166641793001E-02 
1697	 2.40053364462935E-02 
1698	 2.54208247740737E-02 
1699	 2.74601829888698E-02 
1700	 2.74030249837056E-02 
1701	 0.026019925641789 
1702	 0.025675600604527 
1703	 2.66524216831816E-02 
1704	 2.70676668804146E-02 
1705	 2.67494929288466E-02 
1706	 2.77425618834943E-02 
1707	 2.59749489621576E-02 
1708	 2.28996568258568E-02 
1709	 2.54571161375058E-02 
1710	 2.74632207944806E-02 
1711	 0.025643886805247 
1712	 2.58014278316537E-02 
1713	 2.70929744686587E-02 
1714	 2.62566710608958E-02 
1715	 2.35682758635701E-02 
1716	 2.47776893841333E-02 
1717	 2.65887113646061E-02 
1718	 2.74041326895386E-02 
1719	 2.87064576290971E-02 
1720	 0.029231363673459 
1721	 2.82860210468088E-02 
1722	 2.76635117459238E-02 
1723	 2.66149761873598E-02 
1724	 2.61263321715092E-02 
1725	 2.78203743710754E-02 
1726	 3.00024997314971E-02 
1727	 2.85570075451716E-02 
1728	 2.71981859546041E-02 
1729	 0.026116404123769 
1730	 2.58896305249694E-02 
1731	 3.05954373510166E-02 
1732	 0.03286038493073 
1733	 0.030274193212755 
1734	 2.47322809713308E-02 
1735	 0.021285839879153 
1736	 2.45463056867516E-02 
1737	 2.97013217223004E-02 
1738	 3.21337090859517E-02 
1739	 0.03337356069773 
1740	 0.033892193505636 
1741	 3.09264103047109E-02 
1742	 0.028821136101862 
1743	 2.96103498178018E-02 
1744	 2.74517317389607E-02 
1745	 2.62305066953351E-02 
1746	 3.49566602574272E-02 
1747	 3.67993037385294E-02 
1748	 0.035385466002169 
1749	 3.55120599387647E-02 
1750	 3.06054302738233E-02 
1751	 3.12508272626296E-02 
1752	 3.93131026988542E-02 
1753	 4.00366535481308E-02 
1754	 3.97067672817064E-02 
1755	 3.88718664376321E-02 
1756	 2.96317538325689E-02 
1757	 2.98612243530748E-02 
1758	 3.61127486622231E-02 
1759	 4.00841906426754E-02 
1760	 4.19296563258695E-02 
1761	 3.63943104023654E-02 
1762	 0.031075939122771 
1763	 3.00739065800232E-02 
1764	 2.73046683378255E-02 
1765	 0.027705082631863 
1766	 2.84014988606238E-02 
1767	 2.41730803525662E-02 
1768	 2.81569511518421E-02 
1769	 3.67629914367002E-02 
1770	 3.39776916499649E-02 
1771	 2.45521771781305E-02 
1772	 1.82290701489171E-02 
1773	 3.05012141930905E-02 
1774	 3.81623986145006E-02 
1775	 0.028749317885226 
1776	 3.43727104187166E-02 
1777	 2.82620387304103E-02 
1778	 2.19052847982638E-02 
1779	 3.73742873693569E-02 
1780	 4.19141192662626E-02 
1781	 2.10508006222788E-02 
1782	 2.06674330590953E-02 
1783	 0.050112807373154 
1784	 5.88621885821796E-02 
1785	 5.30371413142604E-02 
1786	 5.34933462770664E-02 
1787	 0.051792338218556 
1788	 0.045881723856481 
1789	 4.00873581914367E-02 
1790	 0.030261687847497 
1791	 4.71347192148148E-03 
1792	 2.86516181990421E-02 
1793	 5.75704336686381E-02 
1794	 4.47329317096241E-02 
1795	 8.85604733097976E-02 
1796	 0.13680695362026 
1797	 0.139304820226145 
1798	 0.202367031565892 
1799	 0.255561754332334 
1800	 7.12947061751731E-02 
1801	-1.58746121690363E-02 
1802	-6.24213840687071E-02 
1803	-0.170117561810017 
1804	-7.62743731787563E-02 
1805	-0.161704833106098 
1806	-1.13749725041825 
1807	-1.92663681708774 
1808	-3.18669051457547 
1809	 8.33069258837046 
1810	 9.45203737691659 
1811	 5.14776958379549 
1812	 2.62434711677986 
1813	 2.25130454647713 
1814	 1.28765613213035 
1815	 1.02741547707641 
1816	 0.247327229522863 
1817	-0.400639995785014 
1818	 0.592139874059871 
1819	 5.01164368425625 
1820	 3.366761271202 
1821	 0.318361352322286 
1822	 0.347167390246848 
1823	 0.479668905623007 
1824	 0.534375857944922 
1825	 1.44629566395945 
1826	 2.54688937293751 
1827	-61.2269347694361 
1828	-22.4228511692052 
1829	 1.11301928232571 
1830	 0.664030330357923 
1831	 1.11447261132511 
1832	 1.0737009890453 
1833	 1.2456454716234 
1834	 1.18947566369677 
1835	 1.29990904674823 
1836	 1.41116661172174 
1837	 1.29831007644165 
1838	 1.2066107071006 
1839	 0.955791098119185 
1840	 1.86082196401732 
1841	 4.57491594607901 
1842	 2.77401144181674 
1843	 3.18431461075748 
1844	 3.857162497942 
1845	 5.67115023501086 
1846	-3.00613840511995 
1847	-0.970874639133074 
1848	 3.47101341462902 
1849	-1.07824905065033 
1850	-2.17957895295853 
1851	-1.73656359684986 
1852	-0.821374493584071 
1853	-0.856223982553754 
1854	-0.987996552768147 
1855	-0.789208882551338 
1856	-0.588976300988348 
1857	 104.45673925565 
1858	 2.87392013639195 
1859	 1.34538543175533 
1860	 0.185621396423797 
1861	 0.504992380711101 
1862	 0.311680004957736 
1863	 0.358051773696975 
1864	 1.40767920056486 
1865	 1.55183884654574 
1866	 0.520127807049876 
1867	 0.47944247005306 
1868	 0.609452355117305 
1869	 0.580767236360232 
1870	 3.13146018759065 
1871	-15.3591604663537 
1872	 11.0436194743945 
1873	 2.84675514365499 
1874	 4.83463010736867 
1875	-0.409371596532884 
1876	-0.324011403426049 
1877	-1.27381966905802E-02 
1878	-6.00298760193734 
1879	 3.05738055841187 
1880	 2.00834301512425 
1881	 2.21544276366013 
1882	 1.89303014084422 
1883	 1.11833705853287 
1884	 0.941705083536341 
1885	 0.850386927134226 
1886	 1.02047874007068 
1887	 1.76874394511475 
1888	 2.82182674501118 
1889	 2.01683840258496 
1890	 0.297360962626477 
1891	-0.165535291172047 
1892	-0.501321004364074 
1893	-0.383493270065334 
1894	-0.223644803744001 
1895	-3.71910189516246E-02 
1896	 0.65599909710196 
1897	 0.556371151645121 
1898	 0.605969032857459 
1899	 1.46582740956487 
1900	 1.63052328693922 
1901	 1.11186012872004 
1902	 1.03466657810451 
1903	 1.17439617105771 
1904	 0.485967336211833 
1905	-1.05707200482506E-02 
1906	-9.29894371986516E-02 
1907	 0.126591511799356 
1908	 0.334533432557562 
1909	 0.975389215653398 
1910	 1.62148774378919 
1911	 1.52725781284089 
1912	 1.19896150819934 
1913	 1.18493765457818 
1914	-10.469390608702 
1915	 2.12075675486581 
1916	 0.644456210530184 
1917	-0.307250982291079 
1918	-2.21509245688183 
1919	-11.3881932091789 
1920	-24.1862024189185 
1921	-8.07903440049316 
1922	-13.5402845949783 
1923	-9.88732298790374 
1924	-20.0423624505241 
1925	 2.09177133462242 
1926	 0.956569740976479 
1927	 0.782922671460745 
1928	 0.881061224094784 
1929	 1.2959297709865 
1930	 2.63851096762155 
1931	 5.02325189665621 
1932	 24.5166344014199 
1933	 4.94625853688887 
1934	 1.06007003407157 
1935	 0.921128467916687 
1936	 1.04809630140195 
1937	 2.20055180398078 
1938	 2.1853318889018 
1939	 0.89510980192569 
1940	 1.80619963117022E-02 
1941	-9.18878833656675E-02 
1942	-0.692760575282583 
1943	-1.45894745220069 
1944	-3.36059242303507 
1945	-0.501334921155173 
1946	-0.761407057908588 
1947	-0.756399729828489 
1948	-0.845558382051685 
1949	-0.599971261444229 
1950	-0.461561734195238 
1951	-1.33159527484855E-02 
1952	 3.82132014658594 
1953	 8.81173556572837 
1954	 2.15367781337249 
1955	 4.93532976650455 
1956	 11.896727548714 
1957	 17.8194570021558 
1958	 2.53951507323126 
1959	 0.850016529282359 
1960	 0.271221605213673 
1961	 6.72435731044089E-02 
1962	 0.13864208446216 
1963	 0.236208166803116 
1964	 0.25210144898965 
1965	 0.129566093831833 
1966	 0.143064800750882 
1967	 0.135676640630387 
1968	 0.173966106403579 
1969	 0.241290689066329 
1970	 0.300242685217152 
1971	 0.318975306906496 
1972	 0.301540486534758 
1973	 0.26223738271909 
1974	 0.279699616493777 
1975	 0.239131273101666 
1976	 0.139756999602924 
1977	 5.64988609428609E-02 
1978	-3.70239443668358E-02 
1979	-0.104455828737266 
1980	-0.174265030407072 
1981	-0.202291609047862 
1982	-0.161011401609223 
1983	-7.36227438494752E-02 
1984	-1.10027626466824E-02 
1985	-3.79569636425392E-02 
1986	-7.03309382826255E-02 
1987	-0.080236929957998 
1988	-5.33299891659925E-02 
1989	 5.40622123434527E-02 
1990	 0.097453578856794 
1991	 8.78615924960032E-02 
1992	 7.56966938455305E-02 
1993	 3.78089791023965E-02 
1994	 3.77778093679601E-02 
1995	 8.72567000364344E-02 
1996	 0.120833772039452 
1997	 0.154325815259655 
1998	 0.299087463073358 
1999	 0.353022648717678 
2000	 0.351897536942816 
2001	 0.36397396884853 
2002	 0.288742232181946 
2003	 0.207435337355553 
2004	 0.194260382911451 
2005	 0.220479275490551 
2006	 0.237189041988052 
2007	 0.21460755833292 
2008	 0.190010710506733 
2009	 0.18646928852668 
2010	 0.181102332448944 
2011	 0.139858942790854 
2012	 8.26914665080937E-02 
2013	 9.15871499894919E-02 
2014	 5.62739145276121E-02 
2015	 1.41084211192664E-02 
2016	 3.93934891714322E-02 
2017	 7.31748909711282E-02 
2018	 0.106763287311301 
2019	 0.173241174290124 
2020	 0.194406047589605 
2021	 0.203474063594813 
2022	 0.232092240331485 
2023	 0.204639335861149 
2024	 0.182229898018071 
2025	 0.183284844047578 
2026	 0.144927306889669 
2027	 7.04039229120694E-02 
2028	 2.32003426130154E-02 
2029	 8.1293818703494E-03 
2030	 5.03690018817819E-03 
2031	 3.46620282908748E-02 
2032	 6.96671974888551E-02 
2033	 0.0487615336383 
2034	 3.27345252136224E-02 
2035	 3.07232572823065E-02 
2036	-1.01660247791525E-02 
2037	-1.80609862965903E-02 
2038	-1.09242582326707E-03 
2039	-1.30529102662158E-03 
2040	-1.67986062085085E-02 
2041	-3.09950522307034E-03 
2042	 3.15526739810658E-02 
2043	 4.35039146867827E-02 
2044	 5.63500278322519E-02 
2045	 7.11414390559668E-02 
2046	 6.89909922525276E-02 
2047	 4.28986829741105E-02 
2048	 0.040050407871961 
2049	 4.31342366983266E-02 
2050	 3.10998975461212E-02 
2051	 2.34836022569929E-02 
2052	 1.17564001758634E-02 
2053	-2.40241091327347E-02 
2054	-2.45915863832252E-02 
2055	 1.05368005494041E-02 
2056	 1.01910211321391E-02 
2057	-1.90444559218539E-03 
2058	 1.03751041243298E-02 
2059	 6.09584656501308E-03 
2060	 5.02463770330603E-03 
2061	 0.020673835409622 
2062	 3.93967249320558E-02 
2063	 4.98435613604178E-02 
2064	 5.10139786618849E-02 
2065	 5.44953610223762E-02 
2066	 7.33851361166964E-02 
2067	 4.85215476327711E-02 
2068	 1.21832164698785E-02 
2069	-0.010475484210438 
2070	-1.25431682895545E-02 
2071	 8.80434681412418E-03 
2072	 3.53792839836055E-02 
2073	 4.83681033927248E-02 
2074	 5.94798058093858E-02 
2075	 6.02313541713368E-02 
2076	 5.36128019612847E-02 
2077	 4.67911159150669E-02 
2078	 2.64337793813609E-02 
2079	 2.63326136050204E-02 
2080	 0.034083734966237 
2081	 3.78402088559512E-02 
2082	 4.86671652659681E-02 
2083	 6.32933232829783E-02 
2084	 3.93444071932517E-02 
2085	 1.76770949410759E-02 
2086	 1.58959804039194E-02 
2087	 1.30841735847634E-02 
2088	 3.19793597173366E-02 
2089	 5.13440866221261E-02 
2090	 5.28477973698251E-02 
2091	 5.52114055053932E-02 
2092	 5.05816568818689E-02 
2093	 2.98409403618814E-02 
2094	 2.52419520996866E-02 
2095	 0.024607492809546 
2096	 2.42661906221799E-02 
2097	 3.25719880925105E-02 
2098	 3.68642507724414E-02 
2099	 4.27475130280813E-02 
2100	 4.01695053694359E-02 
2101	 3.28688177395934E-02 
2102	 2.73724828083316E-02 
2103	 2.70377591920087E-02 
2104	 2.97888939430245E-02 
2105	 0.03117054766736 
2106	 3.47551329370403E-02 
2107	 3.67177260350323E-02 
2108	 3.00851601803761E-02 
2109	 2.23508424929178E-02 
2110	 3.35860741177795E-02 
2111	 4.58325709543076E-02 
2112	 4.66764965572693E-02 
2113	 4.64727472211594E-02 
2114	 4.30065866901101E-02 
2115	 4.39210237377017E-02 
2116	 4.44511427297158E-02 
2117	 4.44787817380973E-02 
2118	 4.97523487298801E-02 
2119	 4.81415591901169E-02 
2120	 3.94869256105252E-02 
2121	 3.13525801821627E-02 
2122	 2.21833631079181E-02 
2123	 2.53290260872892E-02 
2124	 2.04198366848471E-02 
2125	 7.01482558764885E-03 
2126	 5.90625928649136E-03 
2127	 8.07038525780946E-03 
2128	 1.17271895246418E-02 
2129	 1.94678689133924E-02 
2130	 2.10145545506341E-02 
2131	 2.43471528773363E-02 
2132	 2.95689253027888E-02 
2133	 3.53287646009811E-02 
2134	 4.01081982352594E-02 
2135	 4.35117712742618E-02 
2136	 4.46853522138022E-02 
2137	 4.44027986817094E-02 
2138	 4.53774446416042E-02 
2139	 5.10503249630455E-02 
2140	 5.07771313025778E-02 
2141	 0.044986430998036 
2142	 4.58125738728996E-02 
2143	 5.00050574992631E-02 
2144	 3.72896059019585E-02 
2145	 5.04706534344848E-02 
2146	 5.72333149048157E-02 
2147	 3.76862985577015E-02 
2148	 0.031893733519308 
2149	 1.74899410918696E-02 
2150	 1.07864098497093E-02 
2151	 2.28510314306712E-02 
2152	 2.53552457983503E-02 
2153	 3.14058473471535E-02 
2154	 1.93411076276738E-02 
2155	 2.11974928127197E-03 
2156	 3.68996363100073E-03 
2157	 1.69850563104802E-03 
2158	 4.08416766022563E-03 
2159	 2.37093182443687E-03 
2160	-6.1158653473845E-03 
2161	-9.64696684884396E-05 
2162	 1.49817806814937E-02 
2163	 1.91872564395353E-02 
2164	 3.22812496692658E-02 
2165	 3.59425231173206E-02 
2166	 2.74060944841285E-02 
2167	 2.18689635702092E-02 
2168	 9.09592839994764E-03 
2169	 6.79485320354478E-03 
2170	 8.62038634361994E-03 
2171	 8.30858561989522E-03 
2172	 1.41698836437336E-02 
2173	 2.43657394059623E-02 
2174	 3.13287576184166E-02 
2175	 3.73624567067662E-02 
2176	 3.92298922280539E-02 
2177	 3.84080383634223E-02 
2178	 3.89616331998922E-02 
2179	 2.27397005007927E-02 
2180	 1.43066882635655E-02 
2181	 3.74918346527934E-02 
2182	 4.96349689383835E-02 
2183	 4.85425983681537E-02 
2184	 4.82734796832685E-02 
2185	 3.63481022997905E-02 
2186	 3.14018207057151E-02 
2187	 2.78235086489128E-02 
2188	 2.79650920520878E-02 
2189	 2.59558065994975E-02 
2190	 3.08603073754782E-02 
2191	 4.41186271899992E-02 
2192	 4.86204883586118E-02 
2193	 6.11590937911418E-02 
2194	 6.82479187101103E-02 
2195	 6.45073378932785E-02 
2196	 0.054248830495628 
2197	 0.035211930838311 
2198	 2.57056915699767E-02 
2199	 6.28723402820199E-03 
2200	 7.39790356380603E-03 
2201	 2.14790012656596E-02 
2202	 3.12080831067561E-02 
2203	 4.62724678470983E-02 
2204	 5.52621391923094E-02 
2205	 4.79016332014573E-02 
2206	 4.69039432179257E-02 
2207	 3.44638044820566E-02 
2208	 1.40165047997889E-02 
2209	 1.26943988041333E-02 
2210	 8.28544744426739E-03 
2211	 1.04499686023658E-02 
2212	 1.27886664537721E-02 
2213	 2.79861436403202E-04 
2214	 1.35342221190081E-02 
2215	 2.67527773611136E-02 
2216	 2.10702844964633E-02 
2217	 8.16064436478713E-03 
2218	-1.92218255387354E-02 
2219	-3.41396973310162E-02 
2220	-5.79866338788817E-02 
2221	-6.49934778387081E-02 
2222	-0.057575113531898 
2223	-4.57179558383356E-02 
2224	-2.06001471902576E-02 
2225	-1.20269040628236E-02 
2226	 2.83334230504159E-03 
2227	 1.19705537172585E-02 
2228	-4.76601803750056E-03 
2229	-3.74929867984626E-03 
2230	 1.45664995036894E-02 
2231	 0.021624187297072 
2232	 2.23170602766361E-02 
2233	 3.43324408551065E-02 
2234	 5.54255849987963E-02 
2235	 6.20061715726472E-02 
2236	 6.20029136130257E-02 
2237	 4.88192071564031E-02 
2238	 2.52908022149753E-02 
2239	 2.12807041543025E-02 
2240	 2.28710759505212E-02 
2241	 2.16226336499236E-02 
2242	 7.25694080997703E-03 
2243	-1.61400505877975E-02 
2244	-4.30665996869569E-02 
2245	-5.77852685324865E-02 
2246	-4.25938179033256E-02 
2247	-3.64344542526179E-02 
2248	-2.79248466487514E-02 
2249	-1.39846609598628E-02 
2250	-1.59351671605112E-02 
2251	-2.05486922591042E-02 
2252	-1.01981889879766E-02 
2253	 2.31165893653676E-02 
2254	 5.11722300909633E-02 
2255	 7.31081152843638E-02 
2256	 4.74733063378506E-02 
2257	 7.07669555545383E-03 
2258	-7.46834983887868E-03 
2259	-5.13002023297527E-02 
2260	-6.12433389760012E-02 
2261	-2.55746251086813E-02 
2262	-1.05587795278817E-02 
2263	 1.42973082366093E-02 
2264	 1.84717186597999E-02 
2265	 2.00646360788524E-02 
2266	-2.8687101676586E-03 
2267	-7.87139113796591E-02 
2268	-0.100502705223426 
2269	-0.115281593243534 
2270	-0.115170085321499 
2271	-7.42812001141013E-02 
2272	-4.41580175711601E-02 
2273	-0.014036206157942 
2274	 1.47714909872964E-02 
2275	 6.59099859495457E-02 
2276	 8.63595896288005E-02 
2277	 8.65143818165603E-02 
2278	 9.12528828225785E-02 
2279	 8.60966831051972E-02 
2280	 0.072641358964096 
2281	 0.045019424651334 
2282	 2.53940962493383E-02 
2283	 4.28072734043278E-02 
2284	 3.97758131388432E-02 
2285	 3.05300935922683E-02 
2286	 5.64725952208603E-02 
2287	 2.74837316489951E-02 
2288	-2.86326742992406E-02 
2289	-1.11755339356281E-02 
2290	-5.18033751769801E-03 
2291	-1.42717051541548E-02 
2292	 3.52518560963979E-02 
2293	 9.18155306775865E-02 
2294	 9.67649240385926E-02 
2295	 8.26845872374086E-02 
2296	 5.16656817957828E-02 
2297	-2.30402353441537E-03 
2298	-6.60203388974238E-03 
2299	-3.39342804656209E-02 
2300	-5.74680980328865E-02 
2301	-2.71162460030567E-02 
2302	-4.18728878162346E-02 
2303	-3.39867786557142E-02 
2304	-1.26619637080702E-02 
2305	-1.64806470542038E-02 
2306	-4.41033037238861E-04 
2307	 2.92681403545227E-02 
2308	 6.42763717569077E-02 
2309	 7.86097617062189E-02 
2310	 6.94393505252391E-02 
2311	 0.055420880051514 
2312	 5.68377451798666E-02 
2313	 8.27624014680858E-02 
2314	 5.14966928674413E-02 
2315	-2.89547587368072E-02 
2316	-0.032753069946502 
2317	-2.02214410875741E-02 
2318	-5.05561230414378E-03 
2319	 0.112662706599904 
2320	 0.115044736365139 
2321	 0.073447033380911 
2322	 0.123110365537651 
2323	 0.119181103642088 
2324	 0.169125772482558 
2325	 0.196256271551648 
2326	 0.181213111160298 
2327	 0.222061536284438 
2328	 0.186922994344043 
2329	 0.130244486920754 
2330	 9.98872080748051E-02 
2331	 0.147132594588043 
2332	 0.141234223142151 
2333	 0.057399077686244 
2334	 2.36414587291921E-02 
2335	-6.12851160394734E-02 
2336	-0.106283502843956 
2337	-5.41423882894689E-02 
2338	-3.25899206538793E-02 
2339	-5.94354289651808E-03 
2340	-1.17094650524982E-02 
2341	-0.202484540610956 
2342	-0.372421969412143 
2343	-0.358979154392515 
2344	-0.31597657187363 
2345	-0.141266998667165 
2346	 0.139150056844055 
2347	 0.153946248655791 
2348	-0.130474092007533 
2349	-0.214141164297906 
2350	-0.19199374166041 
2351	-0.242327879460543 
2352	-0.173745782372163 
2353	 2.68680594878116E-02 
2354	 0.099787248354213 
2355	 0.19771622436648 
2356	 0.32622202488579 
2357	 0.45564220581898 
2358	 0.546431102269978 
2359	 0.512185469974026 
2360	 0.86297623311764 
2361	 0.543582546596568 
2362	 0.222682845734786 
2363	 0.270449747020954 
2364	 0.059012544432059 
2365	-0.172770070082377 
2366	-0.170954083544201 
2367	-0.426490834628389 
2368	-0.700313387959559 
2369	-0.338393700924924 
2370	-0.509719834766116 
2371	-0.793227659735361 
2372	-1.48052521044617 
2373	 1.44105088725965 
2374	 1.44417989161033 
2375	 7.26181892306701E-02 
2376	-0.396165150482881 
2377	-0.023226911800399 
2378	 0.722123611841099 
2379	 1.13559043034067 
2380	-0.203951110804863 
2381	 0.296537020103532 
2382	 0.105683483436096 
2383	 2.49451933965396E-02 
2384	-0.821768006784717 
2385	 8.96430334566759 
2386	 0.416753350812541 
2387	 0.435224050093502 
2388	 0.586680902183615 
2389	 0.884849228996121 
2390	 1.45928593164503 
2391	 5.69907397542737 
2392	-3.14981476987723 
2393	-0.889422368172482 
2394	-1.25387568217971 
2395	-0.880244943728521 
2396	-0.730075528515166 
2397	-0.839858911526793 
2398	-0.509357227150974 
2399	 8.84563060427029E-03 
2400	 1.29422806303514 
2401	 19.2729939512412 
2402	 8.80116922358514 
2403	 3.74665405585295 
2404	 4.27923267155656 
2405	 7.62212065426297 
2406	 12.2850487967468 
2407	-0.334320080579322 
2408	-0.804103544126146 
2409	 3.76465992759416 
2410	-0.204835284076454 
2411	-0.200629046605264 
2412	-0.336443482036642 
2413	 0.16361058824136 
2414	 0.362833753106545 
2415	-0.982566864182234 
2416	-2.30030576627117 
2417	-5.04881788032582 
2418	-3.28860447703194 
2419	-2.57345431314086 
2420	-7.75822347714822 
2421	-2.14813617591614 
2422	-2.75029831487324 
2423	-22.311350199305 
2424	 2.59771455173227 
2425	-32.0595600748616 
2426	-7.3564585674841 
2427	 11.674427664038 
2428	 2.66764354440779 
2429	 0.696862848766396 
2430	 99.7396146719111 
2431	 4.70895673887653 
2432	 1.10077421880793 
2433	 0.270242144412835 
2434	-0.421871845425982 
2435	-0.537995750933066 
2436	-1.19031883174892 
2437	-3.15415129810629 
2438	-3.68377852232943 
2439	 1.13504432252891 
2440	-2.08512893867341E-02 
2441	-0.377810079645139 
2442	-4.47020609617968E-02 
2443	 0.390492666430072 
2444	 0.649295352852481 
2445	 0.919917010312861 
2446	 0.919434671238592 
2447	 0.572532344122373 
2448	 0.60957485683689 
2449	 1.63381560278153 
2450	 1.65356043509954 
2451	 0.903323809865494 
2452	 0.572169530918141 
2453	 0.230878669637431 
2454	 0.179907920142053 
2455	 0.411104203299228 
2456	 0.560424220134606 
2457	 1.04367321290764 
2458	 0.768900595932763 
2459	 0.825405863031302 
2460	 1.27713137230366 
2461	 1.06095050726387 
2462	 1.48540764037671 
2463	 1.36282286113587 
2464	 0.631881929450916 
2465	 0.328914388225734 
2466	-0.233893549363933 
2467	-0.692644927908503 
2468	-0.56379286219819 
2469	 0.727693828941062 
2470	 0.593031245599161 
2471	 0.538900006283693 
2472	 0.8349000332131 
2473	 0.372040623261981 
2474	 0.19324922420856 
2475	 0.29437967113094 
2476	-4.98899421842466E-02 
2477	-0.573978673287758 
2478	-0.514648209317875 
2479	-0.747983451542189 
2480	-1.30973752834961 
2481	 0.250025752572512 
2482	 0.941123915648901 
2483	 1.32907381203133 
2484	-11.828943229973 
2485	-1.232191960485 
2486	 0.124486375630696 
2487	-2.28647493301586 
2488	-0.502365408405933 
2489	-0.225420754151054 
2490	 0.230985804448662 
2491	 0.29983632907654 
2492	 4.03563405332474E-02 
2493	 8.01063480764114E-03 
2494	 0.539447129409472 
2495	 0.844435175912081 
2496	 0.90839096239817 
2497	 0.996157475928681 
2498	 0.623401570425927 
2499	 0.621881534266047 
2500	 6.12809180640082 
