Wavelength	rt0727close00000.asd
350	 5.81254738926753E-02 
351	 5.84122507466927E-02 
352	 5.84118562381654E-02 
353	 5.80466021670389E-02 
354	 5.76551819450962E-02 
355	 5.83759145977684E-02 
356	 5.88830277544364E-02 
357	 5.87719778918761E-02 
358	 5.82154726685454E-02 
359	 5.83236961102396E-02 
360	 5.84972649175732E-02 
361	 5.85706183886689E-02 
362	 5.87162522142781E-02 
363	 5.89088624853202E-02 
364	 5.91214820959976E-02 
365	 5.92569721143996E-02 
366	 5.91115293478829E-02 
367	 5.90792145908916E-02 
368	 5.91387680920844E-02 
369	 5.92440943874846E-02 
370	 5.98221289679631E-02 
371	 0.059398763486799 
372	 5.84063894357973E-02 
373	 5.83712391908626E-02 
374	 5.93936986142403E-02 
375	 5.97628686247985E-02 
376	 5.92335256993119E-02 
377	 5.97754161605634E-02 
378	 5.98731527583357E-02 
379	 6.01117526615579E-02 
380	 6.09775481455414E-02 
381	 6.11289315843072E-02 
382	 6.15153573054308E-02 
383	 6.16264081773642E-02 
384	 6.06008582350727E-02 
385	 6.01683400582927E-02 
386	 6.03163714588846E-02 
387	 6.08442033231357E-02 
388	 6.15109389802443E-02 
389	 6.16944914086712E-02 
390	 6.18243922667825E-02 
391	 6.22314678622799E-02 
392	 6.24980854111378E-02 
393	 6.24779232698172E-02 
394	 6.23648454332101E-02 
395	 6.24659912433354E-02 
396	 6.29406792628496E-02 
397	 6.31345375030082E-02 
398	 6.30482640263322E-02 
399	 6.32503072287351E-02 
400	 6.36124640510563E-02 
401	 6.37163600131043E-02 
402	 6.35412326421564E-02 
403	 6.40724637285279E-02 
404	 6.42591971031375E-02 
405	 6.42035367830827E-02 
406	 0.064365160051094 
407	 6.45970672597667E-02 
408	 6.46114810289552E-02 
409	 6.45489854064976E-02 
410	 6.49298666661484E-02 
411	 6.51357051208919E-02 
412	 6.51561520685645E-02 
413	 6.51069177134245E-02 
414	 6.50619673909255E-02 
415	 6.54007946986386E-02 
416	 6.59595843550547E-02 
417	 6.63317801979765E-02 
418	 6.61900881110154E-02 
419	 6.62897494131683E-02 
420	 6.66897259237675E-02 
421	 6.66498277960796E-02 
422	 6.67083767486769E-02 
423	 6.71017513686523E-02 
424	 6.77182361215254E-02 
425	 0.067631136049169 
426	 6.79205055390788E-02 
427	 6.84605086632486E-02 
428	 6.86270428407456E-02 
429	 6.88406267059076E-02 
430	 6.91295078887312E-02 
431	 6.94752568327677E-02 
432	 6.98463573728887E-02 
433	 7.01691651417864E-02 
434	 7.04859801954592E-02 
435	 7.08161141219036E-02 
436	 0.070984361966688 
437	 7.14576765285912E-02 
438	 7.20636150344202E-02 
439	 7.23284692619127E-02 
440	 7.25322551505639E-02 
441	 7.28121176517684E-02 
442	 7.32063256082004E-02 
443	 7.36418004792539E-02 
444	 7.38222851422069E-02 
445	 7.40959551198736E-02 
446	 7.47442461179932E-02 
447	 7.50809894460842E-02 
448	 7.53523475769892E-02 
449	 7.55566605637752E-02 
450	 7.55469737067372E-02 
451	 0.075877199313334 
452	 7.61682678770148E-02 
453	 0.076237245635383 
454	 7.65895386565612E-02 
455	 7.69122662236344E-02 
456	 7.70866710130619E-02 
457	 7.71370914198019E-02 
458	 7.74708279228486E-02 
459	 7.76643231709896E-02 
460	 7.76914728663203E-02 
461	 7.79439178192381E-02 
462	 7.79906693638123E-02 
463	 7.80740436571257E-02 
464	 0.078375259734083 
465	 7.85364269829626E-02 
466	 7.87443202537459E-02 
467	 7.89786027445174E-02 
468	 7.91526307059412E-02 
469	 0.079468728764159 
470	 7.96844532984498E-02 
471	 7.97858799262055E-02 
472	 8.01119764684472E-02 
473	 8.03912188792726E-02 
474	 8.06579367436434E-02 
475	 8.09451481283508E-02 
476	 8.09552437573815E-02 
477	 8.11950378115371E-02 
478	 8.16248195068429E-02 
479	 8.18568192136837E-02 
480	 8.22229199646447E-02 
481	 8.24553050749564E-02 
482	 8.24932450211488E-02 
483	 8.28467473926139E-02 
484	 8.32707182901967E-02 
485	 8.35404863219461E-02 
486	 8.35658380366127E-02 
487	 8.39377722524754E-02 
488	 8.43217724032296E-02 
489	 8.46389378311237E-02 
490	 8.50979453330657E-02 
491	 8.54851866657687E-02 
492	 8.58073576108879E-02 
493	 8.61537214451849E-02 
494	 8.67407351625773E-02 
495	 0.087232212264132 
496	 8.76201161545731E-02 
497	 0.088058207956073 
498	 8.84790245686928E-02 
499	 8.89523951428498E-02 
500	 8.95215634060032E-02 
501	 9.01726306198399E-02 
502	 9.08237606809157E-02 
503	 9.14006604376583E-02 
504	 9.18981023168354E-02 
505	 9.25671437441272E-02 
506	 9.30153837840432E-02 
507	 9.34176131452234E-02 
508	 9.43294868635616E-02 
509	 9.48191525449011E-02 
510	 9.53063874049814E-02 
511	 9.60854660451216E-02 
512	 9.66456904075068E-02 
513	 0.097311489600825 
514	 9.80086733905898E-02 
515	 9.85660819429757E-02 
516	 9.94368170113278E-02 
517	 0.100201157938628 
518	 0.10074221358195 
519	 0.101408140865144 
520	 0.102159914840764 
521	 0.102894602692889 
522	 0.103576585426901 
523	 0.104470778461872 
524	 0.105261332946033 
525	 0.105941696452597 
526	 0.106716787400098 
527	 0.107412490601278 
528	 0.108246832098514 
529	 0.109211008389093 
530	 0.109722268585859 
531	 0.110423074472229 
532	 0.111296626859526 
533	 0.112130899113271 
534	 0.113158076652606 
535	 0.11406465624331 
536	 0.114855224364463 
537	 0.115913489794251 
538	 0.116686735224349 
539	 0.117415695119561 
540	 0.118392260606428 
541	 0.119432440042802 
542	 0.12042592206918 
543	 0.121345950681055 
544	 0.122234960133511 
545	 0.123129871137729 
546	 0.124165418845867 
547	 0.125308750783997 
548	 0.126188930121598 
549	 0.127102686342473 
550	 0.128007322900688 
551	 0.128806074832569 
552	 0.129768991940621 
553	 0.130791869036707 
554	 0.131795561056293 
555	 0.132748490172046 
556	 0.13351106563351 
557	 0.134433644809176 
558	 0.1356779088588 
559	 0.136430893236835 
560	 0.137260295917489 
561	 0.138178131077436 
562	 0.138885382470657 
563	 0.139687008857119 
564	 0.140460205504973 
565	 0.141144469428201 
566	 0.141920162788381 
567	 0.142551187786994 
568	 0.143073723322818 
569	 0.143630089643765 
570	 0.144345206778341 
571	 0.14483528419557 
572	 0.145135268453218 
573	 0.145741125842 
574	 0.146216996027762 
575	 0.146565549157243 
576	 0.146900555467245 
577	 0.147374008927656 
578	 0.147781900139626 
579	 0.148106815287894 
580	 0.148441724274637 
581	 0.148711700435652 
582	 0.1489737849344 
583	 0.149251570851945 
584	 0.149470203812069 
585	 0.149803877078225 
586	 0.150167188926064 
587	 0.150383662050773 
588	 0.150369810069086 
589	 0.150588979076314 
590	 0.151065002499223 
591	 0.151333257240219 
592	 0.151335593716986 
593	 0.151328985237967 
594	 0.151517089139935 
595	 0.151777987572158 
596	 0.151674737074876 
597	 0.151461320029531 
598	 0.15167531421242 
599	 0.151578268102619 
600	 0.151379019146602 
601	 0.151293115974953 
602	 0.151371054236094 
603	 0.151312178057623 
604	 0.151232168162136 
605	 0.151300522555589 
606	 0.151186997192802 
607	 0.151211872351763 
608	 0.151302257422719 
609	 0.150985280723358 
610	 0.15107690941007 
611	 0.151064831140238 
612	 0.15059947513658 
613	 0.150657394948193 
614	 0.150711892273229 
615	 0.150624519699357 
616	 0.150482328289476 
617	 0.150336327688781 
618	 0.150354967251002 
619	 0.150443029460834 
620	 0.150045923362639 
621	 0.150029652179193 
622	 0.150201494155844 
623	 0.150152963052246 
624	 0.150280980537946 
625	 0.150290339933817 
626	 0.150212655392115 
627	 0.150389760175144 
628	 0.150314358443818 
629	 0.150243563772652 
630	 0.150342373476382 
631	 0.150115299263838 
632	 0.150100002365111 
633	 0.150187404533432 
634	 0.150035173328205 
635	 0.150085034557563 
636	 0.150191156338975 
637	 0.150261694159001 
638	 0.150361942538017 
639	 0.15055597447477 
640	 0.150648550487079 
641	 0.150520286284825 
642	 0.150675577138304 
643	 0.150819246557934 
644	 0.150847066321164 
645	 0.150835176396567 
646	 0.151022335568232 
647	 0.150991549502079 
648	 0.150586715955348 
649	 0.150573409589246 
650	 0.150201343984051 
651	 0.149729783643349 
652	 0.149658793019432 
653	 0.149253469484335 
654	 0.148762850483644 
655	 0.148173223754239 
656	 0.147139103899018 
657	 0.14636252019041 
658	 0.145575421934824 
659	 0.144542590876771 
660	 0.143863427894217 
661	 0.142922226633454 
662	 0.141763181291883 
663	 0.140839372661919 
664	 0.139975359306771 
665	 0.139309425314933 
666	 0.138806212443286 
667	 0.138076902974893 
668	 0.137455398342789 
669	 0.137044923748103 
670	 0.136857961191057 
671	 0.136839364101196 
672	 0.1369348739153 
673	 0.137086943110653 
674	 0.137248077547791 
675	 0.137529352496964 
676	 0.138083113593249 
677	 0.138880910902944 
678	 0.139419334416161 
679	 0.140097094430483 
680	 0.140920800554998 
681	 0.141775638883812 
682	 0.143011220369805 
683	 0.144327144920181 
684	 0.145558832031436 
685	 0.146929546531987 
686	 0.148501513262347 
687	 0.15025069044122 
688	 0.151944130059342 
689	 0.153376156285272 
690	 0.154579029394847 
691	 0.155770023713258 
692	 0.157239668712385 
693	 0.158537584797823 
694	 0.159420446242466 
695	 0.159953782356742 
696	 0.160586053715245 
697	 0.161334291875307 
698	 0.161931366886428 
699	 0.162080919005106 
700	 0.162534086588306 
701	 0.162813135253568 
702	 0.162820087966183 
703	 0.162801434289752 
704	 0.162741829640815 
705	 0.16263284026331 
706	 0.162456047511315 
707	 0.162171117205124 
708	 0.161762420738199 
709	 0.161373407860302 
710	 0.16110252318679 
711	 0.160444708881386 
712	 0.159762360477708 
713	 0.159132064744159 
714	 0.158273001174221 
715	 0.15792493970367 
716	 0.157716514209658 
717	 0.15697897816985 
718	 0.155735909469449 
719	 0.154332041824686 
720	 0.153111256226671 
721	 0.151910272749974 
722	 0.151099465437316 
723	 0.150134086896126 
724	 0.149011979283226 
725	 0.148141296833273 
726	 0.146695368900275 
727	 0.144828058873005 
728	 0.142820054148546 
729	 0.140687876833104 
730	 0.138278244823351 
731	 0.136047069048824 
732	 0.134263066811287 
733	 0.132638356742218 
734	 0.13116599977241 
735	 0.129862282057195 
736	 0.128714056507352 
737	 0.12781239793447 
738	 0.127139373782154 
739	 0.126667935374927 
740	 0.126412122824573 
741	 0.12600312603173 
742	 0.125756603448178 
743	 0.126136121226634 
744	 0.12588721119991 
745	 0.125760336817412 
746	 0.126001744216095 
747	 0.125932134457193 
748	 0.125912860609596 
749	 0.125888643329259 
750	 0.125804746200812 
751	 0.125922977654217 
752	 0.126125072336496 
753	 0.126272194430181 
754	 0.126244945111721 
755	 0.126147141889059 
756	 0.126127680561333 
757	 0.126224740735185 
758	 0.126348152507836 
759	 0.127188244331657 
760	 0.128234785974051 
761	 0.12778228418403 
762	 0.1275700091492 
763	 0.12756034128066 
764	 0.127504523060141 
765	 0.127253203016417 
766	 0.127286896581959 
767	 0.12738350937484 
768	 0.127491592485955 
769	 0.1277065756481 
770	 0.127996703708192 
771	 0.128250289239758 
772	 0.128403714761145 
773	 0.128532982342167 
774	 0.12890116845252 
775	 0.129347128175502 
776	 0.129566715552997 
777	 0.129628046858711 
778	 0.129937894099306 
779	 0.130428386273375 
780	 0.130571490573341 
781	 0.130919395431957 
782	 0.131245265150456 
783	 0.131441256655031 
784	 0.132006724036884 
785	 0.132552288602412 
786	 0.132892114524418 
787	 0.133045174896516 
788	 0.133716674216766 
789	 0.134175386377205 
790	 0.134367996968134 
791	 0.134813188739943 
792	 0.134963067875229 
793	 0.13528381090969 
794	 0.135917656305771 
795	 0.136252350449999 
796	 0.13646314571361 
797	 0.13670063683949 
798	 0.137048099734381 
799	 0.137299103760103 
800	 0.137497689431186 
801	 0.137808483546187 
802	 0.138306015191188 
803	 0.137922180659661 
804	 0.137860778398874 
805	 0.13832494112496 
806	 0.13830822329544 
807	 0.138112500229665 
808	 0.137936886118815 
809	 0.137873657957651 
810	 0.137721068430679 
811	 0.137573004397511 
812	 0.137502872678182 
813	 0.137503404852089 
814	 0.137097405468956 
815	 0.136441684356569 
816	 0.135736451083852 
817	 0.135104431816736 
818	 0.13446830777653 
819	 0.133991143163859 
820	 0.133393961713227 
821	 0.1318677770739 
822	 0.130828839927348 
823	 0.129706099668922 
824	 0.127977377556592 
825	 0.126214223837457 
826	 0.124311382129138 
827	 0.122207497866233 
828	 0.120101155191059 
829	 0.118430662865759 
830	 0.116617812947698 
831	 0.114609548619399 
832	 0.112837964379157 
833	 0.111332489488239 
834	 0.110118636717402 
835	 0.109293511017435 
836	 0.109074615058372 
837	 0.108369750099003 
838	 0.107506063589283 
839	 0.106865089025044 
840	 0.106077811096469 
841	 0.105988367638961 
842	 0.105957240346222 
843	 0.105175758461408 
844	 0.104737637671431 
845	 0.103905613341551 
846	 0.103008452886362 
847	 0.102968161270289 
848	 0.102851001877392 
849	 0.102577936132848 
850	 0.102230018980922 
851	 0.101939409109373 
852	 0.101011896237696 
853	 0.100278364697062 
854	 0.100206914647004 
855	 9.98052370936244E-02 
856	 9.94919401192026E-02 
857	 0.099573898543968 
858	 9.99298646883764E-02 
859	 9.90451298891828E-02 
860	 9.83445800737288E-02 
861	 9.80161958090188E-02 
862	 9.76055576760152E-02 
863	 9.71057787329619E-02 
864	 9.69817932766908E-02 
865	 9.68285521126546E-02 
866	 9.56761262022012E-02 
867	 9.53810112087325E-02 
868	 9.55548844254939E-02 
869	 9.54331848594786E-02 
870	 9.42831314723136E-02 
871	 9.34479311584674E-02 
872	 9.34380992870512E-02 
873	 9.38471977166131E-02 
874	 9.27274597135373E-02 
875	 9.20065252639783E-02 
876	 9.14844424560942E-02 
877	 9.06768140191147E-02 
878	 9.06648644307455E-02 
879	 9.04194383442997E-02 
880	 8.96286840053095E-02 
881	 8.85436613840716E-02 
882	 8.80919451919502E-02 
883	 8.78312221692745E-02 
884	 8.74816901777998E-02 
885	 8.70212451607162E-02 
886	 8.70253298618753E-02 
887	 8.60552787324987E-02 
888	 8.44756080726937E-02 
889	 8.47363498309103E-02 
890	 8.46862886474139E-02 
891	 8.43796188858481E-02 
892	 8.39290156333793E-02 
893	 8.27882695226291E-02 
894	 0.082492876821667 
895	 8.26231160257984E-02 
896	 8.23993769448404E-02 
897	 8.24446004095121E-02 
898	 8.30133597674277E-02 
899	 8.23126028801372E-02 
900	 7.94646612689521E-02 
901	 7.83388767363949E-02 
902	 7.84205197711245E-02 
903	 7.86731276075577E-02 
904	 7.81424525923112E-02 
905	 7.70909685442854E-02 
906	 7.58873530028157E-02 
907	 7.52294189629613E-02 
908	 7.58225014127892E-02 
909	 7.63744253387684E-02 
910	 7.56870013390064E-02 
911	 7.48145830805694E-02 
912	 7.60105319462044E-02 
913	 7.30023038451129E-02 
914	 7.00734767707291E-02 
915	 0.069875449890656 
916	 7.08299234517098E-02 
917	 6.75161607097334E-02 
918	 6.52271686546851E-02 
919	 6.53545204054947E-02 
920	 6.30386892110726E-02 
921	 0.06244901446508 
922	 6.20975404339845E-02 
923	 6.05205990569913E-02 
924	 5.85596648417463E-02 
925	 5.87625578342346E-02 
926	 5.85947359362902E-02 
927	 5.51065575513563E-02 
928	 5.24456822080895E-02 
929	 5.53001465737886E-02 
930	 6.13097276507275E-02 
931	 6.15139229270435E-02 
932	 0.057715726808514 
933	 4.55630887894468E-02 
934	 3.19706624244089E-02 
935	 0.029035857217666 
936	 3.97212193955448E-02 
937	 4.74014568098363E-02 
938	 4.85900755359885E-02 
939	 4.52643679505616E-02 
940	 4.11295871995702E-02 
941	 2.78252402468521E-02 
942	 2.16168179649785E-02 
943	 4.04340793809865E-02 
944	 2.40661413401335E-02 
945	 2.19470334056975E-02 
946	 3.59156853686557E-02 
947	 3.70620942373425E-02 
948	 2.61787484101194E-02 
949	 2.42165134758641E-02 
950	 3.44266468667419E-02 
951	 4.51984501142713E-02 
952	 3.30776039292189E-02 
953	 2.37000096187267E-02 
954	 3.11045716102398E-02 
955	 5.05733386383237E-02 
956	 4.33818892844093E-02 
957	 3.23961564753526E-02 
958	 2.99421478223688E-02 
959	 3.49963728161625E-02 
960	 3.35430299416565E-02 
961	 2.77113301714043E-02 
962	 2.63147464876539E-02 
963	 3.53798382056063E-02 
964	 3.20712251955885E-02 
965	 2.93443130137286E-02 
966	 2.97160010864258E-02 
967	 2.79389363233074E-02 
968	 2.66655077227181E-02 
969	 2.71199351808749E-02 
970	 0.028846967098103 
971	 3.04623901588918E-02 
972	 3.44706164896901E-02 
973	 3.48399139775141E-02 
974	 3.29909068204158E-02 
975	 3.63641634898228E-02 
976	 3.14478139163546E-02 
977	 0.030343136919697 
978	 3.33294626995253E-02 
979	 3.01393088376495E-02 
980	 2.61930371514845E-02 
981	 2.84893495803453E-02 
982	 3.31194909713204E-02 
983	 3.04370563319757E-02 
984	 0.029491489495305 
985	 0.028927095151462 
986	 0.027583218178111 
987	 2.57939022702527E-02 
988	 2.84295078398105E-02 
989	 2.80558103975512E-02 
990	 2.55767701065414E-02 
991	 2.75157899231279E-02 
992	 3.02046223773422E-02 
993	 2.79535393204964E-02 
994	 0.024488516674123 
995	 2.76855930615919E-02 
996	 2.84123114379257E-02 
997	 2.91909129503577E-02 
998	 2.93770597593147E-02 
999	 2.72161501906141E-02 
1000	 2.82509908696211E-02 
1001	 3.05993672155671E-02 
1002	 3.17470122566079E-02 
1003	 3.23216286680272E-02 
1004	 3.28859537129751E-02 
1005	 0.033391494264069 
1006	 3.39771395834318E-02 
1007	 3.45085053070939E-02 
1008	 3.42228529245089E-02 
1009	 3.38016452097789E-02 
1010	 3.33193464904982E-02 
1011	 3.29082136611451E-02 
1012	 3.25479526148327E-02 
1013	 3.18924753530603E-02 
1014	 3.17177742915633E-02 
1015	 3.16181917595475E-02 
1016	 3.14259039126354E-02 
1017	 3.12988586292116E-02 
1018	 3.17642770078116E-02 
1019	 0.0320936213936 
1020	 3.26955463841703E-02 
1021	 0.034330682733519 
1022	 0.035833542278539 
1023	 3.44657086917915E-02 
1024	 3.42500971554572E-02 
1025	 0.034742035953613 
1026	 3.35537812740102E-02 
1027	 3.35216172565245E-02 
1028	 3.48300917607808E-02 
1029	 3.51059032516132E-02 
1030	 3.47658664809486E-02 
1031	 3.48556978934418E-02 
1032	 3.48302122950351E-02 
1033	 3.52925866634181E-02 
1034	 3.63121323995082E-02 
1035	 0.036732661303756 
1036	 3.69381264560266E-02 
1037	 3.76158076767092E-02 
1038	 3.83198309406106E-02 
1039	 3.85369742219969E-02 
1040	 3.96955141862647E-02 
1041	 4.17240856651665E-02 
1042	 4.28698966818189E-02 
1043	 4.42418633405152E-02 
1044	 4.43500341316867E-02 
1045	 4.33562827115737E-02 
1046	 4.31628487048983E-02 
1047	 4.18281386589293E-02 
1048	 4.22048083554022E-02 
1049	 4.46507861449868E-02 
1050	 4.53544683772071E-02 
1051	 0.046014847884071 
1052	 4.63849065565193E-02 
1053	 4.51038463085513E-02 
1054	 4.49799207214804E-02 
1055	 4.56883516114643E-02 
1056	 4.61860256598693E-02 
1057	 4.68194901131257E-02 
1058	 4.79120977067708E-02 
1059	 4.85510344693658E-02 
1060	 4.92515282479417E-02 
1061	 4.92832916383351E-02 
1062	 4.87241709441567E-02 
1063	 4.86122837356465E-02 
1064	 4.78164596448411E-02 
1065	 4.79431300797835E-02 
1066	 4.92073833039284E-02 
1067	 4.96269576263635E-02 
1068	 0.049759573325782 
1069	 0.050287061120593 
1070	 5.11193050918914E-02 
1071	 5.12196050207714E-02 
1072	 5.13891192151533E-02 
1073	 5.09568745151323E-02 
1074	 5.11500389726395E-02 
1075	 5.08346778392009E-02 
1076	 5.09408406426477E-02 
1077	 5.21783293627226E-02 
1078	 5.21025448320029E-02 
1079	 5.10366085029933E-02 
1080	 5.04391143081296E-02 
1081	 4.94478189766583E-02 
1082	 4.89895371844032E-02 
1083	 0.048460546537257 
1084	 4.85739065483291E-02 
1085	 5.00788390918931E-02 
1086	 5.04116880692762E-02 
1087	 5.07349203218511E-02 
1088	 0.050636260585707 
1089	 4.99321470083832E-02 
1090	 4.78653541415403E-02 
1091	 4.72484652928696E-02 
1092	 4.73666760732852E-02 
1093	 4.65148437625669E-02 
1094	 0.045153133565913 
1095	 4.53573153491148E-02 
1096	 4.60370342809362E-02 
1097	 4.57551699959269E-02 
1098	 4.71607919744177E-02 
1099	 4.67636226232126E-02 
1100	 4.28324278211137E-02 
1101	 4.18866697223319E-02 
1102	 0.042920961239964 
1103	 4.22956003279887E-02 
1104	 4.24025157967119E-02 
1105	 4.13014415826799E-02 
1106	 3.75516106760297E-02 
1107	 3.89991255776196E-02 
1108	 4.02028227868718E-02 
1109	 3.75880466733833E-02 
1110	 3.72985708492002E-02 
1111	 3.69761868356605E-02 
1112	 3.59739123713802E-02 
1113	 3.73947583538495E-02 
1114	 3.75361131917096E-02 
1115	 3.37341950846835E-02 
1116	 3.14513934007631E-02 
1117	 2.60020979268407E-02 
1118	 2.47222868350264E-02 
1119	 3.62572523381052E-02 
1120	 4.47777785812979E-02 
1121	 6.48289153932357E-02 
1122	 0.076686162279384 
1123	 0.089338520045064 
1124	 5.85343428755513E-02 
1125	-9.821233758656E-04 
1126	 6.91890018497462E-03 
1127	 4.59602398228952E-02 
1128	 3.45922845910104E-02 
1129	 2.51034022362149E-02 
1130	 2.36169145227629E-02 
1131	 0.029749860947808 
1132	 1.57749555478929E-02 
1133	 2.24919191694244E-02 
1134	 6.49964544871175E-02 
1135	 7.10949606341114E-02 
1136	 0.047958837942567 
1137	 0.053682306540281 
1138	 7.13902650808431E-02 
1139	 7.53661589837768E-02 
1140	 6.95520005714407E-02 
1141	 6.50442042758845E-02 
1142	 5.22344619486572E-02 
1143	 3.91975513532114E-02 
1144	 4.28859656922537E-02 
1145	 5.16318683839339E-02 
1146	 6.25902138993026E-02 
1147	 6.58636063069219E-02 
1148	 0.06316053044987 
1149	 6.84550137090098E-02 
1150	 0.064777540764905 
1151	 0.049081920852688 
1152	 4.66604788277323E-02 
1153	 5.47099180889432E-02 
1154	 5.09889722201948E-02 
1155	 4.68219463665068E-02 
1156	 4.14489093740152E-02 
1157	 3.63166749024451E-02 
1158	 2.95901053976612E-02 
1159	 3.05895032888785E-02 
1160	 3.62765387702995E-02 
1161	 3.87498980200219E-02 
1162	 3.94212614289072E-02 
1163	 3.80128321933026E-02 
1164	 3.41039248769141E-02 
1165	 3.32572873062044E-02 
1166	 3.47466424731103E-02 
1167	 3.39983256666222E-02 
1168	 3.41746590785727E-02 
1169	 3.53310112114844E-02 
1170	 3.44804181243123E-02 
1171	 3.36742308304638E-02 
1172	 0.033341234327529 
1173	 3.33249289409802E-02 
1174	 0.032792954663023 
1175	 3.21651920201498E-02 
1176	 0.032046074614024 
1177	 3.33166751828973E-02 
1178	 3.49003652487231E-02 
1179	 3.44635180790802E-02 
1180	 3.39854989129449E-02 
1181	 3.45297508864557E-02 
1182	 3.34107209849398E-02 
1183	 0.032639194724317 
1184	 3.43526899174253E-02 
1185	 3.40059368499106E-02 
1186	 3.11196403301677E-02 
1187	 3.05168477538907E-02 
1188	 3.22948015824044E-02 
1189	 3.42884204429867E-02 
1190	 3.54810906862733E-02 
1191	 3.49066111774966E-02 
1192	 3.44905866449985E-02 
1193	 3.17410361037988E-02 
1194	 0.030176489440675 
1195	 3.18660182481968E-02 
1196	 3.36861854144055E-02 
1197	 3.37775324186445E-02 
1198	 3.28102926417257E-02 
1199	 3.08462929476904E-02 
1200	 3.04026023973407E-02 
1201	 0.031439256393201 
1202	 3.14606623922061E-02 
1203	 3.06585074462713E-02 
1204	 0.030426320848808 
1205	 3.03115439118064E-02 
1206	 3.00818011299108E-02 
1207	 3.07873613665986E-02 
1208	 3.10364582480613E-02 
1209	 3.05086013661573E-02 
1210	 3.04368001463838E-02 
1211	 3.10288729644406E-02 
1212	 0.032343658779544 
1213	 3.21368490941311E-02 
1214	 3.15944167850823E-02 
1215	 0.030467143242569 
1216	 3.05277082940639E-02 
1217	 2.97572543145711E-02 
1218	 2.88566737050172E-02 
1219	 2.86076147080361E-02 
1220	 2.82405177349768E-02 
1221	 2.87222219759671E-02 
1222	 0.029301722947336 
1223	 2.96588926176539E-02 
1224	 3.00306948423787E-02 
1225	 2.93877994086783E-02 
1226	 2.89311865499662E-02 
1227	 0.029687545142768 
1228	 2.98120049232764E-02 
1229	 2.89308580935423E-02 
1230	 2.90085857956681E-02 
1231	 2.90202671181051E-02 
1232	 2.79337698154873E-02 
1233	 0.027997501532446 
1234	 0.028675678538459 
1235	 2.88252654519572E-02 
1236	 2.95043210386415E-02 
1237	 2.94604410820919E-02 
1238	 2.86686418330367E-02 
1239	 2.81765006513505E-02 
1240	 2.84060440479886E-02 
1241	 2.91584534519334E-02 
1242	 3.03017587760492E-02 
1243	 2.99761663603157E-02 
1244	 2.87846580860553E-02 
1245	 2.87963908854334E-02 
1246	 2.90731161900317E-02 
1247	 2.91289364516506E-02 
1248	 2.92838164214201E-02 
1249	 2.89438092900556E-02 
1250	 2.92191758570537E-02 
1251	 2.96908677806683E-02 
1252	 2.87325097008352E-02 
1253	 2.83899359508915E-02 
1254	 2.89866366750404E-02 
1255	 2.87946919015882E-02 
1256	 2.86358818146382E-02 
1257	 2.91887403760644E-02 
1258	 2.96709183214854E-02 
1259	 0.029900357599434 
1260	 2.98864355676982E-02 
1261	 3.03177606166895E-02 
1262	 0.030373883101673 
1263	 2.95380084971059E-02 
1264	 2.86186158240664E-02 
1265	 2.88161278062152E-02 
1266	 2.95275246179712E-02 
1267	 2.94087419976518E-02 
1268	 2.87292523297645E-02 
1269	 2.87863064145784E-02 
1270	 2.93192580533369E-02 
1271	 2.94638215699793E-02 
1272	 2.97538104545823E-02 
1273	 3.01855530255548E-02 
1274	 3.01765133225807E-02 
1275	 2.99158136297263E-02 
1276	 2.95563986670419E-02 
1277	 2.94834405002213E-02 
1278	 2.94000808175211E-02 
1279	 2.94170275235888E-02 
1280	 2.97684622939622E-02 
1281	 3.00674546915653E-02 
1282	 3.04178962107713E-02 
1283	 2.98715777554712E-02 
1284	 2.85883428070422E-02 
1285	 0.02849132860977 
1286	 2.82335193489299E-02 
1287	 0.027642984444527 
1288	 2.75350828446993E-02 
1289	 2.80844765354479E-02 
1290	 2.87381162310088E-02 
1291	 2.87699254646911E-02 
1292	 2.89062583863636E-02 
1293	 2.98996651451574E-02 
1294	 2.94970627645612E-02 
1295	 2.85451330942462E-02 
1296	 2.95237870397185E-02 
1297	 3.08402815619854E-02 
1298	 3.14444371164248E-02 
1299	 0.031349899562504 
1300	 3.03589574839391E-02 
1301	 3.04470568176645E-02 
1302	 3.19476293790308E-02 
1303	 0.032187353061615 
1304	 3.16389644024542E-02 
1305	 3.24857053222109E-02 
1306	 3.26894014804505E-02 
1307	 3.09097535784439E-02 
1308	 2.98434963517733E-02 
1309	 2.99301292948396E-02 
1310	 3.04372382633259E-02 
1311	 3.02527144145602E-02 
1312	 3.00099640953318E-02 
1313	 0.031234886315232 
1314	 3.21503600591759E-02 
1315	 0.032856939322934 
1316	 3.26273333675754E-02 
1317	 3.17165159352099E-02 
1318	 3.19692576968987E-02 
1319	 3.04401116753279E-02 
1320	 3.01417152035312E-02 
1321	 3.24618123327656E-02 
1322	 3.63494219036966E-02 
1323	 3.91880583679982E-02 
1324	 3.73665624268844E-02 
1325	 3.55384844185224E-02 
1326	 3.50546453912384E-02 
1327	 3.09958568677617E-02 
1328	 2.75358568881031E-02 
1329	 2.81308621869426E-02 
1330	 3.11841769426563E-02 
1331	 3.36022101744961E-02 
1332	 3.44776568237518E-02 
1333	 3.33723588970921E-02 
1334	 3.07949132031723E-02 
1335	 3.03934214991869E-02 
1336	 2.75069638404391E-02 
1337	 2.86965110287865E-02 
1338	 0.035156812865397 
1339	 4.10008275499358E-02 
1340	 5.27854574571025E-02 
1341	 5.50222009365178E-02 
1342	 4.72601567071707E-02 
1343	 5.36707143978563E-02 
1344	 6.78045772275774E-02 
1345	 6.92547592024973E-02 
1346	 8.05810629712425E-02 
1347	 8.70738621867596E-02 
1348	 4.85868145933267E-02 
1349	 1.83398949552383E-02 
1350	-7.18225067565973E-03 
1351	-1.15253873001146E-02 
1352	 5.69713295978301E-03 
1353	 1.99273103038619E-02 
1354	 0.21239900325477 
1355	 0.598007005804047 
1356	 0.496445682006301 
1357	 0.464812586030824 
1358	 0.516370593758304 
1359	 0.208730911281874 
1360	-0.112618069221158 
1361	-8.15223681407775E-02 
1362	 0.557035237789588 
1363	 0.567505734169422 
1364	 0.784847385292511 
1365	 8.01547981021015 
1366	 2.37898928435358 
1367	 0.840019212683138 
1368	 0.669036325489807 
1369	 0.777260083472692 
1370	 0.809006492357993 
1371	 0.882360326187206 
1372	 0.843316089474038 
1373	 0.927521673243318 
1374	 0.813509029920714 
1375	 0.347359054921019 
1376	 0.296215242502981 
1377	 0.466002864843472 
1378	 0.642904869783258 
1379	 1.27671875980106 
1380	 1.92667226595546 
1381	 5.07189597370492 
1382	 5.09937228712218 
1383	 0.54981535015246 
1384	 0.51254022010007 
1385	 2.12745639941637 
1386	 2.10039067646779 
1387	 3.15190169294854 
1388	 3.340768558793 
1389	 0.584174937712439 
1390	 0.165123625495836 
1391	 0.017274374317829 
1392	 0.294881068921342 
1393	 0.940279510663903 
1394	 0.926960228681726 
1395	 0.97244680478449 
1396	 1.30412500865081 
1397	 1.22861472294175 
1398	 1.11740138528771 
1399	 0.616561451181282 
1400	 0.191773159351159 
1401	 3.86180159529978E-02 
1402	 0.136430093943862 
1403	 0.174544698259394 
1404	 0.623896672767174 
1405	 0.837123699893719 
1406	 0.563875603493037 
1407	 0.52306751135318 
1408	 0.603554537537258 
1409	 0.669239619707618 
1410	 0.700014835245251 
1411	 0.615872553654328 
1412	 0.46575409804497 
1413	 0.479406351028476 
1414	 0.442967885234544 
1415	 0.580731390588208 
1416	 1.49233710844332 
1417	 1.81696379330067 
1418	 1.24936493583092 
1419	 1.49841934484888 
1420	 2.64715500770979 
1421	 2.65579585623339 
1422	 3.23875235338611 
1423	 2.59609894454905 
1424	 0.688699099652028 
1425	 0.396130108647522 
1426	 0.38724625525258 
1427	 0.295357091328589 
1428	 0.289688235453001 
1429	 0.353262397485015 
1430	 0.446552561255039 
1431	 0.389976183454375 
1432	 0.311455768603651 
1433	 0.300389643066895 
1434	-3.47809962556643E-02 
1435	-0.276466860957859 
1436	-0.259027599148844 
1437	 0.254419619535001 
1438	 1.34145914184195 
1439	 1.70768844213717 
1440	 0.750469492409486 
1441	 0.726075559044751 
1442	 0.761630072565308 
1443	 0.421980436781859 
1444	 0.379272436168233 
1445	 0.521840997775375 
1446	 0.543724102382395 
1447	 0.521220798197209 
1448	 0.522800059899964 
1449	 0.455326227614378 
1450	 0.270545290658379 
1451	 0.135134738948487 
1452	 0.055299912559305 
1453	 6.31774904786158E-02 
1454	 7.69612999558658E-02 
1455	 0.114651002249091 
1456	 0.116143583632284 
1457	 0.123254836443337 
1458	 0.137818833891459 
1459	 0.143520864597332 
1460	 0.137375092468223 
1461	 0.146206972012833 
1462	 0.165170157285201 
1463	 0.160117515935572 
1464	 0.167495072579883 
1465	 0.238024631968779 
1466	 0.218027307697621 
1467	 0.108156155917854 
1468	 9.60496995889604E-02 
1469	 0.107791897386561 
1470	 8.73511772650313E-02 
1471	 0.111138663283602 
1472	 0.111551815665488 
1473	 6.66294189313253E-02 
1474	 3.84309831844858E-02 
1475	 1.62461133218441E-02 
1476	 1.32322738695435E-02 
1477	 1.89897620939919E-02 
1478	 2.30395092548799E-02 
1479	 4.04674934895162E-02 
1480	 4.79181833916403E-02 
1481	 3.26363600212608E-02 
1482	 3.91366152929132E-02 
1483	 6.38230061838744E-02 
1484	 7.42763946909048E-02 
1485	 9.62404981464694E-02 
1486	 9.08691313945471E-02 
1487	 6.77607379711216E-02 
1488	 5.62495493697212E-02 
1489	 3.89635020119915E-02 
1490	 2.91252613295322E-02 
1491	 2.32768408823656E-02 
1492	 2.32612604718951E-02 
1493	 2.86383890041323E-02 
1494	 2.91610858362196E-02 
1495	 2.69099254773567E-02 
1496	 2.97358094942762E-02 
1497	 3.56064038643094E-02 
1498	 3.60258477093515E-02 
1499	 3.76427540793589E-02 
1500	 3.89272268428783E-02 
1501	 3.51707125564538E-02 
1502	 3.36191610987768E-02 
1503	 3.59183661381975E-02 
1504	 3.55285016762617E-02 
1505	 3.37100012568475E-02 
1506	 3.17205126340626E-02 
1507	 2.87825888332969E-02 
1508	 2.80004700012663E-02 
1509	 3.09084416004801E-02 
1510	 3.21546935031053E-02 
1511	 3.35732238600864E-02 
1512	 3.32786661648494E-02 
1513	 2.67090793751117E-02 
1514	 2.25742672702897E-02 
1515	 2.47606960567624E-02 
1516	 2.63100140117425E-02 
1517	 2.95201350064123E-02 
1518	 3.35338807948295E-02 
1519	 3.23153039643651E-02 
1520	 2.99670308015108E-02 
1521	 2.75690250072564E-02 
1522	 2.59886933573045E-02 
1523	 0.026059717436681 
1524	 2.72567465129079E-02 
1525	 3.03197227971823E-02 
1526	 3.18487464936086E-02 
1527	 3.33025581382166E-02 
1528	 3.46130380159012E-02 
1529	 3.30759384033549E-02 
1530	 3.18599012324493E-02 
1531	 3.16691296492785E-02 
1532	 3.01588246698531E-02 
1533	 2.93420625771915E-02 
1534	 3.01154104146251E-02 
1535	 3.05537454590338E-02 
1536	 2.96332326857389E-02 
1537	 2.74947606812408E-02 
1538	 2.77943976770318E-02 
1539	 0.027553629825647 
1540	 2.52923666546343E-02 
1541	 2.67447761788826E-02 
1542	 0.029071506184549 
1543	 2.95830348681693E-02 
1544	 2.98848965950925E-02 
1545	 0.029082426102326 
1546	 2.66908806419485E-02 
1547	 2.48792027199452E-02 
1548	 2.47937897243037E-02 
1549	 2.56409905079818E-02 
1550	 2.66964191725501E-02 
1551	 2.72281246901524E-02 
1552	 0.027534021980911 
1553	 2.74248224387329E-02 
1554	 2.70626245238607E-02 
1555	 2.72098946039467E-02 
1556	 2.77934762300004E-02 
1557	 2.78194168073615E-02 
1558	 2.65489140377509E-02 
1559	 2.44124642508032E-02 
1560	 2.25866091051894E-02 
1561	 2.19387723629193E-02 
1562	 2.29550788286636E-02 
1563	 2.43037432135571E-02 
1564	 2.43929158456432E-02 
1565	 2.48200182978927E-02 
1566	 2.46095927051613E-02 
1567	 2.33755209729351E-02 
1568	 2.40979065329097E-02 
1569	 2.56271922584255E-02 
1570	 2.59745653198659E-02 
1571	 2.60045455228824E-02 
1572	 2.62736083609088E-02 
1573	 2.63452121352887E-02 
1574	 0.026458061788931 
1575	 2.72460101649226E-02 
1576	 2.85895879625487E-02 
1577	 2.91644709313083E-02 
1578	 2.81680383301656E-02 
1579	 0.027502444047145 
1580	 0.027779086039221 
1581	 2.83225614206842E-02 
1582	 2.85080098500021E-02 
1583	 0.027806338293824 
1584	 2.74999996454614E-02 
1585	 2.70649508459691E-02 
1586	 2.59471686929892E-02 
1587	 2.61303253826903E-02 
1588	 2.74296306118576E-02 
1589	 0.02824583840683 
1590	 2.85473449462936E-02 
1591	 2.87257887635608E-02 
1592	 2.80761945977871E-02 
1593	 2.66963750509611E-02 
1594	 2.59562749795239E-02 
1595	 2.67951442370199E-02 
1596	 2.77520959085066E-02 
1597	 2.73909102454674E-02 
1598	 2.74754544765479E-02 
1599	 2.74154907611398E-02 
1600	 2.73881461152649E-02 
1601	 2.75873011811227E-02 
1602	 2.81292558450807E-02 
1603	 2.99772334756345E-02 
1604	 2.95970264609372E-02 
1605	 2.82385775096816E-02 
1606	 2.80456732682859E-02 
1607	 2.72920194075583E-02 
1608	 2.72323647869314E-02 
1609	 0.028705846980394 
1610	 2.97144102438272E-02 
1611	 2.88952842169372E-02 
1612	 2.84257598464415E-02 
1613	 2.87935573458654E-02 
1614	 2.83919677894541E-02 
1615	 2.86390075801171E-02 
1616	 2.76333685003441E-02 
1617	 2.49217743653743E-02 
1618	 2.50814020685234E-02 
1619	 2.60109549576045E-02 
1620	 2.62857914317057E-02 
1621	 2.79771310751852E-02 
1622	 2.76848772195203E-02 
1623	 0.02532225748551 
1624	 2.62073630370917E-02 
1625	 2.84856448453488E-02 
1626	 2.77959803080543E-02 
1627	 2.72062304877887E-02 
1628	 2.69420308375817E-02 
1629	 0.025525088420983 
1630	 2.66544410794732E-02 
1631	 2.85671851195558E-02 
1632	 0.028453793041017 
1633	 0.028111452217588 
1634	 0.027712338251029 
1635	 2.77320077489994E-02 
1636	 0.027693118469133 
1637	 2.73042517090437E-02 
1638	 2.71753606304492E-02 
1639	 2.65291086426519E-02 
1640	 2.57993969363107E-02 
1641	 2.53224211379574E-02 
1642	 2.62348109383789E-02 
1643	 2.71819165071463E-02 
1644	 2.75891195888977E-02 
1645	 2.83997735692006E-02 
1646	 2.73938161050398E-02 
1647	 2.66521748777011E-02 
1648	 0.027512979726984 
1649	 2.86893149033709E-02 
1650	 2.86383091143539E-02 
1651	 2.75456042031005E-02 
1652	 2.79157352949584E-02 
1653	 2.83783122588813E-02 
1654	 2.79822869901536E-02 
1655	 2.79068066764527E-02 
1656	 2.73280727320229E-02 
1657	 2.55952310453989E-02 
1658	 2.49526284988274E-02 
1659	 2.46995789056381E-02 
1660	 2.51133525662214E-02 
1661	 2.55739458954583E-02 
1662	 2.57281506532591E-02 
1663	 2.68874358085321E-02 
1664	 2.85536330330593E-02 
1665	 3.08238465996271E-02 
1666	 3.14526466139552E-02 
1667	 0.03148066500898 
1668	 2.79923398274105E-02 
1669	 2.71380402044314E-02 
1670	 2.69182655296933E-02 
1671	 2.68160638865853E-02 
1672	 2.81084586894557E-02 
1673	 0.028470036824721 
1674	 2.81895195502205E-02 
1675	 2.75259722818591E-02 
1676	 2.71875791312766E-02 
1677	 2.76808471940381E-02 
1678	 2.68124071754566E-02 
1679	 2.57323565419219E-02 
1680	 2.54452669980585E-02 
1681	 0.025483705402453 
1682	 2.54187816510101E-02 
1683	 0.026582172048896 
1684	 2.89636428998029E-02 
1685	 2.74330384972712E-02 
1686	 2.64117034612855E-02 
1687	 2.81501962151296E-02 
1688	 2.68303389807442E-02 
1689	 2.60987999925875E-02 
1690	 2.74270171070552E-02 
1691	 2.84361454918207E-02 
1692	 2.91919124562974E-02 
1693	 2.98446481675234E-02 
1694	 2.99585773216594E-02 
1695	 2.90951363691145E-02 
1696	 2.83438345912604E-02 
1697	 2.72599855161518E-02 
1698	 2.65968798108029E-02 
1699	 0.027361146159819 
1700	 2.73158323671645E-02 
1701	 2.74791336759983E-02 
1702	 2.99197952958395E-02 
1703	 0.030241207024309 
1704	 2.72094660025244E-02 
1705	 0.02642628466475 
1706	 2.76666655318767E-02 
1707	 2.69408521150467E-02 
1708	 2.75197605756316E-02 
1709	 2.87540240666631E-02 
1710	 2.71853263033673E-02 
1711	 2.47474945820348E-02 
1712	 2.31683852328413E-02 
1713	 2.34369172389883E-02 
1714	 2.30468500376538E-02 
1715	 2.37076497021298E-02 
1716	 2.65691003776431E-02 
1717	 2.65261684123963E-02 
1718	 2.56360012271549E-02 
1719	 2.54320661693115E-02 
1720	 2.55209197526392E-02 
1721	 2.68486163736972E-02 
1722	 0.028984171935391 
1723	 2.79740679311707E-02 
1724	 2.57766267647813E-02 
1725	 2.54456172487728E-02 
1726	 2.55907835519895E-02 
1727	 2.64753590148991E-02 
1728	 2.68712685008064E-02 
1729	 2.51139292556958E-02 
1730	 2.54040656271302E-02 
1731	 2.74554290022842E-02 
1732	 2.55986010559338E-02 
1733	 2.30154345209034E-02 
1734	 2.53054369171667E-02 
1735	 2.64199199053266E-02 
1736	 2.70566106073384E-02 
1737	 3.35854865852598E-02 
1738	 3.44921491755993E-02 
1739	 2.95359865363259E-02 
1740	 2.94898579686217E-02 
1741	 2.93849969720869E-02 
1742	 2.73594008351076E-02 
1743	 2.77617816616759E-02 
1744	 0.030406507155832 
1745	 0.032269755111591 
1746	 3.09206597792843E-02 
1747	 3.07428266380464E-02 
1748	 2.91902437187674E-02 
1749	 2.77495160363919E-02 
1750	 2.82366451431627E-02 
1751	 2.75979420662575E-02 
1752	 2.55351979652714E-02 
1753	 2.51777607788215E-02 
1754	 0.024652667286899 
1755	 2.37839962407877E-02 
1756	 2.36124954555003E-02 
1757	 2.56370970467645E-02 
1758	 2.53300089832901E-02 
1759	 2.43869820375242E-02 
1760	 2.40826437952268E-02 
1761	 2.87408261375186E-02 
1762	 4.01151789520478E-02 
1763	 3.93381920052288E-02 
1764	 3.45657270465974E-02 
1765	 3.50620658061961E-02 
1766	 2.73532963263446E-02 
1767	 0.030504758228592 
1768	 4.48972439233857E-02 
1769	 3.72728072317785E-02 
1770	 2.61715976305253E-02 
1771	 2.73528335721193E-02 
1772	 2.18717096857714E-02 
1773	 3.04440436886584E-02 
1774	 0.040441660989478 
1775	 0.044606110184858 
1776	 4.67760682881841E-02 
1777	 3.27339299079932E-02 
1778	 2.16297549387966E-02 
1779	 6.87704972230595E-03 
1780	 1.1762920483541E-03 
1781	 1.20657018950202E-03 
1782	 7.09370452609059E-03 
1783	 2.82738390008848E-02 
1784	 4.35711377408884E-02 
1785	 5.92121059687455E-02 
1786	 6.81138540891302E-02 
1787	 8.48107358684677E-02 
1788	 7.84932629236847E-02 
1789	 0.04205880761119 
1790	 4.09701476812147E-02 
1791	 4.41622904594237E-03 
1792	 8.34373490845028E-03 
1793	 2.31646817085654E-02 
1794	-5.92100523758472E-03 
1795	-7.29918969469978E-03 
1796	 1.30840474423799E-02 
1797	 3.96076237192937E-02 
1798	 0.168252279749347 
1799	 0.195423476560689 
1800	 6.74189936215122E-02 
1801	 6.13822735912613E-02 
1802	 7.26091410205671E-02 
1803	 0.150063907593159 
1804	 0.551696199049878 
1805	 0.673789525456142 
1806	 0.601397691006606 
1807	 0.212707073711477 
1808	-5.27381915076056 
1809	 37.6243117343216 
1810	-2.29749996352223 
1811	 0.286807165449435 
1812	 1.28937473699716 
1813	 0.949541513144884 
1814	-0.472259832397888 
1815	-0.637042067565355 
1816	-1.87856268337361 
1817	 0.203900377959205 
1818	 0.724305069466924 
1819	 1.77121031256357 
1820	 0.808786978337672 
1821	-0.574246377261168 
1822	-0.537888360119309 
1823	 0.279600335900735 
1824	 0.313281845348265 
1825	 0.227157959048213 
1826	 0.295768048108055 
1827	 26.0674007968547 
1828	 8.99235163565899 
1829	 1.48094838442311 
1830	 2.06894579078248 
1831	 0.530225361703306 
1832	 0.408010723309099 
1833	 0.283767615301575 
1834	 0.365660751257275 
1835	 0.94102126756972 
1836	 1.03136254111634 
1837	 0.940596180318954 
1838	 0.805509961325994 
1839	-0.119239162075709 
1840	-2.41207038335319 
1841	-2.85298860566443 
1842	-1.15607895608558 
1843	-0.942174173532079 
1844	 1.73333748311313 
1845	 5.03189483969864 
1846	-5.54834522095496 
1847	-2.23463509581304 
1848	-13.7661942390872 
1849	-0.115524242729277 
1850	 7.59541488918514E-02 
1851	 4.28781545404839E-02 
1852	-0.818590177808353 
1853	-1.17712009249101 
1854	-1.57419528562902 
1855	-4.99826687394188 
1856	-15.5075498114214 
1857	 185.886333049701 
1858	 4.54776243918399 
1859	 5.47278401079797 
1860	 1.65695026328136 
1861	 0.985719101307717 
1862	 0.670956557974891 
1863	 0.444538507366036 
1864	 0.861470489933931 
1865	 0.850247329718328 
1866	 0.446995733805918 
1867	 0.483872901916576 
1868	 0.947733453897656 
1869	 0.988443131190958 
1870	 1.75290449764472 
1871	-9.13644574351683 
1872	 9.12038972413441 
1873	 5.23672989911678 
1874	-16.7022047389238 
1875	-3.6553868624297 
1876	-3.91919547438478 
1877	-6.92821803754755 
1878	-26.4044452148131 
1879	 6.31616660600739 
1880	 2.9696678220438 
1881	 1.56284545137008 
1882	 0.264400525615196 
1883	-0.316273892383605 
1884	-0.563347364879633 
1885	-0.300053926589858 
1886	-2.83347893600997E-02 
1887	-0.248465354183532 
1888	-1.09878972714092 
1889	-0.846685275547376 
1890	-0.404771032177546 
1891	-0.342601887442 
1892	-2.75594154961616E-02 
1893	 0.385885230300582 
1894	 0.1687582443431 
1895	 0.137065591689182 
1896	 0.578513020209014 
1897	 0.242349429930983 
1898	 0.068521698084242 
1899	-0.02797945700815 
1900	 1.22086523438218E-02 
1901	 0.276801766443883 
1902	 0.12235396939129 
1903	-0.1807102138323 
1904	-0.682418223350172 
1905	-1.35325095475677 
1906	-2.17031249629333 
1907	-1.34550577540702 
1908	-0.824434987971332 
1909	-0.29941166845854 
1910	 6.71350584166522E-02 
1911	 0.290093849620956 
1912	 0.817786867625751 
1913	 1.92357708611385 
1914	 50.9996111872664 
1915	-8.22494811386999 
1916	-2.3642787019897 
1917	-1.12816625523987 
1918	-0.54786286812442 
1919	 4.1517976477863 
1920	 9.71040890802706 
1921	-0.174945158028482 
1922	-5.22012110166483 
1923	-4.33994714026061 
1924	-3.71884580092647 
1925	 0.665303466759952 
1926	 0.229963098139771 
1927	 0.166306932597042 
1928	 1.26837827910736E-02 
1929	-0.180068783727768 
1930	-1.167609319941 
1931	-3.04789548677593 
1932	-11.1258410160814 
1933	-1.80586997999807 
1934	-0.398918984373212 
1935	-0.876803963107576 
1936	-1.97218042499351 
1937	-3.08660544385948 
1938	-3.37591378369233 
1939	-2.12143546382986 
1940	-0.813544590656601 
1941	-0.654068533119708 
1942	-0.671311395969445 
1943	-0.756660920741384 
1944	-5.50341549689595 
1945	 7.90578702803361 
1946	 1.22543620927329 
1947	 0.296399107475565 
1948	-0.109302820334785 
1949	-0.475051466732413 
1950	-0.294077714580967 
1951	 0.161087936951525 
1952	 2.12265588983265 
1953	-0.756033023573521 
1954	-0.19453578607426 
1955	-7.11692732516235 
1956	-0.691424850976887 
1957	 4.37722518127846 
1958	 2.07331746342414E-02 
1959	 9.74774551758882E-02 
1960	 0.118459661473078 
1961	-0.182839537473347 
1962	-0.151113171467947 
1963	-0.176683262751033 
1964	-0.319930533737527 
1965	-0.167339444647353 
1966	-0.117822765541393 
1967	-0.113026629776468 
1968	-8.68603438878853E-02 
1969	 0.109232788253461 
1970	 0.185528690514079 
1971	 9.88866721613898E-02 
1972	 2.97049210937537E-02 
1973	-5.85731368724573E-02 
1974	-0.122382603041232 
1975	-0.144556543622348 
1976	-0.108640438896047 
1977	-4.18883507600268E-02 
1978	 4.96144984553192E-03 
1979	 3.94748126958714E-02 
1980	 8.14962422866604E-02 
1981	 0.089064408481902 
1982	 0.085819336958353 
1983	 4.43726038170333E-02 
1984	 4.44747477277227E-04 
1985	 2.39548881608318E-02 
1986	 1.13438945432929E-02 
1987	-2.73165661140998E-02 
1988	-7.26670699923697E-02 
1989	-0.14509729474663 
1990	-0.174230006550737 
1991	-0.176678354027083 
1992	-0.161921275313696 
1993	-0.141982732920411 
1994	-0.142025914901847 
1995	-0.164760043827806 
1996	-0.184121986677328 
1997	-0.19200188110211 
1998	-0.118046541925508 
1999	-0.022184359327557 
2000	 5.95732359868736E-02 
2001	 0.114221137510474 
2002	 0.122487069424336 
2003	 0.208731485151545 
2004	 0.300453854432349 
2005	 0.252178164503974 
2006	 0.165867252669133 
2007	 0.100285421835833 
2008	 5.90832468786773E-02 
2009	 2.04482051055004E-02 
2010	 4.37119286352788E-02 
2011	 4.81575578598518E-02 
2012	-1.03489890037468E-03 
2013	-1.42147856052469E-02 
2014	 0.050942245996379 
2015	 0.110227111027627 
2016	 0.133767196236009 
2017	 9.55237483024667E-02 
2018	 0.045821070250104 
2019	 9.62319068527151E-03 
2020	-0.026799929256035 
2021	-2.03625383193025E-02 
2022	-6.35363204486374E-03 
2023	-5.47406329144011E-03 
2024	 7.18784019629902E-03 
2025	 0.024563200697442 
2026	 2.90878968671674E-02 
2027	 2.47039071673182E-02 
2028	 0.053463960005383 
2029	 5.96168248492764E-02 
2030	 5.18700647517397E-02 
2031	 5.28996651621747E-02 
2032	 0.037297275995762 
2033	 3.39037903630799E-02 
2034	 3.00364734064675E-02 
2035	 9.34979794717683E-03 
2036	-3.22156594854259E-03 
2037	-1.97490751557072E-02 
2038	-2.52355129244942E-02 
2039	-1.85858860695274E-02 
2040	 1.07119955965662E-02 
2041	 2.76944272327334E-02 
2042	 5.09607490630195E-02 
2043	 6.10003258205692E-02 
2044	 6.04694760285306E-02 
2045	 0.069928096244368 
2046	 8.08401616751545E-02 
2047	 0.10067397543098 
2048	 9.72990313175455E-02 
2049	 9.30806767405248E-02 
2050	 6.03980529153014E-02 
2051	 1.34826986938812E-02 
2052	 0.036781296309967 
2053	 4.88425873741653E-02 
2054	 0.061803022205912 
2055	 0.119842124875458 
2056	 0.130131691897554 
2057	 9.23128896516728E-02 
2058	 6.98756825282264E-02 
2059	 2.68160008312346E-02 
2060	 1.56451322560767E-02 
2061	 1.26562383232329E-02 
2062	 2.21444769580195E-02 
2063	 3.82170402458131E-02 
2064	 2.54533429316036E-02 
2065	-1.08759363154232E-02 
2066	-2.04554205383121E-02 
2067	-1.01038365085669E-02 
2068	-7.5168470607913E-03 
2069	-6.18512099928187E-03 
2070	 2.54689678258928E-04 
2071	-3.3899002294744E-03 
2072	 9.57006989192064E-03 
2073	 1.68235876466711E-02 
2074	 2.52525461230912E-02 
2075	 2.83332432403981E-02 
2076	 2.07344975878075E-02 
2077	 2.87819328503238E-02 
2078	 5.80781977845787E-02 
2079	 6.80568961772372E-02 
2080	 7.47334790236196E-02 
2081	 8.22568408506698E-02 
2082	 8.30826149271863E-02 
2083	 5.35646498551357E-02 
2084	 4.35112327407519E-02 
2085	 3.72340170818486E-02 
2086	 0.022459238787672 
2087	 2.05827538143915E-02 
2088	 2.10725923958321E-02 
2089	 1.68643274353116E-02 
2090	 1.19561014372208E-02 
2091	 1.24566108566124E-02 
2092	 9.55488980490641E-03 
2093	 5.47387127568735E-03 
2094	 4.61437233315975E-03 
2095	 3.64453126926867E-03 
2096	 1.56994902363631E-03 
2097	 7.33976693246708E-04 
2098	-2.97028551005995E-03 
2099	-1.27308867400498E-02 
2100	-0.011807169112231 
2101	-8.33342087989485E-03 
2102	 4.75949404102045E-04 
2103	 1.20315788455227E-02 
2104	 2.84860115967437E-02 
2105	 3.46935369079659E-02 
2106	 3.08486360620186E-02 
2107	 3.80314531798083E-02 
2108	 3.39104325195664E-02 
2109	 3.00795429175188E-02 
2110	 0.042140682751791 
2111	 5.28030784688115E-02 
2112	 5.93348695437306E-02 
2113	 5.72703255120306E-02 
2114	 4.71016284931555E-02 
2115	 4.45041513386439E-02 
2116	 3.49480702727459E-02 
2117	 2.93591228627166E-02 
2118	 2.69770175350043E-02 
2119	 3.19526545396704E-02 
2120	 3.70594054316974E-02 
2121	 0.056082539119742 
2122	 6.12953765994367E-02 
2123	 5.31311638898288E-02 
2124	 4.40569202770059E-02 
2125	 2.40772395722993E-02 
2126	 1.48998310491523E-02 
2127	 3.09008653304458E-02 
2128	 4.60221273760005E-02 
2129	 4.65040306214692E-02 
2130	 4.98047411364842E-02 
2131	 4.54125533553804E-02 
2132	 2.41067689530472E-02 
2133	 5.50793584464918E-03 
2134	 7.21946261071385E-04 
2135	 2.56071096895442E-03 
2136	 6.78000285757119E-03 
2137	 2.77784207377794E-02 
2138	 3.48370665251696E-02 
2139	 3.64020073009703E-02 
2140	 3.72264661006655E-02 
2141	 3.00525013697226E-02 
2142	 0.031752197677169 
2143	 4.15942285783968E-02 
2144	 4.07142417002534E-02 
2145	 0.024031035605051 
2146	 0.020465633270727 
2147	 0.027121037903885 
2148	 1.78351925747184E-02 
2149	 2.64360664509052E-02 
2150	 4.32524692572984E-02 
2151	 2.40750279168152E-02 
2152	 8.35954036205483E-03 
2153	 1.83835153467081E-02 
2154	 1.67602376624448E-02 
2155	 2.52641428372382E-02 
2156	 5.03768183535718E-02 
2157	 5.07252450773383E-02 
2158	 3.13545923497666E-02 
2159	 2.64362829012789E-02 
2160	 1.28509020432472E-02 
2161	 1.11438235449319E-02 
2162	 2.66854751522394E-02 
2163	 2.88940994865616E-02 
2164	 2.41896763950082E-02 
2165	 2.29197776116065E-02 
2166	 2.29498334428506E-02 
2167	 2.41224038647671E-02 
2168	 2.51876409684055E-02 
2169	 2.60396483933044E-02 
2170	 2.96506558629309E-02 
2171	 0.023973765398161 
2172	 1.25686525047364E-02 
2173	 1.34758772298455E-02 
2174	 2.25720327822624E-02 
2175	 2.82758561897075E-02 
2176	 3.37813796273464E-02 
2177	 3.89089449659216E-02 
2178	 3.49020603222434E-02 
2179	 2.38778112838559E-02 
2180	 1.83649180527844E-02 
2181	 3.12206264370055E-02 
2182	 3.70213005345663E-02 
2183	 3.15109047984968E-02 
2184	 3.44665843627709E-02 
2185	 2.58908073215428E-02 
2186	 2.22128221050054E-02 
2187	 2.35666491121862E-02 
2188	 0.026542308824831 
2189	 3.33252696772487E-02 
2190	 2.96946712539182E-02 
2191	 2.13400972669284E-02 
2192	 1.51635324885583E-02 
2193	-6.90732275188427E-03 
2194	-6.49893924755253E-03 
2195	 1.59834258509675E-02 
2196	 2.37258318945664E-02 
2197	 0.034365803988503 
2198	 4.22425027070531E-02 
2199	 0.041716027275456 
2200	 0.046785046962848 
2201	 4.54849496373058E-02 
2202	 4.97024104784065E-02 
2203	 5.12701997065791E-02 
2204	 3.11831405179011E-02 
2205	 0.025316288883716 
2206	 2.06646560974914E-02 
2207	 1.00694547117762E-02 
2208	 2.58280795446493E-02 
2209	 5.25046990638553E-02 
2210	 0.062482217131633 
2211	 7.49277149630538E-02 
2212	 7.96209500512846E-02 
2213	 4.68276713900193E-02 
2214	 2.10090711902563E-02 
2215	 2.75337702883403E-02 
2216	 2.91871916685338E-02 
2217	 3.22220968818126E-02 
2218	 6.39083364120515E-02 
2219	 7.42680180165292E-02 
2220	 6.27123270331186E-02 
2221	 6.24410745172856E-02 
2222	 0.065485705659798 
2223	 0.063151571996098 
2224	 0.061307344595021 
2225	 0.05183837926446 
2226	 0.032044544659657 
2227	 2.68939305682317E-02 
2228	 1.67788106391517E-02 
2229	 1.88054829810814E-02 
2230	 4.62603385707462E-02 
2231	 6.17435208690848E-02 
2232	 8.09134331952378E-02 
2233	 8.52481772920331E-02 
2234	 8.54400061810236E-02 
2235	 0.062493116398647 
2236	 4.02406662539493E-02 
2237	 3.34447405526849E-02 
2238	 3.34978908319887E-02 
2239	 3.59306134755034E-02 
2240	 4.18687536500334E-02 
2241	 3.52850692538698E-02 
2242	 3.29496500493245E-02 
2243	 3.51112917476322E-02 
2244	 2.84994658142668E-02 
2245	 4.10398208908055E-02 
2246	 4.40146380493875E-02 
2247	 3.72421803153983E-02 
2248	 3.58122229833341E-02 
2249	 2.76107649721355E-02 
2250	 4.49482271192215E-02 
2251	 5.67708563297817E-02 
2252	 4.34864435351122E-02 
2253	 4.65481624876442E-02 
2254	 8.59441133165972E-03 
2255	-2.69773518150109E-02 
2256	-1.36328031910872E-02 
2257	-0.017267799514593 
2258	-2.20823235359853E-03 
2259	 3.25604011076106E-03 
2260	-1.35663057485538E-03 
2261	-3.07177738472084E-02 
2262	-0.025461996310551 
2263	-3.01206700945938E-03 
2264	 4.48546508119332E-03 
2265	 2.84240470564442E-02 
2266	 3.55236131966103E-02 
2267	 0.012797892908389 
2268	 6.38893295733808E-03 
2269	 0.013251294845976 
2270	-6.72482577027513E-03 
2271	-4.00890499371166E-02 
2272	-5.53016224184833E-02 
2273	-9.12777503564118E-02 
2274	-0.096167553467853 
2275	-7.42642363243139E-02 
2276	-5.17559947707889E-02 
2277	-1.37349632624374E-03 
2278	 3.51017902481368E-02 
2279	 8.48007311896206E-02 
2280	 9.50596217152714E-02 
2281	 7.99753437879969E-02 
2282	 5.90196475224702E-02 
2283	 1.04842397484267E-02 
2284	-2.74457755586927E-02 
2285	-1.41417248827571E-02 
2286	-0.047973602288548 
2287	-6.70783070880297E-02 
2288	-6.53353381478421E-02 
2289	-7.42403714167221E-02 
2290	-3.57873546293979E-02 
2291	-1.72236538256602E-03 
2292	 2.44775189125927E-02 
2293	 3.60314858758864E-02 
2294	 4.25448536362112E-02 
2295	 3.13070347624451E-02 
2296	-1.83361163946093E-02 
2297	-4.37061561679652E-02 
2298	-5.47512682257909E-02 
2299	-4.39624230851435E-03 
2300	 5.85169674601819E-02 
2301	 5.71897840835461E-02 
2302	 6.57626028013924E-02 
2303	 7.66879072704891E-03 
2304	-3.68015569704873E-02 
2305	 7.36561954122771E-03 
2306	-2.14936555182963E-02 
2307	-0.105745067909839 
2308	-0.141651577332343 
2309	-0.144951551789888 
2310	-0.201232739243287 
2311	-0.191321203734052 
2312	-0.133270690649124 
2313	-0.181054204092983 
2314	-0.164745022962513 
2315	-0.104991772553483 
2316	-0.132996233156778 
2317	-0.103626701833901 
2318	-5.93099894976247E-02 
2319	-8.04864575320149E-02 
2320	-2.54832964760968E-02 
2321	 1.09135214349194E-03 
2322	-2.55131354740487E-02 
2323	 4.45319476295488E-02 
2324	 0.114473650912564 
2325	 0.231436334433205 
2326	 0.311087283768477 
2327	 0.258272134667464 
2328	 0.144211002942303 
2329	 1.88974280126427E-02 
2330	-2.88397184640005E-02 
2331	 3.96035597657824E-03 
2332	 4.77504689544891E-03 
2333	-1.65478477934226E-02 
2334	-8.90700698686975E-02 
2335	-0.18404308037337 
2336	-0.196003294713639 
2337	-0.203095242469217 
2338	-0.23277804474519 
2339	-0.150939844583342 
2340	 5.90497557249989E-02 
2341	 0.270320849434686 
2342	 0.422411001614941 
2343	 0.250456425152903 
2344	-3.05659421869298E-04 
2345	-8.83031843130178E-02 
2346	-3.32923598372407E-02 
2347	-0.122627875879553 
2348	 9.69897188575584E-02 
2349	 0.07922954846399 
2350	-5.74131202074202E-02 
2351	 5.18058910061164E-02 
2352	 8.39126967208568E-02 
2353	 9.81173993768866E-02 
2354	 0.178334127051272 
2355	 0.215579619128986 
2356	 0.217844464466782 
2357	 0.339192421129694 
2358	 0.585793402252947 
2359	 0.349527092411938 
2360	 1.46371316136808E-02 
2361	-0.253063464713498 
2362	-0.319531344572045 
2363	-0.148036189090211 
2364	 0.020723552641944 
2365	 1.58157646078027E-02 
2366	 2.11643075759637E-03 
2367	-0.243256209373637 
2368	-0.446468642397814 
2369	-0.534001159038568 
2370	-1.48213128230384 
2371	-0.716180777489371 
2372	-1.89701132456465 
2373	 1.81937375372682 
2374	 1.00503995456304 
2375	 0.947690326865307 
2376	 0.906249831750448 
2377	 0.371010941447743 
2378	 0.6249091256659 
2379	 1.46948472955221 
2380	 0.991345677187899 
2381	-2.71390091758916 
2382	-1.22990749127217 
2383	-0.250343000557165 
2384	 0.966031626725062 
2385	-7.95166366911199 
2386	-0.596507756476452 
2387	-0.418428008143552 
2388	-4.50524863038039E-02 
2389	-9.58719773751814E-02 
2390	 0.262580283430825 
2391	 4.17393701640527 
2392	-3.39732026045493 
2393	-2.36532396685321 
2394	-1.05466901181855 
2395	-0.759264496266655 
2396	-0.850046164915424 
2397	-0.321575867373162 
2398	-0.145228278022506 
2399	 0.215131789336392 
2400	 1.6298658293287 
2401	-5.08313937609818 
2402	-2.02809618135843 
2403	-1.03400351945123 
2404	-1.97238800618502 
2405	-3.82802776060338 
2406	-22.1531331943048 
2407	 5.05620754253036 
2408	 5.57968237804554 
2409	-10.9099271514019 
2410	 2.02754884771797 
2411	 1.40530266211769 
2412	 1.97403129746821 
2413	 1.44302091667121 
2414	 2.28853282677245 
2415	 5.77240549859102 
2416	 2.45042456069862 
2417	 3.25273432936526 
2418	 0.459105929714368 
2419	-1.51557310592543 
2420	-6.61732450492472 
2421	-1.11147675133658 
2422	-0.089164043475749 
2423	 82.3670500359533 
2424	 2.71954437282894 
2425	-3.72227942426842 
2426	-1.66664467263888 
2427	 1.83342122291466 
2428	 1.51675360881172 
2429	 0.911332816496732 
2430	 156.927339086243 
2431	 1.77885806229144 
2432	 1.13283128263268E-02 
2433	-0.582392130818143 
2434	-0.741499747750743 
2435	-0.120990883581966 
2436	 1.11174288258566 
2437	 5.13178958125119 
2438	 18.7879938736369 
2439	-12.5460000981298 
2440	-6.1236931051047 
2441	-1.92347572226402 
2442	-1.06209660002663 
2443	-0.512566791012807 
2444	-0.752069781645198 
2445	-0.748170806915901 
2446	 3.57025394985841E-02 
2447	 6.40952753952292E-02 
2448	 0.366364517581729 
2449	 0.447382889838287 
2450	 0.128773805666127 
2451	-0.109664275198102 
2452	-0.106298851752807 
2453	 3.47708206132313E-02 
2454	 0.25040493955948 
2455	 0.532614214428773 
2456	 0.792925537980098 
2457	 1.0312876741965 
2458	 0.873373354207432 
2459	 1.12895799129101 
2460	 1.05856295585135 
2461	 0.776078809241117 
2462	 0.926310831045725 
2463	 0.578641805195036 
2464	 0.414051620326384 
2465	 0.436106397702564 
2466	 0.458785348337402 
2467	 0.673410243154358 
2468	 1.69690711773437 
2469	 3.30625221476526 
2470	 1.75439950343572 
2471	 1.23042667755365 
2472	 1.39439249741381 
2473	 1.06876421381764 
2474	 1.01686511456568 
2475	 0.949421483391745 
2476	 0.71931307822179 
2477	 0.727071195880158 
2478	 1.21209200403273 
2479	 2.73867455732464 
2480	 2.76981760912599 
2481	 1.09864312835017 
2482	 0.999151131529518 
2483	 1.86118392352355 
2484	-22.2964133028376 
2485	-2.82616061511645 
2486	-4.27789404582415 
2487	 5.55112502393466 
2488	 0.612422073769967 
2489	 0.196930533960468 
2490	-2.72786288589653E-02 
2491	-7.95420113674102E-02 
2492	-0.24847899249459 
2493	-0.442427224878323 
2494	-0.170672578505366 
2495	-0.281557282998094 
2496	-0.207773277894074 
2497	 0.327896082798503 
2498	 0.486896108946346 
2499	 1.20979525005075 
2500	 10.0992884136075 
