Wavelength	rt0727close00004.asd
350	 0.050234840357602 
351	 5.00857090626143E-02 
352	 4.92889234644338E-02 
353	 4.88458618284694E-02 
354	 0.049232261494203 
355	 4.96361707725732E-02 
356	 4.97969017408838E-02 
357	 4.96581472102119E-02 
358	 4.93162983817916E-02 
359	 0.048941989991991 
360	 4.90051180777039E-02 
361	 4.94679060113575E-02 
362	 4.99130587694103E-02 
363	 4.99364465906356E-02 
364	 4.97742800709423E-02 
365	 4.96695368988512E-02 
366	 4.97247813380532E-02 
367	 5.00025160717003E-02 
368	 5.00245380345421E-02 
369	 4.96618297234291E-02 
370	 5.06136556955993E-02 
371	 5.05552305956662E-02 
372	 4.97758383421789E-02 
373	 4.99671400096516E-02 
374	 5.00602367792269E-02 
375	 5.01814012300442E-02 
376	 5.04590640558558E-02 
377	 5.08653207792472E-02 
378	 5.10944491121089E-02 
379	 0.05150206849951 
380	 5.22230659650189E-02 
381	 5.22088082002809E-02 
382	 5.23304300076286E-02 
383	 5.24573738752553E-02 
384	 5.21666980051975E-02 
385	 5.26788819830497E-02 
386	 5.26803030697006E-02 
387	 5.21175545746856E-02 
388	 0.052493026001344 
389	 5.31449670030273E-02 
390	 5.34449472158072E-02 
391	 5.32100253591573E-02 
392	 5.32390237204486E-02 
393	 5.33811574616771E-02 
394	 5.36307630142671E-02 
395	 5.39415846192035E-02 
396	 5.38716757933451E-02 
397	 5.38431747020171E-02 
398	 5.39778587266954E-02 
399	 5.40994346232357E-02 
400	 5.42992743313645E-02 
401	 5.43698288331658E-02 
402	 5.43064954555752E-02 
403	 5.46535061502822E-02 
404	 5.49625804168031E-02 
405	 5.51225199559884E-02 
406	 5.51724241960617E-02 
407	 5.51929795982157E-02 
408	 5.54727555253001E-02 
409	 5.58841676857506E-02 
410	 5.59226964588582E-02 
411	 5.59846677459594E-02 
412	 5.61104839583547E-02 
413	 5.62211063426977E-02 
414	 5.60574820736638E-02 
415	 0.056314396854624 
416	 5.68097201938648E-02 
417	 5.70328069932981E-02 
418	 5.68991347186797E-02 
419	 5.70691942026358E-02 
420	 5.76132399098004E-02 
421	 5.79246088367527E-02 
422	 5.78077045288422E-02 
423	 5.79302710053572E-02 
424	 5.85853495726491E-02 
425	 5.84589646688849E-02 
426	 5.87201299391596E-02 
427	 5.93105412329761E-02 
428	 5.96253810222908E-02 
429	 5.98178898200156E-02 
430	 6.01177791290504E-02 
431	 6.05195327915718E-02 
432	 6.07371965685471E-02 
433	 6.10093955400808E-02 
434	 6.13773775779562E-02 
435	 6.18033648914375E-02 
436	 6.21667470456831E-02 
437	 6.24856532695946E-02 
438	 6.28559647863088E-02 
439	 6.33587060728089E-02 
440	 6.35498585849741E-02 
441	 6.38285246867374E-02 
442	 0.064318101425791 
443	 6.46059109863489E-02 
444	 6.48375947336437E-02 
445	 0.065163735509046 
446	 6.56291442723703E-02 
447	 6.58558175162959E-02 
448	 6.61376225505252E-02 
449	 6.64144285129621E-02 
450	 6.64087776214125E-02 
451	 0.066662002056497 
452	 6.69901767710594E-02 
453	 6.72298507467043E-02 
454	 6.74898877134682E-02 
455	 6.76636719347028E-02 
456	 6.77423975115564E-02 
457	 6.78054266618844E-02 
458	 6.82027245385868E-02 
459	 0.068305668154387 
460	 6.81575325755787E-02 
461	 6.84812499394476E-02 
462	 6.85217853273158E-02 
463	 6.85029915102501E-02 
464	 0.068703093477846 
465	 6.90213058382032E-02 
466	 6.92705722304418E-02 
467	 6.94441890241503E-02 
468	 6.96295616853331E-02 
469	 6.97969898727735E-02 
470	 6.99645199497854E-02 
471	 7.01831257072127E-02 
472	 7.05421957218069E-02 
473	 7.07886580637693E-02 
474	 0.070993622660917 
475	 7.12443839907331E-02 
476	 7.13326031265036E-02 
477	 7.15203783436508E-02 
478	 0.071772180908758 
479	 7.18868481004172E-02 
480	 0.07230302869711 
481	 7.26896600707673E-02 
482	 7.28374326797172E-02 
483	 7.29714221820455E-02 
484	 7.32397029626646E-02 
485	 7.35604120799373E-02 
486	 7.38069670506124E-02 
487	 7.41944902454024E-02 
488	 7.45427708487819E-02 
489	 7.48698226800514E-02 
490	 7.53885027149118E-02 
491	 0.075815813439625 
492	 7.60710202331586E-02 
493	 7.62584257140281E-02 
494	 7.68829282069342E-02 
495	 7.74486828067707E-02 
496	 7.78944154084101E-02 
497	 7.83760981962988E-02 
498	 7.88413170994891E-02 
499	 0.079348242946627 
500	 0.079933016576405 
501	 8.05883192221289E-02 
502	 8.11375498731394E-02 
503	 8.16964069464654E-02 
504	 8.23742903706251E-02 
505	 8.28762151343502E-02 
506	 8.33444306597755E-02 
507	 8.39594714568193E-02 
508	 8.48678589083406E-02 
509	 8.54105842361284E-02 
510	 8.58892459033358E-02 
511	 8.65740829230921E-02 
512	 8.73088084009421E-02 
513	 8.80147695560956E-02 
514	 8.86846002591365E-02 
515	 8.93693148779663E-02 
516	 9.02741957620191E-02 
517	 9.10750637849621E-02 
518	 9.16727622664815E-02 
519	 9.23030619056478E-02 
520	 9.31331691858043E-02 
521	 9.40090643879154E-02 
522	 9.47629841773601E-02 
523	 9.54251991852876E-02 
524	 9.62463427870338E-02 
525	 9.71606879747827E-02 
526	 9.79057444398972E-02 
527	 9.87638758643698E-02 
528	 9.96261674817542E-02 
529	 0.100391353824442 
530	 0.101054782722047 
531	 0.101955289005995 
532	 0.102969710197843 
533	 0.103841698787452 
534	 0.104735990567127 
535	 0.105593605055149 
536	 0.106470362632707 
537	 0.107553755615879 
538	 0.108437319195104 
539	 0.109316742117018 
540	 0.110397623345112 
541	 0.111426609739658 
542	 0.112425434054485 
543	 0.113354755159634 
544	 0.114175427253345 
545	 0.115177390036718 
546	 0.116224053725009 
547	 0.117222813411512 
548	 0.118294157164354 
549	 0.119205658836013 
550	 0.12005737337501 
551	 0.121021915851914 
552	 0.121911304918127 
553	 0.122929018047368 
554	 0.124018453742951 
555	 0.124811539891557 
556	 0.125620324480588 
557	 0.126584711465039 
558	 0.127687574899052 
559	 0.128601067515438 
560	 0.129446919004697 
561	 0.130232011984931 
562	 0.130919063677638 
563	 0.131722755538835 
564	 0.132508063615982 
565	 0.133201759081148 
566	 0.133955739166578 
567	 0.134541075103149 
568	 0.135057227483076 
569	 0.135685377403012 
570	 0.136325383484657 
571	 0.136764510026849 
572	 0.137079935035434 
573	 0.137646680097458 
574	 0.138032519931247 
575	 0.138336495844782 
576	 0.138719052811735 
577	 0.139141469510544 
578	 0.139528563667419 
579	 0.1398978634458 
580	 0.140297270214263 
581	 0.140431538052026 
582	 0.140633669123297 
583	 0.141051210137144 
584	 0.141364434983046 
585	 0.141559639368773 
586	 0.141795933995794 
587	 0.142226129748834 
588	 0.142402501347024 
589	 0.142509787459644 
590	 0.142688986752088 
591	 0.142968100130001 
592	 0.143178694551254 
593	 0.143166375835708 
594	 0.142977312571419 
595	 0.143277937187578 
596	 0.143255001157754 
597	 0.143051430324211 
598	 0.143241218751269 
599	 0.143073730782495 
600	 0.142869700777063 
601	 0.142867754122228 
602	 0.14297658274433 
603	 0.142895316337203 
604	 0.142778458959831 
605	 0.142835481755268 
606	 0.142688377898917 
607	 0.142648831863057 
608	 0.142698449383803 
609	 0.142472099001177 
610	 0.142582522991736 
611	 0.142594697183588 
612	 0.1422113665683 
613	 0.142194608955662 
614	 0.142228318224295 
615	 0.142160612313223 
616	 0.141966128570016 
617	 0.141937866983837 
618	 0.14194929954117 
619	 0.141875050161196 
620	 0.141654917029891 
621	 0.141647144727576 
622	 0.141786369261581 
623	 0.141885391805386 
624	 0.141968839853899 
625	 0.141937137486144 
626	 0.141826492671068 
627	 0.141801441181245 
628	 0.141780304348281 
629	 0.141778039207538 
630	 0.141765270437748 
631	 0.141517853176087 
632	 0.141537758813741 
633	 0.141659422203342 
634	 0.141483064614814 
635	 0.141523860154338 
636	 0.141646834805842 
637	 0.141709906137163 
638	 0.141645992590437 
639	 0.141785899253232 
640	 0.141946579106121 
641	 0.141888030517862 
642	 0.141790493204232 
643	 0.141869992890593 
644	 0.142035565191793 
645	 0.141961064496953 
646	 0.142060779573118 
647	 0.14209181532033 
648	 0.141889910548892 
649	 0.141790069928642 
650	 0.141448546707113 
651	 0.141026138125267 
652	 0.140808336646719 
653	 0.14039506710348 
654	 0.139983305308211 
655	 0.139547099943236 
656	 0.138777592833431 
657	 0.137947735171364 
658	 0.137160193477281 
659	 0.13642328545692 
660	 0.135725163935653 
661	 0.134876468550486 
662	 0.133977710198977 
663	 0.133301332692502 
664	 0.132645875799588 
665	 0.131977913454249 
666	 0.131350104555372 
667	 0.130966040979023 
668	 0.130344523960369 
669	 0.129851929070077 
670	 0.12992292131924 
671	 0.129808259155163 
672	 0.129852789483364 
673	 0.130070896981806 
674	 0.130151020353785 
675	 0.130434697840774 
676	 0.130906362169111 
677	 0.131481771354606 
678	 0.132083151117902 
679	 0.132741298149392 
680	 0.133476538515741 
681	 0.134318571761341 
682	 0.135384511752283 
683	 0.136411045551214 
684	 0.137447942518288 
685	 0.139158683426783 
686	 0.140643704602136 
687	 0.141985867469306 
688	 0.143399005256594 
689	 0.144508027767482 
690	 0.145682023051377 
691	 0.147054687173894 
692	 0.148581484612948 
693	 0.149913433698822 
694	 0.150638219426569 
695	 0.150893723600379 
696	 0.151536805873548 
697	 0.152158933123321 
698	 0.152676540162763 
699	 0.153039013682376 
700	 0.153458026674563 
701	 0.153626374230558 
702	 0.15348541670792 
703	 0.153213723823539 
704	 0.153270855448687 
705	 0.15331976798416 
706	 0.153121688714883 
707	 0.15292949451853 
708	 0.152616673637499 
709	 0.152258979642039 
710	 0.151934031491455 
711	 0.151282842409069 
712	 0.150786394017075 
713	 0.150433237963891 
714	 0.149647015422605 
715	 0.149403281143835 
716	 0.149322105999692 
717	 0.148646022722091 
718	 0.147405448443086 
719	 0.146028631693854 
720	 0.144883689257529 
721	 0.143785032200377 
722	 0.142954071250123 
723	 0.142086752739921 
724	 0.141222830527436 
725	 0.140450246105399 
726	 0.138835003208979 
727	 0.136910344595552 
728	 0.135196767605266 
729	 0.133277341636672 
730	 0.131038844042298 
731	 0.128875409667965 
732	 0.12703380774404 
733	 0.125386574938045 
734	 0.124000367752473 
735	 0.122849386153372 
736	 0.121725335439554 
737	 0.120708983351289 
738	 0.119965107927821 
739	 0.119561547954669 
740	 0.119210495796884 
741	 0.118886368269797 
742	 0.118750939248643 
743	 0.118940099406735 
744	 0.118613959908985 
745	 0.118447194481226 
746	 0.118684058122569 
747	 0.118802536161152 
748	 0.118877251351372 
749	 0.118894029689932 
750	 0.11885856330532 
751	 0.118848720472361 
752	 0.118991167813713 
753	 0.119087521433613 
754	 0.11885562865653 
755	 0.118867145422673 
756	 0.119063816564099 
757	 0.119294835336325 
758	 0.11935919640668 
759	 0.119969521320491 
760	 0.121141622070911 
761	 0.121469514768954 
762	 0.121540717931853 
763	 0.121229318965554 
764	 0.120753505892692 
765	 0.12040343185799 
766	 0.120561055848067 
767	 0.120697581351735 
768	 0.120683238376752 
769	 0.120709315308944 
770	 0.120813487347137 
771	 0.121043467937008 
772	 0.121374189937042 
773	 0.121598390575028 
774	 0.121888525128564 
775	 0.12225763269471 
776	 0.122621334597817 
777	 0.122740808544898 
778	 0.122927212115751 
779	 0.123341301799385 
780	 0.123924160268392 
781	 0.12428057854556 
782	 0.124454699125144 
783	 0.124633797205087 
784	 0.125145024520103 
785	 0.125411787039028 
786	 0.125641501584556 
787	 0.12622149700183 
788	 0.126773457905087 
789	 0.127147912773968 
790	 0.127447778409279 
791	 0.127926860506411 
792	 0.128056785784178 
793	 0.12833290139177 
794	 0.128924915664838 
795	 0.129238377784578 
796	 0.129556344969235 
797	 0.129857513275001 
798	 0.130130330287111 
799	 0.130637031254735 
800	 0.130792205457944 
801	 0.130831340175722 
802	 0.131324030106767 
803	 0.131386757779482 
804	 0.131443294971554 
805	 0.131543683494114 
806	 0.131258554423184 
807	 0.131345248636548 
808	 0.131516376004043 
809	 0.131427362480992 
810	 0.131177155874665 
811	 0.130899732142539 
812	 0.130730698725917 
813	 0.130735733982348 
814	 0.130483421676715 
815	 0.130230416427372 
816	 0.129916588728465 
817	 0.129215238403347 
818	 0.128153483398229 
819	 0.127457861895749 
820	 0.126989243516265 
821	 0.125651318687775 
822	 0.124559780658062 
823	 0.123490712389279 
824	 0.122051964877132 
825	 0.120076188674868 
826	 0.118236516715937 
827	 0.116225831053218 
828	 0.113802162623643 
829	 0.112304589465054 
830	 0.110878745739067 
831	 0.109161403214934 
832	 0.107403675254528 
833	 0.106529145698854 
834	 0.105338585523623 
835	 0.103779599088666 
836	 0.103455820636153 
837	 0.102969756918538 
838	 0.102445558965418 
839	 0.10199411722911 
840	 0.100767588573251 
841	 0.100403531783384 
842	 0.10031348099904 
843	 9.94938496158562E-02 
844	 9.90955257467357E-02 
845	 9.84319087489978E-02 
846	 9.77581634727642E-02 
847	 9.78353771771422E-02 
848	 0.097631244531314 
849	 9.70181820560784E-02 
850	 0.096380585984684 
851	 9.65065925510944E-02 
852	 9.58981871031842E-02 
853	 9.52827699696336E-02 
854	 9.52069929784633E-02 
855	 9.48029575123005E-02 
856	 9.45168173427909E-02 
857	 9.44628399861723E-02 
858	 9.44313389089343E-02 
859	 9.33410815130669E-02 
860	 9.29539067156389E-02 
861	 9.29352172704237E-02 
862	 9.21424914605778E-02 
863	 9.17368337067822E-02 
864	 0.091783589826083 
865	 9.18221562245736E-02 
866	 9.11211246738056E-02 
867	 9.05991399577739E-02 
868	 9.01530288111372E-02 
869	 8.96124888664409E-02 
870	 8.89293343317199E-02 
871	 8.84859880668884E-02 
872	 8.84708887480459E-02 
873	 8.85974438420093E-02 
874	 8.76477934894388E-02 
875	 8.72495017300997E-02 
876	 8.67734542247099E-02 
877	 8.55632731373827E-02 
878	 8.55658655974812E-02 
879	 8.53485415345838E-02 
880	 8.47007079050216E-02 
881	 8.40282510352083E-02 
882	 8.33151819501565E-02 
883	 0.083168294842334 
884	 8.31429368899924E-02 
885	 8.22251271350972E-02 
886	 8.19300547234756E-02 
887	 8.08653741464811E-02 
888	 7.94094005674126E-02 
889	 8.00434090169478E-02 
890	 7.96173188780064E-02 
891	 7.94533831377987E-02 
892	 7.99728199481698E-02 
893	 7.80888215066036E-02 
894	 7.80581078871866E-02 
895	 7.86532075172371E-02 
896	 0.077870461857943 
897	 7.81438602564421E-02 
898	 7.78659707867274E-02 
899	 7.69086771843677E-02 
900	 7.57950338624786E-02 
901	 7.48238987819427E-02 
902	 7.40541433150683E-02 
903	 7.40065653185791E-02 
904	 7.47006766346909E-02 
905	 7.28419319971099E-02 
906	 7.19622990051215E-02 
907	 7.26204354883108E-02 
908	 7.27542388823325E-02 
909	 7.13631982283656E-02 
910	 7.04577860318741E-02 
911	 7.04083416283659E-02 
912	 6.97966006476818E-02 
913	 6.91102835843455E-02 
914	 6.83817299047872E-02 
915	 6.72738447297984E-02 
916	 6.52372522413198E-02 
917	 6.24979076782731E-02 
918	 6.13755503173238E-02 
919	 6.16479683612235E-02 
920	 5.99878792027727E-02 
921	 5.82996683065845E-02 
922	 5.65689391994674E-02 
923	 5.48313486995821E-02 
924	 0.054055356341006 
925	 5.42831617063189E-02 
926	 5.40147659294385E-02 
927	 5.18278637681831E-02 
928	 4.93191119163484E-02 
929	 0.054927039858567 
930	 6.07765684101677E-02 
931	 4.86193889327305E-02 
932	 5.02143830936735E-02 
933	 4.76161460977131E-02 
934	 3.88249809073657E-02 
935	 0.034863774574794 
936	 3.62676237820035E-02 
937	 0.040751754988131 
938	 4.15115523739454E-02 
939	 3.63133312959983E-02 
940	 0.043307612949442 
941	 3.98173259683862E-02 
942	 3.10196728879386E-02 
943	 3.38018433872156E-02 
944	 3.65182865446821E-02 
945	 4.12242125988562E-02 
946	 4.08476550454938E-02 
947	 0.028331360253278 
948	 2.22549706289412E-02 
949	 2.21224023649559E-02 
950	 2.66615152268466E-02 
951	 3.37042168129461E-02 
952	 3.52945359855478E-02 
953	 2.63166767443252E-02 
954	 0.022224469688631 
955	 0.039842928867056 
956	 3.02814524676718E-02 
957	 2.13614599696456E-02 
958	 0.022118620768293 
959	 2.52274634600749E-02 
960	 0.029856214254206 
961	 2.79087655320208E-02 
962	 2.52694284117174E-02 
963	 3.16755631772816E-02 
964	 2.83331892366742E-02 
965	 2.60655533021394E-02 
966	 2.69387747256623E-02 
967	 2.62997131996775E-02 
968	 2.42722050370668E-02 
969	 2.27742603615438E-02 
970	 2.23289640949787E-02 
971	 2.26733600840273E-02 
972	 3.00864195503598E-02 
973	 3.07451313815777E-02 
974	 2.53396131149911E-02 
975	 2.84276751047404E-02 
976	 2.62705694975266E-02 
977	 2.72458304254025E-02 
978	 2.93326801096231E-02 
979	 2.30106936714592E-02 
980	 2.15877031639322E-02 
981	 2.32319762939946E-02 
982	 2.43854361488874E-02 
983	 2.25846388415256E-02 
984	 2.23880879144883E-02 
985	 2.27795477783716E-02 
986	 2.21295952111384E-02 
987	 1.98395612523907E-02 
988	 2.23850786275506E-02 
989	 2.48070047547577E-02 
990	 2.47458189918341E-02 
991	 2.33595040033492E-02 
992	 2.59262428283624E-02 
993	 2.45723749673315E-02 
994	 2.12820070102143E-02 
995	 2.36344141266713E-02 
996	 2.49239556386197E-02 
997	 2.43801531609286E-02 
998	 0.022816638034795 
999	 2.21395405350071E-02 
1000	 2.52183277767776E-02 
1001	 0.02692684965871 
1002	 2.66360778056854E-02 
1003	 2.71583605040721E-02 
1004	 2.90106707951174E-02 
1005	 2.97673186709326E-02 
1006	 3.04173354322879E-02 
1007	 3.06855764863688E-02 
1008	 3.12184984674292E-02 
1009	 3.06683214072495E-02 
1010	 2.98852925944632E-02 
1011	 3.00414285577933E-02 
1012	 2.95955673505541E-02 
1013	 2.84779984001452E-02 
1014	 2.75931845112945E-02 
1015	 2.65933326443182E-02 
1016	 2.60325456736393E-02 
1017	 2.54302568509551E-02 
1018	 2.53282719434651E-02 
1019	 0.025701636733018 
1020	 0.026352968359046 
1021	 2.76830162137811E-02 
1022	 0.028055702693178 
1023	 2.87631339223018E-02 
1024	 2.95723090618822E-02 
1025	 3.00968870547783E-02 
1026	 3.02732534840519E-02 
1027	 3.05592812604804E-02 
1028	 0.031341421871537 
1029	 3.12971576220875E-02 
1030	 3.01408058966489E-02 
1031	 3.03373586404914E-02 
1032	 3.07741542306618E-02 
1033	 3.13190348239267E-02 
1034	 3.28962077807929E-02 
1035	 3.39026504469845E-02 
1036	 3.47082307766826E-02 
1037	 3.52887984161407E-02 
1038	 3.59483330674788E-02 
1039	 3.60026316406043E-02 
1040	 3.59370557641444E-02 
1041	 3.56580047604384E-02 
1042	 3.60106311957642E-02 
1043	 3.66662369697172E-02 
1044	 3.70879500483099E-02 
1045	 3.79397560804286E-02 
1046	 3.84201795518151E-02 
1047	 3.83029781842558E-02 
1048	 3.86659891867586E-02 
1049	 3.95489580465641E-02 
1050	 3.97881108988934E-02 
1051	 3.92418026450302E-02 
1052	 3.98314747664542E-02 
1053	 4.11916827059283E-02 
1054	 4.17365208242525E-02 
1055	 4.25239340654963E-02 
1056	 4.33813967104858E-02 
1057	 0.043996047955676 
1058	 0.043727248461952 
1059	 4.38993288530429E-02 
1060	 4.47529673574353E-02 
1061	 4.47647027919678E-02 
1062	 4.38218945213502E-02 
1063	 4.36948222952913E-02 
1064	 4.37734382128265E-02 
1065	 4.38134693914343E-02 
1066	 4.40074003267102E-02 
1067	 4.43388312213807E-02 
1068	 4.47188404618969E-02 
1069	 4.51101124088721E-02 
1070	 4.62523439262902E-02 
1071	 4.65037909528332E-02 
1072	 4.62502284470266E-02 
1073	 4.57491969061569E-02 
1074	 4.52816975915259E-02 
1075	 4.40476951016898E-02 
1076	 0.043876013781844 
1077	 4.42665774307261E-02 
1078	 4.43853603020477E-02 
1079	 4.53599152315905E-02 
1080	 4.48699201009383E-02 
1081	 0.042931596063212 
1082	 4.24979095366196E-02 
1083	 4.19714108322317E-02 
1084	 4.17319896408151E-02 
1085	 4.29749107204387E-02 
1086	 4.33027910304569E-02 
1087	 0.043074110211249 
1088	 4.26507068225568E-02 
1089	 0.041475086560303 
1090	 4.10918369802993E-02 
1091	 4.08814088444653E-02 
1092	 4.08739776312218E-02 
1093	 4.02368754451996E-02 
1094	 3.95665878626124E-02 
1095	 3.94698885628455E-02 
1096	 3.85583469080508E-02 
1097	 3.86571344217039E-02 
1098	 4.17663970528234E-02 
1099	 4.15725704127358E-02 
1100	 0.038145441895969 
1101	 3.74735961017859E-02 
1102	 3.62378007193004E-02 
1103	 0.035874183265765 
1104	 3.82674280908623E-02 
1105	 4.09921606907253E-02 
1106	 4.23113936331597E-02 
1107	 3.97842992605034E-02 
1108	 3.60537742978065E-02 
1109	 3.37144956191341E-02 
1110	 3.34213712248867E-02 
1111	 3.66944269040068E-02 
1112	 3.72134268439707E-02 
1113	 3.78232157413141E-02 
1114	 3.87281319712565E-02 
1115	 3.68791619702575E-02 
1116	 3.47691477419876E-02 
1117	 3.76415634023936E-02 
1118	 4.11383847458681E-02 
1119	 3.25937531942473E-02 
1120	 3.31460934322303E-02 
1121	 5.04701467569284E-02 
1122	 0.077258991361727 
1123	 8.52191029614817E-02 
1124	 0.110343698920694 
1125	 7.62995199692539E-02 
1126	 4.87449371907242E-03 
1127	-9.9827835512059E-03 
1128	 3.36525434374184E-02 
1129	 6.20567612572979E-02 
1130	 0.140292242721766 
1131	 0.122513593443397 
1132	 4.72949609254512E-02 
1133	 2.98796577657745E-02 
1134	 9.08648016953641E-05 
1135	 1.59262493653276E-03 
1136	 4.78842304031803E-02 
1137	 5.00786780663969E-02 
1138	 3.01879640292735E-02 
1139	 0.025590368805413 
1140	 3.06126687856808E-02 
1141	 4.33474960030275E-02 
1142	 6.44437136502559E-02 
1143	 6.73783523638251E-02 
1144	 4.14757448403582E-02 
1145	 2.08131196054884E-02 
1146	 2.23805626795323E-02 
1147	 3.49465374849906E-02 
1148	 4.81492653690626E-02 
1149	 0.050685917001403 
1150	 5.10287334772555E-02 
1151	 3.75906836730744E-02 
1152	 3.75147259480238E-02 
1153	 4.86302049415953E-02 
1154	 4.64394559241659E-02 
1155	 4.26097899147989E-02 
1156	 3.66507191935786E-02 
1157	 3.06724708169863E-02 
1158	 2.89278332106161E-02 
1159	 2.98194062832701E-02 
1160	 2.82369626040316E-02 
1161	 2.67833156842888E-02 
1162	 2.65924167754937E-02 
1163	 2.64006374926569E-02 
1164	 2.78211515396759E-02 
1165	 2.93797355151315E-02 
1166	 2.74020519231008E-02 
1167	 2.52329785619431E-02 
1168	 0.024649216729203 
1169	 2.36330993666305E-02 
1170	 2.50742060748867E-02 
1171	 2.55546467812837E-02 
1172	 2.54514568828074E-02 
1173	 2.53303927593556E-02 
1174	 2.52803412834243E-02 
1175	 2.58621633458015E-02 
1176	 2.49699067429354E-02 
1177	 2.60467219789331E-02 
1178	 2.72683730559494E-02 
1179	 2.48700399609327E-02 
1180	 2.31931955262997E-02 
1181	 0.024077787398268 
1182	 2.37700132074051E-02 
1183	 2.29481244386057E-02 
1184	 0.024334539877423 
1185	 0.024710885507643 
1186	 0.02345231643883 
1187	 2.46885652118239E-02 
1188	 0.025880921434913 
1189	 0.025142455716877 
1190	 2.48874149350981E-02 
1191	 2.47271838853737E-02 
1192	 2.47938378834911E-02 
1193	 2.42745391425478E-02 
1194	 2.46540534743145E-02 
1195	 2.52399579722251E-02 
1196	 2.49856210571683E-02 
1197	 2.47680209980936E-02 
1198	 2.49297637561915E-02 
1199	 2.45541113049796E-02 
1200	 2.42080514145425E-02 
1201	 2.43924094270278E-02 
1202	 2.46013001511857E-02 
1203	 2.42041390566588E-02 
1204	 2.41741389010157E-02 
1205	 0.024892796341922 
1206	 2.40540477373396E-02 
1207	 2.32329579767877E-02 
1208	 2.41678546186233E-02 
1209	 2.43289291204378E-02 
1210	 0.023581538624273 
1211	 2.33637350626342E-02 
1212	 2.38015580316084E-02 
1213	 0.024158684568388 
1214	 2.40544670133605E-02 
1215	 2.39253680061513E-02 
1216	 2.42528121592018E-02 
1217	 2.45167302648069E-02 
1218	 2.38001017848349E-02 
1219	 2.29809487059384E-02 
1220	 2.27568268712123E-02 
1221	 2.21253566514622E-02 
1222	 2.23489225369177E-02 
1223	 2.32851314436472E-02 
1224	 2.33034888015528E-02 
1225	 2.36197010870688E-02 
1226	 2.32663809973216E-02 
1227	 2.25765873503499E-02 
1228	 2.34001265794812E-02 
1229	 2.35408481946362E-02 
1230	 0.022755318864251 
1231	 2.30414431288291E-02 
1232	 0.023675963373322 
1233	 2.33509792403915E-02 
1234	 0.022990324218907 
1235	 2.30428324941584E-02 
1236	 2.29651928919879E-02 
1237	 2.26962017530069E-02 
1238	 2.27098231527329E-02 
1239	 2.27449171601419E-02 
1240	 2.21295380689104E-02 
1241	 2.14147086831461E-02 
1242	 2.09357150317643E-02 
1243	 2.12753267531158E-02 
1244	 2.20699862665809E-02 
1245	 2.19581270392242E-02 
1246	 2.18922413374579E-02 
1247	 2.24741079527951E-02 
1248	 0.022270235297822 
1249	 2.19293258204929E-02 
1250	 2.23308980012619E-02 
1251	 2.25606781295382E-02 
1252	 2.28761428970906E-02 
1253	 2.27885951510561E-02 
1254	 2.22381215597659E-02 
1255	 2.25055374490012E-02 
1256	 2.24369080003849E-02 
1257	 2.19919326139538E-02 
1258	 2.22703271820484E-02 
1259	 2.32789307799815E-02 
1260	 2.30269335395995E-02 
1261	 2.25544215145308E-02 
1262	 2.24983195630885E-02 
1263	 2.20414342589655E-02 
1264	 2.10371720558701E-02 
1265	 2.16597842993668E-02 
1266	 2.25831454006228E-02 
1267	 2.25226407911418E-02 
1268	 2.25321910710448E-02 
1269	 2.29792273043684E-02 
1270	 2.31108675160926E-02 
1271	 0.02312976266715 
1272	 0.023607664720119 
1273	 2.32685272503249E-02 
1274	 2.26431652436652E-02 
1275	 0.022490363578718 
1276	 2.20207519329276E-02 
1277	 2.17054873189395E-02 
1278	 2.15667322068444E-02 
1279	 2.15804220330007E-02 
1280	 2.15976527415007E-02 
1281	 2.14329516011579E-02 
1282	 2.10876658654475E-02 
1283	 2.09311142809775E-02 
1284	 2.09189398012418E-02 
1285	 2.07926146857833E-02 
1286	 2.00745321042608E-02 
1287	 2.05227169591871E-02 
1288	 2.22085537562251E-02 
1289	 2.24239240539229E-02 
1290	 2.23365649959959E-02 
1291	 2.31092862875166E-02 
1292	 2.31294711324406E-02 
1293	 2.24420324066721E-02 
1294	 0.02226329131802 
1295	 2.15853965785482E-02 
1296	 2.15793396194125E-02 
1297	 0.021695488754362 
1298	 2.20450655586704E-02 
1299	 2.37896958879334E-02 
1300	 2.39178895239857E-02 
1301	 2.27350760033228E-02 
1302	 2.15545214080287E-02 
1303	 2.02971994013074E-02 
1304	 0.020012241615865 
1305	 2.03695211691748E-02 
1306	 0.020914152787731 
1307	 2.36994647491877E-02 
1308	 0.024280502660836 
1309	 2.29827968750924E-02 
1310	 0.022975753598813 
1311	 2.29690836289021E-02 
1312	 2.28051919649352E-02 
1313	 2.27817951773101E-02 
1314	 2.39942355180808E-02 
1315	 2.69349965347658E-02 
1316	 2.68256544842122E-02 
1317	 2.50020915106678E-02 
1318	 2.48749632417176E-02 
1319	 2.21928879169601E-02 
1320	 2.12713264978872E-02 
1321	 2.35345405868914E-02 
1322	 2.72755695203253E-02 
1323	 2.60042816751617E-02 
1324	 2.47147366277228E-02 
1325	 2.53715367813668E-02 
1326	 2.58978395991261E-02 
1327	 2.49406989347822E-02 
1328	 2.41424927941777E-02 
1329	 2.69652957805936E-02 
1330	 2.53182483849709E-02 
1331	 2.06391054522305E-02 
1332	 2.46631497797912E-02 
1333	 2.52863520386875E-02 
1334	 1.51102211935096E-02 
1335	 1.29804963699027E-02 
1336	 1.81085372070147E-02 
1337	 2.06175275621747E-02 
1338	 2.33008985827316E-02 
1339	 2.60430824282205E-02 
1340	 3.46446760385473E-02 
1341	 3.26063702919055E-02 
1342	 1.35617758733518E-02 
1343	 1.34784179276707E-02 
1344	 2.47088581074713E-02 
1345	 2.39537478631744E-02 
1346	 3.38491273613458E-02 
1347	 4.57729123518488E-02 
1348	 3.00256107956302E-02 
1349	 2.54784478375377E-02 
1350	 7.76229567892007E-02 
1351	 0.104932401125153 
1352	 4.52951602090119E-02 
1353	 5.84291123087949E-02 
1354	 0.268204434835874 
1355	 0.300013568008554 
1356	-3.81820464195297E-02 
1357	 9.11738256974925E-02 
1358	 0.393651469477249 
1359	 0.211384276145335 
1360	 0.393861950794156 
1361	 0.853183058897187 
1362	 0.826207347276518 
1363	 0.62949754887478 
1364	 0.917333552855742 
1365	 8.19668620360338 
1366	 3.90356788702295 
1367	 1.08341389724123 
1368	 0.544020194900288 
1369	 0.317864361148315 
1370	 0.340260464643966 
1371	 0.390290895314699 
1372	 0.374343436722608 
1373	 0.643616348196004 
1374	 0.623323471501623 
1375	 0.202955753518585 
1376	 6.84881444472805E-02 
1377	-0.084833526614385 
1378	-2.78244233845229E-02 
1379	 0.566554839295126 
1380	 0.675628560227722 
1381	 9.10386658114315E-02 
1382	 0.79376710863767 
1383	 0.43830368513095 
1384	 0.295961098042301 
1385	 1.08192877471428 
1386	 1.44844649288969 
1387	 1.41006110801654 
1388	 0.976879772585184 
1389	 0.221007606243351 
1390	 0.250526884865702 
1391	 0.380480382213218 
1392	-0.150338197739665 
1393	 0.191029197241228 
1394	 0.600939750192123 
1395	 0.802420837460506 
1396	 0.557683581810325 
1397	-5.90480797422029E-03 
1398	 3.93925266716133E-02 
1399	 0.409463601629698 
1400	 0.256730678378377 
1401	 0.18820700035649 
1402	 0.569607927547541 
1403	 1.04267575400548 
1404	-0.229057373766526 
1405	-0.301166044994111 
1406	 0.219293805763161 
1407	 8.63461080693239E-02 
1408	-0.106720265975078 
1409	 4.37428184980807E-02 
1410	 0.143114852494923 
1411	 0.190774470517144 
1412	 0.567271640162571 
1413	 0.628877703045086 
1414	 0.261611398532065 
1415	-1.93960974806036E-03 
1416	-0.712817270597148 
1417	-0.605983298643097 
1418	 0.507872896337625 
1419	 0.536045899768527 
1420	 3.94421904880936E-03 
1421	 0.211563192411965 
1422	 0.709639985560868 
1423	 0.475566694580157 
1424	-0.030489167307208 
1425	 0.240644517275521 
1426	 0.903630714343229 
1427	 0.675749452841263 
1428	 0.244510109050141 
1429	 0.242270425457118 
1430	-8.93989546958638E-02 
1431	-0.244739370972321 
1432	 4.23722232755138E-02 
1433	 0.253385118901358 
1434	 0.632006273456221 
1435	 0.655578986138884 
1436	-1.89315068752729E-02 
1437	-0.355512376905923 
1438	-0.289232339169067 
1439	-0.564950191012478 
1440	 0.057750028305483 
1441	 0.413451697483836 
1442	 0.371485584006354 
1443	 0.330002866383306 
1444	 0.155896844337898 
1445	 0.176119195502905 
1446	 0.208174819902549 
1447	 5.91235994600743E-02 
1448	 6.62310879764703E-02 
1449	 9.46949963882446E-02 
1450	 9.88042773957142E-02 
1451	 9.05378780199937E-02 
1452	 9.01444651303672E-02 
1453	 0.153624946348442 
1454	 0.136523858701489 
1455	 0.102489009288684 
1456	 8.55277028128123E-02 
1457	 4.15273308337761E-02 
1458	 2.44447673128163E-02 
1459	 3.32422292752765E-02 
1460	 3.20371276419621E-02 
1461	 2.22291263141861E-02 
1462	 1.87639666313946E-02 
1463	 2.74515473139742E-02 
1464	 2.31991277448579E-02 
1465	 4.55539052263665E-03 
1466	 1.58148245645063E-03 
1467	-3.8098179363376E-03 
1468	 6.85924206618233E-03 
1469	 0.052113697208673 
1470	 0.05995980072185 
1471	 5.72398180408331E-02 
1472	 5.55627684025979E-02 
1473	 3.66207528550659E-02 
1474	 2.94204703407607E-02 
1475	 2.32190053228407E-02 
1476	 2.04178043378881E-02 
1477	 3.14827047351079E-02 
1478	 2.24306789948024E-02 
1479	-7.92097115896668E-03 
1480	-9.39277525553758E-03 
1481	-9.13056062664258E-03 
1482	-6.86901410785965E-03 
1483	 0.011581680137586 
1484	 2.24141505683002E-02 
1485	 3.38990962687407E-02 
1486	 3.46339367085813E-02 
1487	 2.88714385408854E-02 
1488	 2.64679670563494E-02 
1489	 1.96871136539638E-02 
1490	 1.75924522618124E-02 
1491	 1.89330168637829E-02 
1492	 1.97921270143037E-02 
1493	 2.31557463479936E-02 
1494	 2.23467910680007E-02 
1495	 1.66312325923249E-02 
1496	 1.75582596818261E-02 
1497	 2.23145989857004E-02 
1498	 2.23994897746068E-02 
1499	 2.11246501683118E-02 
1500	 2.35501157824332E-02 
1501	 2.74141421003852E-02 
1502	 2.71661004094083E-02 
1503	 2.73557638772446E-02 
1504	 2.77013003239709E-02 
1505	 2.44008523603486E-02 
1506	 2.29039924618212E-02 
1507	 2.25676178533741E-02 
1508	 2.23082678854561E-02 
1509	 2.32900628465009E-02 
1510	 2.27517493174692E-02 
1511	 2.24295637877856E-02 
1512	 2.28656651816783E-02 
1513	 2.20607617308323E-02 
1514	 2.23267197922114E-02 
1515	 2.33674892724317E-02 
1516	 2.21620584787465E-02 
1517	 1.95448330114044E-02 
1518	 1.68958584321375E-02 
1519	 1.63013511114287E-02 
1520	 1.84946668336529E-02 
1521	 0.021053432358277 
1522	 2.19583971338397E-02 
1523	 2.10035584341691E-02 
1524	 2.02243115416604E-02 
1525	 1.89859074397298E-02 
1526	 1.79233253460378E-02 
1527	 1.75282209188313E-02 
1528	 1.71286019377271E-02 
1529	 1.76963791324304E-02 
1530	 1.73614183708208E-02 
1531	 1.81768916034063E-02 
1532	 2.01022845828511E-02 
1533	 2.07231401237078E-02 
1534	 2.17142929792469E-02 
1535	 2.13307079130182E-02 
1536	 0.020795009304225 
1537	 2.21527238239367E-02 
1538	 2.17690936804547E-02 
1539	 1.92288025850972E-02 
1540	 1.79960753236426E-02 
1541	 1.73763982698459E-02 
1542	 1.72001648749185E-02 
1543	 1.92837568274957E-02 
1544	 2.06323783938444E-02 
1545	 1.90021754790677E-02 
1546	 1.77458266682237E-02 
1547	 1.88430575640655E-02 
1548	 1.90367315132672E-02 
1549	 0.017606936248925 
1550	 0.017907422767931 
1551	 1.91024861492152E-02 
1552	 1.87015135876566E-02 
1553	 1.96866669170991E-02 
1554	 2.11090172212376E-02 
1555	 2.02113190256808E-02 
1556	 0.019375710809552 
1557	 1.71111959930895E-02 
1558	 1.61489654957517E-02 
1559	 1.82888908871643E-02 
1560	 1.73074439076381E-02 
1561	 1.60597435835133E-02 
1562	 1.74137267609551E-02 
1563	 1.85287037241516E-02 
1564	 1.85595429908555E-02 
1565	 1.92456450057734E-02 
1566	 2.29363036751589E-02 
1567	 2.37424355633156E-02 
1568	 2.14850918600998E-02 
1569	 2.12928525902418E-02 
1570	 2.02636069901797E-02 
1571	 1.84754067356554E-02 
1572	 1.79951734172685E-02 
1573	 1.92572106922785E-02 
1574	 1.97719032497464E-02 
1575	 1.79048921230195E-02 
1576	 1.74264678982536E-02 
1577	 1.89490954662139E-02 
1578	 1.93061259324952E-02 
1579	 1.82491398421616E-02 
1580	 0.018102284360402 
1581	 1.82235473115892E-02 
1582	 1.84194000588222E-02 
1583	 1.87566379481047E-02 
1584	 1.90164285175959E-02 
1585	 2.04989234351163E-02 
1586	 2.01405032218472E-02 
1587	 1.83806632045433E-02 
1588	 1.94551083915973E-02 
1589	 2.08623972840045E-02 
1590	 2.04460792977868E-02 
1591	 1.88444260648738E-02 
1592	 1.88814765233141E-02 
1593	 2.08836253842911E-02 
1594	 2.06289471861062E-02 
1595	 2.05155430796682E-02 
1596	 2.09492855159941E-02 
1597	 1.89787297798436E-02 
1598	 1.74250622561218E-02 
1599	 1.71587217021952E-02 
1600	 1.73908599937633E-02 
1601	 1.90281111170251E-02 
1602	 2.04046406959183E-02 
1603	 1.98693643132267E-02 
1604	 2.06410476289146E-02 
1605	 2.23892353649503E-02 
1606	 2.11429963697907E-02 
1607	 2.02336705484397E-02 
1608	 2.15245314587833E-02 
1609	 0.021242693921901 
1610	 2.01654517021182E-02 
1611	 2.11999045230478E-02 
1612	 2.23689122631389E-02 
1613	 2.19455589761647E-02 
1614	 2.13679103406867E-02 
1615	 2.04532624133066E-02 
1616	 2.07225749056834E-02 
1617	 2.16331000084103E-02 
1618	 2.01938849349291E-02 
1619	 1.98664452369318E-02 
1620	 2.10352198579783E-02 
1621	 2.10844675171907E-02 
1622	 2.21367371520023E-02 
1623	 2.28214922104978E-02 
1624	 2.27411779011283E-02 
1625	 2.32664693237204E-02 
1626	 2.18769078772184E-02 
1627	 2.14331738116924E-02 
1628	 2.25931604751255E-02 
1629	 2.09468070605605E-02 
1630	 2.00160249608675E-02 
1631	 2.12811522026853E-02 
1632	 2.08808174508797E-02 
1633	 1.99616599459101E-02 
1634	 1.93427704396396E-02 
1635	 1.77270067132974E-02 
1636	 1.67848325330958E-02 
1637	 0.017907740052882 
1638	 1.97540545299964E-02 
1639	 2.06611883168136E-02 
1640	 1.93374586095932E-02 
1641	 1.73499232959705E-02 
1642	 1.76461911234074E-02 
1643	 1.96946119972842E-02 
1644	 2.14129542015243E-02 
1645	 2.22207263504556E-02 
1646	 2.24844506218412E-02 
1647	 2.14289508146224E-02 
1648	 2.05091027690473E-02 
1649	 2.15634494713695E-02 
1650	 2.15028222769544E-02 
1651	 2.02953879107681E-02 
1652	 2.09536798363915E-02 
1653	 0.020544404754545 
1654	 2.01314787471776E-02 
1655	 0.02046700466509 
1656	 2.03366060052612E-02 
1657	 1.94639935827654E-02 
1658	 1.95882098263569E-02 
1659	 0.020522030483908 
1660	 2.09065005675772E-02 
1661	 2.10951112920082E-02 
1662	 2.07091049735144E-02 
1663	 0.020107266610659 
1664	 2.05213572373384E-02 
1665	 2.17878939627888E-02 
1666	 2.15210334096087E-02 
1667	 0.020003854244162 
1668	 1.90109885950764E-02 
1669	 1.88026446123174E-02 
1670	 0.01773101495091 
1671	 1.77799309493682E-02 
1672	 1.95031220597249E-02 
1673	 2.11007453931862E-02 
1674	 2.22007135709597E-02 
1675	 2.23275383212204E-02 
1676	 2.00029964362317E-02 
1677	 1.86737602214983E-02 
1678	 2.17722779278117E-02 
1679	 2.34422184029266E-02 
1680	 2.07202308774174E-02 
1681	 1.92177070580625E-02 
1682	 1.90047774136099E-02 
1683	 1.88462583907753E-02 
1684	 2.18760705879474E-02 
1685	 2.27325614316603E-02 
1686	 1.90694404667312E-02 
1687	 1.98775150314897E-02 
1688	 2.31490453188672E-02 
1689	 2.30052082633071E-02 
1690	 2.30774898767243E-02 
1691	 2.22365155928774E-02 
1692	 1.80277392682497E-02 
1693	 0.017191989323818 
1694	 2.11116517939767E-02 
1695	 2.14885989027106E-02 
1696	 2.13391999438048E-02 
1697	 2.44900649894675E-02 
1698	 2.28579301320045E-02 
1699	 2.00662566003228E-02 
1700	 2.13467471982605E-02 
1701	 1.99505873315085E-02 
1702	 1.74240217830822E-02 
1703	 1.80626602720539E-02 
1704	 1.85506591750771E-02 
1705	 1.89256466345435E-02 
1706	 2.16530044836075E-02 
1707	 2.38145767988504E-02 
1708	 2.38535270416302E-02 
1709	 2.31766150589666E-02 
1710	 0.021758869140821 
1711	 2.12174128302466E-02 
1712	 2.12879940485195E-02 
1713	 2.34468150991849E-02 
1714	 2.37696220796115E-02 
1715	 0.022391103235626 
1716	 2.43009411321849E-02 
1717	 2.32940876657439E-02 
1718	 2.25559980116651E-02 
1719	 2.35862884599887E-02 
1720	 2.22772729166014E-02 
1721	 2.04199257692452E-02 
1722	 2.05674302518146E-02 
1723	 2.14729006626734E-02 
1724	 2.19327541837068E-02 
1725	 2.33860876518948E-02 
1726	 2.57239217405977E-02 
1727	 2.62149202109478E-02 
1728	 2.66233058198599E-02 
1729	 2.87081142578576E-02 
1730	 2.70163671532673E-02 
1731	 2.45317675445231E-02 
1732	 2.53456802374108E-02 
1733	 2.37082207427167E-02 
1734	 2.40440809681293E-02 
1735	 2.78786348503563E-02 
1736	 2.35400991985008E-02 
1737	 1.59252888276265E-02 
1738	 1.74127303161946E-02 
1739	 1.76950599699923E-02 
1740	 1.69946101732566E-02 
1741	 2.47280038243163E-02 
1742	 2.76047280798258E-02 
1743	 0.022398823390611 
1744	 2.09034007585812E-02 
1745	 2.16205726487893E-02 
1746	 2.61284607064156E-02 
1747	 2.49831690470058E-02 
1748	 2.06203945429243E-02 
1749	 2.00957729010492E-02 
1750	 1.48558614249769E-02 
1751	 1.28198099826507E-02 
1752	 2.09652452852365E-02 
1753	 2.26090335100971E-02 
1754	 1.63752074203683E-02 
1755	 1.64936041945163E-02 
1756	 1.95851285553481E-02 
1757	 1.63825317025464E-02 
1758	 2.13719031909651E-02 
1759	 2.67223936880232E-02 
1760	 2.69939157778961E-02 
1761	 2.88641703157239E-02 
1762	 2.76399036164647E-02 
1763	 2.47454411220597E-02 
1764	 2.52947514270889E-02 
1765	 0.027645998519774 
1766	 3.23373551643787E-02 
1767	 3.05439979311456E-02 
1768	 0.028468669194263 
1769	 2.99312901909304E-02 
1770	 2.99402296314926E-02 
1771	 3.69137369691096E-02 
1772	 3.77756875218321E-02 
1773	 3.18962275181094E-02 
1774	 3.23231606745607E-02 
1775	 2.07302404305446E-02 
1776	 2.09943435150718E-02 
1777	 3.76696291275716E-02 
1778	 3.87688163283646E-02 
1779	 3.72157911772175E-02 
1780	 4.21612936191669E-02 
1781	 3.28132839011274E-02 
1782	 3.08461612136817E-02 
1783	 5.40665451420331E-02 
1784	 4.95172348335723E-02 
1785	 2.27171821856089E-02 
1786	 1.42081150598126E-02 
1787	-5.8761047510696E-03 
1788	-5.00734093177209E-03 
1789	 2.04260537914618E-02 
1790	 2.21804246743341E-02 
1791	 0.050842043602798 
1792	 2.12168180411155E-02 
1793	 1.95605848107418E-03 
1794	 2.29546578636895E-02 
1795	-4.60175657049229E-03 
1796	-7.81872219298713E-03 
1797	 7.55339038913243E-02 
1798	 0.157665683568379 
1799	 0.130765485595618 
1800	 0.102987456917315 
1801	 0.120124101648232 
1802	 0.142812942038255 
1803	 0.18200200197403 
1804	 0.264570372493056 
1805	 0.46079581714021 
1806	 1.19351637206628 
1807	 1.96156319375946 
1808	 5.31950371632755 
1809	-37.8660882926744 
1810	 9.33282920349205 
1811	 2.79664034334186 
1812	 1.26094786455321 
1813	 1.2373079658612 
1814	 1.05734544754061 
1815	 0.914810346222742 
1816	 2.5684900007832 
1817	 0.624249276027464 
1818	-0.225218870586155 
1819	 1.63512837706186 
1820	-0.628365636198521 
1821	-0.834206697359315 
1822	-0.473363087330647 
1823	 0.135367821783601 
1824	 0.309279019954574 
1825	 1.44918005555079 
1826	 2.73524741851282 
1827	-56.741675876661 
1828	-20.2075635867695 
1829	 0.725726954927666 
1830	 0.432783596676371 
1831	-0.44331779900928 
1832	-0.370685905528496 
1833	-0.143913978026022 
1834	 5.82096422218853E-04 
1835	 0.283825355413253 
1836	 0.262260287237166 
1837	-0.170514071816958 
1838	-0.404196795297504 
1839	-1.29797546200741 
1840	-3.8430519727118 
1841	-4.08142791155075 
1842	-2.29098119271608 
1843	-2.36826266547314 
1844	-2.21263898298176 
1845	-1.36985382257826 
1846	-3.20443616545527 
1847	-2.40930520830423 
1848	 4.07719967331562 
1849	-0.694097366889855 
1850	-2.53863325965558 
1851	-1.42732418025162 
1852	-0.459648237967319 
1853	-0.713999393142915 
1854	-0.972700406072864 
1855	-1.13818770551463 
1856	-4.06769596241598 
1857	 217.151254338059 
1858	 6.58757928099508 
1859	 5.71886497689176 
1860	 2.22443163515812 
1861	 1.07650983201526 
1862	 0.616030213761302 
1863	 0.425299809747046 
1864	 0.135406799677648 
1865	-3.94776659026565E-02 
1866	-0.182197911151011 
1867	-0.24303780653955 
1868	 0.42842746672481 
1869	 0.949545605878814 
1870	 3.30247870319539 
1871	-24.2696322740731 
1872	 20.9561843444036 
1873	 16.7031673264449 
1874	-19.0899376835869 
1875	-1.28015803748435 
1876	-0.935262292393655 
1877	-2.06346093510033 
1878	-5.84118503667147 
1879	 2.05034154603892 
1880	 0.89655592689844 
1881	-0.211955729040017 
1882	-0.746864773330429 
1883	-5.55081465501453E-02 
1884	 0.464891531448577 
1885	 0.516033167902835 
1886	 0.920982352765896 
1887	 1.89024012724205 
1888	 2.57927578693801 
1889	 2.72490853492917 
1890	 2.4960228578029 
1891	 2.60852857773236 
1892	 1.8649457107675 
1893	 1.76460402034439 
1894	 1.74248340808506 
1895	 1.37171828902039 
1896	 0.672196792884174 
1897	 0.240062043338202 
1898	-0.03945887041004 
1899	-0.235283500584337 
1900	-0.34997720240676 
1901	-0.348845396444255 
1902	-0.294366124211099 
1903	 1.86418086271612E-02 
1904	 6.51024533677001E-03 
1905	 0.401263839554717 
1906	 1.34543930251999 
1907	 1.67291377105932 
1908	 2.17852410831204 
1909	 3.4429920721089 
1910	 3.22061770109593 
1911	 2.11959431190008 
1912	 2.03475131604698 
1913	 2.85874517940156 
1914	 58.7480838522264 
1915	-8.00063127931747 
1916	-1.79730367431105 
1917	-0.928825864934165 
1918	-0.961974572897801 
1919	-4.09239214894048 
1920	-7.71251874601499 
1921	-2.67903418564282 
1922	-5.97368792579048 
1923	-4.52853042260961 
1924	-5.78420023752885 
1925	 0.39032986239175 
1926	 4.75285566881675E-02 
1927	-2.67021978279998E-02 
1928	-0.332158678504512 
1929	-0.397682715600886 
1930	 0.403765570199801 
1931	 2.97435713772494 
1932	 15.2494931989336 
1933	 4.38058209550314 
1934	 1.44186585257589 
1935	 1.29432587382385 
1936	 3.22774413596288 
1937	 5.3827533277553 
1938	 2.8474697353207 
1939	 0.84955519314502 
1940	-0.524527485714713 
1941	-1.00600599062061 
1942	-1.06492410075987 
1943	 0.120737519446637 
1944	 6.68713680781954 
1945	-9.37526379738152 
1946	-2.41242330874348 
1947	-0.888257997768721 
1948	-0.650166528100242 
1949	-0.714905016392644 
1950	-1.09547841769078 
1951	-3.83150965155929 
1952	-24.8197211076403 
1953	-15.795219969198 
1954	-3.84563491632963 
1955	 10.968728967016 
1956	 5.44229805936354 
1957	 7.56609255102623 
1958	 0.997600318038765 
1959	 0.583792426350787 
1960	 0.677671659699428 
1961	 0.5012186124708 
1962	 0.369514231422639 
1963	 0.378138557905911 
1964	 0.353879616760071 
1965	 0.381977964177159 
1966	 0.44937126367068 
1967	 0.661078885283491 
1968	 0.73406893572399 
1969	 0.55109312869736 
1970	 0.446026355756086 
1971	 0.278334268078516 
1972	 0.174257959006114 
1973	 0.198660565852564 
1974	 0.173304552472718 
1975	 0.169749937661159 
1976	 0.168118138057389 
1977	 0.108409509188499 
1978	 0.127064550792314 
1979	 9.84589344133581E-02 
1980	 1.95178908454386E-02 
1981	-5.42362191439082E-02 
1982	 7.54728934882466E-03 
1983	 2.02050209426535E-02 
1984	 1.85438523005675E-02 
1985	 4.53314645200986E-02 
1986	 2.79318384225577E-02 
1987	 1.45416901840099E-02 
1988	 6.60442212959023E-02 
1989	 0.114202674231356 
1990	 0.157935728846346 
1991	 0.165055784234986 
1992	 0.106586860379031 
1993	 0.109192986544991 
1994	 0.122701770295582 
1995	 0.16621670080523 
1996	 0.162877856090706 
1997	 0.18695611906733 
1998	 0.185843637295926 
1999	 0.186596947943494 
2000	 0.209417896432257 
2001	 0.197763473557767 
2002	 0.204298085772355 
2003	 0.151852501357283 
2004	 3.30879115435893E-02 
2005	-2.22852364386338E-02 
2006	-2.02832233618496E-02 
2007	-0.047684279310957 
2008	-3.94298826564849E-02 
2009	-5.08671716693624E-02 
2010	-9.30330244578086E-02 
2011	-7.32818040321919E-02 
2012	 8.05505547438503E-03 
2013	-3.00487846501962E-02 
2014	-8.50697340149259E-02 
2015	-7.37092109503717E-02 
2016	-4.88286438523211E-02 
2017	 5.91663306959175E-03 
2018	 2.70644761128318E-02 
2019	 3.80979293603058E-02 
2020	 0.02417796039435 
2021	-3.18040059238764E-02 
2022	-1.63095624667023E-02 
2023	-1.13091333151609E-02 
2024	-7.94844649780203E-03 
2025	-1.12099272450591E-02 
2026	-1.05378772475556E-02 
2027	-1.96149973224605E-02 
2028	 1.63553209529626E-02 
2029	 1.45971168187096E-02 
2030	-9.48171277225156E-03 
2031	 2.35714156955916E-02 
2032	 2.75247999757652E-02 
2033	 4.26759177714093E-02 
2034	 5.24845967599435E-02 
2035	 2.85476504172046E-02 
2036	 1.14168934939984E-02 
2037	-7.00312036935001E-03 
2038	-6.73368194535893E-03 
2039	-4.29204121543072E-03 
2040	 6.85166671941188E-03 
2041	 1.93025887091011E-02 
2042	 5.04202416813458E-02 
2043	 5.25666907736669E-02 
2044	 4.20528213921028E-02 
2045	 3.89496008509372E-02 
2046	 3.17582494878812E-02 
2047	 1.23079128296879E-02 
2048	 2.95347282390685E-02 
2049	 5.33543932428058E-02 
2050	 3.97058585871261E-02 
2051	 3.89156221131892E-02 
2052	 3.36140555834904E-02 
2053	 5.03567473772195E-03 
2054	 4.15831194961112E-04 
2055	 5.71254716203273E-03 
2056	 1.00108728934586E-02 
2057	 3.98511763165615E-02 
2058	 3.06757398646569E-02 
2059	-1.42314110303703E-02 
2060	-1.43980059038982E-02 
2061	-5.59621532438251E-03 
2062	-2.10379989342754E-02 
2063	 1.08208781952308E-02 
2064	 2.90085774628408E-02 
2065	-1.32811202019464E-02 
2066	-1.10734157519772E-02 
2067	-1.03669342965671E-02 
2068	-2.19616612105545E-02 
2069	 2.98694982682725E-02 
2070	 5.31661989579982E-02 
2071	 5.45083192704852E-02 
2072	 7.80792811957029E-02 
2073	 7.69169236360938E-02 
2074	 4.10446516180468E-02 
2075	 3.28356465621794E-02 
2076	 0.031842962335914 
2077	 2.61362901875593E-02 
2078	 2.52278039711265E-02 
2079	 2.53244175056546E-02 
2080	 3.02367758693091E-02 
2081	 2.11068852618878E-02 
2082	 0.011118649327406 
2083	 1.11011302810931E-02 
2084	 6.9175910935584E-03 
2085	 0.018423405062692 
2086	 4.00427942746163E-02 
2087	 4.48206236338825E-02 
2088	 4.23443627711825E-02 
2089	 4.30370291786709E-02 
2090	 4.33295074842405E-02 
2091	 3.79665926762662E-02 
2092	 0.030783282547546 
2093	 2.08562998046485E-02 
2094	 1.76185721634217E-02 
2095	 1.22877748443822E-02 
2096	 9.0441831217536E-03 
2097	 1.28022634474033E-02 
2098	 0.015120753450453 
2099	 1.02328393563496E-02 
2100	 1.80714061396222E-02 
2101	 3.60215535295811E-02 
2102	 3.84033732409941E-02 
2103	 4.85509617236105E-02 
2104	 5.38572087214975E-02 
2105	 5.64591514413939E-02 
2106	 6.11060458904723E-02 
2107	 6.31888281330264E-02 
2108	 6.25159271719005E-02 
2109	 5.19267756675656E-02 
2110	 5.16682337245218E-02 
2111	 3.85406895102849E-02 
2112	 2.63828145508533E-02 
2113	 2.08553636163942E-02 
2114	 1.28687466436577E-02 
2115	 1.21881269370302E-02 
2116	 2.67882357750092E-02 
2117	 0.030305102979678 
2118	 2.91831577340363E-02 
2119	 3.14033342355251E-02 
2120	 2.96909122383106E-02 
2121	 3.60053950001181E-02 
2122	 4.21282976696942E-02 
2123	 4.92694590500319E-02 
2124	 4.61556949192852E-02 
2125	 3.78335608778035E-02 
2126	 3.25167320208928E-02 
2127	 3.24079843648284E-02 
2128	 4.95378516212498E-02 
2129	 5.44504300747322E-02 
2130	 4.74160249233037E-02 
2131	 4.52740713923774E-02 
2132	 4.03593955367907E-02 
2133	 0.035067510035111 
2134	 0.029811242671442 
2135	 2.85413622497904E-02 
2136	 2.00558381964582E-02 
2137	 2.31233416934123E-03 
2138	-2.52602807893982E-03 
2139	-3.40395424589125E-03 
2140	 7.31303283566935E-04 
2141	 1.17365693100005E-02 
2142	 2.05380137816027E-02 
2143	 3.45205250296098E-02 
2144	 0.041209547621664 
2145	 4.11862502149447E-02 
2146	 4.72382563289563E-02 
2147	 0.036514349020884 
2148	 7.8081406871201E-03 
2149	-8.74740516599938E-03 
2150	-8.09751989390474E-03 
2151	-2.44975253881897E-03 
2152	 9.30495058257226E-03 
2153	 2.86067488397894E-02 
2154	 3.71313498347797E-02 
2155	 3.49599903052146E-02 
2156	 3.31597754820647E-02 
2157	 2.78271631560281E-02 
2158	 9.14475035598689E-03 
2159	 1.03530510280233E-03 
2160	-1.41610591467374E-03 
2161	-4.73305362804594E-03 
2162	-7.30801780030071E-03 
2163	-7.39782788225319E-03 
2164	-1.08588026928112E-02 
2165	-6.81088845341122E-03 
2166	 4.61295559730767E-03 
2167	 1.52845796670808E-02 
2168	 4.20370897942986E-02 
2169	 5.02225405442851E-02 
2170	 4.95005415564832E-02 
2171	 4.24779771171019E-02 
2172	 0.030925244985975 
2173	 2.07353026278517E-02 
2174	 2.61741299853548E-02 
2175	 0.029293131583631 
2176	 3.40249954027891E-02 
2177	 2.57811853542916E-02 
2178	 1.52806568135162E-02 
2179	 1.57409372564404E-02 
2180	 7.37478540777503E-03 
2181	 1.61142804045803E-03 
2182	 5.22051592292504E-03 
2183	 8.7330124869273E-03 
2184	 3.76474388756552E-03 
2185	-7.16233549557372E-03 
2186	-8.06682422468225E-03 
2187	-7.74502668598302E-03 
2188	-1.16507075978848E-02 
2189	-5.78612457571159E-03 
2190	-2.45815357507734E-03 
2191	-1.33501215738756E-02 
2192	-1.44140076505533E-02 
2193	-2.88864282920688E-03 
2194	-2.79148229167756E-03 
2195	-1.55159125886692E-02 
2196	-9.80886957253934E-03 
2197	 4.79749318094297E-03 
2198	 1.59248174184818E-02 
2199	 0.034127883986643 
2200	 6.71170811167349E-02 
2201	 7.72182297785535E-02 
2202	 6.90101332061392E-02 
2203	 4.90948935182071E-02 
2204	 2.33557379079851E-02 
2205	 1.05361261752454E-02 
2206	 1.24011323581896E-02 
2207	 3.10706532196609E-02 
2208	 4.74766045474757E-02 
2209	 4.41391643738946E-02 
2210	 3.50034263455364E-02 
2211	 2.21365711325334E-02 
2212	 1.04528547642608E-02 
2213	-1.01739705221492E-02 
2214	-3.70551435060502E-02 
2215	-3.65496249024507E-02 
2216	-2.40766509286182E-02 
2217	-0.012531382143453 
2218	 2.59427916788045E-02 
2219	 3.86522045905701E-02 
2220	 3.76325243186598E-02 
2221	 3.76485302027126E-02 
2222	 2.59577208976341E-02 
2223	 2.04530050785757E-02 
2224	 1.93368379829566E-02 
2225	 5.96152469665425E-03 
2226	-2.01770710805436E-02 
2227	-1.94053742579786E-02 
2228	-9.59815073173809E-03 
2229	-6.76496944843229E-03 
2230	 1.21976458275686E-02 
2231	 2.42565805858197E-02 
2232	 2.50916044947412E-02 
2233	 2.44837713060337E-02 
2234	 0.026620951230393 
2235	 2.62164109657857E-02 
2236	 0.022975188551403 
2237	 0.036817783761029 
2238	 5.08088153506564E-02 
2239	 6.10218895649784E-02 
2240	 6.67126621251287E-02 
2241	 4.70364377473868E-02 
2242	 4.30947307668329E-02 
2243	 3.67083756937902E-02 
2244	 2.71288934438033E-02 
2245	 3.77628572170529E-02 
2246	 2.46892374614674E-02 
2247	 2.46001450062107E-02 
2248	 3.62630818692641E-02 
2249	 3.21083424687028E-02 
2250	 6.06956723027904E-02 
2251	 7.33781253369816E-02 
2252	 0.05402258412544 
2253	 5.25144394139934E-02 
2254	 5.51415057705498E-02 
2255	 5.83992784122082E-02 
2256	 6.35032129721175E-02 
2257	 0.061033510745435 
2258	 0.048393507424909 
2259	 5.27427912237598E-02 
2260	 4.35966972248532E-02 
2261	 3.30590988975382E-02 
2262	 2.15215652562411E-02 
2263	-9.85325537827383E-03 
2264	-3.01885643588521E-02 
2265	-4.04570451383668E-02 
2266	-0.024998159041373 
2267	 2.53967461310348E-02 
2268	 3.27031058066891E-02 
2269	 3.64487600844003E-02 
2270	 3.06105797288148E-02 
2271	-3.18528412416315E-02 
2272	-4.34607675379822E-02 
2273	-4.52518179437519E-03 
2274	 7.77977237906012E-03 
2275	 0.024672981276308 
2276	 2.82556016843881E-02 
2277	 1.07119189251679E-02 
2278	-3.32623034578623E-03 
2279	-3.86072271570907E-02 
2280	-3.51323532144394E-02 
2281	-1.03500458092749E-02 
2282	 1.62735649926701E-02 
2283	 6.19870116188961E-02 
2284	 0.106743571691186 
2285	 7.66968780028923E-02 
2286	 0.060823815804295 
2287	 5.49817324871908E-02 
2288	 6.68855098710079E-02 
2289	 0.107416435872144 
2290	 0.128785148452423 
2291	 0.161169621179706 
2292	 0.137903407367315 
2293	 0.102074463853474 
2294	 0.100405657024668 
2295	 3.49694693477481E-02 
2296	-2.50494162388843E-02 
2297	-1.68550200080099E-02 
2298	-4.64596191806997E-03 
2299	 9.42929575413535E-04 
2300	 4.71335047051219E-02 
2301	 6.23158422686781E-02 
2302	 2.41414042315866E-02 
2303	-1.77839879755183E-02 
2304	-5.77558395599893E-02 
2305	-6.40586991075058E-02 
2306	-5.53474258814735E-02 
2307	-3.49957331889301E-02 
2308	 4.88599085763858E-02 
2309	 8.88321019100448E-02 
2310	 7.11973563829671E-02 
2311	 0.103425873870605 
2312	 6.80800232835727E-02 
2313	-7.99841935861378E-02 
2314	-0.153930773117994 
2315	-0.242033634306965 
2316	-0.3194312472198 
2317	-0.190880827625869 
2318	-0.10779712736311 
2319	-5.25436178455094E-02 
2320	-3.52617092534758E-02 
2321	-6.29950476438627E-02 
2322	-1.73343215479613E-02 
2323	 0.043868360864899 
2324	 5.03040902756698E-02 
2325	 3.44024414027512E-03 
2326	-7.81996820336649E-02 
2327	-8.38046247030153E-02 
2328	-0.030142824660133 
2329	 6.40191143003396E-03 
2330	 3.66275029317851E-02 
2331	-2.99469422120211E-02 
2332	-0.12231756614847 
2333	-0.131856939539575 
2334	-8.37558136854095E-02 
2335	-1.61948247548191E-02 
2336	 0.13562884305328 
2337	 0.215627000858416 
2338	 0.100961477025499 
2339	 4.01962970908333E-02 
2340	-0.120268228142825 
2341	-0.57388008406295 
2342	-0.643860291986171 
2343	-0.374102922600284 
2344	-0.348122927268814 
2345	-0.402600264175626 
2346	-0.391906285469235 
2347	-0.334611073570616 
2348	-0.277588982659333 
2349	-9.52712660835452E-02 
2350	 2.22149985433068E-02 
2351	-8.35811594594445E-02 
2352	-0.218166762556665 
2353	-0.31641175720971 
2354	-0.369317634279143 
2355	-0.362291174406448 
2356	-0.501570733711945 
2357	-0.76660045560163 
2358	-1.15822712020317 
2359	-0.960167063537636 
2360	-0.24061149528461 
2361	 0.275324724606973 
2362	 0.449033446985501 
2363	 0.461879314087725 
2364	 0.203243667765165 
2365	 6.37389773351046E-02 
2366	-0.110949865581559 
2367	-3.42820000694467E-02 
2368	 6.08140037512963E-02 
2369	 5.01627706269792E-02 
2370	 0.710302270766011 
2371	-0.114152824679755 
2372	-0.897591035858129 
2373	 0.611122613184504 
2374	 0.77211095744865 
2375	 0.487182910052869 
2376	 0.24270018436116 
2377	 2.57093696295433E-02 
2378	-8.04426840087468E-02 
2379	 0.231791199920481 
2380	 1.30322438610333 
2381	-2.61774747154915 
2382	-0.825594462658735 
2383	-1.44862031910025 
2384	-0.895372222423966 
2385	 7.22953200452022 
2386	 1.42736459694592 
2387	 0.972335214487163 
2388	 0.508851202727519 
2389	 0.628823728245072 
2390	 0.674579500068532 
2391	 0.136738815099912 
2392	-1.75849883624668 
2393	-3.2784873802417 
2394	-2.26357558351946 
2395	-1.52334187056507 
2396	-1.32223947781675 
2397	-1.01546603292839 
2398	-1.19187102441781 
2399	-2.76106163533719 
2400	-6.62130067605698 
2401	-22.2783065949604 
2402	-6.34895422954473 
2403	 0.396592085522133 
2404	 2.03763927761323 
2405	 1.76007230264858 
2406	 9.1233238928061 
2407	-0.377354204690847 
2408	 3.20133664792554 
2409	-13.2738488961473 
2410	 4.05214362607419 
2411	 2.64184760394152 
2412	 3.10559539161211 
2413	-2.22722497239269E-02 
2414	-0.329821799321768 
2415	-3.4605342883376 
2416	-3.08868322212945 
2417	-1.12096900701243 
2418	-1.31463285525123 
2419	-2.11336982215519 
2420	-1.775661336975 
2421	-0.419888539291566 
2422	 0.870536352609405 
2423	 132.446556261047 
2424	 5.42087765381313 
2425	-26.0270213335358 
2426	-7.0837272114898 
2427	 8.66817051541344 
2428	 2.73690142082309 
2429	 5.5811240127545 
2430	-667.716615626724 
2431	-15.2336643460864 
2432	-4.19567159789544 
2433	-2.22232537058396 
2434	-1.45899609915644 
2435	-0.734425571531909 
2436	-1.39483572261324 
2437	-2.89196491431554 
2438	-5.92000836527992 
2439	 7.80435453986986 
2440	 3.80757403202516 
2441	 1.66118608031458 
2442	 2.4321096596752 
2443	 1.4989671171832 
2444	 1.08923609091635 
2445	 1.31560264675998 
2446	 0.603609972608692 
2447	 0.913135139194647 
2448	 1.10816455152794 
2449	 1.35855177219347 
2450	 1.33321311088285 
2451	 0.858398393650831 
2452	 0.373446774765314 
2453	 0.16888349436201 
2454	 4.41045629117501E-02 
2455	-4.18172849978373E-02 
2456	 5.43121305613857E-02 
2457	 0.583394383621693 
2458	 0.764074110446149 
2459	 0.534129211024118 
2460	 0.339895728545618 
2461	 6.48740830060368E-02 
2462	-0.131037449571125 
2463	 0.12406389193337 
2464	 0.283470780125365 
2465	 0.280879588666411 
2466	 0.372826645456779 
2467	 0.584293616122014 
2468	 0.89632721863296 
2469	 1.5993403428049 
2470	 0.724557259084836 
2471	-0.508086017164945 
2472	-1.17142710880449 
2473	-1.02689659612953 
2474	-1.28468220268418 
2475	-0.476463610650137 
2476	 0.183349049559606 
2477	 0.295526930162769 
2478	 0.393082100150785 
2479	 0.267225714251038 
2480	-1.08895335053169 
2481	-0.304105288570089 
2482	 1.15170683442448 
2483	 2.57073132675375 
2484	-20.0866293493378 
2485	-2.41136696605654 
2486	-3.80693393922724 
2487	 10.9228373717305 
2488	 3.34058852325934 
2489	 1.06268128253645 
2490	 0.430727843658379 
2491	 0.255848554866382 
2492	-0.456130621720765 
2493	 0.192687743853756 
2494	-0.251718831126324 
2495	-0.27174018880214 
2496	-3.09026393631749E-02 
2497	 8.60748565566936E-02 
2498	 0.500415186751667 
2499	 1.57263129164943 
2500	 11.624738042426 
