Wavelength	rt0727far200002.asd
350	 0.050700288926666 
351	 5.07026366936751E-02 
352	 5.06966967038327E-02 
353	 5.07189283788394E-02 
354	 5.08238061453362E-02 
355	 5.11222069084423E-02 
356	 0.051525487397309 
357	 5.15340094398955E-02 
358	 5.09258643469143E-02 
359	 5.10957960524285E-02 
360	 5.12248729177754E-02 
361	 5.11566361792758E-02 
362	 0.051208984032419 
363	 5.10281101868617E-02 
364	 5.12616337945098E-02 
365	 0.051805375285119 
366	 5.12511331262107E-02 
367	 5.15480183203133E-02 
368	 5.18696252625476E-02 
369	 5.13912312725424E-02 
370	 5.20612222953459E-02 
371	 5.22100511557979E-02 
372	 5.19527097297869E-02 
373	 5.23284826873979E-02 
374	 5.23460757428571E-02 
375	 5.22065010478016E-02 
376	 5.21094609551262E-02 
377	 5.20763184042613E-02 
378	 5.20158141299252E-02 
379	 5.24374577985838E-02 
380	 5.33571522125127E-02 
381	 5.28321821584861E-02 
382	 5.29679915833309E-02 
383	 5.34406562714797E-02 
384	 5.30243449830321E-02 
385	 5.32580047716052E-02 
386	 5.32828673088134E-02 
387	 5.31212973510428E-02 
388	 0.053898990597802 
389	 5.40713416850388E-02 
390	 5.38208172596315E-02 
391	 0.053659705344442 
392	 5.40088178194712E-02 
393	 5.42469653243783E-02 
394	 5.43021472585001E-02 
395	 5.43614279130151E-02 
396	 5.47425928371444E-02 
397	 5.48206479423076E-02 
398	 5.45867542494956E-02 
399	 5.45796517800089E-02 
400	 0.054743354172153 
401	 5.50353641688458E-02 
402	 5.53941803565958E-02 
403	 5.57768738843722E-02 
404	 5.56956520888461E-02 
405	 5.55652076758956E-02 
406	 5.59211390552896E-02 
407	 5.58427569469803E-02 
408	 5.58778589309447E-02 
409	 5.61287235536037E-02 
410	 5.61913599958228E-02 
411	 5.62489844402982E-02 
412	 0.056363326872645 
413	 5.65167567041676E-02 
414	 0.056534121453276 
415	 5.66991450574427E-02 
416	 5.69813861937126E-02 
417	 5.72104493243542E-02 
418	 5.72532733778058E-02 
419	 5.72536314958014E-02 
420	 5.73453376107958E-02 
421	 5.76176094755825E-02 
422	 5.78518475391954E-02 
423	 5.81509054632041E-02 
424	 5.85520206634212E-02 
425	 5.87114298358113E-02 
426	 5.89041455937985E-02 
427	 5.91336447739799E-02 
428	 5.92919543957379E-02 
429	 5.94840691184635E-02 
430	 5.96950121985013E-02 
431	 0.059952592593025 
432	 6.03448759742883E-02 
433	 0.060671379203332 
434	 6.09482755508514E-02 
435	 6.12011231760759E-02 
436	 6.12976802808061E-02 
437	 6.14932863972634E-02 
438	 6.18908056393085E-02 
439	 6.24465165006679E-02 
440	 6.27404071820671E-02 
441	 6.29290843880119E-02 
442	 6.31785026888124E-02 
443	 6.35710459107512E-02 
444	 6.37789762917155E-02 
445	 6.40027490442127E-02 
446	 6.44327467747461E-02 
447	 6.46110211592977E-02 
448	 6.49079035446905E-02 
449	 6.52210181649636E-02 
450	 6.51622689803503E-02 
451	 6.54959898795748E-02 
452	 6.58894539726198E-02 
453	 0.066078713176728 
454	 0.066268370832338 
455	 6.64608803033959E-02 
456	 6.66574074055677E-02 
457	 0.066869968978281 
458	 6.72346390206777E-02 
459	 6.74026194698412E-02 
460	 6.74158776856474E-02 
461	 0.067702526692103 
462	 0.067738528331989 
463	 6.77731822668595E-02 
464	 6.80387403006478E-02 
465	 6.82952946964633E-02 
466	 6.85858427843053E-02 
467	 6.88292123987335E-02 
468	 6.89296014494001E-02 
469	 6.90836378874387E-02 
470	 6.93384859525793E-02 
471	 6.96826994112253E-02 
472	 7.00515217965245E-02 
473	 7.02832447060591E-02 
474	 7.04903505656352E-02 
475	 7.07746194943216E-02 
476	 7.08921955827548E-02 
477	 7.10965175903439E-02 
478	 7.14015152002237E-02 
479	 7.16623099414695E-02 
480	 0.071987344202458 
481	 7.22241606689287E-02 
482	 7.23521596204739E-02 
483	 0.072687520377824 
484	 7.29568013278255E-02 
485	 7.31505369740436E-02 
486	 7.33677540858374E-02 
487	 7.37278988260564E-02 
488	 7.40098442592266E-02 
489	 7.42455366121592E-02 
490	 7.47138419479175E-02 
491	 7.52458800653324E-02 
492	 7.56502962905983E-02 
493	 7.58708725099562E-02 
494	 7.62180370555952E-02 
495	 7.66001800676452E-02 
496	 7.70105183425693E-02 
497	 7.74686520032028E-02 
498	 7.78841494406642E-02 
499	 7.82940080207821E-02 
500	 7.87874862485839E-02 
501	 0.079523135685265 
502	 7.99161046858729E-02 
503	 8.02924669947633E-02 
504	 0.081025830307534 
505	 8.15396891345535E-02 
506	 8.18821897182329E-02 
507	 8.22363204081786E-02 
508	 8.28444882716196E-02 
509	 0.083364133300389 
510	 8.38374958187676E-02 
511	 0.08437078485309 
512	 8.51099102477609E-02 
513	 8.56515751803751E-02 
514	 0.086086386142006 
515	 8.67088353894573E-02 
516	 8.75681404633026E-02 
517	 8.81918800943993E-02 
518	 8.85608609485357E-02 
519	 8.92579057743466E-02 
520	 8.99986137998418E-02 
521	 9.07039817098147E-02 
522	 9.13569152019823E-02 
523	 9.19542260768107E-02 
524	 9.26907921930451E-02 
525	 9.35120409526628E-02 
526	 0.094196003365094 
527	 9.47892673762543E-02 
528	 9.54469056925782E-02 
529	 9.61951456123698E-02 
530	 9.67649931427389E-02 
531	 9.74940832358973E-02 
532	 9.83104113385933E-02 
533	 9.90338234170502E-02 
534	 9.98406634252643E-02 
535	 0.100671124665011 
536	 0.101496534249845 
537	 0.1023330821323 
538	 0.102959006407027 
539	 0.103654393523758 
540	 0.104632798528935 
541	 0.105486922646259 
542	 0.106351174730491 
543	 0.107191774131408 
544	 0.107898817760677 
545	 0.108642978331087 
546	 0.109521462172976 
547	 0.110501329377429 
548	 0.111341830261015 
549	 0.112040073617793 
550	 0.11275685467647 
551	 0.113649455195627 
552	 0.114429352321762 
553	 0.115303395202952 
554	 0.11626625648671 
555	 0.117043481426439 
556	 0.117771900439942 
557	 0.118620170550686 
558	 0.119623551873394 
559	 0.120391138165916 
560	 0.12119606732538 
561	 0.121965293294417 
562	 0.122458841520262 
563	 0.123043162685683 
564	 0.123708715174162 
565	 0.124374057125136 
566	 0.124922979116683 
567	 0.125415805224701 
568	 0.125849767127229 
569	 0.126227076409392 
570	 0.126705281769985 
571	 0.127066007482835 
572	 0.127316466067229 
573	 0.127717137618883 
574	 0.127990862455551 
575	 0.128094065848493 
576	 0.128100882585934 
577	 0.128268727277564 
578	 0.128458540770282 
579	 0.128564975746573 
580	 0.128514056503716 
581	 0.128305847189661 
582	 0.128118217958783 
583	 0.128015034354677 
584	 0.12781263157472 
585	 0.127677968136131 
586	 0.127582811631846 
587	 0.127428015827719 
588	 0.127170860194249 
589	 0.126929524903309 
590	 0.126701929592016 
591	 0.126329114925953 
592	 0.126106666692458 
593	 0.125689266451176 
594	 0.124869534572908 
595	 0.124226004019268 
596	 0.123382647866788 
597	 0.122396582422178 
598	 0.121538660139668 
599	 0.120627208464336 
600	 0.1196945315025 
601	 0.118876524052173 
602	 0.118452956028388 
603	 0.11806006152115 
604	 0.117744099032639 
605	 0.117601258446875 
606	 0.117230121487047 
607	 0.117133791851645 
608	 0.11722465575589 
609	 0.116805501082541 
610	 0.116787432940818 
611	 0.116792765636171 
612	 0.116460420963662 
613	 0.116294790832243 
614	 0.116145168786767 
615	 0.11597895695106 
616	 0.115821872401307 
617	 0.115621857302246 
618	 0.115603620518206 
619	 0.115715154424651 
620	 0.115410957742283 
621	 0.115176516529875 
622	 0.115116772766631 
623	 0.115178974084196 
624	 0.11520109327805 
625	 0.115103236288654 
626	 0.114954258103552 
627	 0.114950230172306 
628	 0.114870323254455 
629	 0.11474830284966 
630	 0.114611795501292 
631	 0.114311307451782 
632	 0.114212977897979 
633	 0.114241714901736 
634	 0.114136535009325 
635	 0.114061173095194 
636	 0.11388388205908 
637	 0.113692722863396 
638	 0.113928553415957 
639	 0.113929092993058 
640	 0.113805462435914 
641	 0.113792422585414 
642	 0.113596655233364 
643	 0.11355333274095 
644	 0.113654178058656 
645	 0.113610094311474 
646	 0.11366074523436 
647	 0.113646996948735 
648	 0.11339283924418 
649	 0.112824178129747 
650	 0.112369200981525 
651	 0.111934013270007 
652	 0.111292175713865 
653	 0.11062279943274 
654	 0.109782532241207 
655	 0.108687663324928 
656	 0.10752337015589 
657	 0.106474708616097 
658	 0.105428952514844 
659	 0.104318839283724 
660	 0.103548808543075 
661	 0.102678544392532 
662	 0.101710161152295 
663	 0.100921766422239 
664	 0.100149242002561 
665	 9.95109143067122E-02 
666	 9.90093841832786E-02 
667	 9.83994245235974E-02 
668	 9.78631702036874E-02 
669	 9.74828396226124E-02 
670	 9.72892048687612E-02 
671	 9.72297161063527E-02 
672	 9.71210692121097E-02 
673	 9.70438911987339E-02 
674	 9.72997913158507E-02 
675	 9.73738256325658E-02 
676	 9.76722051388399E-02 
677	 9.83569178714467E-02 
678	 9.85110462817289E-02 
679	 9.87994370488205E-02 
680	 9.93297796408623E-02 
681	 9.99459664268963E-02 
682	 0.10051587599689 
683	 0.101241097037097 
684	 0.102135964966729 
685	 0.103017764349015 
686	 0.103899598260419 
687	 0.104760736263775 
688	 0.105517374158832 
689	 0.106042058027157 
690	 0.106520301459001 
691	 0.107163846954019 
692	 0.108113968775171 
693	 0.108322663840992 
694	 0.108029094862875 
695	 0.107640265798319 
696	 0.107263438481377 
697	 0.106976011417973 
698	 0.106629141431204 
699	 0.106089749643975 
700	 0.105621021051009 
701	 0.104744595786365 
702	 0.103576188259708 
703	 0.102607205092629 
704	 0.101700211491695 
705	 0.100655041715903 
706	 0.099398211300617 
707	 0.098010987569053 
708	 9.65762591274781E-02 
709	 9.50449376562098E-02 
710	 9.33681511511798E-02 
711	 9.17293473252642E-02 
712	 8.98849504032707E-02 
713	 8.79011254074364E-02 
714	 0.086157287138504 
715	 8.50179882068257E-02 
716	 8.38785035972472E-02 
717	 8.19863707315672E-02 
718	 7.94385110790189E-02 
719	 7.67390328527317E-02 
720	 7.44703545457199E-02 
721	 7.23256986501757E-02 
722	 7.09792052226747E-02 
723	 6.94761139054719E-02 
724	 6.76039040099331E-02 
725	 6.56764536839144E-02 
726	 6.34476298633779E-02 
727	 6.11279452292513E-02 
728	 5.88898347400385E-02 
729	 5.65587159078226E-02 
730	 5.37791650542764E-02 
731	 5.12749505391195E-02 
732	 4.96035036599723E-02 
733	 4.82152039207558E-02 
734	 4.70102782375081E-02 
735	 4.59852442351755E-02 
736	 4.51609039950715E-02 
737	 4.43883918577415E-02 
738	 4.36365363376472E-02 
739	 4.30063557238614E-02 
740	 4.28565123500772E-02 
741	 4.26802336772771E-02 
742	 4.25450916675986E-02 
743	 4.26926983366207E-02 
744	 4.22486323896696E-02 
745	 4.20080521592008E-02 
746	 4.22540691927126E-02 
747	 4.23786068811956E-02 
748	 0.042365183969842 
749	 4.21468265047425E-02 
750	 4.18203396364416E-02 
751	 4.19642671450494E-02 
752	 4.21449002290239E-02 
753	 4.21644436851614E-02 
754	 4.20088211265052E-02 
755	 4.19242475125777E-02 
756	 4.19480697306204E-02 
757	 0.042048683693758 
758	 4.21542617949885E-02 
759	 4.29112688048212E-02 
760	 4.39947468061618E-02 
761	 4.37788053700424E-02 
762	 4.33384941658369E-02 
763	 4.32897365653288E-02 
764	 4.32394249943794E-02 
765	 4.27688159316987E-02 
766	 4.25930838109441E-02 
767	 4.25578228968325E-02 
768	 4.25716725846598E-02 
769	 4.26155716874775E-02 
770	 4.28265928947579E-02 
771	 4.30109023330373E-02 
772	 4.30581202132359E-02 
773	 4.32602844722574E-02 
774	 4.34817965784602E-02 
775	 4.36425510645361E-02 
776	 4.37102322224057E-02 
777	 4.37524122345802E-02 
778	 4.40084230746578E-02 
779	 4.44296954094623E-02 
780	 4.46876342859374E-02 
781	 4.50273930530276E-02 
782	 4.52133051242235E-02 
783	 4.52149943257394E-02 
784	 4.56628942050048E-02 
785	 4.61454638392315E-02 
786	 4.64692176617722E-02 
787	 4.66141743405275E-02 
788	 0.047074161003554 
789	 4.75378752624495E-02 
790	 4.78582611750181E-02 
791	 4.80866961423947E-02 
792	 4.82155126053823E-02 
793	 4.86583037955458E-02 
794	 4.93877312951372E-02 
795	 4.95425715054274E-02 
796	 4.99526950136974E-02 
797	 5.03479404445073E-02 
798	 5.04404568868742E-02 
799	 5.09147867356952E-02 
800	 5.11741097763763E-02 
801	 5.13050849464943E-02 
802	 5.16891284225296E-02 
803	 5.16135990798643E-02 
804	 5.16855808639094E-02 
805	 5.20003042296559E-02 
806	 5.20256358216522E-02 
807	 5.20040240267894E-02 
808	 5.19533677157752E-02 
809	 5.19193854635242E-02 
810	 5.21564750005433E-02 
811	 5.21821407172313E-02 
812	 5.19713158881878E-02 
813	 5.17271074978452E-02 
814	 5.15246963255976E-02 
815	 5.13668448532428E-02 
816	 5.11210980611475E-02 
817	 5.05800865565987E-02 
818	 4.95532260582819E-02 
819	 4.92060364882991E-02 
820	 4.92849687246119E-02 
821	 4.78665261461051E-02 
822	 4.70241124305933E-02 
823	 4.64849700774069E-02 
824	 4.55844986855134E-02 
825	 4.42368331918227E-02 
826	 0.042844202006633 
827	 4.14085498461468E-02 
828	 4.00205750279893E-02 
829	 3.92976336339098E-02 
830	 3.87266927477926E-02 
831	 3.79064049474205E-02 
832	 3.67694548597513E-02 
833	 3.66222794160578E-02 
834	 3.62022694744394E-02 
835	 3.53315178671267E-02 
836	 3.54735155765698E-02 
837	 0.035397042216003 
838	 0.034873167728207 
839	 3.41518932127864E-02 
840	 3.40475926596454E-02 
841	 3.45426459245289E-02 
842	 3.48530148823717E-02 
843	 3.42941600419696E-02 
844	 3.40425713708306E-02 
845	 0.033472109904638 
846	 3.30617211208799E-02 
847	 3.37802274054154E-02 
848	 3.36563281633445E-02 
849	 3.34095925230696E-02 
850	 3.34149690244065E-02 
851	 3.32011697192228E-02 
852	 3.25748281740297E-02 
853	 3.21641319133756E-02 
854	 3.23624554762513E-02 
855	 3.26898965148762E-02 
856	 0.032908834160119 
857	 3.30051051042589E-02 
858	 0.032955686016 
859	 3.23182553216875E-02 
860	 3.21960460580532E-02 
861	 3.22874081256927E-02 
862	 3.17891152579066E-02 
863	 3.16428172684878E-02 
864	 3.20557314575724E-02 
865	 3.24875233267171E-02 
866	 0.031961572102568 
867	 3.17636952273372E-02 
868	 3.17678796619934E-02 
869	 3.16299244450798E-02 
870	 3.10377100063413E-02 
871	 0.031325663661728 
872	 0.03186682688362 
873	 3.18616123674359E-02 
874	 3.11017776532739E-02 
875	 3.10798668762979E-02 
876	 3.11285053486616E-02 
877	 3.04912659080617E-02 
878	 0.0307871722366 
879	 3.09900883579997E-02 
880	 3.08605878268191E-02 
881	 3.06329405343379E-02 
882	 3.07501086924312E-02 
883	 3.05371470176295E-02 
884	 3.01388003657726E-02 
885	 3.02652237451468E-02 
886	 3.04658183023574E-02 
887	 3.02443499780095E-02 
888	 2.98396350331492E-02 
889	 0.030233719827478 
890	 3.03380659340067E-02 
891	 3.05084265839676E-02 
892	 3.07982450037601E-02 
893	 3.01164491218749E-02 
894	 2.98728646007299E-02 
895	 2.96568866644615E-02 
896	 2.93088945070038E-02 
897	 3.16458379756411E-02 
898	 3.32943066619473E-02 
899	 0.032570126793342 
900	 3.00622714471832E-02 
901	 0.02964564261356 
902	 3.01432872015586E-02 
903	 3.07999059119511E-02 
904	 0.030902015493771 
905	 2.87353293316272E-02 
906	 2.79893682770908E-02 
907	 2.92287219862031E-02 
908	 3.02887229775362E-02 
909	 3.06380631337369E-02 
910	 3.04667760520873E-02 
911	 3.07279210240809E-02 
912	 3.24611849956662E-02 
913	 3.26160422692204E-02 
914	 3.13733644117769E-02 
915	 3.02438862163069E-02 
916	 3.10083491503317E-02 
917	 2.90916479849763E-02 
918	 2.79579720682371E-02 
919	 2.88237397583141E-02 
920	 2.89830640929971E-02 
921	 2.93546683189003E-02 
922	 0.029176353369059 
923	 2.81530480418623E-02 
924	 2.76157521067752E-02 
925	 2.92824304348704E-02 
926	 0.030082012868641 
927	 2.71806743009305E-02 
928	 2.71491848834985E-02 
929	 3.41045371353359E-02 
930	 3.98888095436462E-02 
931	 2.89422039637687E-02 
932	 3.30732469081472E-02 
933	 2.57778366208193E-02 
934	 0.0182888696675 
935	 3.39357444090958E-02 
936	 3.30011162360158E-02 
937	 3.30643110867029E-02 
938	 3.07280445933197E-02 
939	 2.21362573658687E-02 
940	 2.92135216940518E-02 
941	 2.94019615065452E-02 
942	 2.47430416026604E-02 
943	 2.76995707802976E-02 
944	 2.76669881237915E-02 
945	 3.13732082385155E-02 
946	 3.25268271058165E-02 
947	 2.13153308445069E-02 
948	 1.06107143059284E-02 
949	 1.26125775122615E-02 
950	 2.53162964370599E-02 
951	 3.65257735450815E-02 
952	 2.45189752031968E-02 
953	 1.30683540710914E-02 
954	 1.54491879696176E-02 
955	 2.90012272986245E-02 
956	 2.67230876377188E-02 
957	 1.94542893497663E-02 
958	 1.74809086715942E-02 
959	 2.53281913034991E-02 
960	 3.19667356375717E-02 
961	 3.05889956796839E-02 
962	 2.55237385308691E-02 
963	 2.54715769380809E-02 
964	 2.66318129295706E-02 
965	 3.02297371283079E-02 
966	 3.30542509874601E-02 
967	 3.03100429934589E-02 
968	 2.64845838114906E-02 
969	 2.47649101155543E-02 
970	 2.52381751367213E-02 
971	 2.59280895904344E-02 
972	 3.05988560713924E-02 
973	 2.95304641168766E-02 
974	 2.65791910571915E-02 
975	 3.61069453470034E-02 
976	 3.52390801847215E-02 
977	 3.21343803728485E-02 
978	 2.96823969368814E-02 
979	 2.42927324241727E-02 
980	 2.29547674897895E-02 
981	 2.65068485943331E-02 
982	 3.00183856953726E-02 
983	 2.70472130884177E-02 
984	 2.54818553082947E-02 
985	 2.50098649015843E-02 
986	 0.025091700245745 
987	 2.56990679150186E-02 
988	 2.79429343155832E-02 
989	 2.88680222124347E-02 
990	 2.83301473684933E-02 
991	 0.028200209917898 
992	 2.75039998072388E-02 
993	 2.62674409143413E-02 
994	 2.50898465558809E-02 
995	 2.49977901127623E-02 
996	 2.74410927755002E-02 
997	 2.83906352918917E-02 
998	 2.62096257340835E-02 
999	 2.23535202689058E-02 
1000	 2.32136906801896E-02 
1001	 2.86465215357565E-02 
1002	 2.74632180473586E-02 
1003	 2.71513572738028E-02 
1004	 2.73139473084307E-02 
1005	 2.74786945799427E-02 
1006	 2.83152025411787E-02 
1007	 2.83771738100401E-02 
1008	 2.88958375934517E-02 
1009	 2.94339304713351E-02 
1010	 2.93283985405018E-02 
1011	 2.95095621776867E-02 
1012	 2.91855092962485E-02 
1013	 2.99029552154362E-02 
1014	 0.030257040052011 
1015	 3.08379700164602E-02 
1016	 3.13470720928605E-02 
1017	 3.19918228837092E-02 
1018	 3.19076295702445E-02 
1019	 3.16206845997471E-02 
1020	 3.13848621393028E-02 
1021	 0.030639360649504 
1022	 2.99519992068435E-02 
1023	 2.95554436215382E-02 
1024	 0.030364248730749 
1025	 3.12368252521258E-02 
1026	 3.24335139192407E-02 
1027	 3.31002980169876E-02 
1028	 3.41589395528652E-02 
1029	 3.38889393035067E-02 
1030	 3.24047653224517E-02 
1031	 3.17710644245211E-02 
1032	 3.07304250920208E-02 
1033	 3.01116239921145E-02 
1034	 3.00591488058671E-02 
1035	 2.98899188733227E-02 
1036	 2.90103747367411E-02 
1037	 2.93093990616052E-02 
1038	 3.06790786820143E-02 
1039	 3.19792266375372E-02 
1040	 3.20218918994407E-02 
1041	 3.23622454375494E-02 
1042	 3.24493496758526E-02 
1043	 3.13504505922421E-02 
1044	 3.10191141101807E-02 
1045	 3.15678418406352E-02 
1046	 3.13405130822173E-02 
1047	 2.99788577595351E-02 
1048	 3.00687902385673E-02 
1049	 3.12622081784158E-02 
1050	 3.14976176987557E-02 
1051	 3.22501102358574E-02 
1052	 3.22980068161036E-02 
1053	 3.07789444284222E-02 
1054	 3.03505549635435E-02 
1055	 3.03051561008077E-02 
1056	 3.03513082131238E-02 
1057	 3.06590266701449E-02 
1058	 3.18848865565044E-02 
1059	 3.17133987202249E-02 
1060	 3.10206785741747E-02 
1061	 3.04925043799004E-02 
1062	 0.028821213315487 
1063	 2.86379868634707E-02 
1064	 2.94643341125231E-02 
1065	 2.98019281852764E-02 
1066	 3.08777073588545E-02 
1067	 3.12217116759424E-02 
1068	 3.04011717364154E-02 
1069	 3.06711101592386E-02 
1070	 3.18086721046856E-02 
1071	 3.21616362582994E-02 
1072	 3.26818317804481E-02 
1073	 0.033271665292126 
1074	 3.30215560705737E-02 
1075	 3.15639367801205E-02 
1076	 3.11608140570653E-02 
1077	 3.05192712486486E-02 
1078	 3.08355560736703E-02 
1079	 3.23858976603888E-02 
1080	 3.26304419143745E-02 
1081	 3.29614300283164E-02 
1082	 3.29312005054529E-02 
1083	 3.17152960304391E-02 
1084	 3.12447309449189E-02 
1085	 3.13295445292759E-02 
1086	 3.10317804232214E-02 
1087	 3.00605946431339E-02 
1088	 2.98847823347544E-02 
1089	 2.96541666193995E-02 
1090	 3.05698761997509E-02 
1091	 3.09288982350195E-02 
1092	 3.22011837590904E-02 
1093	 3.24234752886803E-02 
1094	 3.14017382354985E-02 
1095	 3.16807547068276E-02 
1096	 3.30391081697745E-02 
1097	 3.29058914259096E-02 
1098	 3.21722854059319E-02 
1099	 3.19320888018989E-02 
1100	 2.98466429753727E-02 
1101	 2.98562377057642E-02 
1102	 3.32219202995125E-02 
1103	 3.46762533170735E-02 
1104	 3.75616873005794E-02 
1105	 3.65773453140897E-02 
1106	 3.41103497366334E-02 
1107	 3.35033493753414E-02 
1108	 3.23904519762872E-02 
1109	 3.32775492953425E-02 
1110	 3.44459610175064E-02 
1111	 3.82423436139158E-02 
1112	 3.84737151984693E-02 
1113	 3.73776558067368E-02 
1114	 3.76166067577731E-02 
1115	 3.30863388809189E-02 
1116	 3.45223107126647E-02 
1117	 4.69706604289446E-02 
1118	 0.052405433457678 
1119	 6.07587525069314E-02 
1120	 6.66121829418085E-02 
1121	 5.60510199115603E-02 
1122	 4.38180348617582E-02 
1123	 2.67086505843603E-02 
1124	 2.68535382192083E-02 
1125	 7.96270136166316E-02 
1126	 0.108121599878535 
1127	 0.129103596674704 
1128	 0.136080529594112 
1129	 0.113997670241164 
1130	 4.00206661501711E-02 
1131	 3.31063749735582E-02 
1132	 4.80048855939871E-02 
1133	 4.12537684977921E-02 
1134	 3.71698185916428E-02 
1135	 4.03779563362263E-02 
1136	 4.04795662782605E-02 
1137	 3.95260922342977E-02 
1138	 4.50314707338753E-02 
1139	 4.66716738538817E-02 
1140	 5.39209733149997E-02 
1141	 6.94104573992207E-02 
1142	 7.64521623785625E-02 
1143	 7.77755421136454E-02 
1144	 7.25843386168845E-02 
1145	 6.23198870031774E-02 
1146	 7.39701910340504E-02 
1147	 7.57784286295222E-02 
1148	 5.90294451484561E-02 
1149	 5.22835726892236E-02 
1150	 4.79033536129638E-02 
1151	 4.26331671794186E-02 
1152	 4.06711117594375E-02 
1153	 4.44061957032911E-02 
1154	 4.33912391269364E-02 
1155	 3.94073044643061E-02 
1156	 3.94766030441759E-02 
1157	 3.93979781928454E-02 
1158	 0.037188304419911 
1159	 3.45749591631656E-02 
1160	 3.41515014102368E-02 
1161	 3.49293197673939E-02 
1162	 3.36118843027029E-02 
1163	 3.44081240403503E-02 
1164	 3.58559229618407E-02 
1165	 3.40515522768609E-02 
1166	 3.29583574129965E-02 
1167	 3.28456612470096E-02 
1168	 3.12929437513958E-02 
1169	 3.09559823810488E-02 
1170	 3.30204895261689E-02 
1171	 3.37223522896477E-02 
1172	 3.38062310069853E-02 
1173	 3.34730436117973E-02 
1174	 3.27130862989863E-02 
1175	 3.24140511592178E-02 
1176	 3.21447946218858E-02 
1177	 3.35988734720369E-02 
1178	 3.61438549617579E-02 
1179	 3.55078215956239E-02 
1180	 3.29391657644879E-02 
1181	 3.07900287408037E-02 
1182	 3.04080581083496E-02 
1183	 3.10331928951108E-02 
1184	 3.19423268428685E-02 
1185	 3.29618162651659E-02 
1186	 3.18730523358785E-02 
1187	 3.03976740212229E-02 
1188	 3.04888101385843E-02 
1189	 3.17679007054847E-02 
1190	 3.19910200298583E-02 
1191	 3.08091304391959E-02 
1192	 3.11003191819228E-02 
1193	 3.18544657499117E-02 
1194	 3.27716298766277E-02 
1195	 3.32478197913169E-02 
1196	 3.39193633330933E-02 
1197	 3.37381593403277E-02 
1198	 3.19518531379541E-02 
1199	 3.09007435778166E-02 
1200	 3.20785332973477E-02 
1201	 3.35364592238085E-02 
1202	 3.31896727808253E-02 
1203	 3.25542490091515E-02 
1204	 3.34744326794453E-02 
1205	 3.32558501394435E-02 
1206	 3.16288710958411E-02 
1207	 0.031969769336195 
1208	 3.24934967536418E-02 
1209	 3.12427318178292E-02 
1210	 3.09783372648399E-02 
1211	 3.22480772343432E-02 
1212	 3.27812068577199E-02 
1213	 0.032431139385684 
1214	 3.25849627901683E-02 
1215	 3.38582084325679E-02 
1216	 0.034113541139118 
1217	 3.28632996237639E-02 
1218	 3.29705877758347E-02 
1219	 3.32514584231879E-02 
1220	 3.22487437216033E-02 
1221	 3.14276907653891E-02 
1222	 3.10507978524107E-02 
1223	 3.02496229938455E-02 
1224	 2.96324042705954E-02 
1225	 0.030380213849697 
1226	 3.09788950606688E-02 
1227	 3.11470210159323E-02 
1228	 3.12650517867435E-02 
1229	 3.13260939662998E-02 
1230	 3.12689743251288E-02 
1231	 3.06778991324524E-02 
1232	 3.06801264248987E-02 
1233	 3.05917117388557E-02 
1234	 3.03587471196332E-02 
1235	 3.01610809430169E-02 
1236	 3.02882889224366E-02 
1237	 3.03713658685065E-02 
1238	 3.05135118836242E-02 
1239	 3.00024033224593E-02 
1240	 2.96124046496473E-02 
1241	 3.01507588668649E-02 
1242	 3.03934723390366E-02 
1243	 3.03199330715171E-02 
1244	 3.03526869724837E-02 
1245	 3.02680131610392E-02 
1246	 3.02589988042893E-02 
1247	 3.06106179213921E-02 
1248	 3.01722549357773E-02 
1249	 2.92013684267136E-02 
1250	 2.98797515864848E-02 
1251	 3.05913651950642E-02 
1252	 3.01767249851138E-02 
1253	 3.07813394103691E-02 
1254	 3.09314154429893E-02 
1255	 2.98752606982226E-02 
1256	 2.96394589522821E-02 
1257	 3.11740143391462E-02 
1258	 3.15660501805085E-02 
1259	 3.09411784405932E-02 
1260	 3.06090597465203E-02 
1261	 3.06442563532828E-02 
1262	 3.06271001368494E-02 
1263	 3.02010103628684E-02 
1264	 2.99452930662353E-02 
1265	 3.08016840131968E-02 
1266	 3.13999947292549E-02 
1267	 3.11944883993185E-02 
1268	 3.04800514545007E-02 
1269	 2.99725983965009E-02 
1270	 2.97732152990686E-02 
1271	 0.029532874731895 
1272	 2.95633675415301E-02 
1273	 3.01773636385204E-02 
1274	 3.11568063192879E-02 
1275	 3.13147479558585E-02 
1276	 3.09165053524484E-02 
1277	 3.05454545866953E-02 
1278	 2.94306321537929E-02 
1279	 0.028638770597911 
1280	 2.89981224974367E-02 
1281	 2.93271403408756E-02 
1282	 3.01519041620554E-02 
1283	 3.02144870596343E-02 
1284	 3.01125312122236E-02 
1285	 3.00813322146336E-02 
1286	 2.95486731243514E-02 
1287	 2.93835410478727E-02 
1288	 2.98658816786131E-02 
1289	 2.98195063598154E-02 
1290	 2.97040255994206E-02 
1291	 2.88616124897936E-02 
1292	 2.87214960579571E-02 
1293	 2.91802587433704E-02 
1294	 3.04469450974457E-02 
1295	 3.17227973285301E-02 
1296	 3.11447310626253E-02 
1297	 3.02422102373001E-02 
1298	 2.97717236269597E-02 
1299	 2.91024858942563E-02 
1300	 3.00783903297053E-02 
1301	 3.18901904015422E-02 
1302	 3.24865979100989E-02 
1303	 3.22897035167882E-02 
1304	 3.29600298564457E-02 
1305	 3.38061300626617E-02 
1306	 3.30967536292859E-02 
1307	 3.13100368501739E-02 
1308	 0.031118987183353 
1309	 3.00013873260607E-02 
1310	 0.029605766958327 
1311	 3.14959384197399E-02 
1312	 0.032118770404076 
1313	 3.10617621744115E-02 
1314	 0.031073980624493 
1315	 0.032017689347947 
1316	 3.38880593029965E-02 
1317	 3.79061478814202E-02 
1318	 3.84636880099945E-02 
1319	 3.69629101579942E-02 
1320	 3.65378095545365E-02 
1321	 3.39314302743348E-02 
1322	 0.032704012345134 
1323	 3.13556325381059E-02 
1324	 0.030968372983693 
1325	 0.02964209595004 
1326	 2.84785577490927E-02 
1327	 3.05949936467455E-02 
1328	 3.32085954624378E-02 
1329	 3.42568352530899E-02 
1330	 3.29980820580956E-02 
1331	 3.25695660492212E-02 
1332	 3.70550108824874E-02 
1333	 4.25857941240754E-02 
1334	 4.39008798159884E-02 
1335	 4.32886205406929E-02 
1336	 3.55264634174706E-02 
1337	 3.86856035011707E-02 
1338	 4.84752201569752E-02 
1339	 5.03991647731242E-02 
1340	 5.65780324578168E-02 
1341	 5.90129141908509E-02 
1342	 4.67040259163053E-02 
1343	 4.15106690291059E-02 
1344	 4.92299014738367E-02 
1345	 4.90980343253521E-02 
1346	 0.031168765413394 
1347	 2.46233319321208E-02 
1348	 2.90209918038427E-02 
1349	 0.033653343919934 
1350	 5.27245334778637E-02 
1351	 8.08990118713507E-02 
1352	 0.150892836024557 
1353	 0.224938975109608 
1354	 0.299756363177846 
1355	 0.510238730548059 
1356	 0.400854820799084 
1357	 0.240432197363026 
1358	 0.13799676148874 
1359	 0.202226886568387 
1360	 0.333518331028715 
1361	 0.453866287842231 
1362	 0.742204011273622 
1363	 0.343725073261374 
1364	-0.218643187954965 
1365	-2.02963205554619 
1366	-0.810642770649984 
1367	-0.574505767898525 
1368	-0.432721176458699 
1369	-0.309557123646342 
1370	-0.131133753905334 
1371	 0.127253344634321 
1372	 0.203338793610208 
1373	 0.736891498694434 
1374	 0.730235990653208 
1375	-4.25834039114493E-02 
1376	-5.10578600653325E-02 
1377	 0.137084800771972 
1378	 0.19334389160654 
1379	 0.737101019412948 
1380	 1.17617992352766 
1381	 1.50995132253188 
1382	 1.50899275100459 
1383	 0.76380460668696 
1384	 0.566605473452694 
1385	-0.310703645359493 
1386	-0.483458773524707 
1387	-0.821893451805732 
1388	-0.873267674959417 
1389	 0.345143671801615 
1390	 0.670588134286066 
1391	 1.46265806017666 
1392	 1.64035232010719 
1393	 0.541475368543582 
1394	 4.92079452276933E-02 
1395	-0.171955632413224 
1396	-0.348956359103691 
1397	-8.19070541072615E-02 
1398	 0.772642438319443 
1399	 0.741759982361755 
1400	 0.449594944916108 
1401	 0.460493213370149 
1402	 0.635013827283892 
1403	 0.871122462134035 
1404	 0.350782448871876 
1405	 0.259166144906457 
1406	 0.490452490103325 
1407	 0.352131667544938 
1408	 0.156420883732387 
1409	 0.127126236287697 
1410	 7.22601384961551E-02 
1411	 1.88605551291339E-02 
1412	-8.58748819843868E-02 
1413	-7.05839515226736E-02 
1414	 0.135289076648146 
1415	 0.211878274503443 
1416	 0.426888730363321 
1417	 0.630849379079327 
1418	 0.191432308105126 
1419	 0.223827582549897 
1420	 1.25005845817748 
1421	 1.11504552992396 
1422	-0.213647565219063 
1423	 7.15914398098918E-03 
1424	 0.585721086891998 
1425	 0.50986137749445 
1426	 0.678858357490517 
1427	 0.835047757867463 
1428	 0.79219238837426 
1429	 0.619299623817534 
1430	 0.509783861683498 
1431	 0.469668078940166 
1432	 0.107885152664293 
1433	-0.113049394833543 
1434	-0.286114566798725 
1435	-0.281324412508631 
1436	 0.316455861167035 
1437	 0.774951874838997 
1438	 0.42152108539817 
1439	 0.709550967638538 
1440	 0.330975986236413 
1441	 0.178476898490832 
1442	 0.110765706340011 
1443	-0.121044589572724 
1444	-2.59547712066578E-02 
1445	-6.30325826105816E-03 
1446	-6.97834207666726E-02 
1447	 6.60895436354822E-02 
1448	 2.33819214233147E-03 
1449	-6.50293395419355E-02 
1450	-1.35499272103224E-02 
1451	-3.63683183566774E-02 
1452	 2.77891371075796E-02 
1453	 4.88403523603995E-03 
1454	-9.64909294711129E-03 
1455	 1.24492654516422E-02 
1456	 1.29023823867526E-02 
1457	-2.47093390611568E-02 
1458	-3.36272604987695E-02 
1459	-4.86922198918866E-02 
1460	-1.69119115226569E-02 
1461	 6.37286976914359E-02 
1462	 5.17750211185201E-02 
1463	 1.54200974597567E-02 
1464	 3.42727826045561E-02 
1465	 4.10296210308661E-03 
1466	-1.15197817159995E-02 
1467	 5.57602652546408E-02 
1468	 7.78492318502942E-02 
1469	 4.58951750183997E-02 
1470	 3.05199303630627E-02 
1471	 5.17900924125818E-02 
1472	 4.67256016517485E-02 
1473	-1.15607748726575E-02 
1474	-0.012798086125898 
1475	 2.47432721720952E-02 
1476	 3.82187539346101E-02 
1477	 5.81989241806514E-02 
1478	 6.81512253463111E-02 
1479	 6.93881193953903E-02 
1480	 6.42653851774495E-02 
1481	 5.03005512557057E-02 
1482	 5.17075771116783E-02 
1483	 5.85170837940512E-02 
1484	 0.053529994885169 
1485	 0.050439508442827 
1486	 5.26411106071469E-02 
1487	 4.87723343151116E-02 
1488	 4.62249656430829E-02 
1489	 5.52848068646204E-02 
1490	 5.12732657183166E-02 
1491	 3.38617412083733E-02 
1492	 3.02603520276373E-02 
1493	 2.96135558971943E-02 
1494	 3.02310229736744E-02 
1495	 4.01691341110033E-02 
1496	 3.93378325695487E-02 
1497	 2.88702711801975E-02 
1498	 2.79178911286081E-02 
1499	 0.029818840787251 
1500	 2.85073414492725E-02 
1501	 2.86855305525442E-02 
1502	 3.13544112549087E-02 
1503	 0.033361584579099 
1504	 3.27384281511916E-02 
1505	 3.38477292207098E-02 
1506	 3.56316125389507E-02 
1507	 3.51104457118248E-02 
1508	 0.031025658644933 
1509	 2.85681145747968E-02 
1510	 3.12361446917425E-02 
1511	 3.36267415731311E-02 
1512	 3.22641806042601E-02 
1513	 2.96532189320113E-02 
1514	 3.07169055255714E-02 
1515	 3.10636246312346E-02 
1516	 3.06977945882831E-02 
1517	 3.27053912435609E-02 
1518	 3.31047915376626E-02 
1519	 3.18565061040328E-02 
1520	 3.03403769311975E-02 
1521	 3.05901236194911E-02 
1522	 3.06579047879829E-02 
1523	 2.98459377078642E-02 
1524	 3.00100470781767E-02 
1525	 0.030534975791529 
1526	 3.06959590060409E-02 
1527	 2.86093189427742E-02 
1528	 2.75977957774943E-02 
1529	 2.82426371981168E-02 
1530	 2.77029214863663E-02 
1531	 0.028317370755651 
1532	 2.98197585193001E-02 
1533	 2.94016060161179E-02 
1534	 2.96641807389462E-02 
1535	 3.13996602690492E-02 
1536	 0.030566324958182 
1537	 2.99746442279397E-02 
1538	 3.07597053413197E-02 
1539	 2.99521041972248E-02 
1540	 2.95936897417434E-02 
1541	 3.12849398427139E-02 
1542	 3.23139721107485E-02 
1543	 3.16995741643564E-02 
1544	 3.19785806488523E-02 
1545	 3.16609109952957E-02 
1546	 2.93722910842942E-02 
1547	 2.77372012009491E-02 
1548	 2.76887160638066E-02 
1549	 2.78245811274271E-02 
1550	 2.78432695990456E-02 
1551	 2.84303868123693E-02 
1552	 2.85709017851055E-02 
1553	 2.78206232825297E-02 
1554	 2.81242869986985E-02 
1555	 2.92830499768173E-02 
1556	 2.92774905094713E-02 
1557	 2.98217216755768E-02 
1558	 0.031142265204515 
1559	 3.03009821283887E-02 
1560	 2.95147420419685E-02 
1561	 3.00364287917726E-02 
1562	 2.96854041170278E-02 
1563	 2.94851407553471E-02 
1564	 2.97789956510173E-02 
1565	 3.07464408425171E-02 
1566	 3.14902946544961E-02 
1567	 3.00005997721364E-02 
1568	 2.95501624940415E-02 
1569	 3.13422803649265E-02 
1570	 3.10484635469728E-02 
1571	 2.90453847924308E-02 
1572	 2.90913065211439E-02 
1573	 3.00445480990694E-02 
1574	 2.93027710257341E-02 
1575	 2.91960925024253E-02 
1576	 3.22219718668238E-02 
1577	 3.29915155055472E-02 
1578	 3.00813430512587E-02 
1579	 2.97339710156881E-02 
1580	 3.09424841928157E-02 
1581	 3.16809885834793E-02 
1582	 3.17049021318587E-02 
1583	 3.05418190328822E-02 
1584	 3.02564894733642E-02 
1585	 2.94420937441073E-02 
1586	 2.82416241201632E-02 
1587	 2.86603328829091E-02 
1588	 2.88298952969907E-02 
1589	 2.85328637816638E-02 
1590	 2.91775155476326E-02 
1591	 2.97684533211138E-02 
1592	 2.97099831845056E-02 
1593	 3.01134738122061E-02 
1594	 3.06145605320436E-02 
1595	 3.15296836299268E-02 
1596	 3.17022233114194E-02 
1597	 3.07582781165694E-02 
1598	 0.03117541053804 
1599	 3.05915801960855E-02 
1600	 3.00469202978521E-02 
1601	 2.97377006178469E-02 
1602	 2.79296556114679E-02 
1603	 0.028631729870257 
1604	 2.97482331385246E-02 
1605	 2.97677589255322E-02 
1606	 3.05741386372727E-02 
1607	 2.97996215240382E-02 
1608	 2.94156622557981E-02 
1609	 0.030600422716836 
1610	 2.98774829230976E-02 
1611	 2.96975811888055E-02 
1612	 3.09919988013317E-02 
1613	 0.03114001649223 
1614	 3.09203027286297E-02 
1615	 3.03578418995165E-02 
1616	 2.94508869890994E-02 
1617	 2.98324777440894E-02 
1618	 3.05175856476213E-02 
1619	 2.99192715895156E-02 
1620	 2.96437775333635E-02 
1621	 3.04591157021817E-02 
1622	 3.15825483212497E-02 
1623	 3.15997430809756E-02 
1624	 3.07968745723921E-02 
1625	 2.99196307250867E-02 
1626	 2.87250323903236E-02 
1627	 0.029307737250383 
1628	 3.13460866945553E-02 
1629	 3.22688678101168E-02 
1630	 0.030911869100409 
1631	 2.90242148218084E-02 
1632	 2.94948209227068E-02 
1633	 2.95259973480503E-02 
1634	 2.87046164027526E-02 
1635	 0.029968595130375 
1636	 2.97102022310468E-02 
1637	 2.76992762406299E-02 
1638	 2.82029421138941E-02 
1639	 3.00035699307359E-02 
1640	 3.00142516464772E-02 
1641	 2.85359670638628E-02 
1642	 2.73811317677946E-02 
1643	 2.75917412383309E-02 
1644	 0.028491521680651 
1645	 2.88097482950821E-02 
1646	 2.90095998565372E-02 
1647	 2.92719947852552E-02 
1648	 2.98621744941881E-02 
1649	 3.06988153188863E-02 
1650	 3.08313021776515E-02 
1651	 3.02506678116141E-02 
1652	 0.029182430925393 
1653	 0.030591899250289 
1654	 3.13213844547504E-02 
1655	 3.04334007534587E-02 
1656	 3.00718257871453E-02 
1657	 3.09527787330481E-02 
1658	 3.03576602888849E-02 
1659	 2.81471202300346E-02 
1660	 2.84279974055848E-02 
1661	 2.96739940655083E-02 
1662	 2.92537380948965E-02 
1663	 2.95112507403225E-02 
1664	 2.98565078514282E-02 
1665	 0.028262019307663 
1666	 2.82980858749241E-02 
1667	 0.031296637221981 
1668	 2.97814195252461E-02 
1669	 2.81303377110523E-02 
1670	 2.85850822230125E-02 
1671	 2.97474022350737E-02 
1672	 2.94985121442283E-02 
1673	 2.88350244975225E-02 
1674	 2.85044485471887E-02 
1675	 2.80718203506913E-02 
1676	 2.89686136327048E-02 
1677	 0.029795642613766 
1678	 2.93878694747252E-02 
1679	 2.93143197596251E-02 
1680	 2.93887125871699E-02 
1681	 0.028450587296632 
1682	 2.74462465599754E-02 
1683	 2.75613074491335E-02 
1684	 0.028046353617829 
1685	 2.91800911747383E-02 
1686	 3.02940523735433E-02 
1687	 2.96621797312301E-02 
1688	 2.74150910356829E-02 
1689	 2.74704984317397E-02 
1690	 2.85583193434339E-02 
1691	 2.68632654069614E-02 
1692	 2.69276765772094E-02 
1693	 2.81280202675035E-02 
1694	 2.57585156024246E-02 
1695	 2.54249231736782E-02 
1696	 0.029835526488706 
1697	 3.15983072109502E-02 
1698	 3.18162949928673E-02 
1699	 3.31394691732541E-02 
1700	 3.15145710518477E-02 
1701	 2.92600287204003E-02 
1702	 3.08406254631245E-02 
1703	 3.30264140747249E-02 
1704	 3.13315526877736E-02 
1705	 2.98964601607081E-02 
1706	 3.09765745103003E-02 
1707	 3.14058009570593E-02 
1708	 3.25569754469448E-02 
1709	 3.23662224410513E-02 
1710	 0.030463127502764 
1711	 3.06230881767712E-02 
1712	 3.10190230396033E-02 
1713	 3.14383284309375E-02 
1714	 3.12172097469109E-02 
1715	 2.83924701535918E-02 
1716	 2.99594876440322E-02 
1717	 3.09031488967731E-02 
1718	 2.88651486430009E-02 
1719	 2.89953022025362E-02 
1720	 2.93228594916841E-02 
1721	 2.84934373959041E-02 
1722	 3.00137935458893E-02 
1723	 3.38867209365353E-02 
1724	 3.45126063029138E-02 
1725	 3.10246556090343E-02 
1726	 2.98222951168806E-02 
1727	 2.95027143888597E-02 
1728	 0.027768772334179 
1729	 3.02041412044998E-02 
1730	 3.33496505007568E-02 
1731	 3.17171693146868E-02 
1732	 3.03306024573586E-02 
1733	 3.21429714651592E-02 
1734	 3.32258587407022E-02 
1735	 3.03046197671239E-02 
1736	 3.00654932378442E-02 
1737	 3.28345984430796E-02 
1738	 3.28299635989676E-02 
1739	 3.46510394313808E-02 
1740	 3.57792791439763E-02 
1741	 3.07196678303434E-02 
1742	 2.91864350154366E-02 
1743	 3.48004246648149E-02 
1744	 3.78823153617516E-02 
1745	 3.86958500698585E-02 
1746	 3.36325699181173E-02 
1747	 3.21229574475128E-02 
1748	 3.58797060854364E-02 
1749	 3.83960505573643E-02 
1750	 4.20224601345452E-02 
1751	 4.08216320663074E-02 
1752	 3.43416088651518E-02 
1753	 3.43474794835043E-02 
1754	 0.036451900265369 
1755	 3.57532966932293E-02 
1756	 3.70529513034577E-02 
1757	 3.49350630237991E-02 
1758	 3.19180882395378E-02 
1759	 3.15447436534253E-02 
1760	 3.28036215548815E-02 
1761	 2.69300037376274E-02 
1762	 2.41864933513721E-02 
1763	 2.83125358489743E-02 
1764	 0.028920612322056 
1765	 2.97079388098637E-02 
1766	 3.14228532695346E-02 
1767	 3.13429264356077E-02 
1768	 2.87804597675587E-02 
1769	 2.94344453778476E-02 
1770	 3.47611867226665E-02 
1771	 3.77001871062346E-02 
1772	 4.31517957506263E-02 
1773	 4.22999995249011E-02 
1774	 3.60699496852306E-02 
1775	 2.95818389253372E-02 
1776	 2.92123852146296E-02 
1777	 4.81918802912591E-02 
1778	 4.85690779092419E-02 
1779	 3.49501021931169E-02 
1780	 3.36386735290364E-02 
1781	 1.92091082222452E-02 
1782	 1.69762155536797E-02 
1783	 4.20501602576441E-02 
1784	 4.45894817904469E-02 
1785	 3.68073166285739E-02 
1786	 4.16285230253893E-02 
1787	 0.042618225801485 
1788	 4.05395014233942E-02 
1789	 5.29021987734462E-02 
1790	 0.012831484767834 
1791	-1.74128133109066E-02 
1792	-1.75838492771567E-02 
1793	-4.23816571846551E-02 
1794	 2.25392879497144E-02 
1795	 0.15559331483459 
1796	 0.14707060330668 
1797	 0.144254051472081 
1798	 0.103480278424426 
1799	-6.63136197968101E-02 
1800	 0.109516502715859 
1801	 0.221467190178608 
1802	 0.436164882781085 
1803	 0.542888376028338 
1804	 0.21192938591913 
1805	 0.185065120759839 
1806	 0.330254607743751 
1807	 0.620545126695814 
1808	 5.45686444567044 
1809	-37.1556696486347 
1810	 5.31723672793609 
1811	-4.94111058334386E-02 
1812	-1.26720994447241 
1813	-1.31619886411605 
1814	-0.889350470956032 
1815	-0.464799565202116 
1816	 1.58928184168075 
1817	 2.32976100847802 
1818	 1.62383055447422 
1819	 8.12383498752963 
1820	 4.04093852775788 
1821	 0.488539623237966 
1822	 4.62319250025911E-02 
1823	-0.344063095558427 
1824	-0.330580403469217 
1825	 0.048604477059281 
1826	 0.567553018216229 
1827	-55.6026064617266 
1828	-27.5260258136038 
1829	 1.097208673233 
1830	 0.485532949476116 
1831	 0.57192682937055 
1832	 0.478597470498105 
1833	-0.044465822720876 
1834	-0.167884155576436 
1835	 0.177498577501811 
1836	 0.190091433845291 
1837	-0.13379016482003 
1838	-0.270427791793462 
1839	-0.732779836546331 
1840	-1.40576971919469 
1841	-1.32868514704136 
1842	 0.856671409553203 
1843	 1.86193297302591 
1844	 3.0056314060113 
1845	 5.2885022588702 
1846	-2.44726440267393 
1847	-1.10527181121316 
1848	 4.44800077915586 
1849	-1.93275432795351 
1850	-1.60461506108541 
1851	-0.905369312444113 
1852	-0.352042125040999 
1853	 0.547366342344584 
1854	 0.645449153349186 
1855	-2.41221769185858E-02 
1856	-0.526846291892128 
1857	 43.6881492686473 
1858	 1.80645489898546 
1859	 1.35623784967329 
1860	-0.227765008778338 
1861	-0.18579846656752 
1862	 0.272027997314669 
1863	 0.500446647809438 
1864	 0.615915605879207 
1865	 0.756170131580544 
1866	 0.890184488051122 
1867	 1.08051747782828 
1868	 0.912047588933792 
1869	 1.11220233777628 
1870	 3.85620117186589 
1871	-16.523953063976 
1872	 9.97687646391715 
1873	 11.0381005734942 
1874	-13.9499047720198 
1875	 0.278782002130563 
1876	 0.304524671309701 
1877	-0.929805893402709 
1878	-4.50200246630004 
1879	 3.37295402875341 
1880	 2.35878384973426 
1881	 1.64440385595464 
1882	 1.2351490139815 
1883	 1.03503891337024 
1884	 0.640883954606193 
1885	 0.675936964063125 
1886	 0.99991545416133 
1887	 1.71975059695659 
1888	 2.33211176578867 
1889	 1.35478317421419 
1890	-0.987966120831391 
1891	-0.94110423941216 
1892	-1.24970101046234E-02 
1893	 0.40859183069865 
1894	 0.81979071322441 
1895	 0.989012984743957 
1896	 0.417573714327405 
1897	 0.176221871742682 
1898	 0.555664418496434 
1899	 0.770596471194084 
1900	 0.673524759126191 
1901	 0.259934630108003 
1902	 0.226099860803661 
1903	 4.87362646908377E-03 
1904	-3.54654687110443E-02 
1905	 0.526920538749565 
1906	 0.77873814419692 
1907	 0.527044064588851 
1908	 0.530817001900916 
1909	 0.686986256831325 
1910	 0.520369806722376 
1911	 0.182778084866525 
1912	 7.99798819712504E-02 
1913	-0.245080706887671 
1914	-21.8622798619241 
1915	 2.9322167351782 
1916	 0.315679436438924 
1917	-0.15188189751497 
1918	-0.850599134268275 
1919	-10.3835986593821 
1920	-19.9217035263145 
1921	-4.82238327372153 
1922	-15.5156872292471 
1923	-13.2365232618212 
1924	-27.1836585692219 
1925	 5.67015457299153 
1926	 3.06112161550844 
1927	 1.58743649038794 
1928	 1.05384129159039 
1929	 1.20860261286155 
1930	 1.90163820543229 
1931	 3.62462674582624 
1932	 17.4917480303248 
1933	 3.50346206391259 
1934	 0.205323954456467 
1935	-0.346017428055865 
1936	 0.225711610991559 
1937	 0.73210336206571 
1938	 1.56621274581283 
1939	 1.27657035693358 
1940	 0.647024014602972 
1941	 0.117962351616733 
1942	 0.167503924971946 
1943	-2.04895017012082E-02 
1944	-1.18010969796416 
1945	-0.369221135293992 
1946	-0.533728501398385 
1947	-0.312373889871197 
1948	 8.34209656518345E-02 
1949	 0.145109210407437 
1950	 0.525853905567321 
1951	 3.04708097611858 
1952	 16.7482414761371 
1953	-5.05132230488901 
1954	-2.26781030964721 
1955	 6.74507559111576 
1956	 12.7745841917013 
1957	 17.2593204565814 
1958	 2.74069808640219 
1959	 1.67349677533556 
1960	 1.45608141798392 
1961	 1.22430391822591 
1962	 1.11578371358042 
1963	 0.859239912308478 
1964	 0.703785074368163 
1965	 0.575603615986562 
1966	 0.431790245458661 
1967	 0.288205024385754 
1968	 0.282790350121279 
1969	 0.28407834246324 
1970	 0.191464821183021 
1971	 0.236193729981739 
1972	 0.250383622629014 
1973	 0.121622079138397 
1974	 4.71463556730936E-02 
1975	 5.31460548904326E-02 
1976	 4.64126219988725E-02 
1977	 0.095314314271071 
1978	 0.103550473574349 
1979	 9.04006068439696E-02 
1980	 5.40632253836517E-03 
1981	 8.25507824475581E-03 
1982	 1.38097586667285E-02 
1983	 4.01466033578872E-02 
1984	 0.117773994532329 
1985	 0.122027398576239 
1986	 0.108353652047533 
1987	 7.13933848212441E-02 
1988	 1.24398831321671E-03 
1989	-0.026305742436564 
1990	-8.74420772077915E-02 
1991	-8.07672544366205E-02 
1992	-1.74970905649613E-02 
1993	-3.63962924825472E-03 
1994	 6.68161909845366E-03 
1995	 2.50756515134706E-02 
1996	 3.42963435459805E-02 
1997	-3.99600490635337E-02 
1998	-0.17123225320451 
1999	-0.212190973902971 
2000	-0.216849107202869 
2001	-0.196576137064164 
2002	-5.27332781964853E-02 
2003	-1.29327025693594E-02 
2004	 3.98989114633158E-03 
2005	 0.219857956403769 
2006	 0.249319973380347 
2007	 0.268684242593925 
2008	 0.304839434516181 
2009	 0.2679629969353 
2010	 9.85995058781272E-02 
2011	 6.94134886963855E-02 
2012	 8.32163431004521E-02 
2013	 6.27129380300378E-02 
2014	 8.05734479330049E-02 
2015	 0.161595771109076 
2016	 0.208509493177245 
2017	 0.166941617302094 
2018	 0.184845180716596 
2019	 0.149149430479441 
2020	 9.45671022026713E-02 
2021	 0.129657207193896 
2022	 0.107393991987087 
2023	 8.94005857088531E-02 
2024	 7.42580345348761E-02 
2025	 2.65156264086679E-02 
2026	 1.82976987552585E-02 
2027	 2.98025485412649E-02 
2028	 3.99693478549886E-02 
2029	 7.63949786318691E-02 
2030	 0.115527321886695 
2031	 0.103051894375201 
2032	 0.112444885699319 
2033	 0.106679911827399 
2034	 8.34982432266645E-02 
2035	 9.63975787354781E-02 
2036	 0.086292309218807 
2037	 6.71321362078892E-02 
2038	 5.61618034119574E-02 
2039	 4.50053092866227E-02 
2040	 3.77314662814342E-02 
2041	 2.45849668630163E-02 
2042	-2.51289387413453E-03 
2043	-1.31780009773353E-02 
2044	-2.22406156285185E-02 
2045	-2.56200105043014E-02 
2046	-2.47737690920855E-02 
2047	-3.16966815076496E-03 
2048	 1.66676444676161E-02 
2049	 3.01017768463408E-02 
2050	 0.065857481736586 
2051	 8.55894268632454E-02 
2052	 8.63857818427034E-02 
2053	 8.46992576273583E-02 
2054	 6.00746322565981E-02 
2055	 3.89127383047536E-02 
2056	 2.88847052714534E-02 
2057	 4.03076460934998E-02 
2058	 2.98475907022506E-02 
2059	 1.18560358816433E-02 
2060	 6.5638551924942E-04 
2061	-1.15641159628057E-02 
2062	-3.77034856954779E-02 
2063	-4.25771393333125E-02 
2064	-2.50636675608673E-02 
2065	 1.00212902067155E-02 
2066	 4.49485812838213E-02 
2067	 5.12331445572768E-02 
2068	 7.09079424555128E-02 
2069	 7.62331997420932E-02 
2070	 4.67796873424264E-02 
2071	 4.64343878943279E-02 
2072	 4.60163216848783E-02 
2073	 0.033924817463887 
2074	 1.25748272938838E-02 
2075	 2.42410324814061E-03 
2076	-1.40901833984279E-02 
2077	-1.94890152090346E-02 
2078	-1.92586071026323E-02 
2079	-1.52725623845037E-02 
2080	-5.2000438794295E-03 
2081	 9.2737807216584E-03 
2082	 1.30758894075714E-02 
2083	 2.03064382609788E-02 
2084	 2.33023584847025E-02 
2085	 1.36605179731718E-02 
2086	 3.36149167799046E-03 
2087	 5.16283544863762E-03 
2088	 0.023385324349948 
2089	 2.92680208285027E-02 
2090	 2.61657542651255E-02 
2091	 2.20497916193709E-02 
2092	 1.95483157646741E-02 
2093	-2.02704699588359E-03 
2094	 1.40281639910785E-03 
2095	 3.11257981696935E-02 
2096	 0.040257708697878 
2097	 4.95083700704021E-02 
2098	 4.86324294439408E-02 
2099	 3.33866781356102E-02 
2100	 0.02608203166063 
2101	 0.019110626873757 
2102	 1.01910513143062E-02 
2103	 1.25168351131704E-02 
2104	 1.21569907033614E-02 
2105	 2.14842172346527E-02 
2106	 2.42554261026759E-02 
2107	 2.10221983984365E-02 
2108	 2.71659144446952E-02 
2109	 2.94378997564563E-02 
2110	 4.13846297340231E-02 
2111	 4.79180296345178E-02 
2112	 4.13026453327364E-02 
2113	 4.32418462318785E-02 
2114	 4.13793159814804E-02 
2115	 3.40681589024684E-02 
2116	 0.031853506230574 
2117	 2.75481062946654E-02 
2118	 5.77045826578162E-03 
2119	 3.82883543929035E-03 
2120	 1.27630617628988E-02 
2121	 2.67988071126428E-02 
2122	 4.37475346144129E-02 
2123	 5.39805829073479E-02 
2124	 7.11997078042317E-02 
2125	 0.081168021629424 
2126	 8.07407790673467E-02 
2127	 8.66739470290229E-02 
2128	 0.079251448895736 
2129	 6.67185884006251E-02 
2130	 6.35928455889447E-02 
2131	 4.73611978835105E-02 
2132	 3.79888244621616E-02 
2133	 3.59459732519993E-02 
2134	 3.42069485067885E-02 
2135	 3.97051641445482E-02 
2136	 3.65875238712703E-02 
2137	 3.18468760596134E-02 
2138	 2.85166027679359E-02 
2139	 1.53871985899731E-02 
2140	 1.58427722872364E-02 
2141	 2.88803362356177E-02 
2142	 3.22261910136818E-02 
2143	 3.83314193771359E-02 
2144	 3.83401709570289E-02 
2145	 3.81145575810144E-02 
2146	 2.76103600466377E-02 
2147	 1.35665324541253E-02 
2148	 1.46331536522287E-02 
2149	 1.34758520011352E-02 
2150	 1.06022981065828E-02 
2151	 1.12634614160627E-02 
2152	 7.91004765534664E-03 
2153	 1.03719667749344E-03 
2154	-3.62584535106262E-03 
2155	-4.06837576815183E-03 
2156	 2.79738674943388E-03 
2157	 9.9880675853558E-03 
2158	 1.87446519677142E-02 
2159	 3.07779054035059E-02 
2160	 5.56898108186646E-02 
2161	 5.67432784722828E-02 
2162	 4.77758768085357E-02 
2163	 4.47074028185613E-02 
2164	 2.60606906507493E-02 
2165	 1.94277163810293E-02 
2166	 2.45011457277595E-02 
2167	 2.47775324315837E-02 
2168	 2.10103949867745E-02 
2169	 1.99036879575512E-02 
2170	 2.13065943349775E-02 
2171	 2.62647509115355E-02 
2172	 2.76766240352044E-02 
2173	 3.72952773751633E-02 
2174	 5.24343136655096E-02 
2175	 6.07802488378647E-02 
2176	 4.81745047834394E-02 
2177	 3.33419342726599E-02 
2178	 0.013515236186819 
2179	-2.21686227321889E-03 
2180	-7.07844406655501E-03 
2181	 1.59735456035957E-03 
2182	 2.32734268038994E-02 
2183	 1.13706452639083E-02 
2184	-5.11057912884509E-03 
2185	-5.49063309509256E-03 
2186	-4.51813888710933E-03 
2187	-9.25995650339254E-03 
2188	 1.88130345735316E-03 
2189	 4.08819932808632E-02 
2190	 5.15313801231768E-02 
2191	 5.35626834363338E-02 
2192	 5.40108457322002E-02 
2193	 3.73102454387474E-02 
2194	 2.64144117604216E-02 
2195	 1.62049513925339E-02 
2196	 0.010838540628051 
2197	 2.92049097374588E-04 
2198	 5.09207739043789E-03 
2199	 3.01087379586151E-02 
2200	 3.48550927649576E-02 
2201	 4.72140529566678E-02 
2202	 0.076461035669245 
2203	 7.43453203037859E-02 
2204	 6.21837446866658E-02 
2205	 5.74868467645813E-02 
2206	 3.33608006353686E-02 
2207	 2.09146189484432E-02 
2208	 3.87830242724624E-02 
2209	 3.51908655711033E-02 
2210	 3.19709193125996E-02 
2211	 3.04233984014934E-02 
2212	 2.55296188086772E-02 
2213	 5.11012358870187E-02 
2214	 5.06545983208788E-02 
2215	 4.45301741576298E-02 
2216	 4.97383411318117E-02 
2217	 4.91507224318118E-02 
2218	 3.92275080065446E-02 
2219	 4.27333041283843E-02 
2220	 5.49376726967978E-02 
2221	 6.21525488410273E-02 
2222	 6.38174888926473E-02 
2223	 6.71785218193102E-02 
2224	 8.12956203367762E-02 
2225	 8.00857790194218E-02 
2226	 0.070563888097194 
2227	 6.71617048088295E-02 
2228	 0.047991276595468 
2229	 0.042560710081732 
2230	 5.28160733274275E-02 
2231	 5.78820824388805E-02 
2232	 7.94438640108176E-02 
2233	 8.17996892144933E-02 
2234	 7.55462695383465E-02 
2235	 4.98375344971803E-02 
2236	 2.35685560632922E-02 
2237	 6.29561759902111E-03 
2238	 2.49780432868453E-02 
2239	 4.97343122862516E-02 
2240	 0.054652815535652 
2241	 5.28157985297508E-02 
2242	 3.25500905162585E-02 
2243	 1.03937477738166E-02 
2244	 1.54487343701282E-02 
2245	 4.29152516689114E-02 
2246	 7.09686261606979E-02 
2247	 7.15332188906917E-02 
2248	 4.54823595693484E-02 
2249	 2.95261106230488E-02 
2250	 2.39293804990714E-02 
2251	 1.27866600247414E-02 
2252	 8.16010500689098E-03 
2253	-1.02347084541436E-02 
2254	-0.034069692342077 
2255	-5.19461100141439E-02 
2256	-5.60844128828104E-02 
2257	-2.22330120646941E-02 
2258	-3.43718243652283E-03 
2259	 1.71881524454694E-03 
2260	 1.14008299093118E-02 
2261	 2.18431539746177E-02 
2262	 3.03077404832145E-02 
2263	 5.10727079714937E-02 
2264	 4.62958990139225E-02 
2265	 0.02039506844119 
2266	 1.82792314032917E-02 
2267	-7.87516638919384E-03 
2268	-5.41118534152242E-03 
2269	 0.050006516807615 
2270	 6.34363186441099E-02 
2271	 5.59290188170701E-02 
2272	 6.37915433099527E-02 
2273	 6.62334023413085E-02 
2274	 6.94655942874555E-02 
2275	 9.03161016252385E-02 
2276	 0.089432893210702 
2277	 5.76952416817416E-02 
2278	 5.52362009199405E-02 
2279	 7.62136078760198E-02 
2280	 0.072121800260013 
2281	 7.21124821952028E-02 
2282	 5.73924157955442E-02 
2283	 1.78134658813756E-02 
2284	-1.34327796118023E-02 
2285	-3.07669004913688E-03 
2286	 4.73283054150809E-02 
2287	 0.114200498754105 
2288	 0.118344938261105 
2289	 8.36956395477402E-02 
2290	 6.47705941661899E-02 
2291	-2.38190483030831E-02 
2292	-6.61357575776476E-02 
2293	-1.15188359778274E-02 
2294	-8.41531380977962E-03 
2295	-0.01395531382114 
2296	 4.21848912336743E-03 
2297	 1.00404956729642E-02 
2298	-5.24899846081612E-03 
2299	 1.19943230530129E-02 
2300	 3.69850858519644E-02 
2301	-2.88758531395133E-02 
2302	-9.14582095671278E-02 
2303	-7.04338641830223E-02 
2304	-1.30096707823811E-02 
2305	 6.51635541479239E-02 
2306	 0.157888878507486 
2307	 0.185243443572029 
2308	 0.123279401389777 
2309	 7.32803157340818E-02 
2310	 2.62088635334253E-02 
2311	-2.09419745860501E-02 
2312	-6.06667602297931E-02 
2313	-0.104622188742073 
2314	-4.59721270567947E-02 
2315	-1.67767177590786E-02 
2316	 2.49035075233049E-02 
2317	 9.40676718601683E-02 
2318	 4.99013159559152E-02 
2319	 2.94635784373926E-02 
2320	 1.28096655108862E-02 
2321	 5.44094517166361E-02 
2322	 0.200556098306039 
2323	 0.250146993170771 
2324	 0.277705668135449 
2325	 0.274890696080552 
2326	 0.142901613611153 
2327	 9.94259715293601E-02 
2328	 0.022280674129619 
2329	-8.40923841505684E-02 
2330	-0.104350110456845 
2331	-0.158639560283434 
2332	-0.132869891203796 
2333	-8.59651545163915E-02 
2334	-0.167287134350083 
2335	-0.172642334948061 
2336	-9.18738929758376E-02 
2337	-0.136261940475268 
2338	-0.127021619913859 
2339	-3.53584853719186E-02 
2340	-0.111444322628421 
2341	 2.90669439799578E-02 
2342	 0.221934903864242 
2343	 8.05914812423518E-02 
2344	 4.97245182504855E-02 
2345	-5.28147257862586E-02 
2346	-0.111073811028271 
2347	 0.027599669026435 
2348	 4.51890680311062E-02 
2349	 5.25306653223773E-02 
2350	 0.140638224117613 
2351	 3.22358359545813E-02 
2352	-0.140559622865243 
2353	-0.205002212318404 
2354	-0.24094053948313 
2355	-0.140348082003864 
2356	 8.78393703110436E-02 
2357	 0.344373018724441 
2358	 0.610218263896778 
2359	 0.587312060096815 
2360	 0.355802167921652 
2361	-2.54592749964191E-02 
2362	-0.285278660154442 
2363	-0.423227021699848 
2364	-0.389155348278243 
2365	-0.373986526682015 
2366	-0.204698902548713 
2367	-0.382707159346558 
2368	-0.477677016541812 
2369	 5.08013086807342E-02 
2370	 5.52367361795437E-03 
2371	 1.44585243013568 
2372	 4.82534521712824 
2373	-4.22354576359059 
2374	-3.86256440924257 
2375	-1.08043477741372 
2376	 0.151832399367375 
2377	 0.840296251764812 
2378	 1.44623625703694 
2379	 1.36481754215245 
2380	 0.631296580085376 
2381	-0.767797945930617 
2382	-0.143649828139006 
2383	-0.271746553219407 
2384	 0.414817451851446 
2385	-16.3166608245671 
2386	-1.79766115638653 
2387	-1.72009850344972 
2388	-1.53013560558814 
2389	-1.75997379576198 
2390	-2.9023830292454 
2391	-4.87921648776268 
2392	 1.16565670326304 
2393	 4.07575752236712E-03 
2394	-0.631763685845094 
2395	-0.274653968547261 
2396	-0.326314080089554 
2397	-0.623770949179966 
2398	-1.39056695328185 
2399	-4.0467926382926 
2400	-11.7782882304642 
2401	-52.0488183389559 
2402	-11.6681498302735 
2403	-1.99333324349176 
2404	-2.40405858704105 
2405	-5.14343990944212 
2406	 0.959033707197073 
2407	-2.00200127081393 
2408	-3.42891015105741 
2409	 6.20746187949625 
2410	 1.34500774763082 
2411	 2.72160403569548 
2412	 5.58138032641602 
2413	 2.84436032443472 
2414	 3.56539779086118 
2415	 10.4145924309232 
2416	 1.38441597741313 
2417	-3.67040793369385 
2418	-3.23892567419972 
2419	-3.68051354085447 
2420	-13.8789130367625 
2421	-4.39521921752296 
2422	-8.73703352579667 
2423	-158.874291359044 
2424	-3.93122271938096 
2425	 3.60116228682132 
2426	-1.39838469988813 
2427	-2.66362013499035 
2428	-3.61658278896777 
2429	-4.71466920321077 
2430	 177.929059387174 
2431	-3.02261756701389 
2432	-1.75602380183211 
2433	-1.81272356787172 
2434	-1.027957980509 
2435	-0.117672734934221 
2436	-0.690200196112263 
2437	-1.69196727314614 
2438	-7.30184983968597 
2439	 10.8945363314928 
2440	 4.83603320672096 
2441	 1.1020367704249 
2442	 0.295043397478454 
2443	-0.431549121451392 
2444	-0.16559821782267 
2445	-0.49254967019863 
2446	-0.762864603594513 
2447	 0.414845589432762 
2448	 0.53666025842363 
2449	-0.470989849721973 
2450	-0.29984660225826 
2451	-0.503144734698701 
2452	-0.577525964487829 
2453	-3.46070921567466E-02 
2454	-0.105899549685806 
2455	-0.323657448788743 
2456	-0.287587904045453 
2457	-0.154013784524114 
2458	 0.180846597830596 
2459	 0.253987036090637 
2460	 0.680589184449292 
2461	 1.01461047686057 
2462	 0.876492344184945 
2463	 0.486371639891899 
2464	 0.307213128745436 
2465	-5.79023198946087E-02 
2466	-0.503419090974147 
2467	-0.525624967232711 
2468	-1.24373796751584 
2469	-2.24133719098268 
2470	-0.808392379058118 
2471	-0.168899221001656 
2472	 0.433489961963316 
2473	 1.01161690983157 
2474	 0.788994948715023 
2475	 0.294195540975669 
2476	 0.292802585008093 
2477	 0.224010362401591 
2478	 0.512672167872064 
2479	 1.55905443966665 
2480	 1.46703380883014 
2481	 1.21038498480414 
2482	 1.53983300091158 
2483	 2.81247406850494 
2484	-22.2240386199009 
2485	-2.21456427667584 
2486	-2.66174823828339 
2487	 3.33281611264573 
2488	 1.31301398814484 
2489	 0.725317559962435 
2490	 0.354254077882094 
2491	 0.503161005858265 
2492	 0.738375907609165 
2493	 1.03167676611505 
2494	 1.90417458860751 
2495	 1.25554695775143 
2496	 0.197767298639406 
2497	 0.112753364424644 
2498	 0.513848603060506 
2499	 0.967256275355868 
2500	 9.48262940808091 
