Wavelength	rt0727close00003.asd
350	 5.70742855430058E-02 
351	 5.74797115023205E-02 
352	 5.78186397623875E-02 
353	 0.057850510993836 
354	 5.76844515986638E-02 
355	 5.82178240364738E-02 
356	 5.86030712457862E-02 
357	 5.84138799092773E-02 
358	 5.76711815318059E-02 
359	 5.74471023959126E-02 
360	 5.79876573938566E-02 
361	 5.85060479576318E-02 
362	 5.78150662287249E-02 
363	 5.78192201121665E-02 
364	 5.82744110804178E-02 
365	 5.86235549482742E-02 
366	 5.82698446728976E-02 
367	 5.84264833855503E-02 
368	 5.85999824857558E-02 
369	 5.82663847939121E-02 
370	 0.058532709633483 
371	 5.83661852566998E-02 
372	 5.79674271026816E-02 
373	 5.81928140624415E-02 
374	 5.86248041282607E-02 
375	 5.89391080722862E-02 
376	 5.90694851022637E-02 
377	 5.92879975081038E-02 
378	 5.91352863067973E-02 
379	 5.91398873440102E-02 
380	 5.97286529599645E-02 
381	 0.060368781916826 
382	 6.05188276745991E-02 
383	 6.02232511590654E-02 
384	 5.98958691529183E-02 
385	 6.00206067336672E-02 
386	 5.99324241724741E-02 
387	 5.98171750898386E-02 
388	 6.08147591012679E-02 
389	 6.12266989457606E-02 
390	 6.11067125499853E-02 
391	 6.09529837683553E-02 
392	 6.14050384327255E-02 
393	 6.16948774321035E-02 
394	 6.18928378068296E-02 
395	 6.22435373955022E-02 
396	 6.20766975570175E-02 
397	 6.20550880325083E-02 
398	 6.22499513726205E-02 
399	 6.21937713969111E-02 
400	 6.22819242155493E-02 
401	 6.25574845865622E-02 
402	 6.29737942928805E-02 
403	 6.35024915021251E-02 
404	 0.063416877494877 
405	 6.31557323599759E-02 
406	 6.34130787095147E-02 
407	 6.35517124032419E-02 
408	 6.35900331611725E-02 
409	 6.35954743187485E-02 
410	 0.063641009596813 
411	 6.37533883622026E-02 
412	 6.39441201570765E-02 
413	 6.41678611080384E-02 
414	 6.42441038420274E-02 
415	 6.44073222799478E-02 
416	 6.47442165589424E-02 
417	 6.51755478896444E-02 
418	 6.50501192087768E-02 
419	 6.50280730430421E-02 
420	 0.065326653479019 
421	 6.55905672485663E-02 
422	 6.58126944091382E-02 
423	 6.61634617645025E-02 
424	 6.66515820024734E-02 
425	 6.67005167797381E-02 
426	 6.68836637383459E-02 
427	 6.71784998810334E-02 
428	 6.73336221072357E-02 
429	 6.77201777203371E-02 
430	 0.068105826301578 
431	 6.83952874766079E-02 
432	 6.87206959023271E-02 
433	 6.90817698182139E-02 
434	 6.94481588741122E-02 
435	 6.97865557203327E-02 
436	 7.00749523577887E-02 
437	 7.04073280539067E-02 
438	 0.070773901838626 
439	 0.071114506809482 
440	 0.071499453215001 
441	 7.18601681477411E-02 
442	 7.21711520530569E-02 
443	 7.24915159514199E-02 
444	 7.27600046938532E-02 
445	 7.30644042494934E-02 
446	 7.34702267445312E-02 
447	 7.38025633280393E-02 
448	 7.42076391743368E-02 
449	 0.074508834214381 
450	 7.43725040773781E-02 
451	 7.46311771378311E-02 
452	 7.50222914197754E-02 
453	 7.53051881886152E-02 
454	 7.56417793758239E-02 
455	 7.58157776636597E-02 
456	 7.58784632613365E-02 
457	 7.59797001303961E-02 
458	 7.62084575380152E-02 
459	 7.63420779319999E-02 
460	 0.076419349540967 
461	 7.67310672272274E-02 
462	 7.67751750048616E-02 
463	 7.67390026787708E-02 
464	 7.68619605133094E-02 
465	 7.71334282329925E-02 
466	 0.077451553939468 
467	 7.76766146264907E-02 
468	 7.77130983089906E-02 
469	 7.78696526762757E-02 
470	 7.81164466438438E-02 
471	 7.84015786737557E-02 
472	 7.86922758743752E-02 
473	 7.88927923597582E-02 
474	 7.91612626088994E-02 
475	 7.95733482436697E-02 
476	 7.96424152529361E-02 
477	 7.98545368693595E-02 
478	 8.02025813763841E-02 
479	 0.080366818951915 
480	 8.06783472690511E-02 
481	 0.080889788742031 
482	 8.09294365906052E-02 
483	 8.12268067980687E-02 
484	 0.081622962350808 
485	 8.19834173907079E-02 
486	 8.22274505334778E-02 
487	 8.25831327940246E-02 
488	 8.28062608251961E-02 
489	 8.29693373201474E-02 
490	 8.34479827255759E-02 
491	 8.39320393540144E-02 
492	 8.43306577859222E-02 
493	 8.46711048160692E-02 
494	 8.51903906322745E-02 
495	 8.56738849273682E-02 
496	 0.086108157877253 
497	 8.65771695988697E-02 
498	 8.70380060226646E-02 
499	 8.75349166150834E-02 
500	 8.81236450915312E-02 
501	 8.88735379776548E-02 
502	 8.94107010823736E-02 
503	 8.99062250171697E-02 
504	 9.05785589552766E-02 
505	 9.11369071361472E-02 
506	 9.15670794655537E-02 
507	 9.20690739480638E-02 
508	 9.29458654414152E-02 
509	 9.35005603169748E-02 
510	 9.40179485525067E-02 
511	 9.47552701710967E-02 
512	 9.55621693618392E-02 
513	 9.62535373604757E-02 
514	 9.68166383285133E-02 
515	 9.73736667124645E-02 
516	 9.83471372278707E-02 
517	 9.91325495759572E-02 
518	 9.96083344212201E-02 
519	 0.100352752019609 
520	 0.101276684051683 
521	 0.102136285161335 
522	 0.102795607517899 
523	 0.103593575087702 
524	 0.104513438546383 
525	 0.105359777740195 
526	 0.105884456745078 
527	 0.106749329314861 
528	 0.107745071085949 
529	 0.108625822178337 
530	 0.109319812924535 
531	 0.110098967527511 
532	 0.110956626707147 
533	 0.111813384257253 
534	 0.112880651663954 
535	 0.113854100491565 
536	 0.114680228942865 
537	 0.115612581404408 
538	 0.116473704471301 
539	 0.117421671732527 
540	 0.118562270203173 
541	 0.119595655755313 
542	 0.12061610635236 
543	 0.121565847287292 
544	 0.122343824798232 
545	 0.123361038937762 
546	 0.124470714543139 
547	 0.125544458546079 
548	 0.126650634748128 
549	 0.127642006284203 
550	 0.128558283820815 
551	 0.129501393322097 
552	 0.13046972236845 
553	 0.131515162553657 
554	 0.132572938562285 
555	 0.133445390890514 
556	 0.134299510873324 
557	 0.135293896546595 
558	 0.13644412161913 
559	 0.137366317342213 
560	 0.138253944845153 
561	 0.139130536015614 
562	 0.13992953126217 
563	 0.140757702584363 
564	 0.141551061739653 
565	 0.142291069813743 
566	 0.143110333137348 
567	 0.143689093462107 
568	 0.14416636337405 
569	 0.144799100294626 
570	 0.145428660667223 
571	 0.145916670047736 
572	 0.146336354218869 
573	 0.146968668913787 
574	 0.147346164151724 
575	 0.147643737934036 
576	 0.148092711083844 
577	 0.148632478641902 
578	 0.149015705636586 
579	 0.14929166353458 
580	 0.149666524783476 
581	 0.149868013994186 
582	 0.150052620678011 
583	 0.150322409266332 
584	 0.150594011057653 
585	 0.150778279812083 
586	 0.150941426336575 
587	 0.151169672631481 
588	 0.151201580201437 
589	 0.151448666082126 
590	 0.151851483492562 
591	 0.151855321854057 
592	 0.151911341762315 
593	 0.151930459657579 
594	 0.151825663468874 
595	 0.151860487115131 
596	 0.151785519085014 
597	 0.15162409095687 
598	 0.151525132544687 
599	 0.15128303735137 
600	 0.151028844167155 
601	 0.150877710266223 
602	 0.150865150235037 
603	 0.150747031281228 
604	 0.150599782650707 
605	 0.150571129122342 
606	 0.150575340804211 
607	 0.150611217597431 
608	 0.150564266672579 
609	 0.150231579262435 
610	 0.150325061427143 
611	 0.150497169967569 
612	 0.150374963862258 
613	 0.150190604545731 
614	 0.15012677793508 
615	 0.150116668941974 
616	 0.149966157811006 
617	 0.149794142288289 
618	 0.149805846806954 
619	 0.14993276200075 
620	 0.149640826866961 
621	 0.149639787264496 
622	 0.14978860411715 
623	 0.149757930195273 
624	 0.149768352461313 
625	 0.149776123942064 
626	 0.149759847637048 
627	 0.149731036962424 
628	 0.149770751070678 
629	 0.149788421730155 
630	 0.149706138069349 
631	 0.14952836840393 
632	 0.149621624456827 
633	 0.149777635535136 
634	 0.149596255100099 
635	 0.149574075854626 
636	 0.149572158929788 
637	 0.149539817005926 
638	 0.149637531754598 
639	 0.149813137919798 
640	 0.149938955975897 
641	 0.149903998874872 
642	 0.149740515591703 
643	 0.149762624580982 
644	 0.14990549517444 
645	 0.149808376286371 
646	 0.149914111993138 
647	 0.150002223600502 
648	 0.149851673732915 
649	 0.149549291205444 
650	 0.149190319523571 
651	 0.148859259626993 
652	 0.148601766794973 
653	 0.14815240220697 
654	 0.147633893589481 
655	 0.147018093915085 
656	 0.14613629300185 
657	 0.145268144838539 
658	 0.144405773455617 
659	 0.143518136003547 
660	 0.142843825960534 
661	 0.141954936463842 
662	 0.14096524378935 
663	 0.140296771634111 
664	 0.139552227383917 
665	 0.138871195470975 
666	 0.138297610785098 
667	 0.137597184837235 
668	 0.137010737383174 
669	 0.136636797082688 
670	 0.136474682583731 
671	 0.13625316233687 
672	 0.136387141299427 
673	 0.136752670033822 
674	 0.136745955311031 
675	 0.136963983523233 
676	 0.137518920319153 
677	 0.138265541022468 
678	 0.13861468417496 
679	 0.139334738981878 
680	 0.140244281517033 
681	 0.1408610193683 
682	 0.141904880016141 
683	 0.143107751880315 
684	 0.144268625733512 
685	 0.145510664519742 
686	 0.146844867404532 
687	 0.148359236971419 
688	 0.149906491016033 
689	 0.150961452842575 
690	 0.152080069653851 
691	 0.153403965999733 
692	 0.15477858372736 
693	 0.155751242051089 
694	 0.156419554432988 
695	 0.156931810738176 
696	 0.157343503279807 
697	 0.157748872822645 
698	 0.158043632067103 
699	 0.158109425000936 
700	 0.158456104869491 
701	 0.158527280523455 
702	 0.158244525321561 
703	 0.157931251037478 
704	 0.157643418297103 
705	 0.157341173808665 
706	 0.15698192298982 
707	 0.156519621779131 
708	 0.156091676794338 
709	 0.155518192925631 
710	 0.154600357745087 
711	 0.153667861533356 
712	 0.15265270168495 
713	 0.151610665773915 
714	 0.150730016325681 
715	 0.150097684970671 
716	 0.149433714463946 
717	 0.148312406761417 
718	 0.146271591013246 
719	 0.144330438106243 
720	 0.142844864425624 
721	 0.141309542035394 
722	 0.14024206739036 
723	 0.138863581958633 
724	 0.137108674953438 
725	 0.135509935981432 
726	 0.133561691858987 
727	 0.131318526476095 
728	 0.128910334739225 
729	 0.126370636984145 
730	 0.123262610179262 
731	 0.12032198338969 
732	 0.118126681789582 
733	 0.116092944968813 
734	 0.114204541011275 
735	 0.112578606097778 
736	 0.111407465045415 
737	 0.110180695514569 
738	 0.109138834984909 
739	 0.108568365959054 
740	 0.108360026463701 
741	 0.108008575572911 
742	 0.107676449233074 
743	 0.107762604721119 
744	 0.107613450240477 
745	 0.107562629516871 
746	 0.107716760489639 
747	 0.107756878452707 
748	 0.107876615169073 
749	 0.107896476607981 
750	 0.107691032704286 
751	 0.107567956830103 
752	 0.107686381784398 
753	 0.107835695315322 
754	 0.107676447861701 
755	 0.107623510479834 
756	 0.107842429669639 
757	 0.108244694499879 
758	 0.108433586356895 
759	 0.108723890493452 
760	 0.109382391900464 
761	 0.109936612430094 
762	 0.109881893027607 
763	 0.109650775674176 
764	 0.109304741742287 
765	 0.108909280043734 
766	 0.10918224352078 
767	 0.109507142105443 
768	 0.109666958515261 
769	 0.109759279706747 
770	 0.110020183459301 
771	 0.110319671274016 
772	 0.11054432435434 
773	 0.110839435918975 
774	 0.111168428333569 
775	 0.111531097391996 
776	 0.11191909359863 
777	 0.112154234684235 
778	 0.112577420643213 
779	 0.113154116890658 
780	 0.113467399259937 
781	 0.113877373585291 
782	 0.114251868069661 
783	 0.114554421898291 
784	 0.115192806645429 
785	 0.115644106659546 
786	 0.115915694157721 
787	 0.116276714806324 
788	 0.117204424701483 
789	 0.117944308226266 
790	 0.118297384567544 
791	 0.118621361453267 
792	 0.118969125759492 
793	 0.119516797707765 
794	 0.120159469366004 
795	 0.12027334421242 
796	 0.120695853989285 
797	 0.121289477511624 
798	 0.121769690822208 
799	 0.122326679397058 
800	 0.122538741930607 
801	 0.122664536080268 
802	 0.123202117807436 
803	 0.123161578306666 
804	 0.12334255061868 
805	 0.123725615086493 
806	 0.12334066759258 
807	 0.123207114265639 
808	 0.123279932268364 
809	 0.123313556154605 
810	 0.123110929583956 
811	 0.122734698738198 
812	 0.122424751956468 
813	 0.122396397610367 
814	 0.121879186858246 
815	 0.121184978323931 
816	 0.120568199179141 
817	 0.120029608165807 
818	 0.119020122462996 
819	 0.118401225787814 
820	 0.117879550608622 
821	 0.115724317196034 
822	 0.11443373030365 
823	 0.113275299671124 
824	 0.111419589380773 
825	 0.109757776284825 
826	 0.107265523134612 
827	 0.10441366359472 
828	 0.102279448766736 
829	 9.99682335132103E-02 
830	 9.76846528288793E-02 
831	 9.55980956193241E-02 
832	 0.093882398571398 
833	 9.24670483598697E-02 
834	 9.10343043984052E-02 
835	 8.98712598383958E-02 
836	 9.00081063955218E-02 
837	 8.93800698131089E-02 
838	 8.83976017144719E-02 
839	 8.76138415176589E-02 
840	 8.64175293464468E-02 
841	 8.62063458266354E-02 
842	 8.63032637991894E-02 
843	 8.55985053703124E-02 
844	 8.47674744171397E-02 
845	 8.41411959239219E-02 
846	 8.39025621209215E-02 
847	 8.40117129095679E-02 
848	 8.35451773187012E-02 
849	 8.29715790599221E-02 
850	 8.26290822724018E-02 
851	 8.24232456231003E-02 
852	 8.16441941928037E-02 
853	 8.10980627612973E-02 
854	 8.11837134201407E-02 
855	 8.07631603938903E-02 
856	 8.03485346179405E-02 
857	 8.00780247283054E-02 
858	 7.98707230880595E-02 
859	 7.92275659625595E-02 
860	 7.87483325855887E-02 
861	 7.85214214846776E-02 
862	 7.82983467001784E-02 
863	 7.76038132299342E-02 
864	 0.077486861287606 
865	 7.76227370771677E-02 
866	 0.076577758426654 
867	 7.59167334869458E-02 
868	 7.55573931873879E-02 
869	 0.075169643180087 
870	 7.44563766340485E-02 
871	 7.42898174541331E-02 
872	 7.43126365712981E-02 
873	 7.40422342166928E-02 
874	 7.33454103639295E-02 
875	 0.07282592628969 
876	 0.072222287187493 
877	 0.071327887511015 
878	 7.12218893455849E-02 
879	 7.08480312331854E-02 
880	 7.00923040921962E-02 
881	 6.93614769537465E-02 
882	 0.068952647258286 
883	 6.87043192524005E-02 
884	 6.83193723055407E-02 
885	 0.067571599646723 
886	 6.75489246361277E-02 
887	 6.65538032423793E-02 
888	 6.48984729450981E-02 
889	 6.52909978891776E-02 
890	 0.065177420328457 
891	 6.51887096687854E-02 
892	 6.54355933616505E-02 
893	 6.38187889922431E-02 
894	 6.34539340003474E-02 
895	 6.36143518225739E-02 
896	 6.30334038349015E-02 
897	 6.35487696007902E-02 
898	 6.36392790837305E-02 
899	 6.23166392709909E-02 
900	 5.99997104019914E-02 
901	 5.99428667994511E-02 
902	 6.04044388382036E-02 
903	 6.03757941988567E-02 
904	 5.94730168960458E-02 
905	 5.85513984853766E-02 
906	 5.75087338421281E-02 
907	 5.67031234994588E-02 
908	 5.66972823945489E-02 
909	 5.64769082535798E-02 
910	 5.57087028814246E-02 
911	 5.51000035672037E-02 
912	 0.055694988202621 
913	 5.31944565985033E-02 
914	 5.16340019854722E-02 
915	 5.22545282191228E-02 
916	 5.18479129030493E-02 
917	 0.049734420197759 
918	 4.82212393912876E-02 
919	 4.79602034031884E-02 
920	 0.04718170906295 
921	 4.65715376665262E-02 
922	 4.51476168492081E-02 
923	 4.29081754464747E-02 
924	 4.27367145956496E-02 
925	 4.30122082316233E-02 
926	 0.042740691848863 
927	 4.18216678077998E-02 
928	 4.34043792047757E-02 
929	 4.82510177014254E-02 
930	 4.94746493461209E-02 
931	 3.69607822922138E-02 
932	 4.05846920661619E-02 
933	 3.56322549409287E-02 
934	 0.019187461260565 
935	 1.10587634059019E-02 
936	 2.82009930605781E-02 
937	 3.25232809259141E-02 
938	 2.88920429545557E-02 
939	 0.032603898684464 
940	 4.60059358866033E-02 
941	 4.49685902090043E-02 
942	 3.53365977682122E-02 
943	 3.48493348110085E-02 
944	 2.56553016742533E-02 
945	 3.21236026183338E-02 
946	 4.60107326380363E-02 
947	 4.34680188264707E-02 
948	 3.29790732344957E-02 
949	 2.46740243705511E-02 
950	 2.55824073959282E-02 
951	 3.53526257699421E-02 
952	 3.70356137615416E-02 
953	 2.45532104192948E-02 
954	 1.27601086953541E-02 
955	 2.14224857425243E-02 
956	 2.45612148949479E-02 
957	 2.12974658473358E-02 
958	 2.05463406424201E-02 
959	 3.16954817492982E-02 
960	 3.89247332083699E-02 
961	 3.51421699930172E-02 
962	 3.01601734077582E-02 
963	 3.70873013677695E-02 
964	 3.40720658453444E-02 
965	 3.24070733417124E-02 
966	 3.25661130144268E-02 
967	 0.028025070339515 
968	 2.49133180864909E-02 
969	 2.54263997366053E-02 
970	 0.026986810744828 
971	 2.50677738510905E-02 
972	 0.030881912271236 
973	 3.26241114057159E-02 
974	 2.92112566134053E-02 
975	 3.08779923278887E-02 
976	 2.81758039682635E-02 
977	 2.77905273870454E-02 
978	 2.99614254430383E-02 
979	 0.028848863858473 
980	 2.58291447042855E-02 
981	 2.60206333190717E-02 
982	 2.73230275213097E-02 
983	 2.41120874206177E-02 
984	 2.72148508800805E-02 
985	 2.95312335442162E-02 
986	 2.87587027543077E-02 
987	 2.78197491648599E-02 
988	 2.96566001137335E-02 
989	 0.030213337700368 
990	 2.85326430868168E-02 
991	 2.69244512820025E-02 
992	 0.029762212499205 
993	 2.95284756500223E-02 
994	 2.68169295510235E-02 
995	 2.75811298005526E-02 
996	 2.93570288041134E-02 
997	 3.01429149904624E-02 
998	 2.82988653845668E-02 
999	 2.42296805086593E-02 
1000	 2.65462822608021E-02 
1001	 0.029863625670303 
1002	 0.029372880183368 
1003	 2.92664725423115E-02 
1004	 2.94517862723743E-02 
1005	 2.91895206950014E-02 
1006	 2.85867759720819E-02 
1007	 2.88777176041297E-02 
1008	 2.93839938167142E-02 
1009	 2.99617381870161E-02 
1010	 3.15960098499213E-02 
1011	 3.28023658019898E-02 
1012	 3.19102794468454E-02 
1013	 3.10510094467438E-02 
1014	 3.07207340544507E-02 
1015	 3.00033187946314E-02 
1016	 2.96978688848938E-02 
1017	 3.02053320013638E-02 
1018	 3.02836651689611E-02 
1019	 2.99379596810217E-02 
1020	 2.99089703382857E-02 
1021	 2.99082344390728E-02 
1022	 3.05404319205859E-02 
1023	 3.04164955003881E-02 
1024	 3.09523941707107E-02 
1025	 3.13979058994874E-02 
1026	 3.06678716236715E-02 
1027	 3.06762535948448E-02 
1028	 3.06190105445807E-02 
1029	 3.08678126365135E-02 
1030	 3.18354495151695E-02 
1031	 3.18690450487264E-02 
1032	 3.13744661537296E-02 
1033	 3.13783481260921E-02 
1034	 3.10319105213926E-02 
1035	 3.10120319727318E-02 
1036	 3.19426590138709E-02 
1037	 3.20213443135231E-02 
1038	 0.031471027499801 
1039	 3.10937740593924E-02 
1040	 3.07575048150635E-02 
1041	 2.98864953820808E-02 
1042	 3.03077659329345E-02 
1043	 0.03145584945655 
1044	 3.23932273138469E-02 
1045	 3.44337622120852E-02 
1046	 3.51698492098735E-02 
1047	 0.035489524767297 
1048	 3.53882664470062E-02 
1049	 3.40361886953815E-02 
1050	 0.033719044778931 
1051	 3.35358490054709E-02 
1052	 3.34848657857737E-02 
1053	 3.45186178591152E-02 
1054	 0.034561570177925 
1055	 3.31382153748253E-02 
1056	 3.30979338180187E-02 
1057	 3.34765606111412E-02 
1058	 3.39286710104232E-02 
1059	 3.46931641241986E-02 
1060	 0.037423155058109 
1061	 3.73215323613286E-02 
1062	 3.51885842841935E-02 
1063	 3.47626355818237E-02 
1064	 3.31824365833132E-02 
1065	 3.33661867984195E-02 
1066	 0.036412666522376 
1067	 3.71751331199454E-02 
1068	 3.74099401631215E-02 
1069	 0.037501009412567 
1070	 0.035495975728876 
1071	 3.52245195737834E-02 
1072	 3.54420420774915E-02 
1073	 3.74064339322321E-02 
1074	 3.74952466232176E-02 
1075	 3.80873208452055E-02 
1076	 3.74304434237776E-02 
1077	 3.40662083484609E-02 
1078	 3.39572056938453E-02 
1079	 0.035670311086014 
1080	 3.62012612010198E-02 
1081	 0.038447164644156 
1082	 3.86571059848406E-02 
1083	 3.61097969695378E-02 
1084	 3.53032251855043E-02 
1085	 3.43557253666295E-02 
1086	 0.034462312285589 
1087	 3.72346296019479E-02 
1088	 3.76834404089473E-02 
1089	 3.75940389796107E-02 
1090	 3.63158381915265E-02 
1091	 0.03562550858421 
1092	 3.30890801295646E-02 
1093	 3.31579051766996E-02 
1094	 3.55262481205587E-02 
1095	 3.60200044464882E-02 
1096	 3.66245278662993E-02 
1097	 3.64594560368091E-02 
1098	 3.48896833791148E-02 
1099	 3.42974958200349E-02 
1100	 3.44418811796344E-02 
1101	 3.37787804019278E-02 
1102	 3.13305414287817E-02 
1103	 3.10458331391407E-02 
1104	 3.25788397745516E-02 
1105	 3.22399100209574E-02 
1106	 0.033069435865983 
1107	 3.70278520688199E-02 
1108	 3.56463101546375E-02 
1109	 3.38399797010152E-02 
1110	 3.29138030953847E-02 
1111	 2.99748557477708E-02 
1112	 3.00631528532502E-02 
1113	 0.035708634605513 
1114	 3.66717540026761E-02 
1115	 3.71986527760197E-02 
1116	 3.77108467227196E-02 
1117	 2.91652029257516E-02 
1118	 0.025154651237603 
1119	 2.97092511197805E-02 
1120	 3.24818206183433E-02 
1121	 4.37886800155662E-02 
1122	 4.51871685314691E-02 
1123	 0.025664440805644 
1124	 2.1969277939726E-03 
1125	 2.94089039383957E-03 
1126	 2.44045842674347E-02 
1127	 4.51507236065467E-02 
1128	 7.97620046920906E-02 
1129	 8.36241201458135E-02 
1130	 3.86362601933446E-02 
1131	 3.78308510058994E-02 
1132	 0.060842744203277 
1133	 6.12375645015295E-02 
1134	 7.07754868725783E-02 
1135	 6.70336936334788E-02 
1136	 2.79717750427916E-02 
1137	 2.56112699737723E-02 
1138	 3.84634839502829E-02 
1139	 5.09650111298371E-02 
1140	 5.50004681564463E-02 
1141	 0.064980552288489 
1142	 6.26924783771406E-02 
1143	 6.05658255096238E-02 
1144	 0.059133198578435 
1145	 5.86308095603792E-02 
1146	 5.80026179741584E-02 
1147	 4.37272641285102E-02 
1148	 2.88492336133945E-02 
1149	 2.79444042550446E-02 
1150	 3.23693457747358E-02 
1151	 4.45612937529773E-02 
1152	 4.18795784238307E-02 
1153	 3.69144194578389E-02 
1154	 3.55962076144063E-02 
1155	 2.98608389511847E-02 
1156	 2.86926573616136E-02 
1157	 3.09843334505557E-02 
1158	 3.57542082726893E-02 
1159	 0.038475728636862 
1160	 3.63889679420642E-02 
1161	 3.37913671599333E-02 
1162	 3.33189197977212E-02 
1163	 3.32583166321944E-02 
1164	 3.20244760153958E-02 
1165	 0.030858540101228 
1166	 3.16327188718657E-02 
1167	 3.14613217014311E-02 
1168	 2.99721664063509E-02 
1169	 3.08310759335985E-02 
1170	 3.16671479662581E-02 
1171	 3.14731128053982E-02 
1172	 3.06456606584961E-02 
1173	 3.09094856051444E-02 
1174	 3.14861512871524E-02 
1175	 3.04307172622227E-02 
1176	 3.04091562709274E-02 
1177	 3.07727759399059E-02 
1178	 2.95340852305545E-02 
1179	 2.96984385631749E-02 
1180	 3.12348154075394E-02 
1181	 3.13948814635021E-02 
1182	 0.032129834695851 
1183	 0.032803533598646 
1184	 3.07988786062006E-02 
1185	 3.00192955773045E-02 
1186	 3.09635309210174E-02 
1187	 2.98306396236612E-02 
1188	 2.92492458215944E-02 
1189	 0.03028006349437 
1190	 0.030072554116356 
1191	 2.95160972588276E-02 
1192	 2.94616386495082E-02 
1193	 3.01326079372014E-02 
1194	 3.02922859131738E-02 
1195	 3.04118619631987E-02 
1196	 3.08872547448406E-02 
1197	 3.14635640502323E-02 
1198	 3.05664203010694E-02 
1199	 2.90197313779834E-02 
1200	 2.96206063939635E-02 
1201	 2.95637992619135E-02 
1202	 2.87199963100568E-02 
1203	 2.91556392050103E-02 
1204	 2.88070708168577E-02 
1205	 2.85363896776482E-02 
1206	 2.90359024309844E-02 
1207	 2.90605863634655E-02 
1208	 2.88448391001078E-02 
1209	 2.89563263225571E-02 
1210	 2.99148811436164E-02 
1211	 3.09613695258679E-02 
1212	 2.99860628950429E-02 
1213	 2.90267274439354E-02 
1214	 2.89342373480545E-02 
1215	 2.89577787312531E-02 
1216	 0.02842971276185 
1217	 2.93006083895372E-02 
1218	 3.03211591260471E-02 
1219	 2.97201529577593E-02 
1220	 2.83479395070066E-02 
1221	 2.83194016328614E-02 
1222	 2.96899146750773E-02 
1223	 2.95402682677731E-02 
1224	 0.028832430059397 
1225	 2.89070554796515E-02 
1226	 2.84468545080851E-02 
1227	 2.79650021820755E-02 
1228	 2.83083354842711E-02 
1229	 2.87217058667868E-02 
1230	 2.78322102396248E-02 
1231	 2.70347132055455E-02 
1232	 2.83729388868112E-02 
1233	 2.96923957366027E-02 
1234	 2.93282917701471E-02 
1235	 2.89084761342057E-02 
1236	 2.77677475913175E-02 
1237	 2.74356242377315E-02 
1238	 0.026842483320789 
1239	 2.69242387035309E-02 
1240	 2.74068764424819E-02 
1241	 2.75545972135388E-02 
1242	 2.75644271583297E-02 
1243	 2.79299404913691E-02 
1244	 2.79364490623473E-02 
1245	 0.027990723620121 
1246	 2.83468455581976E-02 
1247	 2.80802917364954E-02 
1248	 0.028146071471788 
1249	 2.88234489392534E-02 
1250	 0.028871122541963 
1251	 2.84961201836431E-02 
1252	 2.87048567248621E-02 
1253	 2.89555521498521E-02 
1254	 2.86607695851379E-02 
1255	 2.85395276848266E-02 
1256	 2.86004360557388E-02 
1257	 2.88771711886133E-02 
1258	 2.89976312321327E-02 
1259	 2.93799299417883E-02 
1260	 0.029202970278636 
1261	 2.81819180310778E-02 
1262	 2.80802719217002E-02 
1263	 2.81607609226276E-02 
1264	 2.83667207605972E-02 
1265	 2.90079141111603E-02 
1266	 2.93293135821069E-02 
1267	 2.94373660116755E-02 
1268	 2.94142363516623E-02 
1269	 2.83581636249221E-02 
1270	 2.81479225065547E-02 
1271	 2.80442043363534E-02 
1272	 2.75475001229133E-02 
1273	 2.73761141703184E-02 
1274	 2.67279081076746E-02 
1275	 2.65556016184515E-02 
1276	 2.67408619309845E-02 
1277	 0.027530667549462 
1278	 2.90922897186718E-02 
1279	 2.93386048559757E-02 
1280	 2.82028567309174E-02 
1281	 2.81990559154558E-02 
1282	 2.92260580204898E-02 
1283	 2.88357256401996E-02 
1284	 0.027185863035066 
1285	 2.74989774863311E-02 
1286	 2.87062175958764E-02 
1287	 2.81683595971494E-02 
1288	 2.75937910837373E-02 
1289	 2.80412720632704E-02 
1290	 0.028047889495373 
1291	 2.69621742286213E-02 
1292	 2.74051719176859E-02 
1293	 2.81034222153211E-02 
1294	 2.76678281502139E-02 
1295	 2.71690924083439E-02 
1296	 2.67083662238887E-02 
1297	 2.81508795438975E-02 
1298	 2.81193744228209E-02 
1299	 0.026207533492139 
1300	 2.70955566073369E-02 
1301	 2.79407244452383E-02 
1302	 2.67875266149552E-02 
1303	 2.65439321577728E-02 
1304	 2.82261013792762E-02 
1305	 2.83554695581582E-02 
1306	 2.80829022523898E-02 
1307	 2.89986598551558E-02 
1308	 2.96909014159208E-02 
1309	 2.83813154256057E-02 
1310	 2.80000318067996E-02 
1311	 2.88985885404371E-02 
1312	 2.97068057548764E-02 
1313	 3.04146661383478E-02 
1314	 3.01619797952202E-02 
1315	 3.01970632146107E-02 
1316	 3.12351746349404E-02 
1317	 3.06586878668217E-02 
1318	 2.99354291859146E-02 
1319	 3.31560647824561E-02 
1320	 0.032495153668625 
1321	 0.026730027276544 
1322	 0.022156495113884 
1323	 2.53464381763282E-02 
1324	 2.88034438137347E-02 
1325	 2.85950804414619E-02 
1326	 3.24603376967017E-02 
1327	 3.57715497073019E-02 
1328	 3.35768632837538E-02 
1329	 3.41249408159338E-02 
1330	 3.78613734735927E-02 
1331	 0.037350862142258 
1332	 3.20044397393013E-02 
1333	 3.28322661789795E-02 
1334	 3.88726183384726E-02 
1335	 3.83426533025851E-02 
1336	 2.75239136730966E-02 
1337	 3.03873858966366E-02 
1338	 0.042481380478242 
1339	 4.45440573355147E-02 
1340	 4.84866856411628E-02 
1341	 5.22922297251294E-02 
1342	 0.049766829140477 
1343	 0.046071725402862 
1344	 0.040803228315205 
1345	 4.13569316124745E-02 
1346	 2.87316467319049E-02 
1347	 3.03592149212523E-02 
1348	 8.92114245136296E-02 
1349	 0.119866544613174 
1350	 0.125713186683229 
1351	 0.156328494777924 
1352	 0.130660277939642 
1353	 0.158295896364793 
1354	 0.483712811572957 
1355	 0.563907510551797 
1356	 0.264277442887871 
1357	 0.439295613839526 
1358	 0.875506624321361 
1359	 0.572332925651722 
1360	 9.36803849825552E-02 
1361	-0.215342704383047 
1362	 0.355843371531675 
1363	 0.572893380275232 
1364	 0.991023209354432 
1365	 13.3324087500806 
1366	 4.27097345610101 
1367	 0.928001422246605 
1368	 0.410638671167848 
1369	 0.403237774189791 
1370	 0.336320776443344 
1371	 9.85611367796584E-02 
1372	 0.20848292507704 
1373	 1.14629259286624 
1374	 1.13552669682877 
1375	 0.352198545708922 
1376	 0.352886770449289 
1377	 0.420501352914001 
1378	 0.283901219078976 
1379	 0.219053410799762 
1380	 0.349503883657339 
1381	-0.876978304019608 
1382	-1.43341467826916 
1383	 0.688119244825967 
1384	 0.79320801937345 
1385	-0.625905687664126 
1386	-0.665866803301495 
1387	 8.18789475772188E-02 
1388	 0.362568658163699 
1389	 1.0410037675032 
1390	 1.09966394326807 
1391	 0.685290348873652 
1392	 0.508564806343663 
1393	-4.52050776594491E-02 
1394	-0.324155244586458 
1395	-0.139960186317547 
1396	 0.196378897288446 
1397	 0.874085261131698 
1398	 2.34900092040692 
1399	 1.17439239989778 
1400	 0.299464207568284 
1401	 0.121452794432538 
1402	 0.100777047076668 
1403	-9.76670144619482E-02 
1404	-8.50820713886311E-02 
1405	 0.275804522323471 
1406	 0.819564607719644 
1407	 0.542172454720448 
1408	 0.2089691991224 
1409	 0.236804134005529 
1410	-4.35167494971213E-03 
1411	-6.28130307031164E-04 
1412	 0.40657782773835 
1413	 0.562605915512619 
1414	 1.02036673697109 
1415	 0.715368991966628 
1416	-2.11605438768525 
1417	-2.01651163495465 
1418	-0.287480597640361 
1419	-0.399890225483696 
1420	 0.572178363010892 
1421	 1.56408356247775 
1422	 1.23989305343627 
1423	 0.815868517414186 
1424	 0.94330687612949 
1425	 0.937300340569843 
1426	 0.45872478281555 
1427	 0.327814829380654 
1428	 0.74337762412503 
1429	 0.694984590062237 
1430	 0.280260187376397 
1431	 0.171505382034559 
1432	-2.50197905638125E-04 
1433	-9.06211353587705E-02 
1434	 0.239626322361473 
1435	 0.437881271971598 
1436	 0.803205385553135 
1437	 0.491837186446093 
1438	 0.518539983508008 
1439	 0.202083636109634 
1440	 0.582859872037492 
1441	 0.812089660503762 
1442	 0.607095796769062 
1443	 0.528294424486236 
1444	 0.753011371830386 
1445	 0.509933514844802 
1446	 0.222149628287743 
1447	 0.272058417068684 
1448	 0.066617656563929 
1449	-8.47015696839815E-02 
1450	 0.11938387616282 
1451	 0.170535081500692 
1452	 0.133111786536629 
1453	 0.116030318019235 
1454	 0.115730657661763 
1455	 8.72772684618317E-02 
1456	 7.24951715867141E-02 
1457	 9.63681069570465E-02 
1458	 9.60547557883402E-02 
1459	 5.93784060993143E-02 
1460	 5.45997228275767E-02 
1461	 6.55788679241816E-02 
1462	 8.56816767263775E-02 
1463	 0.125846412983561 
1464	 0.142531989817409 
1465	 0.179272182078646 
1466	 0.187432967055434 
1467	 0.137567547828424 
1468	 0.138678933566505 
1469	 0.191860997507769 
1470	 0.175981868405451 
1471	 0.131924544204926 
1472	 0.101149402762139 
1473	 2.97793330307916E-02 
1474	 2.29105077474138E-02 
1475	 5.17482506653268E-02 
1476	 6.79980911679475E-02 
1477	 0.113681099521977 
1478	 0.124980676728037 
1479	 0.117763969530654 
1480	 0.109315121196922 
1481	 9.87354377547245E-02 
1482	 7.86912542676138E-02 
1483	 4.73201492124691E-02 
1484	 0.039448855790385 
1485	 0.035371697718422 
1486	 3.13069410091241E-02 
1487	 3.74289740060583E-02 
1488	 3.54288331654816E-02 
1489	 3.16007942791751E-02 
1490	 2.74432500335347E-02 
1491	 1.57208701814664E-02 
1492	 1.56155628907986E-02 
1493	 2.21418324002548E-02 
1494	 2.29159880535466E-02 
1495	 2.68818452985614E-02 
1496	 2.80844700221951E-02 
1497	 2.38435796291424E-02 
1498	 2.28131998835116E-02 
1499	 2.42960967093151E-02 
1500	 2.36554234264845E-02 
1501	 2.20103983257982E-02 
1502	 2.25236393783555E-02 
1503	 2.26200485999673E-02 
1504	 2.26693303392064E-02 
1505	 2.49785496021956E-02 
1506	 2.59809508489518E-02 
1507	 2.34036802018291E-02 
1508	 2.32235733905436E-02 
1509	 2.53984477251218E-02 
1510	 2.58971511749273E-02 
1511	 2.67080722824352E-02 
1512	 2.75854422897183E-02 
1513	 2.76638986608789E-02 
1514	 2.57420103965613E-02 
1515	 2.37091923952652E-02 
1516	 2.54468670818883E-02 
1517	 2.60763341718085E-02 
1518	 2.64502092509548E-02 
1519	 2.73996002637728E-02 
1520	 2.53341708011373E-02 
1521	 2.37968960736952E-02 
1522	 2.34219785446002E-02 
1523	 2.21970394724951E-02 
1524	 2.17493231958219E-02 
1525	 2.26459644510526E-02 
1526	 2.36026418286556E-02 
1527	 2.37016447255259E-02 
1528	 2.27652534892516E-02 
1529	 2.31551142593044E-02 
1530	 2.31393362028144E-02 
1531	 2.13306136765231E-02 
1532	 2.10580313662837E-02 
1533	 2.03921025508995E-02 
1534	 2.03006878253927E-02 
1535	 2.17648796230905E-02 
1536	 2.33682632446334E-02 
1537	 2.58162815274398E-02 
1538	 2.58426550946422E-02 
1539	 2.53946478049781E-02 
1540	 2.58815755421829E-02 
1541	 2.32346625883078E-02 
1542	 2.19300930872751E-02 
1543	 0.022904578295447 
1544	 2.26956737136678E-02 
1545	 2.38661961954817E-02 
1546	 2.38976031089975E-02 
1547	 2.22722864270808E-02 
1548	 2.24126070052442E-02 
1549	 2.33532611705048E-02 
1550	 0.024375727539607 
1551	 2.48397544402318E-02 
1552	 2.42735461083062E-02 
1553	 2.36295782483241E-02 
1554	 2.38056436567103E-02 
1555	 2.40279383222507E-02 
1556	 2.42560895601228E-02 
1557	 2.46520002288739E-02 
1558	 2.45605215586462E-02 
1559	 2.41752991537798E-02 
1560	 2.37525924934675E-02 
1561	 2.34166361780916E-02 
1562	 2.25457949809034E-02 
1563	 2.20644276459372E-02 
1564	 2.28849246038688E-02 
1565	 2.38873139069364E-02 
1566	 2.49574650544446E-02 
1567	 2.53898965748969E-02 
1568	 2.45405551755821E-02 
1569	 2.34152318213946E-02 
1570	 2.21621614271365E-02 
1571	 2.19691368972474E-02 
1572	 2.35976657989489E-02 
1573	 2.43981390609537E-02 
1574	 2.31766577677337E-02 
1575	 2.23915881143395E-02 
1576	 2.24587717297437E-02 
1577	 0.021845478358312 
1578	 2.25450376838564E-02 
1579	 2.40219548942811E-02 
1580	 2.33112535548647E-02 
1581	 2.29559496509181E-02 
1582	 2.40669871724495E-02 
1583	 2.47459063613279E-02 
1584	 2.57398979187009E-02 
1585	 2.62825727982981E-02 
1586	 2.61182380666545E-02 
1587	 2.66589159142369E-02 
1588	 2.68202187133209E-02 
1589	 2.59688062563733E-02 
1590	 2.56607523098434E-02 
1591	 2.60261408452033E-02 
1592	 2.56996930777065E-02 
1593	 2.62134273764032E-02 
1594	 2.67040719618534E-02 
1595	 2.60214989176325E-02 
1596	 0.026722013633295 
1597	 2.63920718968212E-02 
1598	 0.024476312142244 
1599	 2.43176784100078E-02 
1600	 0.024910358054908 
1601	 2.50234391849183E-02 
1602	 2.50207521917715E-02 
1603	 2.46509447716031E-02 
1604	 0.024152147498446 
1605	 2.45745409793511E-02 
1606	 2.58621797922479E-02 
1607	 2.68562475266798E-02 
1608	 2.67041645875715E-02 
1609	 2.58182615639813E-02 
1610	 2.59822775351923E-02 
1611	 2.61743320131454E-02 
1612	 2.37728853416669E-02 
1613	 2.24080752995818E-02 
1614	 0.024138302399228 
1615	 2.48985576917552E-02 
1616	 2.53181919744177E-02 
1617	 2.59660384664496E-02 
1618	 2.52325398603804E-02 
1619	 2.50849919851295E-02 
1620	 2.54310971715235E-02 
1621	 2.50234867265781E-02 
1622	 2.49514352478424E-02 
1623	 2.53224563810068E-02 
1624	 2.57188804446079E-02 
1625	 2.57961698927886E-02 
1626	 2.52566355993598E-02 
1627	 2.57380174176803E-02 
1628	 2.68403810991917E-02 
1629	 2.60873681496529E-02 
1630	 2.47557798643731E-02 
1631	 2.43601207291435E-02 
1632	 2.38199307645621E-02 
1633	 2.43060929230147E-02 
1634	 2.57364478656235E-02 
1635	 2.54740088966458E-02 
1636	 2.52294247543547E-02 
1637	 0.025887612220773 
1638	 2.55989548863696E-02 
1639	 0.025436537245259 
1640	 2.53755287047406E-02 
1641	 2.44538023011979E-02 
1642	 0.025026122856959 
1643	 2.58480239963254E-02 
1644	 2.47746658071213E-02 
1645	 2.55709696396451E-02 
1646	 2.74067439659692E-02 
1647	 2.69825411711978E-02 
1648	 2.58957184665699E-02 
1649	 2.49085783812631E-02 
1650	 2.40430629358284E-02 
1651	 2.41146419061664E-02 
1652	 2.53354376008679E-02 
1653	 2.61619698569611E-02 
1654	 2.55510538088019E-02 
1655	 2.46123618694479E-02 
1656	 2.52498276813639E-02 
1657	 2.59198681025457E-02 
1658	 2.61568661306004E-02 
1659	 2.74332927231181E-02 
1660	 2.78429501583654E-02 
1661	 2.60830005637684E-02 
1662	 0.026336311047473 
1663	 2.88839473825621E-02 
1664	 2.91207621236118E-02 
1665	 2.91966026537954E-02 
1666	 2.91421984765615E-02 
1667	 2.66564498752986E-02 
1668	 2.77879607263913E-02 
1669	 2.78005925860257E-02 
1670	 0.025190399109413 
1671	 2.49977701839931E-02 
1672	 2.55070450780582E-02 
1673	 2.50575742592041E-02 
1674	 2.43816823433867E-02 
1675	 2.48919758742247E-02 
1676	 2.61138508512659E-02 
1677	 2.45565209645202E-02 
1678	 2.34529446392748E-02 
1679	 2.42156381606774E-02 
1680	 2.31164581964826E-02 
1681	 2.22979551439766E-02 
1682	 2.45228348978704E-02 
1683	 2.53588180485415E-02 
1684	 2.34675839161683E-02 
1685	 2.46971035291739E-02 
1686	 2.75981682172984E-02 
1687	 2.90764308470352E-02 
1688	 3.00894343665733E-02 
1689	 2.89555332514092E-02 
1690	 2.49999200312661E-02 
1691	 2.26421819836484E-02 
1692	 2.19533267375825E-02 
1693	 2.06564383583182E-02 
1694	 2.27111997445501E-02 
1695	 2.53248713041537E-02 
1696	 2.53780538854722E-02 
1697	 2.62022364947376E-02 
1698	 2.59533870765957E-02 
1699	 2.44833411447289E-02 
1700	 2.56922881137944E-02 
1701	 2.73639283776579E-02 
1702	 2.71182632084977E-02 
1703	 2.58497606055529E-02 
1704	 0.023046773657217 
1705	 0.023483782082945 
1706	 0.025858688723088 
1707	 2.49070154649898E-02 
1708	 2.48897446674591E-02 
1709	 2.56612867073411E-02 
1710	 2.51048000990504E-02 
1711	 2.54601531674172E-02 
1712	 2.56009434940359E-02 
1713	 2.05296174732428E-02 
1714	 2.13995347818157E-02 
1715	 0.027571033388406 
1716	 2.55666777246975E-02 
1717	 2.52608823661315E-02 
1718	 2.39109267635872E-02 
1719	 2.20159150695564E-02 
1720	 2.57178893982426E-02 
1721	 3.05158107051355E-02 
1722	 0.028542125393574 
1723	 2.58613464876919E-02 
1724	 2.79222353976766E-02 
1725	 2.76170504591558E-02 
1726	 2.56050622044957E-02 
1727	 2.58664767163324E-02 
1728	 2.41015728933662E-02 
1729	 2.32959257114589E-02 
1730	 2.73566292505628E-02 
1731	 3.01090885578171E-02 
1732	 3.05654195129989E-02 
1733	 2.98253308143337E-02 
1734	 2.62346281422612E-02 
1735	 2.31578154649561E-02 
1736	 2.35788736618019E-02 
1737	 2.68865295865265E-02 
1738	 2.75909565656136E-02 
1739	 2.55209883804991E-02 
1740	 2.40419876037673E-02 
1741	 2.17680852541152E-02 
1742	 2.40281900422122E-02 
1743	 2.81854168092808E-02 
1744	 2.57412781386664E-02 
1745	 0.02320979062861 
1746	 2.44894145844437E-02 
1747	 2.40319621679711E-02 
1748	 2.93131930199422E-02 
1749	 0.02956741931458 
1750	 2.07330512883136E-02 
1751	 2.03984032169987E-02 
1752	 2.49095130827069E-02 
1753	 2.40492488140394E-02 
1754	 2.35069413796861E-02 
1755	 2.49461063266078E-02 
1756	 0.024632249404798 
1757	 0.027861071966252 
1758	 0.029454333588434 
1759	 2.66818943308998E-02 
1760	 2.70000039481522E-02 
1761	 2.84152326709473E-02 
1762	 2.65897168309958E-02 
1763	 2.22455399772351E-02 
1764	 1.82312369923224E-02 
1765	 1.73059951519188E-02 
1766	 1.98154718809142E-02 
1767	 2.76927584284864E-02 
1768	 2.98073402920022E-02 
1769	 2.75450984649495E-02 
1770	 3.25689132412862E-02 
1771	 3.14468087746093E-02 
1772	 2.67847896350629E-02 
1773	 0.032706166190428 
1774	 0.032505407247708 
1775	 3.12477349465155E-02 
1776	 3.29606522732526E-02 
1777	 2.28850078891841E-02 
1778	 2.08057676199335E-02 
1779	 3.22223815157099E-02 
1780	 3.55555080731629E-02 
1781	 4.01670456179511E-02 
1782	 0.044146620667541 
1783	 4.27276216029104E-02 
1784	 4.46201572769678E-02 
1785	 4.44079174576798E-02 
1786	 4.76637939816987E-02 
1787	 5.41735903285309E-02 
1788	 5.42010362350369E-02 
1789	 0.065151211340479 
1790	 0.061684653818305 
1791	 0.038752469538765 
1792	 6.63483650082975E-02 
1793	 4.07539201899366E-02 
1794	-4.47821044073722E-03 
1795	 4.16132309418052E-02 
1796	 3.62421562834115E-02 
1797	 1.93926706351425E-02 
1798	 0.120742455021657 
1799	 0.152516052718745 
1800	 0.169782874097633 
1801	 0.199588650600148 
1802	 0.114393066443464 
1803	 9.88194105687641E-02 
1804	 0.19067579338302 
1805	 0.233120263047233 
1806	 0.355592046178149 
1807	 0.678756236728241 
1808	 2.70751312238897 
1809	-14.9850527198219 
1810	 3.92189983259571 
1811	 0.513137134021615 
1812	-0.717938823977044 
1813	-0.744499450708039 
1814	-0.495851943826395 
1815	-0.310373016952086 
1816	 0.899824717818731 
1817	-0.446349862579965 
1818	-0.143569585295999 
1819	 0.21929794065027 
1820	-1.40767901230026 
1821	-0.222188230065553 
1822	 9.80279831546653E-02 
1823	 0.23529015729587 
1824	 0.257177478764365 
1825	 0.560643891415715 
1826	 0.941680701076911 
1827	-19.4280536854492 
1828	-3.42247232383127 
1829	-0.689464832478595 
1830	-0.413499096250272 
1831	 0.516631718679349 
1832	 0.525346630228046 
1833	 0.821242416299315 
1834	 0.716342250941359 
1835	 0.57101314010405 
1836	 0.563921593707169 
1837	 0.160083743322047 
1838	 3.15064280739431E-02 
1839	 6.99605962720291E-02 
1840	 1.18906475284106 
1841	 3.36610887223517 
1842	 2.9565270777436 
1843	 4.2209911429659 
1844	 4.86337109308305 
1845	 8.3271778978056 
1846	-10.1331246980373 
1847	-5.75823557956824 
1848	 31.9639990228146 
1849	-3.26687965588228 
1850	-2.18859577813475 
1851	-1.10831088151743 
1852	-0.734871693294759 
1853	-0.928854320326468 
1854	-1.20197396441337 
1855	-4.33813227029045 
1856	-11.6231893513026 
1857	 116.553560969885 
1858	 2.23273587941556 
1859	 0.670270171043175 
1860	-9.28032292111559E-02 
1861	-0.143179919684487 
1862	-0.283908824828003 
1863	-0.186396230129299 
1864	 0.215805657464205 
1865	 0.708082915091634 
1866	 1.85307192383745 
1867	 3.16934834623556 
1868	 4.13108473911106 
1869	 4.43730775658461 
1870	 9.11491601097851 
1871	-36.4154614891719 
1872	 21.221121025361 
1873	 15.3105300417256 
1874	-32.5486065463674 
1875	-5.8192413378911 
1876	-6.058719385469 
1877	-11.0290616139015 
1878	-37.7740037279855 
1879	 7.00274075244569 
1880	 3.16902747415621 
1881	 1.4020229781757 
1882	 0.256423302188347 
1883	 7.15711650291339E-02 
1884	 0.623268931221346 
1885	 0.598026883742823 
1886	 0.562624520674289 
1887	 1.46797536993167 
1888	 1.51457315400869 
1889	 0.882902018622004 
1890	 0.538690999239657 
1891	 0.671253262177748 
1892	 0.425264644231278 
1893	 0.391048852149803 
1894	 1.12292230512616 
1895	 2.03557022458649 
1896	 2.30745825708883 
1897	 1.59288808539695 
1898	 1.17672223381111 
1899	 0.612213601410849 
1900	 0.335782547052877 
1901	 0.334512753306213 
1902	 0.318279964142274 
1903	 0.487678409740716 
1904	 0.653564051472036 
1905	 0.728748414735427 
1906	 0.811178043177083 
1907	 0.824753960848195 
1908	 0.973077922503746 
1909	 1.62177603892196 
1910	 1.8132967476128 
1911	 1.35439536463453 
1912	 1.80474687826477 
1913	 3.04942347988902 
1914	 51.5442555909646 
1915	-7.51387582395503 
1916	-2.01714292686484 
1917	-1.79795660235288 
1918	-2.22078252587002 
1919	-8.31346082767308 
1920	-15.3722734692076 
1921	-3.04823669225296 
1922	-2.76590081248581 
1923	-1.82062987880656 
1924	-5.53524592907491 
1925	 0.467271959876058 
1926	-3.4563507632692E-03 
1927	-0.138078629630518 
1928	-0.119080811910267 
1929	-0.134389304750827 
1930	-8.77303677832422E-02 
1931	 1.76198616419706 
1932	 21.8649849512894 
1933	 5.76109064577251 
1934	 2.60491444550085 
1935	 3.89042281890529 
1936	 4.65019288351323 
1937	 4.82431928740753 
1938	 2.7967103801678 
1939	 0.857269976270922 
1940	-0.433987630410351 
1941	-0.530631729557452 
1942	 0.455243557646975 
1943	 1.49214223758657 
1944	 7.24356715011571 
1945	-8.74836447723392 
1946	-1.08329512052379 
1947	-1.75544111335031E-04 
1948	 0.341126490916128 
1949	 0.519130308391807 
1950	 7.29575119892509E-02 
1951	-0.36765357182687 
1952	-6.67855314833001 
1953	-12.7247548160573 
1954	-8.13434655702382 
1955	 26.2843789240064 
1956	 13.219850802816 
1957	 17.5687731713154 
1958	 2.18230938871335 
1959	 0.657383124559187 
1960	 0.5320403640975 
1961	 0.403255236866756 
1962	 0.216181065670966 
1963	 0.274924220209172 
1964	 0.368790830561733 
1965	 0.491640399328019 
1966	 0.491818780665363 
1967	 0.513765829240008 
1968	 0.504229965590348 
1969	 0.462756512985592 
1970	 0.307444841585523 
1971	 0.229529756602277 
1972	 0.360856619009396 
1973	 0.3938525679082 
1974	 0.251983981398589 
1975	 0.176247586554356 
1976	 9.45353654273958E-02 
1977	 3.99774505146404E-04 
1978	 2.88414898336571E-02 
1979	 4.40302270953289E-02 
1980	 9.06595942102391E-02 
1981	 0.103375003548222 
1982	 0.135828972435171 
1983	 0.152767841248814 
1984	 0.206258002271465 
1985	 0.245846548780378 
1986	 0.205944967478405 
1987	 0.14070262444978 
1988	 6.49738212931888E-02 
1989	-3.96789944640518E-02 
1990	-8.40195051980148E-02 
1991	 1.42300440685304E-02 
1992	 4.28390747596703E-02 
1993	 2.94431027753097E-02 
1994	 0.021700764965933 
1995	-2.81242576816862E-04 
1996	-0.130904071537268 
1997	-0.159562310963606 
1998	-0.088171754683838 
1999	-6.37027712912321E-02 
2000	 1.65816012989826E-02 
2001	 2.82528279283228E-02 
2002	-1.58098126779573E-02 
2003	 3.84088859769889E-02 
2004	 7.24452381364985E-02 
2005	 0.057118726008737 
2006	-4.77100319464625E-03 
2007	-4.07027363758141E-02 
2008	-0.059031585694159 
2009	-8.74731576595397E-02 
2010	-8.48902990829106E-02 
2011	-8.77688287475466E-02 
2012	-0.103441497976373 
2013	-0.189724761828301 
2014	-0.161536664286096 
2015	-0.153898398128688 
2016	-0.129183971884156 
2017	-0.052835013356204 
2018	-2.56688963836948E-02 
2019	-2.64962897420422E-02 
2020	-3.22064129158417E-02 
2021	-5.54075244305338E-03 
2022	 2.73098331060291E-02 
2023	 3.43638455911323E-02 
2024	 5.09622626790559E-02 
2025	 6.68018080327372E-02 
2026	 7.26583962381865E-02 
2027	 7.41393187556435E-02 
2028	 9.20172668263622E-02 
2029	 7.54830764298102E-02 
2030	 6.29886107675904E-02 
2031	 4.32274779089931E-02 
2032	 2.42203574668532E-02 
2033	 2.91568657427886E-02 
2034	 3.23947990593821E-02 
2035	 3.77020664897098E-02 
2036	 4.10421220869303E-02 
2037	 3.41101154011385E-02 
2038	 3.61703390587617E-02 
2039	 4.01368550841424E-02 
2040	 4.61759594864165E-02 
2041	 0.049219340546601 
2042	 5.93256404519215E-02 
2043	 5.83173234507824E-02 
2044	 4.78554980139823E-02 
2045	 3.93770641217428E-02 
2046	 3.36641969178832E-02 
2047	 4.02327742318368E-02 
2048	 5.14920993445005E-02 
2049	 6.90591063581099E-02 
2050	 7.47125442638283E-02 
2051	 6.28012170901949E-02 
2052	 0.058720177011901 
2053	 5.40743150515373E-02 
2054	 6.18096854157766E-02 
2055	 8.00507554502501E-02 
2056	 8.29936443353679E-02 
2057	 7.53268038279019E-02 
2058	 6.31935605412486E-02 
2059	 3.79738720464985E-02 
2060	 2.97593068900906E-02 
2061	 1.53448920663674E-02 
2062	 2.94257183971961E-02 
2063	 6.03414589630881E-02 
2064	 5.92282511345403E-02 
2065	 0.041301422763851 
2066	 3.95056042660195E-02 
2067	 2.57777554275843E-02 
2068	 6.19495432551048E-03 
2069	-5.1831937007582E-04 
2070	-8.59395076795237E-03 
2071	 1.13371304750101E-02 
2072	 4.24443599968679E-02 
2073	 5.03713873646659E-02 
2074	 7.13013308849514E-02 
2075	 6.81787398473489E-02 
2076	 2.44831913068901E-02 
2077	 1.55682857054599E-02 
2078	 1.89137848062499E-02 
2079	 2.31101808089028E-02 
2080	 4.61037627758313E-02 
2081	 4.58313247787392E-02 
2082	 1.89521172588883E-02 
2083	 1.78392952158208E-02 
2084	 6.04600265897006E-03 
2085	 2.34171128779811E-03 
2086	 2.59563143747379E-02 
2087	 2.76445285647162E-02 
2088	 2.91644999871169E-02 
2089	 0.040049246848135 
2090	 4.99390639179504E-02 
2091	 6.66860122846303E-02 
2092	 7.16291547919206E-02 
2093	 6.83276157035257E-02 
2094	 6.40368261682726E-02 
2095	 4.85390919448027E-02 
2096	 4.78971290427307E-02 
2097	 6.15086713757575E-02 
2098	 5.97497447151842E-02 
2099	 6.04096433367593E-02 
2100	 4.67351878002242E-02 
2101	 0.02951404998003 
2102	 1.05076749069529E-02 
2103	 9.87372907614361E-03 
2104	 2.55654991285874E-02 
2105	 3.53013421146803E-02 
2106	 3.97699760101804E-02 
2107	 0.03200248426378 
2108	 1.74294957807238E-02 
2109	 6.96525857392989E-03 
2110	 7.63900032072843E-03 
2111	 1.20873872533135E-02 
2112	 0.011420769438312 
2113	 1.23155377672618E-02 
2114	 8.94597396508759E-03 
2115	 6.76052490426848E-03 
2116	 5.58744919737336E-03 
2117	 1.00308144831441E-02 
2118	 2.09019903853423E-02 
2119	 2.29943269118776E-02 
2120	 2.56840942770761E-02 
2121	 2.32746988644247E-02 
2122	 2.41897205250786E-02 
2123	 1.78113973722944E-02 
2124	 1.24828684466635E-02 
2125	 2.13497626999114E-02 
2126	 1.92305803553457E-02 
2127	 1.95210650013034E-02 
2128	 2.88029335981758E-02 
2129	 2.68558175195581E-02 
2130	 2.44215773575475E-02 
2131	 2.61372051836103E-02 
2132	 2.58488466217896E-02 
2133	 3.47863940427403E-02 
2134	 0.041255097577137 
2135	 5.14010548789329E-02 
2136	 5.17545571660417E-02 
2137	 4.41047871201564E-02 
2138	 4.42963937702468E-02 
2139	 4.62667190197467E-02 
2140	 4.94827628919965E-02 
2141	 6.05908928112196E-02 
2142	 6.02134909791535E-02 
2143	 5.32831362215084E-02 
2144	 4.12525073738078E-02 
2145	 3.56646049008332E-02 
2146	 4.90216992285242E-02 
2147	 6.59343049575769E-02 
2148	 6.71603907421868E-02 
2149	 5.14599087301985E-02 
2150	 0.036729416938432 
2151	 2.23822511620374E-02 
2152	 1.27476387254347E-02 
2153	 1.98166293434682E-02 
2154	 2.24172230078186E-02 
2155	 2.95712866411087E-02 
2156	 4.16530103529957E-02 
2157	 3.51754509492475E-02 
2158	 0.013702670700908 
2159	 3.40913278782841E-03 
2160	-2.14125502027796E-02 
2161	-2.28923201363726E-02 
2162	-3.69387435263641E-03 
2163	 4.83198579792039E-03 
2164	 1.68570980137805E-02 
2165	 2.47880845870574E-02 
2166	 3.39820658279299E-02 
2167	 3.72498695371263E-02 
2168	 3.84555847041801E-02 
2169	 3.75373828386059E-02 
2170	 0.033597330030941 
2171	 1.41017298843754E-02 
2172	 8.46344669215783E-03 
2173	 7.36714446900337E-03 
2174	-2.20482517209856E-03 
2175	 1.30385922576999E-03 
2176	-2.48272105101741E-03 
2177	-2.35224303944912E-03 
2178	 1.59315459373644E-02 
2179	 2.47195279688884E-02 
2180	 3.53453601965977E-02 
2181	 4.78111536554123E-02 
2182	 4.48857520687878E-02 
2183	 4.59453065494224E-02 
2184	 0.056014792792332 
2185	 6.48522286777383E-02 
2186	 6.33623385158388E-02 
2187	 5.23309645384517E-02 
2188	 5.48118328988572E-02 
2189	 5.58043717533258E-02 
2190	 4.99966158263933E-02 
2191	 5.68193453339211E-02 
2192	 5.10104232360075E-02 
2193	 1.85285941732085E-02 
2194	 1.04838722308094E-02 
2195	 2.06588265090204E-02 
2196	 1.61588352899735E-02 
2197	 1.32143809613421E-02 
2198	 1.02991369722983E-02 
2199	-4.82565098743251E-03 
2200	-9.36273481535875E-03 
2201	-8.30136073299627E-04 
2202	-3.26301499796606E-03 
2203	 4.28340342027909E-03 
2204	-1.05644874927545E-03 
2205	-0.017297674603861 
2206	-5.79354322122129E-03 
2207	-7.4139010007337E-03 
2208	-2.05577769324597E-02 
2209	-0.022721149080569 
2210	-2.52969910828521E-02 
2211	-2.57087932768113E-02 
2212	-2.23216907595237E-02 
2213	-3.11526882014495E-03 
2214	-1.05064389296414E-03 
2215	 2.1455190974635E-04 
2216	 2.03124911927466E-02 
2217	 3.19152148078446E-02 
2218	 0.043784218955249 
2219	 0.054370370093116 
2220	 6.52107002462362E-02 
2221	 5.91397820225908E-02 
2222	 3.89391292654423E-02 
2223	 3.11078186134411E-02 
2224	 2.04134598246583E-02 
2225	 1.86497328269407E-02 
2226	 2.77621704503573E-02 
2227	 0.027588351826665 
2228	 2.27054703208387E-02 
2229	 1.74146414838455E-02 
2230	 8.23663078681977E-03 
2231	 7.8438809417598E-03 
2232	 1.07538763894676E-02 
2233	 1.69311597643385E-02 
2234	 3.60406808010382E-02 
2235	 4.14700274803935E-02 
2236	 3.98543492142756E-02 
2237	 4.47272951452073E-02 
2238	 4.69392954404546E-02 
2239	 4.38175885045286E-02 
2240	 4.24525185921686E-02 
2241	 2.69012669614447E-02 
2242	 1.82273605235258E-02 
2243	 2.88837979355398E-02 
2244	 5.05162166373279E-02 
2245	 6.47275692149249E-02 
2246	 4.21041304171359E-02 
2247	 1.98298335559726E-02 
2248	-1.46261655958385E-02 
2249	-0.052753735611323 
2250	-6.39920941165115E-02 
2251	-0.045367814008232 
2252	-3.76974391362859E-03 
2253	 4.32835500737574E-03 
2254	 1.95872183460151E-02 
2255	 3.69894514084018E-02 
2256	 2.86912957348541E-03 
2257	-5.55754438503031E-03 
2258	 2.56919360144619E-03 
2259	-2.38545191038371E-02 
2260	-3.03558577295651E-02 
2261	-1.99796302048047E-02 
2262	-1.04424224709853E-02 
2263	-3.32837939501268E-03 
2264	 3.76499819702649E-03 
2265	 1.68411403194106E-02 
2266	 0.01925896456226 
2267	 2.35671798751791E-02 
2268	 3.63505851734638E-02 
2269	 3.83984331627063E-02 
2270	 4.84106416186236E-02 
2271	 5.54038927972734E-02 
2272	 7.83450425573961E-02 
2273	 0.125515669489656 
2274	 0.158480144338677 
2275	 0.233911914568474 
2276	 0.232692230626424 
2277	 0.153641383086526 
2278	 0.121115330480499 
2279	 7.09088844981862E-02 
2280	 3.13760025871679E-02 
2281	 3.55441872393787E-04 
2282	-8.38500265594979E-04 
2283	 0.016065340747892 
2284	 1.28792677302536E-02 
2285	 5.16126002980016E-02 
2286	 9.95092472389918E-02 
2287	 8.56669892319747E-02 
2288	 8.59975812920276E-02 
2289	 0.12394345963466 
2290	 0.139877317125501 
2291	 0.156533120010441 
2292	 0.18093612546631 
2293	 0.124045384539973 
2294	 0.101605297215167 
2295	 0.052451271883007 
2296	-3.45291183572434E-02 
2297	-3.07202228326169E-02 
2298	-2.93549922242327E-02 
2299	-1.03589708117183E-02 
2300	 6.05588954442167E-02 
2301	 5.26492499042791E-02 
2302	 3.08977994690653E-03 
2303	-2.50359746768657E-02 
2304	-3.87058278214906E-02 
2305	 2.84483748682148E-02 
2306	 7.96399474581172E-02 
2307	 0.116001790678043 
2308	 0.157579339054632 
2309	 0.100208402130301 
2310	 6.07832485201394E-02 
2311	 1.46305557171581E-02 
2312	-5.42119838264706E-02 
2313	-8.94966866523819E-02 
2314	-8.24943560289867E-02 
2315	-7.90598047476826E-02 
2316	-7.94756532229498E-02 
2317	-8.34539791999518E-02 
2318	-0.082150008780495 
2319	-3.80077890976182E-02 
2320	-4.21543554750844E-03 
2321	 5.10257080079182E-03 
2322	-9.27094261356244E-03 
2323	 2.10693701537903E-02 
2324	 0.040605185795686 
2325	 5.71643731250196E-02 
2326	 8.24605423386091E-02 
2327	 1.42833871270141E-02 
2328	-6.98303229934086E-02 
2329	-7.19541325404697E-02 
2330	-3.89029156795121E-02 
2331	-0.077559425309709 
2332	-0.134211091614844 
2333	-0.194840411359956 
2334	-0.270040989089457 
2335	-0.242808266547846 
2336	-0.151391878870137 
2337	-3.44740493907441E-02 
2338	 1.34160616449482E-02 
2339	-2.73734350540033E-03 
2340	 0.149972619285534 
2341	 0.10620891202405 
2342	 8.57610161983702E-02 
2343	 0.190634643240058 
2344	-8.67178841796467E-02 
2345	-0.294360125725186 
2346	-0.17848617606199 
2347	-0.198789238796913 
2348	 0.159546874008499 
2349	 0.290579892089659 
2350	 0.131784508759459 
2351	 0.150010148580014 
2352	 6.65410186308367E-03 
2353	-0.198653256701767 
2354	-0.152337789085298 
2355	-0.227783922207162 
2356	-0.26053602365972 
2357	-0.203414081346446 
2358	-0.15814424562328 
2359	-0.404522882275315 
2360	-0.67342744461397 
2361	-0.423122334596713 
2362	-0.417287264114173 
2363	-0.290177157275301 
2364	-5.69274796870599E-02 
2365	 1.67045489992575E-02 
2366	 8.09973625971515E-02 
2367	-0.177707194738919 
2368	-0.475770206518518 
2369	-0.443694837356887 
2370	-0.579188997863357 
2371	-0.923535695159745 
2372	-2.75710064182691 
2373	 2.74273434248347 
2374	 3.64303548665799 
2375	 1.97631458442375 
2376	 0.614746442417085 
2377	 0.192072440629905 
2378	-1.94273543044822E-02 
2379	-0.756821945686792 
2380	-2.26084670059676E-03 
2381	-1.7981144696025 
2382	-1.32411979065879 
2383	-1.91029654279865 
2384	-1.19762683092486 
2385	 4.23116155582896 
2386	-0.349055182428165 
2387	-0.136711803611572 
2388	 0.033088745469185 
2389	 0.280697987927604 
2390	 1.1455950289852 
2391	 1.47269977101841 
2392	-0.409546892372116 
2393	 0.771374090356503 
2394	 1.57657890242387 
2395	 0.874108016230377 
2396	 0.734612950912907 
2397	 0.308543104838984 
2398	-0.047696724700291 
2399	-0.104315985832356 
2400	-0.701284069414509 
2401	 9.07026739828797 
2402	 2.70199067673033 
2403	-1.17737911498312 
2404	-1.56687033634607 
2405	-3.80729690173159 
2406	-12.4176278430086 
2407	 0.78291573558983 
2408	-5.64526367908524E-02 
2409	-1.96590644799858 
2410	-0.324788897248338 
2411	-1.05054177482007 
2412	-2.02559150959471 
2413	-0.897832339839466 
2414	-0.934964194633254 
2415	-4.41884525759598 
2416	-1.53636879892634 
2417	-0.991398448574417 
2418	-1.64097099800649 
2419	-0.069544697421663 
2420	 2.28645745334081 
2421	-0.518329937869486 
2422	 2.42641593380912 
2423	 45.4798383780531 
2424	 0.584901709484472 
2425	-1.96695935167509 
2426	 3.71645297511926 
2427	-6.77195224271573 
2428	 0.765519974629751 
2429	 3.10602987428262 
2430	-501.568707300668 
2431	-10.3269516629175 
2432	-1.83005378653238 
2433	-1.14708099373816 
2434	-1.22664061591948 
2435	-1.00656330926302 
2436	-1.29686105970862 
2437	-1.13279872909274 
2438	 1.55249878673995 
2439	-1.99379737855717 
2440	 0.15632974447023 
2441	 0.797311360019501 
2442	 0.971231431271481 
2443	 0.706617045065589 
2444	 0.676835147890931 
2445	 0.917405862431316 
2446	 0.760606706543571 
2447	 0.642265994274733 
2448	 0.306304947138395 
2449	-0.379293411676754 
2450	-0.426666888634908 
2451	 0.110980335396394 
2452	 9.27613871119359E-02 
2453	-0.152168321831487 
2454	-0.278021214299309 
2455	-0.398056046149349 
2456	-0.260125794616332 
2457	 0.590731658684276 
2458	 0.751501580094735 
2459	 0.297531968188908 
2460	 4.13401481397901E-02 
2461	-0.297587625791718 
2462	-0.459842231022691 
2463	-0.113232331724945 
2464	-9.38059384716667E-04 
2465	-8.17144228560604E-02 
2466	-0.255410061095543 
2467	-0.483143664717821 
2468	-0.106455193400286 
2469	 1.01008239546092 
2470	 0.561081151086001 
2471	 0.63296595941857 
2472	 1.01140561096472 
2473	 0.716449215599661 
2474	 0.651193731674452 
2475	 0.635161907725274 
2476	 0.403398965086427 
2477	 0.389062250601879 
2478	 0.913218389768712 
2479	 2.5295393186509 
2480	 3.4512544050697 
2481	 1.73290767458614 
2482	 1.82517393106032 
2483	 1.43184480782725 
2484	 0.750310890892202 
2485	-0.448590074646317 
2486	-0.670095104983015 
2487	 1.67844773005189 
2488	 1.13143178460747 
2489	 0.118101716820761 
2490	-0.321095593982688 
2491	-0.160585322428455 
2492	-0.100755920197235 
2493	 0.502506076855353 
2494	 0.729059885530813 
2495	 0.507559452619968 
2496	 0.104541886570065 
2497	 0.129833534810808 
2498	 0.23678226719455 
2499	 0.32302751777 
2500	 3.12723473774502 
