Wavelength	rt0727far00006.asd
350	 6.91223959383497E-02 
351	 0.066837564129185 
352	 6.81264977562138E-02 
353	 6.94515127724465E-02 
354	 0.068546617510476 
355	 6.90411786660287E-02 
356	 6.88262752238595E-02 
357	 6.85147267939821E-02 
358	 0.068956926095153 
359	 6.83335718987126E-02 
360	 0.068511083270999 
361	 6.90776415995208E-02 
362	 6.83035431461957E-02 
363	 6.85286054803203E-02 
364	 6.90463176632475E-02 
365	 0.06928545512141 
366	 0.069477241708861 
367	 6.94916831998162E-02 
368	 6.94971333947216E-02 
369	 6.95479702789929E-02 
370	 6.89209314692483E-02 
371	 6.91647071700054E-02 
372	 6.96289501757453E-02 
373	 6.87726730743729E-02 
374	 6.96339588467206E-02 
375	 7.02203120133735E-02 
376	 6.96675454063702E-02 
377	 6.93695392876742E-02 
378	 6.97508382708582E-02 
379	 6.99951475305792E-02 
380	 6.96005768576661E-02 
381	 0.070059771215086 
382	 0.070671064905049 
383	 7.08404356507859E-02 
384	 7.03238904781896E-02 
385	 7.07400950245055E-02 
386	 7.10646405655067E-02 
387	 7.09412682334169E-02 
388	 7.10067610884313E-02 
389	 7.13667543799098E-02 
390	 7.20242449545138E-02 
391	 7.26850521518689E-02 
392	 7.24541948455748E-02 
393	 7.20170548994556E-02 
394	 0.072076242839707 
395	 7.29406493412231E-02 
396	 7.32014589731698E-02 
397	 7.31193244991981E-02 
398	 7.30560038537175E-02 
399	 7.33147188062843E-02 
400	 7.34434230535465E-02 
401	 7.34847580910917E-02 
402	 7.34834191319971E-02 
403	 7.32125907439767E-02 
404	 7.36094361294625E-02 
405	 7.40545190076697E-02 
406	 7.36720860206432E-02 
407	 7.37358798641287E-02 
408	 7.39187923677974E-02 
409	 7.41054200143799E-02 
410	 7.44698479681117E-02 
411	 7.46574878538648E-02 
412	 7.46898579351039E-02 
413	 7.47212673032651E-02 
414	 7.50701935375991E-02 
415	 7.51956448147892E-02 
416	 7.52890814710566E-02 
417	 7.56972566572841E-02 
418	 7.57129102586399E-02 
419	 7.58390495659796E-02 
420	 7.61804091796404E-02 
421	 7.63402519279433E-02 
422	 7.66834427908731E-02 
423	 7.70542491507256E-02 
424	 7.72868561509759E-02 
425	 7.74811675851146E-02 
426	 7.76635362210339E-02 
427	 7.79939034676645E-02 
428	 7.85852036149056E-02 
429	 7.88223201227885E-02 
430	 7.90246549782803E-02 
431	 7.93111786057688E-02 
432	 7.94609101828396E-02 
433	 7.99750762818708E-02 
434	 8.03893919848146E-02 
435	 8.04194495836929E-02 
436	 8.09671704952989E-02 
437	 8.14171476249464E-02 
438	 0.081662511330281 
439	 8.19208127794177E-02 
440	 8.26132183911041E-02 
441	 8.31464252376018E-02 
442	 8.33061399744136E-02 
443	 8.35923620068378E-02 
444	 8.38791613396247E-02 
445	 8.42070677606807E-02 
446	 8.46215153119413E-02 
447	 8.50660321861392E-02 
448	 8.54828699173623E-02 
449	 0.085872839654264 
450	 8.62726211555771E-02 
451	 8.65552337315532E-02 
452	 8.68013511807431E-02 
453	 8.70666778391264E-02 
454	 8.72949755398076E-02 
455	 8.74282441710881E-02 
456	 8.76914748678243E-02 
457	 8.82538497146829E-02 
458	 8.84545522741318E-02 
459	 8.85080403576275E-02 
460	 8.86472569473495E-02 
461	 8.90464247909628E-02 
462	 8.91520767685093E-02 
463	 8.93197412986551E-02 
464	 8.97713263127852E-02 
465	 8.98240814308394E-02 
466	 0.09001689572129 
467	 9.04024840171039E-02 
468	 9.07978397608357E-02 
469	 9.12191759152588E-02 
470	 9.15006147518857E-02 
471	 9.16932520785803E-02 
472	 0.092146756931113 
473	 9.25039480448736E-02 
474	 9.26268754717517E-02 
475	 9.26179653869914E-02 
476	 9.32176908608061E-02 
477	 9.35709934671558E-02 
478	 9.37314244244293E-02 
479	 0.094312702640998 
480	 9.45825869043257E-02 
481	 9.47526811896572E-02 
482	 9.50462048606942E-02 
483	 9.54598093681428E-02 
484	 9.57910113864775E-02 
485	 9.61640401887083E-02 
486	 9.67217013019757E-02 
487	 9.70056090729485E-02 
488	 9.72991030118836E-02 
489	 9.76935705161973E-02 
490	 9.80610549922722E-02 
491	 9.85292470016307E-02 
492	 0.098949252482083 
493	 9.92770173200987E-02 
494	 9.99181628021798E-02 
495	 0.100507675145362 
496	 0.101015744909806 
497	 0.101564728870264 
498	 0.10198442395593 
499	 0.102524745596005 
500	 0.10322505356941 
501	 0.103735533228672 
502	 0.104473037662162 
503	 0.10525728567473 
504	 0.105836130094939 
505	 0.106377335326866 
506	 0.107019409080264 
507	 0.107690884168091 
508	 0.108184605207222 
509	 0.108900888986586 
510	 0.109583982390312 
511	 0.110105729892289 
512	 0.110908971777909 
513	 0.111529707991048 
514	 0.112147867383062 
515	 0.113105823759264 
516	 0.113784716884645 
517	 0.114542833202702 
518	 0.115481111014037 
519	 0.116286462402804 
520	 0.116974942549501 
521	 0.117704503534288 
522	 0.118584615648426 
523	 0.119416877865961 
524	 0.120200484481492 
525	 0.12104174250309 
526	 0.122080782039852 
527	 0.122885674392875 
528	 0.123624134030608 
529	 0.124452532463437 
530	 0.125334627365452 
531	 0.126234261597499 
532	 0.127116921208125 
533	 0.127948611627513 
534	 0.12866065737501 
535	 0.12963513130716 
536	 0.130824822447539 
537	 0.131675628190409 
538	 0.132666367648331 
539	 0.133651078555677 
540	 0.134498695057167 
541	 0.135650045962446 
542	 0.136608907461637 
543	 0.137441288468005 
544	 0.138535527179249 
545	 0.139647901924522 
546	 0.140596130414538 
547	 0.141392524036878 
548	 0.14240766114324 
549	 0.14339059193438 
550	 0.144327756718757 
551	 0.145295553394705 
552	 0.146409223004852 
553	 0.147361218932448 
554	 0.148203780182884 
555	 0.149397304744922 
556	 0.150230627356594 
557	 0.151069468905117 
558	 0.15222412066683 
559	 0.152967114976184 
560	 0.153773565355237 
561	 0.154768928760595 
562	 0.155820191728391 
563	 0.156506611524008 
564	 0.157155846154398 
565	 0.157921161061757 
566	 0.158392572083311 
567	 0.159044383949567 
568	 0.159757425617734 
569	 0.160236517935842 
570	 0.160579601849375 
571	 0.160908804734368 
572	 0.161279858015585 
573	 0.161666371404046 
574	 0.161924070847576 
575	 0.16212654178015 
576	 0.162346877486533 
577	 0.162500881116838 
578	 0.162467026714913 
579	 0.162309913205817 
580	 0.162182844490092 
581	 0.16182537888565 
582	 0.161507198646142 
583	 0.161355955803614 
584	 0.161139479198604 
585	 0.160822021103585 
586	 0.160426243810414 
587	 0.160016569266182 
588	 0.159728293057455 
589	 0.15931456272064 
590	 0.158725443753985 
591	 0.158115852665779 
592	 0.157477003555262 
593	 0.156923493548879 
594	 0.156407863146542 
595	 0.15527880664791 
596	 0.154156210082703 
597	 0.153006042705574 
598	 0.151508860020756 
599	 0.150225955619179 
600	 0.14907434231329 
601	 0.148033805978194 
602	 0.147332715009812 
603	 0.14672571286922 
604	 0.146283365078751 
605	 0.14610925397018 
606	 0.145940091464338 
607	 0.145684785199731 
608	 0.145389341891286 
609	 0.145228771625169 
610	 0.145141396094252 
611	 0.14506536160754 
612	 0.144942800854193 
613	 0.144745297296511 
614	 0.144401986291331 
615	 0.144077036015658 
616	 0.144008074317257 
617	 0.143746100188491 
618	 0.143483243897645 
619	 0.143412221000935 
620	 0.143657080211839 
621	 0.143339666101063 
622	 0.142928793509215 
623	 0.1430799042884 
624	 0.143000541875617 
625	 0.142586890086506 
626	 0.142191380843661 
627	 0.142515672549094 
628	 0.142412822296727 
629	 0.14210216848108 
630	 0.141931290376966 
631	 0.141867702351951 
632	 0.141591184702416 
633	 0.141316312341856 
634	 0.141425903360649 
635	 0.141451937096896 
636	 0.141248476517236 
637	 0.140958063218206 
638	 0.141082528126765 
639	 0.141005394304916 
640	 0.140872812321456 
641	 0.140935286294151 
642	 0.140910771549859 
643	 0.140850742520083 
644	 0.140783044544231 
645	 0.140710721705832 
646	 0.140635526144463 
647	 0.140431647205595 
648	 0.140053729950561 
649	 0.139664518816221 
650	 0.139214986586461 
651	 0.138564995667839 
652	 0.137639757949724 
653	 0.136800886257011 
654	 0.13567743929963 
655	 0.134180623816881 
656	 0.132878659507574 
657	 0.131469782385657 
658	 0.130050882315224 
659	 0.128735970395515 
660	 0.127654193782501 
661	 0.126411391209911 
662	 0.125140251818921 
663	 0.124255650306002 
664	 0.123064854466148 
665	 0.122223356805561 
666	 0.121823476868341 
667	 0.12065601327634 
668	 0.119872846759098 
669	 0.119580657849497 
670	 0.119484461304648 
671	 0.119142612147087 
672	 0.11884043619618 
673	 0.118778351401437 
674	 0.119026268375468 
675	 0.119398793419346 
676	 0.1197567275543 
677	 0.1200301055621 
678	 0.120227719998069 
679	 0.120854381786308 
680	 0.121597464847746 
681	 0.121930325105601 
682	 0.122778869515274 
683	 0.123747269344626 
684	 0.12457383799903 
685	 0.125411761394307 
686	 0.12641379062347 
687	 0.127591517993051 
688	 0.128679289907008 
689	 0.129100994246552 
690	 0.129503737899026 
691	 0.130019472761942 
692	 0.130444981734252 
693	 0.130652249565838 
694	 0.130431610102238 
695	 0.129869967950888 
696	 0.129327839590181 
697	 0.128730744450729 
698	 0.128080729809347 
699	 0.127402732662638 
700	 0.1264172473501 
701	 0.125211962789517 
702	 0.123903550846209 
703	 0.122529358082647 
704	 0.121161383759102 
705	 0.119896529155293 
706	 0.118636730578585 
707	 0.116679028424192 
708	 0.114728231056362 
709	 0.112683891198395 
710	 0.110313227490782 
711	 0.108236008931524 
712	 0.106042703240787 
713	 0.103691867893368 
714	 0.101527173502764 
715	 0.099424145209218 
716	 0.097147337179306 
717	 9.46997376895989E-02 
718	 9.17949126751321E-02 
719	 0.08902749643496 
720	 8.67372128873168E-02 
721	 8.43798379636049E-02 
722	 8.22928651387447E-02 
723	 8.00983900341664E-02 
724	 7.78889262329471E-02 
725	 7.53552775035226E-02 
726	 7.30369964031774E-02 
727	 7.05817159718739E-02 
728	 6.77682418235127E-02 
729	 6.52763991466217E-02 
730	 6.24664203904744E-02 
731	 5.97953333655531E-02 
732	 5.76862890212542E-02 
733	 5.57172295957264E-02 
734	 5.43461375708578E-02 
735	 5.35141743624936E-02 
736	 5.23414441990134E-02 
737	 5.16187223168725E-02 
738	 5.10965211982314E-02 
739	 5.05284281616229E-02 
740	 5.03450207776605E-02 
741	 5.01486364749839E-02 
742	 4.98353839221144E-02 
743	 4.95064589452294E-02 
744	 4.95809295990707E-02 
745	 4.96359095605851E-02 
746	 4.94876488230745E-02 
747	 4.93808504563133E-02 
748	 4.93153825547788E-02 
749	 4.92848265615558E-02 
750	 4.92549711259691E-02 
751	 4.91149973086205E-02 
752	 4.91168575871719E-02 
753	 4.92013775895758E-02 
754	 4.91721855500808E-02 
755	 4.92794806189411E-02 
756	 0.049264406895672 
757	 4.91224308939808E-02 
758	 4.93450998759674E-02 
759	 4.99100802570139E-02 
760	 5.05527683950626E-02 
761	 0.050526712873272 
762	 0.050569780778047 
763	 5.05445335460036E-02 
764	 5.02341898397547E-02 
765	 4.96587580008388E-02 
766	 4.96718504969282E-02 
767	 4.96989208985099E-02 
768	 4.96493477869172E-02 
769	 4.98528888369282E-02 
770	 4.98447628337587E-02 
771	 4.99047879023107E-02 
772	 5.02130569452487E-02 
773	 5.02670693634412E-02 
774	 5.04125752644225E-02 
775	 5.06780956373118E-02 
776	 5.09430811800806E-02 
777	 5.10622581283137E-02 
778	 5.13069310302582E-02 
779	 5.16874376302442E-02 
780	 5.19333280881498E-02 
781	 5.21633235207629E-02 
782	 5.23059882918555E-02 
783	 5.23925333333489E-02 
784	 5.27398114322686E-02 
785	 5.34241277045031E-02 
786	 5.39830347655899E-02 
787	 5.39925981544017E-02 
788	 5.45028590608125E-02 
789	 0.055073305167089 
790	 5.54911611866662E-02 
791	 5.58187731725489E-02 
792	 5.60327683978867E-02 
793	 5.63330849825991E-02 
794	 5.67822999038028E-02 
795	 5.71582603044712E-02 
796	 5.75166814351937E-02 
797	 5.79592509253635E-02 
798	 5.84990119132546E-02 
799	 5.87244804351177E-02 
800	 5.88017149237586E-02 
801	 5.89475410791435E-02 
802	 5.93571218783756E-02 
803	 5.99267524260784E-02 
804	 5.98857154511673E-02 
805	 5.94097362232718E-02 
806	 5.96334995811103E-02 
807	 5.98377106276234E-02 
808	 5.99481944313226E-02 
809	 6.00005995057275E-02 
810	 6.00038855337699E-02 
811	 6.01024584661436E-02 
812	 5.99777297466422E-02 
813	 5.92597209988162E-02 
814	 5.89774921100751E-02 
815	 5.91123366253285E-02 
816	 5.89650567406428E-02 
817	 5.77396710313527E-02 
818	 5.72187321752975E-02 
819	 5.65973197878441E-02 
820	 5.54976395952149E-02 
821	 5.43348340968225E-02 
822	 5.36896071511235E-02 
823	 5.28783012772318E-02 
824	 5.15099433298373E-02 
825	 5.04310040045457E-02 
826	 4.95564725228541E-02 
827	 4.85876030769714E-02 
828	 4.72625173154568E-02 
829	 4.57303651158231E-02 
830	 4.48427180372128E-02 
831	 4.43284547430492E-02 
832	 4.33206505506926E-02 
833	 4.31382131483344E-02 
834	 4.30618688486068E-02 
835	 4.26461919305514E-02 
836	 4.20862734719028E-02 
837	 4.14539513914661E-02 
838	 4.12481881288846E-02 
839	 4.14785633288612E-02 
840	 4.07037122262062E-02 
841	 4.06281864176019E-02 
842	 0.040762772005293 
843	 4.01942196827697E-02 
844	 3.99001222178818E-02 
845	 4.01122970253467E-02 
846	 4.02388448926439E-02 
847	 3.94317815540661E-02 
848	 3.97069523503812E-02 
849	 4.00817234521554E-02 
850	 3.98609626178843E-02 
851	 3.92375765654474E-02 
852	 3.93515009923072E-02 
853	 3.94499407284526E-02 
854	 3.90377036836266E-02 
855	 3.90372502600127E-02 
856	 3.92111789570593E-02 
857	 3.92520249586919E-02 
858	 3.89842863560516E-02 
859	 3.87704468426084E-02 
860	 3.84609334632235E-02 
861	 3.84306296144266E-02 
862	 3.89904500433355E-02 
863	 3.84750724094565E-02 
864	 3.81587210190881E-02 
865	 3.83974090765995E-02 
866	 3.84961643456112E-02 
867	 3.81767770112238E-02 
868	 3.77424258005531E-02 
869	 3.76058747088789E-02 
870	 3.81366178193662E-02 
871	 3.77666571418392E-02 
872	 3.74142508918688E-02 
873	 3.77662175253025E-02 
874	 3.77316219739167E-02 
875	 3.77864354663446E-02 
876	 3.78050439757167E-02 
877	 3.76444118356116E-02 
878	 3.77472500819125E-02 
879	 3.76899786292675E-02 
880	 3.73030476282717E-02 
881	 3.67290242105894E-02 
882	 0.036930912303407 
883	 3.69003211330075E-02 
884	 3.64917160129893E-02 
885	 0.036347796714606 
886	 3.71277175123451E-02 
887	 3.72748135150827E-02 
888	 3.64724205747384E-02 
889	 3.60978000139217E-02 
890	 3.65536795298936E-02 
891	 3.69457037500874E-02 
892	 0.036643403942229 
893	 3.61244495468124E-02 
894	 3.68660832586152E-02 
895	 3.79915896622765E-02 
896	 3.81216252000568E-02 
897	 3.75883425115055E-02 
898	 3.67379453781909E-02 
899	 3.65446964271443E-02 
900	 3.71917194269372E-02 
901	 3.60489066276962E-02 
902	 3.59667525573432E-02 
903	 3.60064869060793E-02 
904	 3.48415246202864E-02 
905	 3.67931372967316E-02 
906	 3.68163181668823E-02 
907	 3.56231983343208E-02 
908	 3.76405521555442E-02 
909	 3.62878473449183E-02 
910	 3.56480125802679E-02 
911	 3.66568771380575E-02 
912	 3.65686737732887E-02 
913	 3.70577107625204E-02 
914	 3.67578285300937E-02 
915	 3.60005715600607E-02 
916	 3.69311797476801E-02 
917	 3.58731993407057E-02 
918	 3.54534202817279E-02 
919	 3.60208310419756E-02 
920	 3.43417180757553E-02 
921	 3.47697557127146E-02 
922	 3.58224341649548E-02 
923	 3.59911940954717E-02 
924	 3.60859645944726E-02 
925	 3.66819875540937E-02 
926	 3.73267011229846E-02 
927	 3.71044596751504E-02 
928	 3.49336900621526E-02 
929	 3.50355926201833E-02 
930	 3.54237187804861E-02 
931	 0.028753719522621 
932	 1.55979053306283E-02 
933	-1.00813257525537E-04 
934	 5.70926782512288E-03 
935	 3.83408107842424E-02 
936	 3.06464891681739E-02 
937	 4.09366515554525E-02 
938	 4.91654596301227E-02 
939	 3.08690746121387E-02 
940	 3.74701758018583E-02 
941	 3.90687418921853E-02 
942	 3.37566600797762E-02 
943	 3.24239406111935E-02 
944	 2.66069335767271E-02 
945	 2.51492475740361E-02 
946	 3.21299318009486E-02 
947	 4.54784729840983E-02 
948	 5.71152913842781E-02 
949	 4.79134407584218E-02 
950	 2.82672740850615E-02 
951	 2.46190829753813E-02 
952	 3.55479172543222E-02 
953	 4.16031372647214E-02 
954	 3.93105263777969E-02 
955	 3.70623860134351E-02 
956	 3.56903955868565E-02 
957	 3.64673568001058E-02 
958	 3.63873032908119E-02 
959	 3.17866960591372E-02 
960	 0.030695041201486 
961	 3.49553768653181E-02 
962	 3.74335446366651E-02 
963	 3.09001769871714E-02 
964	 3.58193540088075E-02 
965	 3.76521285395956E-02 
966	 3.49045875212364E-02 
967	 3.51915584082078E-02 
968	 3.60191706992498E-02 
969	 3.37690050182356E-02 
970	 2.97470937253116E-02 
971	 2.91317216349536E-02 
972	 0.03466398362753 
973	 3.78033364538264E-02 
974	 0.036554309772478 
975	 3.62052393560425E-02 
976	 3.37329816350971E-02 
977	 3.01141039377804E-02 
978	 2.92708642033692E-02 
979	 3.45675191429276E-02 
980	 3.36703183462826E-02 
981	 3.43820105764048E-02 
982	 0.036535668086948 
983	 3.39999421871464E-02 
984	 3.42903313208714E-02 
985	 0.031961516003892 
986	 2.84896177980434E-02 
987	 3.00425118768768E-02 
988	 3.11304793235661E-02 
989	 3.41462957468709E-02 
990	 3.53404835249031E-02 
991	 2.93005990481586E-02 
992	 0.031960056227206 
993	 3.43813340132597E-02 
994	 3.22813592830334E-02 
995	 2.77210507510165E-02 
996	 2.93718595690531E-02 
997	 0.033711832912451 
998	 3.56508201568891E-02 
999	 3.21793138250573E-02 
1000	 3.19902487413381E-02 
1001	 0.034170900558524 
1002	 3.26158239637507E-02 
1003	 3.20675221061173E-02 
1004	 3.08208672247523E-02 
1005	 3.05029005684043E-02 
1006	 3.10323926451215E-02 
1007	 3.25434562355842E-02 
1008	 3.42112326690924E-02 
1009	 3.50211375993144E-02 
1010	 0.036929752650598 
1011	 3.88466304349422E-02 
1012	 3.92809120037689E-02 
1013	 3.88994420791777E-02 
1014	 3.81191400345579E-02 
1015	 3.58388142930911E-02 
1016	 3.45131956899881E-02 
1017	 3.29995397117935E-02 
1018	 3.22872757310923E-02 
1019	 3.18187988514542E-02 
1020	 3.16784842787427E-02 
1021	 3.21680493498086E-02 
1022	 3.26614178385953E-02 
1023	 3.37452602051227E-02 
1024	 3.39744258756498E-02 
1025	 3.39765559612876E-02 
1026	 3.37271617325949E-02 
1027	 3.30061960058275E-02 
1028	 3.08384442446078E-02 
1029	 3.11158426829182E-02 
1030	 3.22433702149284E-02 
1031	 3.31864753222626E-02 
1032	 3.63040995781525E-02 
1033	 3.70092045494937E-02 
1034	 3.59555851487358E-02 
1035	 3.55876407686576E-02 
1036	 3.45613413696992E-02 
1037	 3.38213573284437E-02 
1038	 3.31963770954813E-02 
1039	 3.30116485089009E-02 
1040	 3.27524925712021E-02 
1041	 3.21566334751527E-02 
1042	 3.21458401853437E-02 
1043	 3.27404802863622E-02 
1044	 0.032898035147179 
1045	 3.32198007809245E-02 
1046	 3.30790695998783E-02 
1047	 3.21891205194159E-02 
1048	 3.21323444444665E-02 
1049	 0.032345694664618 
1050	 3.24699605734306E-02 
1051	 3.35772355787288E-02 
1052	 3.35788338857278E-02 
1053	 3.19797429466885E-02 
1054	 3.17877976487144E-02 
1055	 0.032267905412528 
1056	 3.22420836047207E-02 
1057	 3.23483958990332E-02 
1058	 3.33682991572943E-02 
1059	 3.34895472183601E-02 
1060	 3.25492836483972E-02 
1061	 0.032575726108916 
1062	 3.34766490370473E-02 
1063	 3.32547017272913E-02 
1064	 0.031780228722349 
1065	 3.21867895243149E-02 
1066	 3.40893262445609E-02 
1067	 3.40251384291878E-02 
1068	 3.38010693429008E-02 
1069	 3.40060116270666E-02 
1070	 3.23098861442966E-02 
1071	 3.16314698558546E-02 
1072	 3.18673762775696E-02 
1073	 0.0335275413268 
1074	 0.034114744164037 
1075	 3.44217467826949E-02 
1076	 0.034545741995341 
1077	 3.49023369776524E-02 
1078	 3.44472285589169E-02 
1079	 3.28969301686529E-02 
1080	 3.23428035958531E-02 
1081	 3.15424881495231E-02 
1082	 3.14895337901168E-02 
1083	 3.21799708939053E-02 
1084	 3.28668749933222E-02 
1085	 3.46640486244867E-02 
1086	 3.52828472240454E-02 
1087	 3.58229325736279E-02 
1088	 3.56068203682045E-02 
1089	 3.31183534235155E-02 
1090	 0.032433830182791 
1091	 3.18739572519528E-02 
1092	 3.12364856775059E-02 
1093	 0.031376369469134 
1094	 3.28259170980424E-02 
1095	 3.31344975484532E-02 
1096	 3.31920218096828E-02 
1097	 3.36636833485293E-02 
1098	 3.41827175592739E-02 
1099	 3.45923320818854E-02 
1100	 3.56974415984119E-02 
1101	 3.60904255018001E-02 
1102	 3.47616270849016E-02 
1103	 0.035002635495281 
1104	 0.03697635835229 
1105	 0.037253371101811 
1106	 3.61851124154523E-02 
1107	 3.60482550875677E-02 
1108	 3.35903092910413E-02 
1109	 3.08163428734491E-02 
1110	 3.05692350825998E-02 
1111	 3.43466284910785E-02 
1112	 3.43834411823889E-02 
1113	 3.40153745499672E-02 
1114	 3.47647446439157E-02 
1115	 3.11019723672819E-02 
1116	 0.034351065413314 
1117	 5.30643843950559E-02 
1118	 6.05330120907434E-02 
1119	 6.52585687411391E-02 
1120	 7.01025572441427E-02 
1121	 0.053620349293778 
1122	 3.30437577067399E-02 
1123	 3.17327707676611E-02 
1124	 3.08104035212429E-02 
1125	 6.37556887054089E-02 
1126	 0.074201387128207 
1127	 2.46825198386964E-02 
1128	-1.39506256256529E-02 
1129	-1.27305239992832E-02 
1130	-1.33438429768985E-02 
1131	-6.56224323508312E-03 
1132	 3.77981056029857E-02 
1133	 5.29183392077978E-02 
1134	 4.58260892976508E-02 
1135	 4.60022650603141E-02 
1136	 5.79526487510043E-02 
1137	 6.41889496995363E-02 
1138	 6.96835917780361E-02 
1139	 5.90841649869145E-02 
1140	 5.26910782080307E-02 
1141	 3.85192029811305E-02 
1142	 1.39583268369009E-02 
1143	 7.76678457909541E-03 
1144	 1.70139929595914E-02 
1145	 9.36252558094084E-03 
1146	 8.50832518195006E-03 
1147	 1.66824428520153E-02 
1148	 2.42190199047418E-02 
1149	 3.86282094759887E-02 
1150	 0.039720045948236 
1151	 3.11215963275362E-02 
1152	 3.47522259813023E-02 
1153	 3.95782274544105E-02 
1154	 3.82504277169746E-02 
1155	 3.82560050332591E-02 
1156	 4.17113684664538E-02 
1157	 3.77350097883074E-02 
1158	 3.21646544041158E-02 
1159	 3.76588501749716E-02 
1160	 4.07463037764289E-02 
1161	 3.60827087757933E-02 
1162	 3.52869819473468E-02 
1163	 0.03509564141564 
1164	 3.38189488800909E-02 
1165	 3.71030376146756E-02 
1166	 3.82997108704051E-02 
1167	 0.035601918348719 
1168	 3.64683849924047E-02 
1169	 3.63205006449105E-02 
1170	 3.39953455974962E-02 
1171	 3.39914919736872E-02 
1172	 3.57452411382642E-02 
1173	 3.53603364831459E-02 
1174	 3.38457717127614E-02 
1175	 3.52366005999073E-02 
1176	 3.58813789969924E-02 
1177	 3.49995266777694E-02 
1178	 3.56941318361274E-02 
1179	 3.63077684712177E-02 
1180	 3.51702863159712E-02 
1181	 3.36589020246271E-02 
1182	 3.26491179430434E-02 
1183	 3.21855906163837E-02 
1184	 0.032826419327324 
1185	 0.033737226069134 
1186	 3.37136343643936E-02 
1187	 3.43199777528013E-02 
1188	 3.61633800397288E-02 
1189	 3.63815725037407E-02 
1190	 3.55782856404551E-02 
1191	 3.49880248177729E-02 
1192	 0.034442881157796 
1193	 3.26944111040624E-02 
1194	 3.32097237217824E-02 
1195	 3.48943934746192E-02 
1196	 3.47488595375882E-02 
1197	 0.034429811739093 
1198	 3.31118389850121E-02 
1199	 3.18572518683009E-02 
1200	 3.23344990114612E-02 
1201	 0.032821857651 
1202	 3.32813136658997E-02 
1203	 3.28086315908591E-02 
1204	 3.27789684425463E-02 
1205	 3.33614598771946E-02 
1206	 0.032812799997066 
1207	 3.39013511146398E-02 
1208	 3.52216778193356E-02 
1209	 3.42574535247668E-02 
1210	 3.36050917010393E-02 
1211	 3.42509710382387E-02 
1212	 3.37622189193824E-02 
1213	 3.28273056526953E-02 
1214	 3.27828550965023E-02 
1215	 3.39912134787642E-02 
1216	 3.37093193985513E-02 
1217	 3.28518122736093E-02 
1218	 3.31857565560158E-02 
1219	 3.36216881324229E-02 
1220	 3.38861652361665E-02 
1221	 3.40080077385977E-02 
1222	 3.36785319222398E-02 
1223	 3.28007013437417E-02 
1224	 3.20247225613788E-02 
1225	 3.22789246775044E-02 
1226	 3.31270414078556E-02 
1227	 3.36724344726126E-02 
1228	 3.38970254353934E-02 
1229	 3.43489051996522E-02 
1230	 3.45871088338486E-02 
1231	 3.44068524227506E-02 
1232	 3.40882902441142E-02 
1233	 3.29243934266497E-02 
1234	 3.22427476963082E-02 
1235	 3.20697605854624E-02 
1236	 3.28597303042258E-02 
1237	 3.28391776705866E-02 
1238	 3.27407516962456E-02 
1239	 3.28085418239473E-02 
1240	 3.27165970927553E-02 
1241	 3.29364224234591E-02 
1242	 3.33786017499233E-02 
1243	 3.36301883800756E-02 
1244	 3.37743088176456E-02 
1245	 3.38124714289582E-02 
1246	 3.40325669374403E-02 
1247	 3.39946049827019E-02 
1248	 3.34468472505243E-02 
1249	 3.29544402318976E-02 
1250	 3.29244075005695E-02 
1251	 3.29293145419528E-02 
1252	 3.33973932073888E-02 
1253	 3.46113619735749E-02 
1254	 3.44418304377795E-02 
1255	 3.33608793890649E-02 
1256	 3.30965739670096E-02 
1257	 3.23873904584027E-02 
1258	 3.19670724299532E-02 
1259	 3.23330402330126E-02 
1260	 3.25959681669152E-02 
1261	 3.25927762093296E-02 
1262	 3.26804668617699E-02 
1263	 3.31002442957842E-02 
1264	 3.36716397583847E-02 
1265	 3.34586654504924E-02 
1266	 3.26961067759487E-02 
1267	 3.22494857972209E-02 
1268	 3.24715321250074E-02 
1269	 3.26726120006802E-02 
1270	 0.032864157456168 
1271	 3.32300123892832E-02 
1272	 3.37210053495744E-02 
1273	 3.40946737413928E-02 
1274	 3.38344873088078E-02 
1275	 0.033849581369347 
1276	 3.35093749875191E-02 
1277	 3.23045568876896E-02 
1278	 3.16032166731286E-02 
1279	 3.13292980834096E-02 
1280	 3.17020789799179E-02 
1281	 0.031593430339958 
1282	 0.032134103954077 
1283	 0.032248496746407 
1284	 3.10830446558103E-02 
1285	 3.07822366066599E-02 
1286	 3.16814373866696E-02 
1287	 3.22787232122839E-02 
1288	 3.26434962799048E-02 
1289	 3.31630213237398E-02 
1290	 3.40564697690769E-02 
1291	 3.44650793262722E-02 
1292	 3.42372955841975E-02 
1293	 3.46437526112484E-02 
1294	 0.034588801394668 
1295	 3.38651220381263E-02 
1296	 3.36548711001949E-02 
1297	 3.36613733758412E-02 
1298	 3.39703693588726E-02 
1299	 3.47010742015656E-02 
1300	 3.52462823922123E-02 
1301	 3.51061170690805E-02 
1302	 3.47948143072103E-02 
1303	 3.44685138938283E-02 
1304	 3.44165983096273E-02 
1305	 3.47960351002228E-02 
1306	 3.48030668958216E-02 
1307	 0.035387899132448 
1308	 3.55703399460873E-02 
1309	 3.46758300910541E-02 
1310	 3.42304397542468E-02 
1311	 3.43180400238422E-02 
1312	 3.41760484058613E-02 
1313	 3.36214322204375E-02 
1314	 3.32618926929563E-02 
1315	 3.30358002789095E-02 
1316	 0.033309461574912 
1317	 3.45401193396774E-02 
1318	 3.39014725733586E-02 
1319	 3.28245009977753E-02 
1320	 3.15297657123933E-02 
1321	 0.026059706065105 
1322	 2.59443407516932E-02 
1323	 2.75384726904597E-02 
1324	 2.76013023913482E-02 
1325	 0.027816107899202 
1326	 2.48845162546483E-02 
1327	 2.65450418955496E-02 
1328	 3.25429649873771E-02 
1329	 3.62891657697338E-02 
1330	 3.78278054412707E-02 
1331	 3.77800538903932E-02 
1332	 3.76354454354402E-02 
1333	 3.58853314163311E-02 
1334	 3.70117400126297E-02 
1335	 3.71264729286509E-02 
1336	 3.40155560472072E-02 
1337	 3.03440884116885E-02 
1338	 2.46120240972468E-02 
1339	 2.65689161670884E-02 
1340	 3.43157491208297E-02 
1341	 3.69493225194349E-02 
1342	 4.85529098927948E-02 
1343	 5.07549464392464E-02 
1344	 3.14029795500095E-02 
1345	 2.28408017956027E-02 
1346	 1.01671712412167E-02 
1347	 1.35352884809916E-02 
1348	 7.88645242992085E-02 
1349	 9.57423279893679E-02 
1350	 5.18582339392443E-02 
1351	 3.70263450498193E-02 
1352	-0.103261785765545 
1353	-0.218987218981988 
1354	-0.192978495692491 
1355	 0.052879695955979 
1356	 0.279285709906279 
1357	 0.276920130801345 
1358	 0.242278672209556 
1359	 0.369830503599365 
1360	 0.851745888156285 
1361	 0.229664027735198 
1362	-5.22504199924876E-04 
1363	 0.207128837079934 
1364	 0.635026411323909 
1365	-1.89356254996409 
1366	 1.70984143505756 
1367	 2.7773959316883 
1368	-8.24808291613867 
1369	-0.3211193208007 
1370	 0.261996423138628 
1371	 2.33803387526333 
1372	 2.00270087899375 
1373	-0.321460994500655 
1374	-0.374396766173108 
1375	-1.04433789557774 
1376	-2.03122697418124 
1377	-0.949117763051505 
1378	-0.130072900923395 
1379	-0.202444306903771 
1380	-0.29191453598916 
1381	 0.161252299646937 
1382	 0.369091849419851 
1383	 0.103969943481668 
1384	-1.15022625579329 
1385	-0.545753679065604 
1386	-0.453097382033017 
1387	-0.634836018171536 
1388	-0.953291940971223 
1389	-0.428647620881379 
1390	-0.352365948805932 
1391	-0.690058625255121 
1392	-1.02865086312515 
1393	-0.923221935401391 
1394	-0.699335094837609 
1395	-1.06871681418623 
1396	-1.35142189266684 
1397	-0.72512736497098 
1398	-0.75756539278632 
1399	 0.279352062026455 
1400	 4.97960187986131E-02 
1401	-0.63582312487556 
1402	-0.577445823257359 
1403	-5.17006866435963E-02 
1404	 0.212180694378654 
1405	 0.22039653833345 
1406	 0.472572460489167 
1407	 0.569014476449599 
1408	-0.305920442840213 
1409	-0.642725495827418 
1410	 0.810479714563546 
1411	 0.416931840312535 
1412	-0.74751073487373 
1413	-0.730588551015123 
1414	-0.258218401131598 
1415	-0.39201893966427 
1416	-0.772481099832721 
1417	-1.19813744164842 
1418	-18.5678918975887 
1419	-7.71965725103681 
1420	-0.300430189636021 
1421	-2.19198377948597E-02 
1422	-0.208899444741356 
1423	-0.155321623247127 
1424	-0.263026159170995 
1425	-0.248102922845587 
1426	-6.27531355584644E-02 
1427	 7.21481899580142E-02 
1428	 0.238977191307294 
1429	 0.26070725627027 
1430	 0.184671977693678 
1431	 0.211466897442882 
1432	 0.305478534181076 
1433	 0.274230686915202 
1434	 0.157914632432052 
1435	 0.173436248054375 
1436	 0.293835945192003 
1437	 9.27529480818178E-02 
1438	-0.265460568047105 
1439	-0.348038127317874 
1440	-0.12750018718818 
1441	-0.15377142193718 
1442	-8.80901294689441E-02 
1443	 0.126901475109755 
1444	 0.126691954725893 
1445	 9.04312248573366E-02 
1446	 0.213738746503587 
1447	 0.315958236351417 
1448	 0.339589820290004 
1449	 0.264590078486183 
1450	 0.197949518065884 
1451	 0.131870306253712 
1452	 0.105547624643873 
1453	 0.121820044803938 
1454	 9.86109019906271E-02 
1455	 6.44730452977128E-02 
1456	 6.50475334151759E-02 
1457	 7.00523331082412E-02 
1458	 6.16051647187229E-02 
1459	 5.68472692150319E-02 
1460	 6.59765823633717E-02 
1461	 6.99155157381575E-02 
1462	 7.94254687680254E-02 
1463	 0.13642114526224 
1464	 0.119669020970756 
1465	 3.32784775734639E-02 
1466	 9.46737794479454E-03 
1467	-2.93916033667138E-02 
1468	-3.33382273958906E-02 
1469	 3.16033231663317E-02 
1470	 4.60657010720916E-02 
1471	 4.18076265463272E-02 
1472	 4.33587683511292E-02 
1473	 4.73098415747075E-02 
1474	 3.72586796964565E-02 
1475	-4.09614093037735E-03 
1476	 8.21946055854616E-03 
1477	 5.89561826958725E-02 
1478	 6.29720193670767E-02 
1479	 6.81960944767125E-02 
1480	 7.37679361601171E-02 
1481	 4.24586917098519E-02 
1482	 4.06022532559356E-02 
1483	 7.92130487908904E-02 
1484	 7.61800264119811E-02 
1485	 4.66177483044992E-02 
1486	 4.48613294538979E-02 
1487	 4.68445593084394E-02 
1488	 4.53639575724549E-02 
1489	 5.33904696670779E-02 
1490	 5.56930599602597E-02 
1491	 5.03156280021406E-02 
1492	 4.69808777142311E-02 
1493	 4.88975339875565E-02 
1494	 4.65326166324725E-02 
1495	 3.79324160402273E-02 
1496	 3.57138912535473E-02 
1497	 3.65407044649047E-02 
1498	 3.52651131181765E-02 
1499	 3.49285133247729E-02 
1500	 3.46928739585354E-02 
1501	 3.28870542272584E-02 
1502	 3.19197767617081E-02 
1503	 3.16132256289093E-02 
1504	 3.24869699811665E-02 
1505	 3.47972177261449E-02 
1506	 3.50110598124356E-02 
1507	 3.44713989518509E-02 
1508	 3.57303849799122E-02 
1509	 3.65697680646386E-02 
1510	 3.69991323235637E-02 
1511	 3.66923632028759E-02 
1512	 3.71411642227166E-02 
1513	 3.68844621528155E-02 
1514	 3.43524324232962E-02 
1515	 3.50540621329645E-02 
1516	 3.62328762848183E-02 
1517	 3.38959433439771E-02 
1518	 3.26236541633549E-02 
1519	 3.27485856229039E-02 
1520	 3.28996585467372E-02 
1521	 3.41263294658312E-02 
1522	 3.48895224959602E-02 
1523	 3.56401318243494E-02 
1524	 3.44203475244061E-02 
1525	 3.02187846486679E-02 
1526	 2.93856705689216E-02 
1527	 3.14654426443837E-02 
1528	 3.13725538312081E-02 
1529	 3.04145880921372E-02 
1530	 3.22008782228306E-02 
1531	 3.37386822947655E-02 
1532	 3.38103036553451E-02 
1533	 0.03541867381609 
1534	 3.50598740159102E-02 
1535	 0.032787518906193 
1536	 3.24141552475025E-02 
1537	 3.32259140462085E-02 
1538	 0.034189716169691 
1539	 3.35921197120809E-02 
1540	 3.18860775920471E-02 
1541	 0.032825486422389 
1542	 3.47814410672266E-02 
1543	 3.44179039811788E-02 
1544	 3.41617142866768E-02 
1545	 0.03461288867125 
1546	 3.47152116226293E-02 
1547	 3.52765944314402E-02 
1548	 3.57102188602008E-02 
1549	 3.56059363215143E-02 
1550	 3.42693320611348E-02 
1551	 3.32933662038198E-02 
1552	 3.45427435722299E-02 
1553	 3.41072868913494E-02 
1554	 3.28062098991604E-02 
1555	 3.43414121495734E-02 
1556	 3.47195721957488E-02 
1557	 3.31955459010704E-02 
1558	 0.033375507351357 
1559	 3.41968533514166E-02 
1560	 3.39217886373731E-02 
1561	 3.42791836812531E-02 
1562	 0.035280317634292 
1563	 3.46982735534032E-02 
1564	 0.033668260231573 
1565	 3.41471783160171E-02 
1566	 3.48443430215063E-02 
1567	 3.40397208916543E-02 
1568	 3.34338526555788E-02 
1569	 3.38087489523667E-02 
1570	 3.35693615239975E-02 
1571	 3.30551113650192E-02 
1572	 3.28647897312933E-02 
1573	 3.29164228534926E-02 
1574	 3.32884951495746E-02 
1575	 0.033003154581057 
1576	 0.032303172524113 
1577	 3.20540383756449E-02 
1578	 3.17522411674188E-02 
1579	 3.21117760018693E-02 
1580	 0.03285047929851 
1581	 3.27771450377198E-02 
1582	 3.24636264636512E-02 
1583	 3.25320528163295E-02 
1584	 3.31775210084927E-02 
1585	 3.43016158236584E-02 
1586	 3.44952469583351E-02 
1587	 3.27639110614836E-02 
1588	 3.12796699054543E-02 
1589	 3.11431295569696E-02 
1590	 2.99366395442923E-02 
1591	 2.92125530140901E-02 
1592	 3.00214762869861E-02 
1593	 2.99878325318724E-02 
1594	 3.06642871627898E-02 
1595	 0.031901753520732 
1596	 3.18460224080951E-02 
1597	 3.17969054405548E-02 
1598	 3.22505918344761E-02 
1599	 3.24216110409167E-02 
1600	 3.33390883424672E-02 
1601	 3.40353668060292E-02 
1602	 3.40995650347505E-02 
1603	 3.43689285369376E-02 
1604	 3.33776037994007E-02 
1605	 3.27416343553248E-02 
1606	 3.32931572800409E-02 
1607	 3.49387405807224E-02 
1608	 3.70560435072858E-02 
1609	 3.72624674705446E-02 
1610	 3.60312086368786E-02 
1611	 3.47727666053498E-02 
1612	 3.42152692975656E-02 
1613	 0.034018496360598 
1614	 3.42836949013838E-02 
1615	 3.47140379839326E-02 
1616	 3.42521032830478E-02 
1617	 3.41068861602435E-02 
1618	 3.40082570223924E-02 
1619	 0.033421036902129 
1620	 3.32704786475925E-02 
1621	 3.43490751422372E-02 
1622	 3.52858464334656E-02 
1623	 0.034454574796397 
1624	 3.46030050354317E-02 
1625	 3.57179770706653E-02 
1626	 3.57549815717826E-02 
1627	 0.03544860138368 
1628	 3.49609051554653E-02 
1629	 3.48288486909891E-02 
1630	 3.57127088724478E-02 
1631	 3.63791496954821E-02 
1632	 3.63305394452929E-02 
1633	 3.54625785744959E-02 
1634	 3.41600279627476E-02 
1635	 3.44528126450829E-02 
1636	 3.43728376895099E-02 
1637	 0.032557642551244 
1638	 3.26597189092511E-02 
1639	 3.44064462457384E-02 
1640	 3.46899813500956E-02 
1641	 3.46584067918301E-02 
1642	 3.46740623309541E-02 
1643	 3.14080425738618E-02 
1644	 2.84028151392426E-02 
1645	 2.99323228676915E-02 
1646	 3.14640322683254E-02 
1647	 3.20184130268484E-02 
1648	 3.40655564202328E-02 
1649	 3.49749642387328E-02 
1650	 0.033210455201406 
1651	 3.21022468880556E-02 
1652	 3.25437110564277E-02 
1653	 3.23674681554082E-02 
1654	 3.25117282099079E-02 
1655	 3.38150167212918E-02 
1656	 3.40083216190091E-02 
1657	 3.33738935929445E-02 
1658	 3.32684306357975E-02 
1659	 3.23222362791307E-02 
1660	 3.23479239263001E-02 
1661	 0.034224575204007 
1662	 3.49837752569909E-02 
1663	 3.51889491383631E-02 
1664	 3.52946025983017E-02 
1665	 3.41185013135898E-02 
1666	 3.33750998573137E-02 
1667	 3.39810302046785E-02 
1668	 0.032709925784878 
1669	 3.29629329091797E-02 
1670	 3.42114951378906E-02 
1671	 3.29955460527862E-02 
1672	 3.30716138705009E-02 
1673	 3.43207780105464E-02 
1674	 0.033727655258289 
1675	 3.45794656822647E-02 
1676	 3.70040497892195E-02 
1677	 3.60669611308927E-02 
1678	 3.43491966633805E-02 
1679	 3.43886971677667E-02 
1680	 3.43401372283272E-02 
1681	 3.46594650138288E-02 
1682	 3.66604589536465E-02 
1683	 3.67138108932163E-02 
1684	 3.29114596163098E-02 
1685	 3.15850027030131E-02 
1686	 3.30472300433119E-02 
1687	 0.032765714315342 
1688	 3.24192985488293E-02 
1689	 3.22513734604997E-02 
1690	 3.10250422014198E-02 
1691	 3.06686442886957E-02 
1692	 3.20048477349598E-02 
1693	 3.41012602907608E-02 
1694	 3.43123070349685E-02 
1695	 3.28565860418288E-02 
1696	 3.29617277683395E-02 
1697	 3.38343441940142E-02 
1698	 3.46627552132727E-02 
1699	 0.035424276613126 
1700	 3.59216645799976E-02 
1701	 3.46188685765199E-02 
1702	 3.12339104014918E-02 
1703	 2.91880684451728E-02 
1704	 0.029027122605938 
1705	 3.11244169706665E-02 
1706	 3.31077973488622E-02 
1707	 3.39330079713391E-02 
1708	 0.036008541041001 
1709	 3.58375209696785E-02 
1710	 3.33070811871634E-02 
1711	 0.032221446260374 
1712	 3.20772784843529E-02 
1713	 3.41196342253901E-02 
1714	 3.43338793552534E-02 
1715	 3.55747555345687E-02 
1716	 3.28877230518385E-02 
1717	 3.02836283148747E-02 
1718	 3.06261631102469E-02 
1719	 2.98029987075782E-02 
1720	 2.84188482906524E-02 
1721	 0.027694045186825 
1722	 2.61301230539011E-02 
1723	 2.71672251358314E-02 
1724	 2.91014759365695E-02 
1725	 3.26977090349535E-02 
1726	 3.54550019679225E-02 
1727	 3.55800222453355E-02 
1728	 3.89185007226519E-02 
1729	 0.038472553168476 
1730	 3.55324552969774E-02 
1731	 3.62882708193422E-02 
1732	 0.035315936559302 
1733	 3.39728779045428E-02 
1734	 3.42889404489045E-02 
1735	 3.17292754559911E-02 
1736	 2.94413176517966E-02 
1737	 3.23358042911966E-02 
1738	 3.56043074642978E-02 
1739	 3.85483240302953E-02 
1740	 3.80159473068388E-02 
1741	 3.12666218596117E-02 
1742	 2.73673531478611E-02 
1743	 2.86045792828429E-02 
1744	 0.030817769033157 
1745	 3.57498762277879E-02 
1746	 3.72488949477752E-02 
1747	 3.68373442473005E-02 
1748	 3.52102330640711E-02 
1749	 3.46748152295158E-02 
1750	 3.46314823312966E-02 
1751	 0.033778062231432 
1752	 3.19712811510449E-02 
1753	 3.17411288594763E-02 
1754	 0.031367476861194 
1755	 0.031118016562174 
1756	 3.47808566403008E-02 
1757	 3.42105454612725E-02 
1758	 2.65422341852628E-02 
1759	 2.70417582771583E-02 
1760	 2.92829187587532E-02 
1761	 2.50873224796665E-02 
1762	 2.79520981169111E-02 
1763	 3.22579015970402E-02 
1764	 2.85112465638411E-02 
1765	 3.05362333742298E-02 
1766	 3.22856107962952E-02 
1767	 2.71907737631286E-02 
1768	 0.028429817345629 
1769	 3.12564711480535E-02 
1770	 3.47629029664208E-02 
1771	 3.45250297007226E-02 
1772	 2.98906815612542E-02 
1773	 2.49847525201848E-02 
1774	 0.020226993510106 
1775	 3.18803052214438E-02 
1776	 3.00764911568435E-02 
1777	 0.02282307656425 
1778	 2.25290360825733E-02 
1779	 1.11108629185223E-02 
1780	 5.21025873039906E-03 
1781	 2.10405563718547E-02 
1782	 2.07669164703597E-02 
1783	-2.47700259821806E-04 
1784	-2.60278752129317E-03 
1785	-2.56383133559711E-03 
1786	 2.07988847635176E-03 
1787	 2.95122427912374E-02 
1788	 4.05171164111548E-02 
1789	 4.72712292984443E-02 
1790	 6.69057488705503E-02 
1791	 3.60052715884254E-02 
1792	 5.84542403249227E-03 
1793	 8.87465227423244E-03 
1794	-1.35613719725113E-02 
1795	 2.40818980690084E-03 
1796	 6.83984299230819E-02 
1797	 9.91635553101961E-02 
1798	 9.34600246211956E-02 
1799	 0.111166862527557 
1800	-2.35303304790057E-02 
1801	-9.15983064506918E-02 
1802	-0.055212951666621 
1803	-0.037258637753137 
1804	 0.19365024308498 
1805	 0.221975325512241 
1806	-0.888471523959642 
1807	-0.964125033810361 
1808	 0.237861074019583 
1809	 0.333367946935236 
1810	 0.916065557336946 
1811	 0.516597469377859 
1812	-0.968595982438301 
1813	-1.56952847184155 
1814	-2.47629911369077 
1815	-3.23677837655677 
1816	 0.186712441643313 
1817	-1.01592598736255 
1818	-1.52475165482842 
1819	-1.66648563911308 
1820	-1.52422466640322 
1821	 2.9472191477577 
1822	 1.71323774614375 
1823	 2.24701060869763 
1824	 1.79340808796026 
1825	-10.7352120624896 
1826	-3.53060579608398 
1827	-0.182834051160161 
1828	-0.419679240044111 
1829	 0.135354762323795 
1830	 0.1102498491812 
1831	 2.80657448726178 
1832	 2.3199218219388 
1833	 1.74457038519326 
1834	 1.51936277225938 
1835	 0.605896648238933 
1836	 0.712355911727395 
1837	 2.10210639988214 
1838	 3.44263124919675 
1839	-20.2305968907234 
1840	-4.15121894586835 
1841	-2.4534420195772 
1842	-0.29440392263089 
1843	-7.43320598455457E-02 
1844	 1.05654830033327 
1845	 0.508938268906545 
1846	 0.283923483284139 
1847	 0.291136114430475 
1848	 0.23614726349961 
1849	 0.434985115035893 
1850	 0.462800843895489 
1851	 0.752975418997447 
1852	 0.678908364911469 
1853	 0.524408665517108 
1854	 0.456110879631369 
1855	 0.147566800754565 
1856	-0.143284634328929 
1857	 1.98927470307195 
1858	 1.34250107709325 
1859	 0.239712459887689 
1860	 1.03115040055435 
1861	 1.03981986876426 
1862	 0.666824526090231 
1863	 0.582000512166606 
1864	 0.615500182309513 
1865	 0.586244171482116 
1866	 0.749225863085036 
1867	 1.11309736891166 
1868	-0.944416645780134 
1869	-0.548853321617374 
1870	-1.65378730534174 
1871	 2.7061249311225 
1872	 0.756216521977744 
1873	 0.567833720142343 
1874	 0.67980783245511 
1875	 1.26564907915791 
1876	 1.69426545896456 
1877	-3.31937296307528 
1878	-1.80250968717434 
1879	-0.433903642313216 
1880	-1.00173677848473 
1881	-0.787477830888239 
1882	-0.69157659934872 
1883	-0.795542671599666 
1884	-0.730819931811739 
1885	-0.766983486410259 
1886	-0.699126158809831 
1887	-0.575448337526943 
1888	-0.836985846814349 
1889	-0.930981251658194 
1890	-0.575992702615245 
1891	 6.17612514324817E-02 
1892	 1.4472069176167 
1893	 30.7096883606806 
1894	-8.22366024431536 
1895	 12.3253852795864 
1896	-1.386557404288 
1897	-1.78128832740897 
1898	-3.09789518285155 
1899	-3.12352630405117 
1900	-5.2585578440435 
1901	 4.11479905962585 
1902	 1.49621897219104 
1903	 0.452224302009559 
1904	 0.365816081982553 
1905	 0.865590075452684 
1906	 0.986943929022367 
1907	 1.241790946855 
1908	 1.28833148526958 
1909	 0.714215818740547 
1910	 0.533911162369344 
1911	 0.65405105491991 
1912	-57.6881326842895 
1913	-3.51167639663822 
1914	-0.947288017193232 
1915	-0.730996200654645 
1916	-1.10473806195262 
1917	-3.62755304520555 
1918	-0.717796871482435 
1919	-0.324849095856855 
1920	-0.219543814762906 
1921	-0.232659488571822 
1922	-0.372212377978255 
1923	 0.176809991271869 
1924	 1.15265850488552 
1925	 5.47069158183667 
1926	-10.6333705253477 
1927	 2.82629183887367 
1928	 3.17803599983346 
1929	 1.76562267988072 
1930	 1.46314763123165 
1931	-1.73341491231453 
1932	-3.62878805763688 
1933	 2.61605893730863 
1934	-13.7581760666055 
1935	 0.455336643928506 
1936	-0.150748345691716 
1937	-0.933016441319038 
1938	 31.218766797509 
1939	 2.39491825884355 
1940	-0.532841177942539 
1941	 0.523486864878081 
1942	-0.785149145889554 
1943	-0.570179954091322 
1944	 0.110102186137556 
1945	-0.204283258770302 
1946	-3.90249178969496 
1947	 2.19452015369602 
1948	 7.94361944618312 
1949	 5.49444355548815 
1950	 18.3841052918776 
1951	-7376.90936161317 
1952	 61.6121499279555 
1953	 2.30247410271866 
1954	 0.980393462809036 
1955	 0.777771189632175 
1956	 11.5376482601371 
1957	 10.3948819442137 
1958	 1.3967416011895 
1959	 1.63846926873301 
1960	-0.994520793557688 
1961	 0.186802926854351 
1962	 0.651363153493158 
1963	 0.436652951840353 
1964	 0.511596315357716 
1965	 0.662868925326391 
1966	 0.571687749456117 
1967	 0.331340163398058 
1968	 0.303152388199551 
1969	 0.345208586003298 
1970	 0.303583725349312 
1971	 0.324261722763582 
1972	 0.328171902659334 
1973	 0.250823656617008 
1974	 0.262416402633714 
1975	 0.260513747280613 
1976	 0.215861693935214 
1977	 0.231744197499407 
1978	 0.22900411681787 
1979	 0.181501265309346 
1980	 8.14873295203783E-02 
1981	 7.13933737008609E-02 
1982	 0.103491161386065 
1983	 3.43117932881807E-02 
1984	 4.44163435618666E-02 
1985	 0.125011408305374 
1986	 0.123028365282372 
1987	 0.142360123964766 
1988	 0.137379995701688 
1989	 0.077526307646794 
1990	 2.69872526361894E-02 
1991	-1.26214601652324E-02 
1992	-5.52274120503509E-02 
1993	-7.37338414839328E-02 
1994	-5.62098115915947E-02 
1995	 0.015855856187673 
1996	 2.17040028937577E-02 
1997	 6.06899763269071E-02 
1998	 0.207087543950214 
1999	 0.23444467979274 
2000	 0.33181174130528 
2001	 0.384813532357798 
2002	 0.272243792748613 
2003	 0.210878232183773 
2004	 0.117164944583622 
2005	 0.124298006735529 
2006	 0.246155902679714 
2007	 0.268950356953572 
2008	 0.2299508078488 
2009	 0.190269625232252 
2010	 8.05063776593716E-02 
2011	 2.63925664886719E-02 
2012	-1.34406882225596E-02 
2013	-3.39634174146158E-02 
2014	-1.67151901257797E-02 
2015	-1.52913342321741E-02 
2016	-2.32990441881013E-02 
2017	 3.76445483048582E-02 
2018	 9.06414928714084E-02 
2019	 0.112269316751028 
2020	 0.124547217542013 
2021	 0.120366116419727 
2022	 9.20036324986284E-02 
2023	 5.66049972011279E-02 
2024	 5.05433469403631E-02 
2025	 6.86629285293969E-02 
2026	 6.59170879582672E-02 
2027	 6.80911114195656E-02 
2028	 5.89820284630836E-02 
2029	 3.54885462586446E-02 
2030	 2.44037440633153E-02 
2031	 2.06737561890688E-02 
2032	 2.63008489623542E-02 
2033	 4.51254593911839E-02 
2034	 5.93158905449415E-02 
2035	 5.80214024963854E-02 
2036	 4.53257529079363E-02 
2037	 2.87018904907747E-02 
2038	 1.18226959850437E-02 
2039	 7.59365357719147E-03 
2040	 1.62868313145045E-02 
2041	 0.0261780467232 
2042	 4.96948434560365E-02 
2043	 5.67017989539341E-02 
2044	 5.98822984781962E-02 
2045	 0.060062155841708 
2046	 3.98508863747111E-02 
2047	 2.05211083802899E-02 
2048	 2.30740499041872E-02 
2049	 2.64439501201676E-02 
2050	 0.034833758912928 
2051	 5.50861224927984E-02 
2052	 6.80691403507949E-02 
2053	 7.43676161948397E-02 
2054	 7.37590669399208E-02 
2055	 7.02063668023824E-02 
2056	 6.94640959319811E-02 
2057	 6.10146807771865E-02 
2058	 5.19262220902822E-02 
2059	 5.05632263197951E-02 
2060	 4.54024014404347E-02 
2061	 3.60048515780161E-02 
2062	 1.34593377209712E-02 
2063	 1.64951120972367E-02 
2064	 2.39534266271038E-02 
2065	 1.72691854013508E-02 
2066	 3.30785315418913E-02 
2067	 4.49317705241091E-02 
2068	 4.49390837081997E-02 
2069	 5.60836336489523E-02 
2070	 0.056822758017242 
2071	 0.046706372976803 
2072	 3.60821629022486E-02 
2073	 3.30347244635323E-02 
2074	 3.49638767437993E-02 
2075	 3.34139178253919E-02 
2076	 3.83697946164245E-02 
2077	 3.68996421333935E-02 
2078	 2.57529966058846E-02 
2079	 2.34463062579569E-02 
2080	 2.31398487108527E-02 
2081	 2.34638221736187E-02 
2082	 3.20227626928179E-02 
2083	 3.49349222587925E-02 
2084	 3.58768910975684E-02 
2085	 3.60001130335008E-02 
2086	 3.38960051981856E-02 
2087	 4.37231209044473E-02 
2088	 5.17855988113232E-02 
2089	 4.92343463959483E-02 
2090	 5.04283969777273E-02 
2091	 5.11429251762933E-02 
2092	 4.75856117498645E-02 
2093	 4.19694145156161E-02 
2094	 4.02275105431882E-02 
2095	 3.06712218910602E-02 
2096	 3.04395309156006E-02 
2097	 4.73846372602793E-02 
2098	 4.76446732524841E-02 
2099	 4.36094077004261E-02 
2100	 3.71976007390675E-02 
2101	 2.45842213983693E-02 
2102	 0.012132989067636 
2103	 1.43804232466603E-02 
2104	 2.35514441910357E-02 
2105	 3.05359491519658E-02 
2106	 4.40572737669749E-02 
2107	 5.15855144696174E-02 
2108	 5.12443073325877E-02 
2109	 4.98804817526081E-02 
2110	 4.38319538959314E-02 
2111	 4.63841771965732E-02 
2112	 4.65949314723627E-02 
2113	 4.79603660111643E-02 
2114	 5.75878417208022E-02 
2115	 5.78138846383787E-02 
2116	 4.85005805629351E-02 
2117	 4.73567372027635E-02 
2118	 5.20623745384626E-02 
2119	 4.77845604034366E-02 
2120	 3.84279343824179E-02 
2121	 3.41492507721241E-02 
2122	 3.98524744191773E-02 
2123	 2.87242135706892E-02 
2124	 2.27134120256659E-02 
2125	 2.37449211962491E-02 
2126	 1.50160740055164E-02 
2127	 6.20635094211067E-03 
2128	 3.28998109084769E-03 
2129	 6.58769287917646E-03 
2130	 1.02116728868639E-02 
2131	 1.44702514045102E-02 
2132	 2.17705469862526E-02 
2133	 2.87656753996672E-02 
2134	 3.10395996863498E-02 
2135	 2.76976444853643E-02 
2136	 2.58931862420702E-02 
2137	 2.21998595231107E-02 
2138	 0.020982049093629 
2139	 2.02132948852018E-02 
2140	 2.02877556721822E-02 
2141	 2.24291556688167E-02 
2142	 0.020261249363086 
2143	 1.82115710081991E-02 
2144	 1.13133683373159E-02 
2145	-2.10301490794699E-03 
2146	 3.50501855324946E-03 
2147	 1.07480507112043E-02 
2148	 0.018335459594227 
2149	 2.77013578281637E-02 
2150	 2.59719607804185E-02 
2151	 2.82306248702362E-02 
2152	 2.73908535719906E-02 
2153	 2.57614913570097E-02 
2154	 0.04003826553427 
2155	 4.45356385862102E-02 
2156	 4.29121452781726E-02 
2157	 4.86951937836647E-02 
2158	 6.09019661872065E-02 
2159	 5.71046750820499E-02 
2160	 5.26231455399319E-02 
2161	 4.97873259654077E-02 
2162	 3.46206468929586E-02 
2163	 3.02352071995738E-02 
2164	 3.04720738063851E-02 
2165	 2.96450515519409E-02 
2166	 3.28609313422049E-02 
2167	 3.47870853405663E-02 
2168	 0.03815003379629 
2169	 4.24065303838007E-02 
2170	 4.87536786615125E-02 
2171	 4.58986760797942E-02 
2172	 4.85780797769776E-02 
2173	 5.37345152631812E-02 
2174	 4.50018798159166E-02 
2175	 3.92997904788249E-02 
2176	 3.77419789361238E-02 
2177	 2.21200075375657E-02 
2178	 0.018506565092889 
2179	 2.42029153600446E-02 
2180	 2.72976345752133E-02 
2181	 3.92286584637244E-02 
2182	 4.31336641897275E-02 
2183	 4.41935614841178E-02 
2184	 4.30420647833302E-02 
2185	 5.15687921551235E-02 
2186	 5.51013410950194E-02 
2187	 5.19024775324788E-02 
2188	 5.54520637172117E-02 
2189	 6.75290065383199E-02 
2190	 7.09350162255867E-02 
2191	 8.03536195820488E-02 
2192	 8.19306235325264E-02 
2193	 7.24519462688501E-02 
2194	 5.98652765682904E-02 
2195	 3.18522271424572E-02 
2196	 2.22282026293135E-02 
2197	 1.43699569931207E-02 
2198	 1.56750887365204E-02 
2199	 3.68860389417061E-02 
2200	 5.25909838362192E-02 
2201	 5.67731886736192E-02 
2202	 6.93666876464686E-02 
2203	 6.59941966928568E-02 
2204	 7.23563962691859E-02 
2205	 9.06161468756569E-02 
2206	 9.38214472693751E-02 
2207	 6.70630732141789E-02 
2208	 4.05324050983181E-02 
2209	 2.82442806163997E-02 
2210	 5.41846502054428E-03 
2211	 4.05404115259134E-05 
2212	 1.47409762127118E-02 
2213	 1.72419591068729E-02 
2214	 1.71746134514046E-02 
2215	 0.0151490721506 
2216	 7.93527934907656E-03 
2217	 2.44913076299287E-04 
2218	-2.30609676060352E-02 
2219	-2.08974448917088E-02 
2220	-3.76462297655359E-03 
2221	 8.78201571632929E-03 
2222	 3.51388385734601E-02 
2223	 4.52073428254123E-02 
2224	 5.01379516273974E-02 
2225	 4.78651782437966E-02 
2226	 3.28926053816684E-02 
2227	 3.46426483334957E-02 
2228	 4.17945695801771E-02 
2229	 4.19875999359651E-02 
2230	 4.01709001151666E-02 
2231	 4.33559913665542E-02 
2232	 4.28209284290811E-02 
2233	 3.93991813730338E-02 
2234	 3.67058011109453E-02 
2235	 5.49498049551792E-02 
2236	 5.28820553757496E-02 
2237	 0.048236250185488 
2238	 4.47404169198479E-02 
2239	 3.95610931108212E-02 
2240	 3.27503372996701E-02 
2241	 3.70448586329904E-02 
2242	 5.37789575973175E-02 
2243	 4.97459399324543E-02 
2244	 5.59207785834556E-02 
2245	 6.27605586431108E-02 
2246	 3.89484066238201E-02 
2247	 3.53074584773606E-02 
2248	 3.11671498757582E-02 
2249	 1.24611027042876E-02 
2250	 2.15348232658667E-02 
2251	 2.22949283665468E-02 
2252	 1.29062667633659E-02 
2253	 2.98688923230715E-02 
2254	 5.70551111572982E-02 
2255	 7.06014371606301E-02 
2256	 6.39320603143394E-02 
2257	 5.63829296170506E-02 
2258	 0.055844895627555 
2259	 4.95356831117388E-02 
2260	 4.31164455447491E-02 
2261	 6.21511961283559E-02 
2262	 4.26007774238165E-02 
2263	-0.026675228057158 
2264	-3.57545563485018E-02 
2265	-1.87223980695108E-02 
2266	-2.04146825253302E-02 
2267	-3.85578480313311E-03 
2268	 4.35241441458446E-03 
2269	-0.020546711686948 
2270	-1.16243914745388E-02 
2271	 3.80370236189945E-02 
2272	 6.60787995768184E-02 
2273	 0.109452364182748 
2274	 0.118413042756811 
2275	 9.68515877381083E-02 
2276	 8.28966894796575E-02 
2277	 3.88634293101214E-02 
2278	 2.57119639941325E-02 
2279	 2.85663637605307E-02 
2280	 2.88287377269017E-02 
2281	 4.62795822052224E-02 
2282	 5.47140644117991E-02 
2283	 4.34441841493797E-02 
2284	 0.041656478293135 
2285	 0.050123433416957 
2286	 0.037598412782312 
2287	 1.95982984000565E-02 
2288	-5.40862507961747E-04 
2289	-3.82967750489306E-02 
2290	-5.68723987490908E-02 
2291	-0.069820736600535 
2292	-7.66626693393957E-02 
2293	-4.80561553125132E-02 
2294	-4.95870724003836E-02 
2295	-3.73571378765289E-02 
2296	-4.73136815177059E-03 
2297	-1.35565322142761E-02 
2298	-1.31916856086503E-03 
2299	 0.027757880999298 
2300	 0.03191049063917 
2301	 3.15062991945428E-02 
2302	 2.53370850796884E-02 
2303	-1.05525429982244E-02 
2304	 5.86036386633835E-03 
2305	 1.93818155787005E-02 
2306	 5.10650476944054E-03 
2307	 2.94219128556307E-02 
2308	 1.95984621574884E-02 
2309	 2.65572326144022E-03 
2310	-2.26328613493183E-02 
2311	-2.30185863249131E-02 
2312	-6.13290371249349E-03 
2313	-9.94179945517992E-03 
2314	 6.50543952368977E-02 
2315	 0.104697042310702 
2316	 0.1231643413274 
2317	 0.179520546760783 
2318	 0.147485439360322 
2319	 9.04716768327464E-02 
2320	 4.73208164935162E-02 
2321	-6.42338164302994E-03 
2322	 3.13339207003833E-03 
2323	 1.71535725273016E-02 
2324	-1.58463888503174E-03 
2325	 1.49916952114841E-02 
2326	 2.21224133313188E-02 
2327	 3.90228023140164E-02 
2328	 7.47697344414975E-02 
2329	 7.24144779824684E-02 
2330	 8.99753598949234E-02 
2331	 0.14450359309609 
2332	 0.137030205951726 
2333	 3.13333010349296E-02 
2334	-9.38596636485624E-02 
2335	-0.229151420200593 
2336	-0.301417148331183 
2337	-0.162660983389557 
2338	 8.36557137704434E-02 
2339	 0.231393518454831 
2340	 0.301507259205322 
2341	 0.409525630546029 
2342	 0.324033140614092 
2343	 0.194738879402727 
2344	 0.26438238234517 
2345	 0.270053640824917 
2346	 0.247142997293137 
2347	 0.204032384201867 
2348	 9.09809243362898E-02 
2349	-2.18048805874802E-02 
2350	-0.159815962084235 
2351	-0.178151662364705 
2352	-0.228427984898771 
2353	-0.352139842784914 
2354	-0.28203583480161 
2355	-0.211486826679621 
2356	-0.268065403706398 
2357	-0.224631040004762 
2358	-0.127281594814515 
2359	-0.178891379123194 
2360	-0.177953387578338 
2361	-0.235837734273444 
2362	-0.316478048532977 
2363	-0.252407303389107 
2364	-0.304501745738141 
2365	-0.253400883492337 
2366	-0.296271575159493 
2367	-0.495429218582984 
2368	-0.442659408697888 
2369	-0.511300212416129 
2370	-0.488896977196669 
2371	-0.582588948449063 
2372	-0.694889362764943 
2373	-0.48580652932687 
2374	-0.409110826820543 
2375	-0.63719881896061 
2376	-0.106841839476869 
2377	 0.762124687190446 
2378	 0.940897039344924 
2379	 1.0027423791976 
2380	 0.778879257689051 
2381	 0.53450195830994 
2382	-0.130051092818664 
2383	-0.270094695238557 
2384	-9.47411927428108E-03 
2385	 6.40622008378701E-02 
2386	 0.167182782831708 
2387	 0.133561501135688 
2388	-2.92039021751834E-02 
2389	-1.24564451470455E-02 
2390	-0.214191284116015 
2391	-0.779961620833343 
2392	-1.22916407689222 
2393	-2.05082645228682 
2394	-2.74660308004062 
2395	-0.863528085771361 
2396	-0.160531499213251 
2397	 0.200659105972027 
2398	 0.425426129764485 
2399	 8.05787775990747E-04 
2400	-0.879948174173854 
2401	-1.45695459662539 
2402	-2.26045325823184 
2403	-6.68533641008948 
2404	-5.95364851389574 
2405	-1.49373609290739 
2406	-0.994091172308458 
2407	-0.591548096529787 
2408	-0.4573601830925 
2409	 1.07717708792649 
2410	-0.631693423629418 
2411	-0.351605500743813 
2412	-0.75317098766696 
2413	 1.76297770259358 
2414	 0.46840343020199 
2415	 0.325869321421873 
2416	-0.212964828283766 
2417	-0.408825530871949 
2418	-1.01034427954334 
2419	-2.39230338069472 
2420	 22.8313740731756 
2421	 6.10742802903538 
2422	-14.7907149667097 
2423	-3.58455669135191 
2424	-2.49661705041643 
2425	-4.70801286080364 
2426	 1.43148969777032 
2427	 0.693236041417973 
2428	 1.12235521335238 
2429	 1.93653636481254 
2430	 4.06981433513963 
2431	 9.54124124523399 
2432	 3.71995346627295 
2433	 1.78410086452321 
2434	 0.909942354086765 
2435	 0.298493772295455 
2436	 0.542028429955431 
2437	 1.51463692727829 
2438	 3.31190176410469 
2439	 6.2551565432691 
2440	 6.41124652327689 
2441	 2.12620131526759 
2442	 1.12436396914249 
2443	 1.12493773395448 
2444	 0.939595292376414 
2445	 1.05702571119888 
2446	 2.17900699801439 
2447	 5.94241054190774 
2448	 5.29401390393857 
2449	 1.62477655204934 
2450	 1.28211741368148 
2451	 0.602248136082901 
2452	 0.878731628127658 
2453	 4.11646447865717 
2454	 2.26020073906726 
2455	 2.44548190108438 
2456	 3.47687040737998 
2457	 5.6615201844842 
2458	-4.13339773201083 
2459	-1.87659219390762 
2460	-0.974697577762059 
2461	 4.57922768420933 
2462	 1.08737133841284 
2463	 0.842279868921992 
2464	 0.841832042338746 
2465	 0.519295528858398 
2466	 0.202321091352973 
2467	-0.145921601779133 
2468	-3.80318665586401E-02 
2469	 0.222090063379178 
2470	 0.449900416592739 
2471	 1.00940560886897 
2472	 1.5410556181029 
2473	 1.0791957295991 
2474	 0.099904437559494 
2475	-0.638383086952779 
2476	 5.52394829227825 
2477	 8.66910023922364E-02 
2478	-0.501667119240289 
2479	-0.60443790894459 
2480	-0.848390033166064 
2481	-1.54311025006096 
2482	-2.02898403032817 
2483	-2.54264547785152 
2484	-6.51428338187565 
2485	 2.67505755978665 
2486	 1.36625163245863 
2487	 1.39911194517176 
2488	 1.66582372603838 
2489	 1.37806425615876 
2490	 1.31824110345075 
2491	 1.53558018882222 
2492	 2.7144935954171 
2493	 7.80279354853171 
2494	 44.6949485897426 
2495	-11.7122866048234 
2496	-5.94082662388792 
2497	 36.2467578874701 
2498	 7.09662811761909 
2499	-6.92556778195556 
2500	-2.04037736757058 
