Wavelength	rt0727close00001.asd
350	 0.059231837149068 
351	 5.99690034804865E-02 
352	 5.93988964076166E-02 
353	 5.88775089348687E-02 
354	 5.92446527851876E-02 
355	 5.92807028290397E-02 
356	 5.94711920744136E-02 
357	 5.96417181973114E-02 
358	 5.95817139393236E-02 
359	 5.97379635368591E-02 
360	 5.98295969777641E-02 
361	 5.98466463647874E-02 
362	 5.99669671566611E-02 
363	 0.060070406314882 
364	 6.05588296706536E-02 
365	 6.12046759427531E-02 
366	 6.07612588679909E-02 
367	 0.060567132971499 
368	 6.04848328953472E-02 
369	 6.03025780948146E-02 
370	 6.10903947285131E-02 
371	 6.12080635657176E-02 
372	 6.07295919193222E-02 
373	 0.060693434809283 
374	 6.06213761076801E-02 
375	 6.07120574337918E-02 
376	 6.09107219680584E-02 
377	 0.060757058808476 
378	 6.07718933343729E-02 
379	 6.14939694084633E-02 
380	 6.27504662195227E-02 
381	 6.22040850818102E-02 
382	 6.25806787704002E-02 
383	 6.31057903472242E-02 
384	 6.19013469595967E-02 
385	 6.22374639703444E-02 
386	 6.25611876621767E-02 
387	 6.24683738911789E-02 
388	 6.32058880817063E-02 
389	 6.32798588470484E-02 
390	 6.30830201922524E-02 
391	 6.32451205253834E-02 
392	 6.41455762896593E-02 
393	 6.41547064068724E-02 
394	 6.37974954399039E-02 
395	 0.064134715081237 
396	 6.42965037663414E-02 
397	 6.44120794518389E-02 
398	 6.45506410372564E-02 
399	 0.064686407644674 
400	 6.50378536313561E-02 
401	 6.52602331643448E-02 
402	 6.52567101295149E-02 
403	 6.56903910790864E-02 
404	 6.58603158513247E-02 
405	 6.58468623793633E-02 
406	 6.59822246594526E-02 
407	 6.62401489489475E-02 
408	 6.63414840396599E-02 
409	 6.63002490930019E-02 
410	 6.64184960488868E-02 
411	 6.66101679095845E-02 
412	 0.066773891763996 
413	 6.68635462476041E-02 
414	 6.69658960875896E-02 
415	 6.70808091257793E-02 
416	 6.73090919829337E-02 
417	 6.77126322614144E-02 
418	 6.79031628828429E-02 
419	 6.80734196552618E-02 
420	 6.82476402174802E-02 
421	 6.82367363214201E-02 
422	 6.84056555614867E-02 
423	 6.88168987084747E-02 
424	 6.93233626274456E-02 
425	 0.069375371119837 
426	 6.96761907758391E-02 
427	 7.01352621132138E-02 
428	 7.03251522959937E-02 
429	 7.04380534314913E-02 
430	 7.06954113778287E-02 
431	 7.11184452309818E-02 
432	 7.14948487980865E-02 
433	 7.18201323193664E-02 
434	 7.21206582796189E-02 
435	 7.24306531891592E-02 
436	 7.27662406258117E-02 
437	 7.31358994125924E-02 
438	 7.35455335638794E-02 
439	 7.39690986612156E-02 
440	 7.41232012609623E-02 
441	 7.44129718391366E-02 
442	 7.49376680515481E-02 
443	 7.52435131984753E-02 
444	 7.55195171585996E-02 
445	 7.59027212257014E-02 
446	 7.64091795668395E-02 
447	 7.66376810870632E-02 
448	 7.69220933208325E-02 
449	 7.71743225552025E-02 
450	 7.70572039212596E-02 
451	 7.73070906516302E-02 
452	 7.77605587956848E-02 
453	 7.81673106547289E-02 
454	 7.83869713598693E-02 
455	 0.078538198809602 
456	 7.86374405972623E-02 
457	 7.87090894597583E-02 
458	 7.90037859995776E-02 
459	 7.91871682530702E-02 
460	 7.92970415075156E-02 
461	 7.97383487143614E-02 
462	 7.98444380323055E-02 
463	 7.98189737588317E-02 
464	 7.99528676810304E-02 
465	 8.02801841714305E-02 
466	 8.06079834971117E-02 
467	 8.08430940761167E-02 
468	 8.09727885255302E-02 
469	 8.11192482542985E-02 
470	 8.12732982680626E-02 
471	 8.14571813299857E-02 
472	 8.17519269089886E-02 
473	 8.20023031145412E-02 
474	 0.08225125195222 
475	 8.25306356559138E-02 
476	 8.25981696667266E-02 
477	 8.29009341551465E-02 
478	 8.33553002698073E-02 
479	 8.35449895649168E-02 
480	 8.37794660602729E-02 
481	 8.39255353635548E-02 
482	 8.39652371583427E-02 
483	 8.42167117006058E-02 
484	 8.46810194585073E-02 
485	 8.50791803364547E-02 
486	 8.51692239638466E-02 
487	 0.085543454991953 
488	 8.59226877699808E-02 
489	 8.62470666645624E-02 
490	 8.67046267143414E-02 
491	 0.08708527105091 
492	 8.74128815669158E-02 
493	 8.77583978485537E-02 
494	 0.088192555731974 
495	 8.86804950089803E-02 
496	 8.91775405901444E-02 
497	 8.96370452752661E-02 
498	 9.00344833352793E-02 
499	 9.05405692044406E-02 
500	 9.12089415143624E-02 
501	 9.18943001383472E-02 
502	 9.23223000093626E-02 
503	 9.27563832719536E-02 
504	 9.34708003666262E-02 
505	 9.40987205736577E-02 
506	 9.45676825219326E-02 
507	 9.50445995630605E-02 
508	 9.58269670547184E-02 
509	 9.62809436968996E-02 
510	 9.67535502034627E-02 
511	 9.75098222368929E-02 
512	 0.098302261625624 
513	 9.88644337317245E-02 
514	 0.099358118337503 
515	 0.100106796123544 
516	 0.101024492590418 
517	 0.101720874999096 
518	 0.102171588074261 
519	 0.102826506805036 
520	 0.103625351222171 
521	 0.104435259732579 
522	 0.105160979811158 
523	 0.105891925067994 
524	 0.106647585967204 
525	 0.107435276096481 
526	 0.108243393827687 
527	 0.108925247394796 
528	 0.109695261911202 
529	 0.110608396123811 
530	 0.111304426069288 
531	 0.112061575316681 
532	 0.112946893852526 
533	 0.113908322599932 
534	 0.114695124457377 
535	 0.11547311428697 
536	 0.116363443169742 
537	 0.117394156961564 
538	 0.118140070594588 
539	 0.118864299574367 
540	 0.119855344738817 
541	 0.120916157805494 
542	 0.121872976708768 
543	 0.122712481912054 
544	 0.123545942302917 
545	 0.12452865923997 
546	 0.12553372060649 
547	 0.126483012550033 
548	 0.127477060756925 
549	 0.128374828299874 
550	 0.129240624152067 
551	 0.130191696044048 
552	 0.131193823662384 
553	 0.132100677557633 
554	 0.132928845152358 
555	 0.133873704602406 
556	 0.134710824534469 
557	 0.135611179795219 
558	 0.136680795338269 
559	 0.137544452105438 
560	 0.138375945459963 
561	 0.139222894728135 
562	 0.140050513239264 
563	 0.140781233752508 
564	 0.141454232216553 
565	 0.142121548171096 
566	 0.142833986407157 
567	 0.143489916366573 
568	 0.144057837492741 
569	 0.144567143841861 
570	 0.145224234650468 
571	 0.145806817035327 
572	 0.146244844285379 
573	 0.146655443723257 
574	 0.147009308671847 
575	 0.147363365302872 
576	 0.147766917739288 
577	 0.148215909382883 
578	 0.148535839867587 
579	 0.148824804109757 
580	 0.149297859321512 
581	 0.149515963234916 
582	 0.149703563010174 
583	 0.149990108231184 
584	 0.15017554528936 
585	 0.150410720686272 
586	 0.150663827964151 
587	 0.150851875159995 
588	 0.150999727265708 
589	 0.151224551432764 
590	 0.151480288633086 
591	 0.151574983151979 
592	 0.151639962123282 
593	 0.151614782714375 
594	 0.151506384084959 
595	 0.151665040590614 
596	 0.151626593927814 
597	 0.151457655554995 
598	 0.151467060770558 
599	 0.151235695816064 
600	 0.151017213961596 
601	 0.150965609224418 
602	 0.150946091814555 
603	 0.150862847907471 
604	 0.150809452614831 
605	 0.150872581317911 
606	 0.150721513571902 
607	 0.150755700981343 
608	 0.150848061368622 
609	 0.150345650293595 
610	 0.15038593992647 
611	 0.150454183866127 
612	 0.150107221721017 
613	 0.150196090580912 
614	 0.150202905975234 
615	 0.150078194926462 
616	 0.150013494040312 
617	 0.149826634153144 
618	 0.149811064467211 
619	 0.149958806405877 
620	 0.149688801917001 
621	 0.149684360186018 
622	 0.149810447275324 
623	 0.149758017689538 
624	 0.149764190017882 
625	 0.1497826846221 
626	 0.14977029985316 
627	 0.149700010001564 
628	 0.149626736554123 
629	 0.149632131664891 
630	 0.149695510089864 
631	 0.149514675779669 
632	 0.149426753952217 
633	 0.149470532894502 
634	 0.149531421252191 
635	 0.149552515698183 
636	 0.149444678140295 
637	 0.149362563806052 
638	 0.149815373306929 
639	 0.149953857621106 
640	 0.149904957501987 
641	 0.149991425427293 
642	 0.150046217992415 
643	 0.150102757960433 
644	 0.150164931136498 
645	 0.150208774218825 
646	 0.150255471354738 
647	 0.150087599955526 
648	 0.149700555031544 
649	 0.149665750037891 
650	 0.149374158258686 
651	 0.149000311031735 
652	 0.148879295774438 
653	 0.148207913322979 
654	 0.147417875220023 
655	 0.14670984324413 
656	 0.145944666253091 
657	 0.145262673916758 
658	 0.144554875266844 
659	 0.143687324525406 
660	 0.142628459671551 
661	 0.141698891639355 
662	 0.140895764330488 
663	 0.140046491356531 
664	 0.139269637991297 
665	 0.138649153251826 
666	 0.138119942799647 
667	 0.137367828086983 
668	 0.136783180517898 
669	 0.136391987410221 
670	 0.136116504684321 
671	 0.135992465686791 
672	 0.136046123703786 
673	 0.136235631529427 
674	 0.13646111219892 
675	 0.136640897497307 
676	 0.137185042873672 
677	 0.138147550569839 
678	 0.138420934990262 
679	 0.138933560996396 
680	 0.13978529528984 
681	 0.140721175924805 
682	 0.141862958072327 
683	 0.142954028486127 
684	 0.14398626578739 
685	 0.145454804701598 
686	 0.147029644704833 
687	 0.148594851550372 
688	 0.150015865396948 
689	 0.151236397877671 
690	 0.152416782069969 
691	 0.153667784071084 
692	 0.155022592799895 
693	 0.156001210278085 
694	 0.156755258147539 
695	 0.157377283615113 
696	 0.157719980764322 
697	 0.158154351480511 
698	 0.158600738112764 
699	 0.15882568252935 
700	 0.15896868732801 
701	 0.159021192781876 
702	 0.158962858458503 
703	 0.158768484516728 
704	 0.158472411181568 
705	 0.158150067543947 
706	 0.157807695803524 
707	 0.157237774435713 
708	 0.156755423126211 
709	 0.15633675529169 
710	 0.155795981739623 
711	 0.154784420780191 
712	 0.153781807431897 
713	 0.152966147832683 
714	 0.1521300422233 
715	 0.151394647458486 
716	 0.150706652769963 
717	 0.149910227481093 
718	 0.148198077874567 
719	 0.146454881803624 
720	 0.145018574573467 
721	 0.143478167388819 
722	 0.142383141418506 
723	 0.141100107774751 
724	 0.139596964860829 
725	 0.138220162563947 
726	 0.136381660336899 
727	 0.134228401184068 
728	 0.131971999377525 
729	 0.129563180091242 
730	 0.126767968323076 
731	 0.124048237651314 
732	 0.121735774656371 
733	 0.119868735270688 
734	 0.11827811773125 
735	 0.116843078337042 
736	 0.115451736575076 
737	 0.114312193698304 
738	 0.113414106093836 
739	 0.112762848903464 
740	 0.112546217935422 
741	 0.112242448716876 
742	 0.112014890667977 
743	 0.112229873477276 
744	 0.111894673687194 
745	 0.111775562433884 
746	 0.112058516101327 
747	 0.111940758089053 
748	 0.111909588598654 
749	 0.111917329169566 
750	 0.11186175912542 
751	 0.111881186705135 
752	 0.111984608676313 
753	 0.112109144269532 
754	 0.112149541128812 
755	 0.111996417728672 
756	 0.112041252227159 
757	 0.112343898942488 
758	 0.112435444020076 
759	 0.112907422193771 
760	 0.113794294622936 
761	 0.113991839544878 
762	 0.113571822154418 
763	 0.11335681105714 
764	 0.113418144118554 
765	 0.113499402913001 
766	 0.113431711106779 
767	 0.113459251308752 
768	 0.11362111474343 
769	 0.113782331817199 
770	 0.11407598903044 
771	 0.114358281168674 
772	 0.114523000627321 
773	 0.114672510581206 
774	 0.115149918721779 
775	 0.115698404007634 
776	 0.115877489870513 
777	 0.11587075954835 
778	 0.116179723711942 
779	 0.116807594826402 
780	 0.11724623471249 
781	 0.117619381594669 
782	 0.117891211305723 
783	 0.118134447518134 
784	 0.118730745746306 
785	 0.119237978509533 
786	 0.119617822432427 
787	 0.120005920402942 
788	 0.120571331172756 
789	 0.121262041200113 
790	 0.121848796941535 
791	 0.12207001515817 
792	 0.12244434135389 
793	 0.122953396386251 
794	 0.123482396383382 
795	 0.123848222902097 
796	 0.12418988359016 
797	 0.124499357898387 
798	 0.124804230443911 
799	 0.125348487775838 
800	 0.125611762712603 
801	 0.125769716285062 
802	 0.126270015274291 
803	 0.126237469260233 
804	 0.126212115335126 
805	 0.126395335036234 
806	 0.126500178884699 
807	 0.126313346299477 
808	 0.126182507153433 
809	 0.12629294052688 
810	 0.126034675119667 
811	 0.125599600948892 
812	 0.125307108173862 
813	 0.125393901336378 
814	 0.124745927126893 
815	 0.124129599284277 
816	 0.123833771511098 
817	 0.123472113324416 
818	 0.122452746916538 
819	 0.121784641010465 
820	 0.121362187091059 
821	 0.119707290921543 
822	 0.118362644319074 
823	 0.116909161237904 
824	 0.114963600947595 
825	 0.113110438998057 
826	 0.111305041725483 
827	 0.108856895259247 
828	 0.105562651404699 
829	 0.10419798371449 
830	 0.102640418752745 
831	 0.100465544356075 
832	 0.098718007926451 
833	 9.74914411131236E-02 
834	 9.60403822250625E-02 
835	 9.45241885570489E-02 
836	 9.42925537971429E-02 
837	 9.35047345031504E-02 
838	 0.092606547066486 
839	 9.20967691841054E-02 
840	 9.12985739106716E-02 
841	 9.10754954763126E-02 
842	 9.08836868437426E-02 
843	 9.00280696900558E-02 
844	 8.95555305909576E-02 
845	 8.91587699718318E-02 
846	 8.88362217634334E-02 
847	 0.088727230123732 
848	 8.80608992696619E-02 
849	 8.74372652660227E-02 
850	 0.0872821776851 
851	 8.74999478730873E-02 
852	 8.64291380134762E-02 
853	 8.53800055815411E-02 
854	 8.53481877341496E-02 
855	 8.52368026862966E-02 
856	 8.50818754534558E-02 
857	 8.50197535505833E-02 
858	 8.50037407177474E-02 
859	 8.41080998197019E-02 
860	 8.36472580639949E-02 
861	 8.35353295998145E-02 
862	 0.083036656398124 
863	 8.23081548744034E-02 
864	 8.23771204995723E-02 
865	 8.26554549303264E-02 
866	 8.13558833116877E-02 
867	 8.06106905284912E-02 
868	 8.05399274809034E-02 
869	 8.05529392623213E-02 
870	 7.96259632888502E-02 
871	 7.92231230938592E-02 
872	 7.89885584349003E-02 
873	 0.078446017032741 
874	 7.77491714912498E-02 
875	 7.73500231471478E-02 
876	 7.69024999949376E-02 
877	 7.61262506792389E-02 
878	 7.59733733784901E-02 
879	 7.58177735501109E-02 
880	 7.52687013235283E-02 
881	 7.43040203375479E-02 
882	 7.40556335751135E-02 
883	 0.07356847290823 
884	 7.26952134692434E-02 
885	 7.20289525973748E-02 
886	 7.20919704572461E-02 
887	 7.17482666494755E-02 
888	 7.08280150336368E-02 
889	 7.04409072275504E-02 
890	 7.02366703577619E-02 
891	 7.02116619704209E-02 
892	 7.00168626799211E-02 
893	 6.85208012126646E-02 
894	 6.82451903635892E-02 
895	 6.82866318309563E-02 
896	 6.76048499116994E-02 
897	 6.91890849046822E-02 
898	 6.89294390535495E-02 
899	 6.68667513150231E-02 
900	 6.51016524155554E-02 
901	 6.55017776433547E-02 
902	 6.64729456343747E-02 
903	 6.67395906694206E-02 
904	 6.55637200599153E-02 
905	 6.35552133488437E-02 
906	 6.21375988591381E-02 
907	 6.16674215520842E-02 
908	 6.15181014002559E-02 
909	 6.11019012879421E-02 
910	 6.07566880466482E-02 
911	 6.09571129666389E-02 
912	 6.18378785350637E-02 
913	 6.05328297615771E-02 
914	 5.80600990102889E-02 
915	 5.59043788504345E-02 
916	 5.49805486097515E-02 
917	 5.31201732354862E-02 
918	 5.30317727536381E-02 
919	 5.44325374021298E-02 
920	 5.29620654686569E-02 
921	 5.15276970975212E-02 
922	 5.00653597972827E-02 
923	 4.85002665918225E-02 
924	 4.79820901310416E-02 
925	 4.88433963764153E-02 
926	 4.78334700277086E-02 
927	 4.27688234781117E-02 
928	 4.22670677969956E-02 
929	 4.96746689072128E-02 
930	 5.57689924798142E-02 
931	 4.34655337201442E-02 
932	 4.52629223411191E-02 
933	 0.042462483725172 
934	 2.66243109123034E-02 
935	 9.09342213963199E-03 
936	 1.92835722690077E-02 
937	 0.024363929777395 
938	 2.35928175657439E-02 
939	 2.65321164195006E-02 
940	 0.040130616081968 
941	 3.41099543931307E-02 
942	 1.97172124227982E-02 
943	 2.47085825082478E-02 
944	 2.77214260524032E-02 
945	 3.11137565171617E-02 
946	 3.16793619705133E-02 
947	 2.52672085636475E-02 
948	 1.99009971544222E-02 
949	 1.79162437863943E-02 
950	 2.57688046900501E-02 
951	 4.47270047398201E-02 
952	 3.72792205875037E-02 
953	 2.24336373865515E-02 
954	 1.77065364454536E-02 
955	 2.90633622395253E-02 
956	 2.95102173635811E-02 
957	 2.59168091940798E-02 
958	 2.56035354386234E-02 
959	 3.13343225471052E-02 
960	 3.02091710313988E-02 
961	 2.52208884329392E-02 
962	 2.36430681910972E-02 
963	 3.03276403138134E-02 
964	 3.17730960243535E-02 
965	 3.08765740276988E-02 
966	 2.90343360973072E-02 
967	 2.63126937165948E-02 
968	 2.75898182305768E-02 
969	 2.76346110721432E-02 
970	 2.59825683787985E-02 
971	 2.67809542939481E-02 
972	 0.033422360700523 
973	 3.49143508110281E-02 
974	 3.12172081487305E-02 
975	 3.28879391129347E-02 
976	 3.00933113282162E-02 
977	 2.97325964790513E-02 
978	 3.16126231352579E-02 
979	 2.92732791889877E-02 
980	 2.60746134869428E-02 
981	 2.63388863769411E-02 
982	 2.85665928902543E-02 
983	 2.79466526471867E-02 
984	 2.87143881160711E-02 
985	 2.84232894632159E-02 
986	 2.71113882992683E-02 
987	 2.69051226669734E-02 
988	 2.77832902700835E-02 
989	 2.83553653491313E-02 
990	 2.75922074352668E-02 
991	 2.58216031353391E-02 
992	 2.92420722500718E-02 
993	 3.03427951304662E-02 
994	 2.78602529152249E-02 
995	 2.59994486139866E-02 
996	 2.77190510469104E-02 
997	 2.99090291165189E-02 
998	 3.01778793432868E-02 
999	 0.02784574470847 
1000	 2.61948349695293E-02 
1001	 3.18322262725201E-02 
1002	 0.031699956265015 
1003	 3.21316469382237E-02 
1004	 3.34392056963418E-02 
1005	 0.03342023915445 
1006	 3.24881109133723E-02 
1007	 3.22055657021172E-02 
1008	 3.19067117867907E-02 
1009	 3.10869732755564E-02 
1010	 3.16346385606919E-02 
1011	 3.18647415042837E-02 
1012	 3.19598202244936E-02 
1013	 3.30952708737432E-02 
1014	 3.34465991808808E-02 
1015	 3.37862481933494E-02 
1016	 3.42033598978574E-02 
1017	 3.44425222384538E-02 
1018	 3.41571755918857E-02 
1019	 0.034040165267131 
1020	 3.36783153748081E-02 
1021	 3.22907090993145E-02 
1022	 3.14897581497632E-02 
1023	 3.19445084980942E-02 
1024	 3.18447598559488E-02 
1025	 3.24401784314859E-02 
1026	 3.19434311873707E-02 
1027	 3.17129258861957E-02 
1028	 3.09950503038032E-02 
1029	 3.09524328086845E-02 
1030	 3.12045077235466E-02 
1031	 0.031705142777805 
1032	 3.23822614048635E-02 
1033	 3.31876932104483E-02 
1034	 3.45669168178341E-02 
1035	 3.51879746407953E-02 
1036	 3.61065692451172E-02 
1037	 3.62319476884834E-02 
1038	 3.50968828638543E-02 
1039	 3.45050086777145E-02 
1040	 0.034186791580614 
1041	 3.37935123268162E-02 
1042	 3.49411422210391E-02 
1043	 3.80208789492338E-02 
1044	 3.88100949982918E-02 
1045	 4.00634907135019E-02 
1046	 3.98194691664307E-02 
1047	 3.69451605522406E-02 
1048	 3.63189277800425E-02 
1049	 3.61472890089755E-02 
1050	 3.59872058804603E-02 
1051	 3.65992260685723E-02 
1052	 3.71237322253597E-02 
1053	 3.76436893731098E-02 
1054	 3.81397034200898E-02 
1055	 3.91082137191262E-02 
1056	 3.96964942965383E-02 
1057	 4.00784622569517E-02 
1058	 4.01484790680424E-02 
1059	 4.01819436307837E-02 
1060	 3.99754935437845E-02 
1061	 4.00020337913107E-02 
1062	 4.00685835578028E-02 
1063	 3.99168297173042E-02 
1064	 3.93526591666161E-02 
1065	 3.96531764682115E-02 
1066	 4.04138436532725E-02 
1067	 4.07825947698398E-02 
1068	 4.23249248486082E-02 
1069	 4.24853180218542E-02 
1070	 4.06158791496549E-02 
1071	 4.01178868870608E-02 
1072	 3.94907112729007E-02 
1073	 3.96289773824076E-02 
1074	 3.96957229118103E-02 
1075	 0.040856052295261 
1076	 4.10590301565592E-02 
1077	 4.06567266042974E-02 
1078	 4.05404012000662E-02 
1079	 0.04032648623024 
1080	 4.03311644914737E-02 
1081	 4.06393983601697E-02 
1082	 4.05890728155205E-02 
1083	 4.03216818433057E-02 
1084	 4.03071439370848E-02 
1085	 4.00991472692511E-02 
1086	 4.00887961665223E-02 
1087	 0.040635132842214 
1088	 4.08345848804977E-02 
1089	 4.16084059101591E-02 
1090	 4.10624267235909E-02 
1091	 4.00717831631578E-02 
1092	 3.80494695365417E-02 
1093	 3.74623564427347E-02 
1094	 0.036565387364699 
1095	 3.64031585547502E-02 
1096	 3.81000586662433E-02 
1097	 3.80798351648292E-02 
1098	 3.65851670295525E-02 
1099	 3.61694458662505E-02 
1100	 3.60598278626773E-02 
1101	 0.035994923608261 
1102	 3.65171713392738E-02 
1103	 3.70454840031605E-02 
1104	 3.79922248139725E-02 
1105	 3.75903473639548E-02 
1106	 3.81968256140708E-02 
1107	 4.00098514608443E-02 
1108	 3.91383593607696E-02 
1109	 3.77485348227583E-02 
1110	 0.037211326401445 
1111	 3.52514364097665E-02 
1112	 3.52391300798439E-02 
1113	 3.89782657253742E-02 
1114	 3.87632672591197E-02 
1115	 3.34141457586777E-02 
1116	 3.48293796460102E-02 
1117	 4.56603328856109E-02 
1118	 4.80245780408663E-02 
1119	 4.79262821467963E-02 
1120	 5.35567658863201E-02 
1121	 5.37827038896004E-02 
1122	 3.12138747224534E-02 
1123	 2.79286142317871E-02 
1124	 3.78247625641434E-02 
1125	-1.09102070969526E-02 
1126	-0.010492088753949 
1127	 5.34811182248357E-02 
1128	 8.44807706871277E-02 
1129	 9.78484466332388E-02 
1130	 0.114489950317499 
1131	 9.66373790571331E-02 
1132	 4.24567281215642E-02 
1133	 3.58982915774154E-02 
1134	 3.04860698870386E-02 
1135	 3.40916834951421E-02 
1136	 6.70228459510278E-02 
1137	 6.00488205599927E-02 
1138	 2.84455783686232E-02 
1139	 2.03046910626633E-02 
1140	 2.74779623350161E-02 
1141	 3.59344488469789E-02 
1142	 5.52917906406726E-02 
1143	 7.12033727058317E-02 
1144	 4.98269957368816E-02 
1145	 3.57268151409982E-02 
1146	 5.62091476699747E-02 
1147	 6.37552990763892E-02 
1148	 6.83603077526319E-02 
1149	 0.071263116756531 
1150	 6.14140413210172E-02 
1151	 0.026348885145112 
1152	 0.025385406473985 
1153	 4.00079114713145E-02 
1154	 3.79915845553273E-02 
1155	 3.62483021545407E-02 
1156	 3.55034882329957E-02 
1157	 3.30900694908677E-02 
1158	 3.27211160374471E-02 
1159	 3.40540755857609E-02 
1160	 3.39051499167883E-02 
1161	 0.034321097209378 
1162	 0.036137296768565 
1163	 3.67157747122027E-02 
1164	 3.65355857026591E-02 
1165	 3.66973767595702E-02 
1166	 0.035349064318363 
1167	 3.28689770668084E-02 
1168	 3.38076266619301E-02 
1169	 0.036341290390335 
1170	 3.58619075035401E-02 
1171	 3.44208027974579E-02 
1172	 3.12045659054046E-02 
1173	 3.10888953044838E-02 
1174	 3.10690183166735E-02 
1175	 3.12853554510824E-02 
1176	 3.16311917798342E-02 
1177	 3.23173989352271E-02 
1178	 3.12062706222409E-02 
1179	 2.97791979649427E-02 
1180	 3.14447897746372E-02 
1181	 3.46410486357997E-02 
1182	 3.47153716216793E-02 
1183	 3.20929155709952E-02 
1184	 3.09829402563015E-02 
1185	 3.07285374593209E-02 
1186	 2.92641269212061E-02 
1187	 2.93220499767831E-02 
1188	 3.09855943443455E-02 
1189	 3.06374432856044E-02 
1190	 3.06231207671847E-02 
1191	 3.26266286042261E-02 
1192	 3.30140054396105E-02 
1193	 3.18361693159059E-02 
1194	 3.03553430261206E-02 
1195	 3.06820512964198E-02 
1196	 3.02457385615418E-02 
1197	 2.98778189625746E-02 
1198	 3.04881019494283E-02 
1199	 3.00402631710591E-02 
1200	 2.89390543941959E-02 
1201	 2.87702826065432E-02 
1202	 2.93586630132252E-02 
1203	 2.99185079599959E-02 
1204	 0.030075866590584 
1205	 2.98656794941735E-02 
1206	 2.93107743354878E-02 
1207	 2.93979121947729E-02 
1208	 3.02461454954519E-02 
1209	 3.12534715049302E-02 
1210	 3.13770079641373E-02 
1211	 2.97646495275612E-02 
1212	 2.88095086513785E-02 
1213	 0.029531138598945 
1214	 2.96969803819175E-02 
1215	 3.01478354388837E-02 
1216	 3.06361176740894E-02 
1217	 3.09553974940526E-02 
1218	 3.00797202670705E-02 
1219	 2.94247553353568E-02 
1220	 3.02950087722313E-02 
1221	 3.07463735314502E-02 
1222	 3.06547445275935E-02 
1223	 3.07539845675287E-02 
1224	 3.09738290852733E-02 
1225	 3.03418656103233E-02 
1226	 2.84329780255258E-02 
1227	 2.86998346416065E-02 
1228	 2.99293397247935E-02 
1229	 3.06433142961786E-02 
1230	 3.18990648613846E-02 
1231	 3.11970012732077E-02 
1232	 3.01907610802402E-02 
1233	 2.97300940049152E-02 
1234	 2.91649333795916E-02 
1235	 2.92086091532523E-02 
1236	 3.00811452876376E-02 
1237	 2.98558736923988E-02 
1238	 2.89042206591848E-02 
1239	 2.96677901763434E-02 
1240	 3.03915488914837E-02 
1241	 2.98777057648512E-02 
1242	 2.97092705405451E-02 
1243	 0.030516835770651 
1244	 3.01806645337682E-02 
1245	 2.98550970059511E-02 
1246	 3.06433202608618E-02 
1247	 2.98508274191367E-02 
1248	 2.87784530975353E-02 
1249	 2.88427781111806E-02 
1250	 2.85934038735521E-02 
1251	 2.85920991061421E-02 
1252	 2.86874577310151E-02 
1253	 2.87214366374884E-02 
1254	 3.02956000429662E-02 
1255	 3.14680870805702E-02 
1256	 3.12135280631191E-02 
1257	 2.97208552628907E-02 
1258	 2.97078685402923E-02 
1259	 2.91399364401966E-02 
1260	 2.88117444608509E-02 
1261	 3.01037034555803E-02 
1262	 3.03960658463211E-02 
1263	 2.96443014257696E-02 
1264	 2.85651246428521E-02 
1265	 2.90523969054153E-02 
1266	 3.01869983834546E-02 
1267	 3.05053115977722E-02 
1268	 2.97046578206378E-02 
1269	 2.94094891373799E-02 
1270	 3.00164658576518E-02 
1271	 3.02906668365678E-02 
1272	 3.05873365819576E-02 
1273	 3.05096620136739E-02 
1274	 0.029725551085275 
1275	 2.96615919440729E-02 
1276	 2.99333682563456E-02 
1277	 3.02217487621183E-02 
1278	 3.02332900784583E-02 
1279	 2.89239362529438E-02 
1280	 2.85666901870055E-02 
1281	 2.87486585004042E-02 
1282	 2.96022171193361E-02 
1283	 2.96423073867976E-02 
1284	 2.96111664845878E-02 
1285	 3.00000675406895E-02 
1286	 3.01377193177396E-02 
1287	 3.03612919059585E-02 
1288	 3.21114649585232E-02 
1289	 3.22941340335712E-02 
1290	 3.12922447950758E-02 
1291	 2.98585886672885E-02 
1292	 2.94237412687609E-02 
1293	 2.91167681009895E-02 
1294	 2.94787114617348E-02 
1295	 3.01219357467374E-02 
1296	 3.03417014859561E-02 
1297	 3.07936348301891E-02 
1298	 3.10366267387974E-02 
1299	 3.11904222449786E-02 
1300	 3.11294093000812E-02 
1301	 0.031367284595983 
1302	 3.22925427735797E-02 
1303	 3.16361844979771E-02 
1304	 3.07253232968636E-02 
1305	 3.02166484053194E-02 
1306	 2.99810997320762E-02 
1307	 3.04750973588005E-02 
1308	 3.03304568367198E-02 
1309	 2.91400350829404E-02 
1310	 2.96213256755796E-02 
1311	 3.14253609982406E-02 
1312	 0.031959487098067 
1313	 3.33247184238043E-02 
1314	 0.033920937065837 
1315	 3.33761162001177E-02 
1316	 3.15703393470561E-02 
1317	 2.68534765276013E-02 
1318	 2.69596669808933E-02 
1319	 2.98179522868216E-02 
1320	 2.98739441474254E-02 
1321	 3.18448862272058E-02 
1322	 3.40695281916837E-02 
1323	 3.43144847605186E-02 
1324	 3.27817374893489E-02 
1325	 3.09828684147445E-02 
1326	 3.32308881845407E-02 
1327	 3.61333362347454E-02 
1328	 3.21530054253048E-02 
1329	 2.80555696685506E-02 
1330	 3.13770045231335E-02 
1331	 3.42238162149751E-02 
1332	 3.17147025554432E-02 
1333	 2.79269444135791E-02 
1334	 3.26597637679503E-02 
1335	 3.44664905423085E-02 
1336	 3.12845790326965E-02 
1337	 2.82889621429107E-02 
1338	 2.77511832514518E-02 
1339	 2.67463930997745E-02 
1340	 2.10013449940468E-02 
1341	 2.04097932895256E-02 
1342	 2.79628064306829E-02 
1343	 3.54632140998348E-02 
1344	 4.84830898090417E-02 
1345	 5.17934870316347E-02 
1346	 4.83970408467716E-02 
1347	 4.76826431096907E-02 
1348	 2.56432715915772E-02 
1349	 0.016944026265103 
1350	 4.28761127037909E-02 
1351	 0.06436352107998 
1352	 0.08522646265679 
1353	 0.107199819315775 
1354	 0.200006868232317 
1355	 0.241741344362264 
1356	-0.211966414090588 
1357	-0.349019619841597 
1358	-0.280766131913009 
1359	-0.28107694585549 
1360	-0.161003420865666 
1361	-0.100137593247116 
1362	 3.09143862303636E-03 
1363	-0.192845847115845 
1364	-0.656815179669879 
1365	-2.25480030022358 
1366	 0.182191137636898 
1367	 9.60058375904879E-02 
1368	-0.030063141109197 
1369	-7.12707069573148E-03 
1370	-2.72090737030184E-03 
1371	-0.228838771600609 
1372	-0.27514486589978 
1373	-2.49973279948218E-02 
1374	 6.47129588300625E-02 
1375	-0.106389576865204 
1376	-0.131526575362551 
1377	-5.50573682322189E-02 
1378	-0.123007550697148 
1379	-0.539776868285518 
1380	-0.936901226314331 
1381	-2.76693436351984 
1382	-3.01935251440531 
1383	-0.523836206949309 
1384	-0.246054549771672 
1385	 0.16093442757914 
1386	 0.581331678832174 
1387	 1.11766635978555 
1388	 1.17236949684206 
1389	 0.497718519062408 
1390	 0.488588743022886 
1391	 0.67051366801921 
1392	 0.37678057462737 
1393	 0.448822986783168 
1394	 0.192130040521143 
1395	-8.20184811897857E-02 
1396	-2.01303647532494E-02 
1397	 7.20814157637447E-02 
1398	 1.24216515283213E-02 
1399	 1.46012933995493E-02 
1400	-9.45586884510616E-02 
1401	-0.114303155351783 
1402	 0.177202992282647 
1403	 0.919180902454713 
1404	 0.444594351261502 
1405	 0.202269229019266 
1406	-0.697419606333341 
1407	-0.640416174975103 
1408	-0.144859341795335 
1409	-5.41299141690685E-02 
1410	 2.44261817160257E-02 
1411	 0.103026184979123 
1412	 0.184163810354959 
1413	 0.221653951413809 
1414	 0.413907507758747 
1415	 0.750535672725286 
1416	 1.12261761786709 
1417	 0.809943479369541 
1418	 0.213898447262899 
1419	 0.13699757936016 
1420	-0.443769808852924 
1421	-0.512915141230113 
1422	 0.508610249913271 
1423	 0.734971217317198 
1424	 0.086743443519511 
1425	 0.139944267151092 
1426	 0.254040340919071 
1427	 0.362355696530967 
1428	 0.715649250725332 
1429	 0.763884398365461 
1430	 0.720466142131524 
1431	 0.673935540637967 
1432	 0.332730776262076 
1433	 0.136109696773799 
1434	-4.53722452963044E-02 
1435	-0.302309109407203 
1436	-1.13647257075003 
1437	-0.497200752161777 
1438	 4.69831637085439E-02 
1439	 1.20713400405472E-02 
1440	 0.171967748760368 
1441	 0.311222818550712 
1442	 0.429285262634943 
1443	 0.261868579759465 
1444	 0.119577400485997 
1445	 0.146028479968398 
1446	 0.12835320525655 
1447	 0.204892971134944 
1448	 0.167633665136071 
1449	 6.99650811505307E-02 
1450	 0.237877446787532 
1451	 0.231618058000966 
1452	 7.06835366620375E-02 
1453	 6.13617851610492E-02 
1454	 8.78143570544348E-02 
1455	 6.70952330682588E-02 
1456	 3.60414156977652E-02 
1457	 9.19619409210039E-02 
1458	 0.107504927557472 
1459	 3.45758996289407E-02 
1460	 1.94384983726248E-02 
1461	 9.08505518660561E-02 
1462	 9.86768596646244E-02 
1463	 3.81331252654353E-02 
1464	 2.63931999827772E-02 
1465	 5.39810342406643E-02 
1466	 5.20833167038489E-02 
1467	 2.16588960507385E-02 
1468	 1.95530158340742E-02 
1469	 4.48544178105315E-02 
1470	 4.17195845091429E-02 
1471	 3.49672920208418E-02 
1472	 3.52549208011175E-02 
1473	 1.90441934034153E-02 
1474	 1.42809908302475E-02 
1475	 2.89214112554298E-02 
1476	 2.35528174312502E-02 
1477	 9.90060075048011E-04 
1478	-5.34660641773784E-03 
1479	-1.76552685300273E-02 
1480	-8.57582382461214E-03 
1481	 1.87342250592215E-02 
1482	 2.84845182537677E-02 
1483	 3.85888476415453E-02 
1484	 3.89382369016958E-02 
1485	 3.61274999753691E-02 
1486	 3.23537222816096E-02 
1487	 2.21184985515943E-02 
1488	 2.23286713077112E-02 
1489	 2.89684400458779E-02 
1490	 0.026105427590578 
1491	 1.60738059309561E-02 
1492	 1.72164817363309E-02 
1493	 2.40132055187679E-02 
1494	 2.37823952728821E-02 
1495	 2.51838571362605E-02 
1496	 0.027703938488073 
1497	 2.81918534263626E-02 
1498	 2.39315138500725E-02 
1499	 1.53692738922696E-02 
1500	 1.62509747824758E-02 
1501	 1.90183753053589E-02 
1502	 2.03165254579533E-02 
1503	 2.79517528271478E-02 
1504	 3.15482236579274E-02 
1505	 0.031833795948575 
1506	 0.029990913479676 
1507	 2.50108995045356E-02 
1508	 2.52882037395521E-02 
1509	 2.98593305002965E-02 
1510	 2.83110384747786E-02 
1511	 0.025829592097875 
1512	 2.88220936410084E-02 
1513	 2.87925357577919E-02 
1514	 2.80945026818526E-02 
1515	 3.09688897811628E-02 
1516	 3.16024606267371E-02 
1517	 3.02128299406785E-02 
1518	 2.79925080080332E-02 
1519	 2.65590453915633E-02 
1520	 2.82021534073095E-02 
1521	 2.85035911265001E-02 
1522	 2.71086825747916E-02 
1523	 2.58859173053298E-02 
1524	 2.38504089715645E-02 
1525	 2.32177723586672E-02 
1526	 2.36866619527699E-02 
1527	 2.35076165534213E-02 
1528	 2.47531782315734E-02 
1529	 2.62569396012155E-02 
1530	 2.61800091441432E-02 
1531	 2.67578238367386E-02 
1532	 0.026692134084522 
1533	 2.51415305551072E-02 
1534	 2.38666068759784E-02 
1535	 2.36475385977957E-02 
1536	 2.51182570066335E-02 
1537	 2.56544083592445E-02 
1538	 2.55050135018085E-02 
1539	 2.69533866544497E-02 
1540	 2.57787534982159E-02 
1541	 2.34945009918689E-02 
1542	 2.51299746127741E-02 
1543	 2.69688101959058E-02 
1544	 2.79617834926359E-02 
1545	 2.87372616218218E-02 
1546	 2.90144194881712E-02 
1547	 2.86833431256353E-02 
1548	 2.55587829470657E-02 
1549	 2.43045743974661E-02 
1550	 2.65258607193644E-02 
1551	 2.64440422167091E-02 
1552	 2.50298558223922E-02 
1553	 2.44070235700444E-02 
1554	 2.40153527589502E-02 
1555	 2.41956880763536E-02 
1556	 2.44518103493444E-02 
1557	 2.51197425042652E-02 
1558	 2.53083206516944E-02 
1559	 2.51668084507604E-02 
1560	 0.026778822936651 
1561	 2.77563940615055E-02 
1562	 2.67414153421541E-02 
1563	 2.62105490978982E-02 
1564	 2.62450912137238E-02 
1565	 2.63679331478995E-02 
1566	 2.71752212318764E-02 
1567	 2.64393736206035E-02 
1568	 2.48886202414845E-02 
1569	 2.58195586929651E-02 
1570	 2.70209405362707E-02 
1571	 2.66886188621797E-02 
1572	 2.65130479331891E-02 
1573	 2.71755466562765E-02 
1574	 2.66632771547979E-02 
1575	 2.66395301624185E-02 
1576	 2.81669062524981E-02 
1577	 2.81710358069667E-02 
1578	 0.028007231812599 
1579	 2.79084152755333E-02 
1580	 2.67348679936472E-02 
1581	 0.025613428419966 
1582	 2.52829165350294E-02 
1583	 2.55816023467427E-02 
1584	 2.63203408501704E-02 
1585	 0.026693952173977 
1586	 2.60965380863798E-02 
1587	 2.59640237263766E-02 
1588	 2.67795516422323E-02 
1589	 2.80294576276897E-02 
1590	 2.92637665309183E-02 
1591	 2.87926763868233E-02 
1592	 2.71806232213471E-02 
1593	 2.67607039288896E-02 
1594	 2.63046438640981E-02 
1595	 2.60709227166208E-02 
1596	 2.65608828583244E-02 
1597	 2.54906879017555E-02 
1598	 2.44797969661308E-02 
1599	 2.54607978583354E-02 
1600	 2.56716796268677E-02 
1601	 2.51457416425445E-02 
1602	 2.63691983054146E-02 
1603	 2.76256727615154E-02 
1604	 2.73431635455178E-02 
1605	 0.027173687816984 
1606	 2.67736848260114E-02 
1607	 2.48675686105533E-02 
1608	 2.51238129147681E-02 
1609	 2.70444235820575E-02 
1610	 2.71770806375971E-02 
1611	 2.68231972004785E-02 
1612	 2.71744607321536E-02 
1613	 2.86022889111066E-02 
1614	 2.95661881015973E-02 
1615	 2.96164474784037E-02 
1616	 2.87324770934044E-02 
1617	 2.67822062555577E-02 
1618	 0.026293712882223 
1619	 2.60695694052625E-02 
1620	 2.59495631011653E-02 
1621	 2.74434699606268E-02 
1622	 2.73584409110641E-02 
1623	 2.80312164851592E-02 
1624	 2.92969892284111E-02 
1625	 2.67589943557525E-02 
1626	 0.025078994886344 
1627	 2.54909666335945E-02 
1628	 2.57073562952472E-02 
1629	 0.026871461816759 
1630	 2.85953000442484E-02 
1631	 2.87985678837302E-02 
1632	 0.027267210144148 
1633	 2.61382777718212E-02 
1634	 2.60490424623934E-02 
1635	 2.63543702551977E-02 
1636	 2.64982061639275E-02 
1637	 2.74021269562679E-02 
1638	 2.79878523550241E-02 
1639	 2.67157514492616E-02 
1640	 2.62680925581385E-02 
1641	 2.73083599376053E-02 
1642	 2.77552493190174E-02 
1643	 2.73401797522254E-02 
1644	 2.78128191973314E-02 
1645	 2.87431793615123E-02 
1646	 2.80569363852465E-02 
1647	 0.02757858086008 
1648	 0.028636835715297 
1649	 2.85432347609308E-02 
1650	 2.79532884132003E-02 
1651	 2.95634883888987E-02 
1652	 3.06593943497489E-02 
1653	 2.83309477969249E-02 
1654	 2.71981453301716E-02 
1655	 0.02434726771286 
1656	 0.023635412458801 
1657	 2.55074080786002E-02 
1658	 2.65536467546958E-02 
1659	 2.79788413936894E-02 
1660	 2.86031976654346E-02 
1661	 2.88947065445532E-02 
1662	 2.91724384199944E-02 
1663	 2.92829514284868E-02 
1664	 2.89392436771439E-02 
1665	 2.76291120526989E-02 
1666	 2.73791735031935E-02 
1667	 2.76901034008183E-02 
1668	 2.80159297530894E-02 
1669	 2.76348618135248E-02 
1670	 2.56381919904683E-02 
1671	 2.58762826507977E-02 
1672	 2.75273009979042E-02 
1673	 2.82939077799638E-02 
1674	 0.028755886513019 
1675	 2.82233684064965E-02 
1676	 0.027256027680918 
1677	 2.67906844675515E-02 
1678	 2.81596041420819E-02 
1679	 2.92161400795393E-02 
1680	 2.80165917751062E-02 
1681	 2.79347234472464E-02 
1682	 2.87858975940025E-02 
1683	 2.86000743317937E-02 
1684	 2.92357282174781E-02 
1685	 2.88636509582604E-02 
1686	 2.66398694500468E-02 
1687	 2.66060832228654E-02 
1688	 2.73483699782756E-02 
1689	 2.71108382937926E-02 
1690	 0.027593293121211 
1691	 2.88151912768198E-02 
1692	 2.80436554280641E-02 
1693	 0.026239891096535 
1694	 2.59157697317961E-02 
1695	 2.45502505008322E-02 
1696	 2.29119667290155E-02 
1697	 2.26965201839807E-02 
1698	 2.39092915592846E-02 
1699	 2.52337844668329E-02 
1700	 2.58726657534471E-02 
1701	 2.72631537261679E-02 
1702	 2.82274571851663E-02 
1703	 2.77729130552762E-02 
1704	 2.71066306146731E-02 
1705	 2.63516230590036E-02 
1706	 2.53079491641726E-02 
1707	 2.22756018394813E-02 
1708	 1.94252967305625E-02 
1709	 2.27412452052841E-02 
1710	 2.46231880095567E-02 
1711	 2.34241734588554E-02 
1712	 2.44130113838215E-02 
1713	 2.21952302868812E-02 
1714	 0.022554994215063 
1715	 2.69892054710232E-02 
1716	 0.027711876261665 
1717	 0.025685495775292 
1718	 0.025910372402355 
1719	 2.88539399837113E-02 
1720	 2.85834350251414E-02 
1721	 2.88705274934211E-02 
1722	 2.86825816669931E-02 
1723	 2.38764002261522E-02 
1724	 2.38305786204995E-02 
1725	 2.68407827265144E-02 
1726	 2.53917730703273E-02 
1727	 2.32635696256809E-02 
1728	 2.42500449384482E-02 
1729	 2.27858880085806E-02 
1730	 2.15709902088851E-02 
1731	 2.45987525880103E-02 
1732	 2.31368942503559E-02 
1733	 2.16635772248473E-02 
1734	 2.37147141432176E-02 
1735	 2.29892311627832E-02 
1736	 2.07389439044336E-02 
1737	 2.30092071639129E-02 
1738	 2.80325179627769E-02 
1739	 2.80791909754073E-02 
1740	 2.85320033146668E-02 
1741	 3.13593463089592E-02 
1742	 2.80311626590907E-02 
1743	 2.68572655531129E-02 
1744	 3.09364154967954E-02 
1745	 2.69943759106861E-02 
1746	 0.024898033929445 
1747	 2.58584942734471E-02 
1748	 2.82372511867113E-02 
1749	 2.76265415282591E-02 
1750	 2.49577936954874E-02 
1751	 2.45060133877007E-02 
1752	 2.38672058358716E-02 
1753	 2.53503760998044E-02 
1754	 0.032803103132213 
1755	 0.033507232407434 
1756	 0.028185787980951 
1757	 3.16532733821883E-02 
1758	 3.05424672322634E-02 
1759	 2.71411775275415E-02 
1760	 2.82871114772917E-02 
1761	 2.19695125032176E-02 
1762	 1.42651917026272E-02 
1763	 2.39233175846883E-02 
1764	 2.75691542870171E-02 
1765	 1.71925964156699E-02 
1766	 2.29197114780597E-02 
1767	 2.83156397170609E-02 
1768	 2.01920349132768E-02 
1769	 2.59247742195571E-02 
1770	 2.97724191132703E-02 
1771	 2.24308407558502E-02 
1772	 2.84716218912205E-02 
1773	 3.60743021209666E-02 
1774	 0.036552847764843 
1775	 0.02254056337687 
1776	 1.44457951908304E-02 
1777	 2.24144900869918E-03 
1778	 1.9114624044293E-03 
1779	 2.14098318505301E-02 
1780	 3.00387236601953E-02 
1781	 0.044549949736838 
1782	 4.39714948713795E-02 
1783	 1.94867713408843E-02 
1784	 1.64872670224136E-02 
1785	 2.27828321324868E-02 
1786	 2.12284633419061E-02 
1787	 0.020143155997757 
1788	 1.55341525215729E-02 
1789	 7.11840601144932E-03 
1790	 2.42788535178693E-02 
1791	 3.04542335544905E-02 
1792	 3.25722111241785E-02 
1793	-7.17434026211417E-02 
1794	-0.133315253412921 
1795	-0.104880368709893 
1796	-0.104253303865937 
1797	-3.36345531851677E-02 
1798	-0.111542084701456 
1799	-0.353755571194242 
1800	-0.356019394724831 
1801	-0.369011470402263 
1802	-6.06109779593748E-02 
1803	 9.59956309566039E-02 
1804	-9.07991534647507E-02 
1805	-0.105351448028608 
1806	-0.212692094541951 
1807	-0.393636380539746 
1808	 0.384811793622701 
1809	-0.762992354888152 
1810	-5.59777857150963 
1811	-1.69380696763154 
1812	-0.337228756858968 
1813	-0.271841718408465 
1814	 8.94258848458632E-04 
1815	 0.11132606044761 
1816	 0.138016331664833 
1817	-3.55814264206135E-02 
1818	-0.205631728409353 
1819	 0.815473352856206 
1820	 0.185966411912584 
1821	 1.08556838753308 
1822	 1.05323257712248 
1823	 0.261614283482955 
1824	 7.24738008018634E-02 
1825	-0.446940652683832 
1826	-1.27737533849983 
1827	 55.3818849842611 
1828	 25.7983116294362 
1829	-1.69308243516493 
1830	-0.893744294767195 
1831	 0.114181604158164 
1832	 0.201552815171106 
1833	 0.774320160250641 
1834	 0.94463682644769 
1835	 0.986459714314399 
1836	 1.02783958690551 
1837	 0.67773288516816 
1838	 0.695135662440459 
1839	 0.947095043503145 
1840	 2.62214898029692 
1841	 5.68560860218931 
1842	 4.00475618564944 
1843	 5.86425245531187 
1844	 7.94749400813048 
1845	 12.7777202291342 
1846	-14.5075003096705 
1847	-8.81265321832779 
1848	 40.8100217788923 
1849	-4.5344693470798 
1850	-4.07164646108483 
1851	-2.48292505122304 
1852	-1.64584594168488 
1853	-1.2029596297864 
1854	-1.29613431584542 
1855	-3.87275573199273 
1856	-10.1290431524904 
1857	 126.021268398636 
1858	 3.36644499765208 
1859	 3.36439489999882 
1860	 1.13638397544552 
1861	 1.08406089607535 
1862	 0.892596801813846 
1863	 1.08755034825792 
1864	 2.33355408252644 
1865	 2.98586355649373 
1866	 3.35280989554452 
1867	 4.55410344389284 
1868	 5.14041469778188 
1869	 5.52566776859009 
1870	 12.3154886812915 
1871	-61.1927069587596 
1872	 37.5554371423923 
1873	 25.9142168466903 
1874	-40.8263459490636 
1875	-3.6447456684777 
1876	-3.2534757521918 
1877	-6.74105333210632 
1878	-28.6978765099942 
1879	 10.0967847915187 
1880	 5.85750314327305 
1881	 4.03277311119466 
1882	 2.9250862189164 
1883	 1.79081455226803 
1884	 1.18626413683743 
1885	 0.660132104013848 
1886	 0.494218677083939 
1887	 0.535268740832448 
1888	-1.17717905999379 
1889	-1.84993528339685 
1890	-0.907704001830678 
1891	-0.558639453847869 
1892	 8.33948812577311E-04 
1893	 0.26412872853908 
1894	 0.929731661429591 
1895	 1.35447267460525 
1896	 1.05435758546895 
1897	 0.680130348434107 
1898	 0.705717324301904 
1899	 0.596199298382997 
1900	 0.644936244404442 
1901	 0.979624982031148 
1902	 1.14281254738418 
1903	 1.46053498158954 
1904	 1.51060832157403 
1905	 1.61996610381814 
1906	 1.89047508767224 
1907	 1.46193961911194 
1908	 1.68868911381162 
1909	 2.60352977529347 
1910	 2.69853912940998 
1911	 2.55952605796536 
1912	 2.83793883022939 
1913	 4.29757581023104 
1914	 73.0187824192451 
1915	-8.96739638685433 
1916	-1.29239485460817 
1917	-0.408742445513703 
1918	-0.341879772476406 
1919	 2.96439834867814 
1920	 7.59328422555033 
1921	-0.655880067057929 
1922	-0.747030489678856 
1923	 1.70188108696833 
1924	-8.7016374514972 
1925	 2.31831867089814 
1926	 1.55429713984797 
1927	 1.18487246318346 
1928	 1.55582440168612 
1929	 1.48343832735456 
1930	 1.89202807856953 
1931	 3.21050635279753 
1932	 12.22333035849 
1933	 4.3720325137204 
1934	 0.981723090728142 
1935	 0.272117687086968 
1936	-0.450736964617298 
1937	-3.26098037384622 
1938	-3.19123493572081 
1939	-1.67406951839751 
1940	 8.22881156161695E-03 
1941	-1.50869573046063E-02 
1942	 0.309359694601769 
1943	 0.261638245187043 
1944	-4.06836078225337 
1945	 3.49002301969641 
1946	-1.31898251538235 
1947	-0.704078425607614 
1948	-0.816673855003678 
1949	-0.934341611363048 
1950	-0.577860238653785 
1951	-2.29306302791875 
1952	-14.0683594046346 
1953	-12.2593979903717 
1954	-4.17040132080245 
1955	 14.1912598356157 
1956	-0.217771761654095 
1957	 1.4601764580192 
1958	 1.29265524188758 
1959	 0.944658130664486 
1960	 1.14488170606225 
1961	 1.27868732995204 
1962	 1.13785352121872 
1963	 0.731378804810393 
1964	 0.695464609595808 
1965	 0.526218250290704 
1966	 0.468769010303481 
1967	 0.43624115287787 
1968	 0.609605931558319 
1969	 0.489316174323536 
1970	 0.438488436604465 
1971	 0.376778579305084 
1972	 0.275470591487302 
1973	 0.296005202697441 
1974	 0.294949291990686 
1975	 0.254275395909655 
1976	 0.199422798607735 
1977	 0.139847187694662 
1978	 0.119441171422229 
1979	 0.109265965793412 
1980	 0.111053920080295 
1981	 0.119683587121891 
1982	 0.126397218660193 
1983	 9.11699925574496E-02 
1984	 0.042387745088026 
1985	 4.58983738476667E-02 
1986	 0.106994418120565 
1987	 0.158338340849786 
1988	 0.203553524651901 
1989	 0.200179025283988 
1990	 0.102155790378455 
1991	 3.63713744540547E-02 
1992	 6.69313343092388E-03 
1993	-2.11024463985414E-02 
1994	-1.91905065243044E-02 
1995	 6.16027537101419E-02 
1996	 7.20641817448741E-02 
1997	 5.88158671601687E-02 
1998	 0.145013227952736 
1999	 0.201025272132022 
2000	 0.315928561575788 
2001	 0.496969756730931 
2002	 0.480436407536087 
2003	 0.384626248037797 
2004	 0.261642717994936 
2005	 2.50679279923252E-02 
2006	-0.114494615516317 
2007	-0.107859015124954 
2008	 8.00348997655909E-02 
2009	 0.14084296657613 
2010	 0.291790780620089 
2011	 0.319204717927554 
2012	 0.267012227366509 
2013	 6.87027936698177E-02 
2014	-0.069843803050928 
2015	-7.00196679623757E-02 
2016	-5.47097680379135E-02 
2017	-1.18716951684943E-02 
2018	 9.20067595705902E-03 
2019	 6.63662749891927E-02 
2020	 0.120728524560552 
2021	 0.123056239924073 
2022	 8.54814269585519E-02 
2023	 7.28973906278107E-02 
2024	 6.83062247080027E-02 
2025	 0.034672815273193 
2026	 2.98802364739902E-02 
2027	 5.14417659741848E-02 
2028	 7.44694854975453E-02 
2029	 9.10245111398808E-02 
2030	 0.125140237420167 
2031	 0.124546019850572 
2032	 0.121503240782711 
2033	 0.116339564905452 
2034	 9.59621681891781E-02 
2035	 8.74316023034959E-02 
2036	 8.23230351384168E-02 
2037	 0.062869656785696 
2038	 4.04918209746343E-02 
2039	 2.96119943959573E-02 
2040	 2.37645646245903E-02 
2041	 2.44199160883517E-02 
2042	 5.06944801501621E-02 
2043	 5.14768845212141E-02 
2044	 4.69874849792037E-02 
2045	 3.02216409940779E-02 
2046	 2.33879387582454E-02 
2047	 2.66209427116984E-04 
2048	-1.67294827146468E-02 
2049	-9.24880283031611E-03 
2050	-1.25452152193705E-02 
2051	-2.60356219201482E-02 
2052	-3.07627565727401E-02 
2053	-2.93592247131305E-02 
2054	-3.97689353821906E-02 
2055	-4.36321504882366E-02 
2056	-2.23336930886913E-02 
2057	 3.61919700426243E-02 
2058	 6.03385666956941E-02 
2059	 9.32308952070076E-02 
2060	 9.82461828925835E-02 
2061	 7.48419096004899E-02 
2062	 0.057299669533518 
2063	 5.25774936976803E-02 
2064	 5.21696291729335E-02 
2065	 4.82103122799245E-02 
2066	 5.16915037054473E-02 
2067	 3.52684121890029E-02 
2068	 9.04278362517687E-03 
2069	 2.18285735392027E-02 
2070	 0.035862950790642 
2071	 4.78136965105089E-02 
2072	 0.067195032321523 
2073	 6.85385593739252E-02 
2074	 4.79309045135744E-02 
2075	 3.43175255728403E-02 
2076	 1.84514486155026E-02 
2077	 0.011462392081059 
2078	 6.69180481885369E-03 
2079	 6.67905359145684E-03 
2080	 1.39724322712751E-02 
2081	 1.50293824942378E-02 
2082	 0.015835969506103 
2083	 0.019107057389205 
2084	 3.08860117868707E-02 
2085	 2.77572045466948E-02 
2086	 2.50131899260315E-02 
2087	 3.03622315495901E-02 
2088	 3.12883837769268E-02 
2089	 4.28270917620017E-02 
2090	 5.55724434089539E-02 
2091	 6.05934694967984E-02 
2092	 5.34475905079777E-02 
2093	 2.48438973911554E-02 
2094	 1.44017492796196E-02 
2095	 3.26056841158398E-03 
2096	-5.92256509821314E-03 
2097	-4.10957633943475E-03 
2098	-7.56131539935264E-05 
2099	 6.42027796453755E-03 
2100	 4.68876630915585E-04 
2101	 5.49237419111712E-03 
2102	 8.98373195596857E-03 
2103	 7.85108032907763E-03 
2104	 7.02709191478483E-03 
2105	 1.38304624960702E-02 
2106	 1.71089353643072E-02 
2107	 1.44505410078443E-02 
2108	 1.50188661408279E-02 
2109	 1.25104164397221E-02 
2110	 1.45876265786102E-02 
2111	 1.31376665850122E-02 
2112	 9.91711850720699E-03 
2113	 1.59556978570595E-02 
2114	 3.16677042006964E-02 
2115	 3.25568927781895E-02 
2116	 3.53428281158663E-02 
2117	 3.75633366699658E-02 
2118	 2.67650080580901E-02 
2119	 2.12915281087211E-02 
2120	 1.89651643697768E-02 
2121	 2.15071151611069E-02 
2122	 1.87141966518893E-02 
2123	 1.96830080368053E-02 
2124	 3.47449491210582E-02 
2125	 3.70927622291626E-02 
2126	 0.031189253504457 
2127	 2.81894669342181E-02 
2128	 3.35033090558625E-02 
2129	 4.06246535885549E-02 
2130	 0.039192098463087 
2131	 4.76604991610427E-02 
2132	 4.69990034008484E-02 
2133	 0.033792985601675 
2134	 3.20423652256444E-02 
2135	 3.95198908203821E-02 
2136	 4.07753385462955E-02 
2137	 4.66018548957143E-02 
2138	 0.043673715064923 
2139	 2.55856787494772E-02 
2140	 2.47720689131739E-02 
2141	 3.24480414160238E-02 
2142	 3.23597487283633E-02 
2143	 3.61635193838521E-02 
2144	 4.64185507704184E-02 
2145	 3.87456228981269E-02 
2146	 2.53784417657913E-02 
2147	 2.77012134628565E-02 
2148	 0.031973890977419 
2149	 4.63168491886039E-02 
2150	 5.96322881182132E-02 
2151	 0.041457162820709 
2152	 3.11352015791589E-02 
2153	 0.021170330994146 
2154	-2.04773456275702E-03 
2155	 5.72285604004399E-03 
2156	 2.30896766153832E-02 
2157	 3.23709729642452E-02 
2158	 4.17799546860162E-02 
2159	 4.51712532105372E-02 
2160	 4.30508508096076E-02 
2161	 4.40434716545653E-02 
2162	 4.66989392248652E-02 
2163	 4.53743012251562E-02 
2164	 4.02256770196581E-02 
2165	 4.10971095388604E-02 
2166	 3.92795088571222E-02 
2167	 4.09272396603594E-02 
2168	 5.08808839579428E-02 
2169	 5.39721828502808E-02 
2170	 5.90244856095934E-02 
2171	 5.09633737202667E-02 
2172	 3.78710288003063E-02 
2173	 4.48057602995651E-02 
2174	 0.034497886923944 
2175	 0.027490023356634 
2176	 2.36711651222525E-02 
2177	 1.57930507624026E-02 
2178	 2.46064739939729E-02 
2179	 2.81473883049502E-02 
2180	 2.91429836551893E-02 
2181	 3.89872416842618E-02 
2182	 4.76784888467477E-02 
2183	 5.15120198794069E-02 
2184	 4.23867652569639E-02 
2185	 3.45942587270294E-02 
2186	 3.74661673268503E-02 
2187	 3.22206652286559E-02 
2188	 3.94547157111429E-02 
2189	 8.61163365708809E-02 
2190	 9.34881488561493E-02 
2191	 7.78083649900006E-02 
2192	 7.79166566878331E-02 
2193	 6.45530730442117E-02 
2194	 5.52267295202793E-02 
2195	 4.97605727713403E-02 
2196	 5.46037088912763E-02 
2197	 6.52626768768596E-02 
2198	 6.40690787593856E-02 
2199	 6.22305747223363E-02 
2200	 8.23394225692422E-02 
2201	 0.066535579796833 
2202	 7.10022496555246E-02 
2203	 9.65590490962387E-02 
2204	 0.072118995174472 
2205	 5.93863014372821E-02 
2206	 5.76210978822053E-02 
2207	 3.55499039515689E-02 
2208	 0.046729448292176 
2209	 4.44954102402018E-02 
2210	 1.82814860902405E-02 
2211	 1.99158286894753E-02 
2212	 1.81626089509706E-02 
2213	 2.05219153845995E-03 
2214	 2.06448794614461E-02 
2215	 1.39087963371706E-02 
2216	-1.10513843808048E-02 
2217	-1.49037316124738E-02 
2218	-2.17317850457078E-02 
2219	-1.80208002867167E-02 
2220	 1.59445642580059E-02 
2221	 2.07886988663964E-02 
2222	 0.017778723284582 
2223	 1.76821340890779E-02 
2224	-2.16676288838005E-03 
2225	 2.47562560444812E-03 
2226	 2.93557482448911E-02 
2227	 0.03801488606466 
2228	 5.40218625859278E-02 
2229	 4.58922693495939E-02 
2230	 7.68621912207164E-03 
2231	-5.71494121695939E-03 
2232	-0.027198574917771 
2233	-3.24213683157794E-02 
2234	-1.51603032521515E-02 
2235	-1.62400222049688E-03 
2236	-4.98426098655341E-03 
2237	 2.03843649786646E-04 
2238	 8.03643174992505E-03 
2239	-5.06062664749331E-03 
2240	-6.45244743423862E-03 
2241	 1.76132050527967E-02 
2242	 1.40504862987001E-02 
2243	 3.99375268740745E-03 
2244	 5.8977824045814E-03 
2245	-0.011200670187365 
2246	-1.16351038315424E-02 
2247	 9.08848758691192E-03 
2248	 3.20094877310772E-02 
2249	 4.84097945223656E-02 
2250	 3.69433214375283E-02 
2251	 3.45064825794098E-02 
2252	 0.032422924923045 
2253	 5.00126474736865E-03 
2254	 4.16686546117482E-03 
2255	 1.18182449280512E-03 
2256	-2.62352165511421E-02 
2257	-2.69514004922107E-02 
2258	-3.91677703517342E-03 
2259	 1.33801898957501E-03 
2260	 6.7263514740904E-03 
2261	 2.69550714778548E-02 
2262	 4.20782614601846E-02 
2263	 4.39322624780772E-02 
2264	 0.050054649784349 
2265	 5.37011423097298E-02 
2266	 5.10235168649744E-02 
2267	 4.78947372221415E-02 
2268	 4.12205634319123E-02 
2269	 0.026644122929053 
2270	 0.037628050486232 
2271	 5.93186539958359E-02 
2272	 0.057083868826328 
2273	 7.10181574775838E-02 
2274	 7.11844430860417E-02 
2275	 3.00235039604955E-02 
2276	 1.79618234107503E-02 
2277	 3.14895195506709E-02 
2278	 2.14745025842692E-02 
2279	-6.0287169191006E-03 
2280	-2.15833766632889E-02 
2281	-4.12896980271178E-02 
2282	-5.12550410956812E-02 
2283	-7.14954460935148E-02 
2284	-3.48970407717153E-02 
2285	 8.39301949978419E-03 
2286	 1.05568576786976E-02 
2287	 3.97204760399561E-02 
2288	 7.34785311815013E-02 
2289	 4.74602969738288E-02 
2290	 2.06719199593841E-02 
2291	 3.22747663439523E-02 
2292	 4.37980597076705E-02 
2293	 8.05940937148182E-02 
2294	 0.116963210776731 
2295	 0.103256996109422 
2296	 7.72536295867598E-02 
2297	 9.10402344834917E-02 
2298	 0.13367703759228 
2299	 0.171487301156382 
2300	 0.191598462006267 
2301	 0.192080937576428 
2302	 0.168831691142522 
2303	 0.109300525195564 
2304	 0.152997983798249 
2305	 0.226676006553146 
2306	 0.187878442687869 
2307	 0.149735054262139 
2308	 8.29480617290874E-02 
2309	-0.032539485364959 
2310	-4.98487065135901E-02 
2311	 2.04635921201667E-02 
2312	 3.78069638307901E-02 
2313	 9.76931188680166E-03 
2314	 8.28662362777474E-03 
2315	 1.86808365612254E-02 
2316	 0.015662449443364 
2317	 5.04946341743996E-02 
2318	 2.71705392927163E-02 
2319	-1.09592695853992E-02 
2320	-2.51927132741403E-02 
2321	-4.08535816672207E-02 
2322	 3.77298766126375E-02 
2323	 0.144161812086011 
2324	 0.162258570288243 
2325	 9.73744590146691E-02 
2326	 4.12927543806993E-02 
2327	 2.49691556508463E-02 
2328	 1.53055053029371E-02 
2329	 5.00753219409373E-02 
2330	 0.13149545956118 
2331	 0.138456738691544 
2332	 4.33316144502385E-02 
2333	-3.39086795720301E-02 
2334	-5.95656677997969E-02 
2335	-0.162505753339451 
2336	-0.236706323944714 
2337	-0.20938794236636 
2338	-0.272661055718811 
2339	-0.378564302653295 
2340	-0.257826874242228 
2341	-0.23655453525559 
2342	-0.354672839035652 
2343	-0.247926990776459 
2344	-0.185778810996024 
2345	-3.39273098140453E-02 
2346	 0.162545057872595 
2347	 0.177542006832197 
2348	 1.86422329276675E-02 
2349	-4.93474891150292E-02 
2350	-0.159208310271512 
2351	-0.243897388354948 
2352	-0.197159523356851 
2353	-0.184590668459405 
2354	-0.227004872778345 
2355	-0.294393930665287 
2356	-0.245740658410427 
2357	-0.15267056375062 
2358	 4.55964682757417E-02 
2359	 0.271394417102346 
2360	 0.460543007682475 
2361	 0.396133051132134 
2362	 0.169866560017979 
2363	 0.124553657324145 
2364	 0.184211932683274 
2365	-4.71633386610592E-02 
2366	-0.52699652652983 
2367	-0.798954269524856 
2368	-0.952061646229109 
2369	-0.700591583006175 
2370	 1.53835924113622 
2371	 2.07822795302029 
2372	 2.12815253450972 
2373	-1.48293297874268 
2374	-1.06750361676502 
2375	-0.494136562109856 
2376	-0.57240220588533 
2377	-0.219117467348903 
2378	 0.627600592260012 
2379	 1.37392565151172 
2380	 0.464745786822802 
2381	 1.43226695171604 
2382	 0.966431500108482 
2383	 4.46786777263039E-02 
2384	-1.29232339167703 
2385	 18.5311445802152 
2386	 1.04987521968384 
2387	 0.137212743795907 
2388	-0.284867210775015 
2389	 0.026635707829959 
2390	 0.639595451334708 
2391	 1.51789758671451 
2392	-0.870212986569946 
2393	-0.923336872652732 
2394	-0.776830464280877 
2395	-0.354675987086921 
2396	-0.54003074063154 
2397	-0.790397299612735 
2398	-0.777990200752342 
2399	-1.07362538148588 
2400	-1.77991388021744 
2401	 7.83890318611091 
2402	 7.086371438884 
2403	 2.21229351393915 
2404	 1.82001111865961 
2405	 3.72457250775513 
2406	 1.75657299847747 
2407	 2.04398969151916 
2408	 2.6741880643051 
2409	-3.7005863716109 
2410	 1.03766593104581 
2411	 0.372032335364831 
2412	 1.02011087466812 
2413	 1.45935399241388 
2414	 2.23287454775237 
2415	 2.14038516465189 
2416	-2.96486743098749 
2417	-6.65287576447275 
2418	-4.03804320916738 
2419	-2.82035645361569 
2420	-2.66523745475318 
2421	 0.049365103889663 
2422	 1.44075946635286 
2423	 42.353780032089 
2424	 1.61778906192316 
2425	-7.95160542666706 
2426	 0.804440876018641 
2427	 0.432769953546752 
2428	-0.170996124822538 
2429	-1.54440711133312 
2430	 293.614368752184 
2431	 9.52945131591665 
2432	 1.33430441325303 
2433	-0.353869868931227 
2434	-1.33634549030634 
2435	-1.61804807826111 
2436	-2.98025374539909 
2437	-6.85728382829148 
2438	-18.8051025313868 
2439	 18.62020260853 
2440	 12.4428751180317 
2441	 1.9538823655868 
2442	 0.556430038102124 
2443	-0.216271898985791 
2444	-0.322740112522928 
2445	-0.300129743945631 
2446	-0.183181977938158 
2447	-0.133004588353633 
2448	 0.168587391290374 
2449	 0.716929625548784 
2450	 0.498481001967939 
2451	 2.67374505192161E-02 
2452	-0.185284402615606 
2453	-0.244598282035678 
2454	-0.211238343410137 
2455	-8.51447564997057E-02 
2456	 0.252117247594909 
2457	 0.704768279083486 
2458	 0.508501734472098 
2459	 0.222901517332849 
2460	 0.347805959433924 
2461	 0.270548142739333 
2462	 0.135106543079233 
2463	 0.522631448391461 
2464	 0.47470411970435 
2465	 0.395801974348166 
2466	 0.762621827779388 
2467	 1.20881008121761 
2468	 1.58096292818848 
2469	 2.17143699567786 
2470	 1.19156036426179 
2471	 0.514958305452887 
2472	 0.604032091479722 
2473	 0.464874586207254 
2474	 0.290932982301727 
2475	 3.45112057760055E-02 
2476	-0.259518555430941 
2477	-0.175420440711299 
2478	-0.128013202608166 
2479	 0.119756576015882 
2480	 1.56191599537979 
2481	 0.363832509289135 
2482	 0.396028080386843 
2483	 1.33319525812008 
2484	-12.5958497030169 
2485	-1.90380558162702 
2486	-2.88064651164936 
2487	 1.81377332994894 
2488	-0.230096015264879 
2489	-0.198120787149081 
2490	-0.309185484120572 
2491	 8.52650619862043E-02 
2492	 0.418376452550685 
2493	 0.88720121984898 
2494	 0.975878039981228 
2495	 0.44863652377135 
2496	 0.162551231958018 
2497	-0.230612629078263 
2498	-0.213881553699023 
2499	 0.421232327321701 
2500	 2.06918014881365 
