Wavelength	rt0727close00005.asd
350	 7.79247262325588E-02 
351	 7.71153576931857E-02 
352	 7.73624586146453E-02 
353	 0.078196079365594 
354	 7.88181909720062E-02 
355	 7.83695872260235E-02 
356	 7.81609959574967E-02 
357	 7.82688435225508E-02 
358	 7.83818974364084E-02 
359	 7.83734731602711E-02 
360	 7.86822948988753E-02 
361	 0.07901238610679 
362	 7.86902549348152E-02 
363	 7.86584915306186E-02 
364	 7.87839119430412E-02 
365	 7.88385039362166E-02 
366	 7.86619237307286E-02 
367	 7.86648907921684E-02 
368	 7.90575226195037E-02 
369	 0.079777195418321 
370	 8.01990729077482E-02 
371	 7.97591819658361E-02 
372	 7.89912739700479E-02 
373	 7.90274697111277E-02 
374	 7.98665653763566E-02 
375	 8.04171385062243E-02 
376	 8.02488351380135E-02 
377	 8.00065660393489E-02 
378	 8.04510458536034E-02 
379	 8.10604006836012E-02 
380	 8.12366959618873E-02 
381	 8.12111705514842E-02 
382	 0.081477159710911 
383	 8.16988922081459E-02 
384	 8.13109315795666E-02 
385	 0.081217129601195 
386	 8.13684548119445E-02 
387	 0.081666264680974 
388	 8.20441529380209E-02 
389	 8.21417983452463E-02 
390	 8.24761520681192E-02 
391	 8.32258179114478E-02 
392	 8.33523011813295E-02 
393	 8.35054470129962E-02 
394	 8.38602160886565E-02 
395	 0.084271231506702 
396	 8.39563791871272E-02 
397	 8.37542802404693E-02 
398	 0.083905879051463 
399	 8.40623642694835E-02 
400	 8.43213046171717E-02 
401	 8.45186595453863E-02 
402	 8.46264848976474E-02 
403	 0.085012675767395 
404	 8.51852875376655E-02 
405	 0.085271081483849 
406	 0.085533283561459 
407	 8.55821454222195E-02 
408	 8.56207051410122E-02 
409	 8.57549155816476E-02 
410	 8.59562552464708E-02 
411	 8.62508348537022E-02 
412	 8.64783780261798E-02 
413	 0.086514515597914 
414	 0.086314954141446 
415	 8.65833888594747E-02 
416	 8.70892599342204E-02 
417	 8.72947417351247E-02 
418	 8.74458574661835E-02 
419	 0.087651333843371 
420	 8.79134789678943E-02 
421	 8.81311961103552E-02 
422	 8.82393218773283E-02 
423	 8.85464328382236E-02 
424	 8.91504417264867E-02 
425	 8.93509283347361E-02 
426	 0.089642002818208 
427	 9.00171340187805E-02 
428	 9.02657520428912E-02 
429	 9.05860943542668E-02 
430	 9.08220913622967E-02 
431	 9.10228250501931E-02 
432	 9.15036650978385E-02 
433	 9.20112776781982E-02 
434	 9.23489757796926E-02 
435	 9.25192198366224E-02 
436	 9.30527733636576E-02 
437	 9.35910721203317E-02 
438	 0.094013178052943 
439	 9.43529862658652E-02 
440	 0.094760878159153 
441	 9.51198045519035E-02 
442	 9.54023919585164E-02 
443	 9.57550103542724E-02 
444	 9.61299104133269E-02 
445	 9.65589113501345E-02 
446	 9.70277055867328E-02 
447	 9.72627955034455E-02 
448	 9.76717128432126E-02 
449	 9.80754044350253E-02 
450	 9.79451670460907E-02 
451	 9.81819777631812E-02 
452	 9.85794207875887E-02 
453	 9.89055960450324E-02 
454	 9.92294632284659E-02 
455	 9.95012210807719E-02 
456	 9.95893893089694E-02 
457	 9.94740519869242E-02 
458	 9.98340677090211E-02 
459	 0.100162158009669 
460	 0.100314430437989 
461	 0.100563737517634 
462	 0.100739362239435 
463	 0.10080203593738 
464	 0.100807024848218 
465	 0.100973958303855 
466	 0.10134075300123 
467	 0.101730610166245 
468	 0.101896794370658 
469	 0.101994584973855 
470	 0.102192974781312 
471	 0.102518120795544 
472	 0.102808293883133 
473	 0.102932895103339 
474	 0.103125997484957 
475	 0.103542230723212 
476	 0.103670289113879 
477	 0.103909796467166 
478	 0.104284533285651 
479	 0.104569536512883 
480	 0.104929821228853 
481	 0.105153290000388 
482	 0.105210067682117 
483	 0.10552891840394 
484	 0.105914023367792 
485	 0.106238261022558 
486	 0.106465311444924 
487	 0.106952240747312 
488	 0.107284213916025 
489	 0.107525701349325 
490	 0.108203184756528 
491	 0.108693541888252 
492	 0.109000024260979 
493	 0.109300958213539 
494	 0.10991874718557 
495	 0.11043520878255 
496	 0.110886777945171 
497	 0.111500518826451 
498	 0.111956683387025 
499	 0.112511844923435 
500	 0.113253312172961 
501	 0.113926456651058 
502	 0.114410187598995 
503	 0.114939403820521 
504	 0.11572478472427 
505	 0.116443696511503 
506	 0.116891309337393 
507	 0.117354079745281 
508	 0.118411185976712 
509	 0.119002351374779 
510	 0.119516215196774 
511	 0.120313536053985 
512	 0.121168075413457 
513	 0.121905795924595 
514	 0.122596531519272 
515	 0.123403469541272 
516	 0.124262980782079 
517	 0.125073600173815 
518	 0.125798108687531 
519	 0.126486218522515 
520	 0.127274798099127 
521	 0.128082150346434 
522	 0.128829365529913 
523	 0.129602960192144 
524	 0.130522132008455 
525	 0.131503731172835 
526	 0.132341587589395 
527	 0.133200128935011 
528	 0.134031332484865 
529	 0.134793934202114 
530	 0.135508694366469 
531	 0.136286214144385 
532	 0.137162333503951 
533	 0.138117382975033 
534	 0.139047768247272 
535	 0.13993144532759 
536	 0.140819912714287 
537	 0.141828656691808 
538	 0.142643350159882 
539	 0.143461864113611 
540	 0.144491279719681 
541	 0.145559509725431 
542	 0.146573149309854 
543	 0.147466965527007 
544	 0.148239713702787 
545	 0.149238288415487 
546	 0.150257511920437 
547	 0.151193724294154 
548	 0.15230178335337 
549	 0.15324212791457 
550	 0.154065925402569 
551	 0.154941084270073 
552	 0.155804998137926 
553	 0.156730810217714 
554	 0.157699830409674 
555	 0.158580907598692 
556	 0.159441093228327 
557	 0.160401547874455 
558	 0.161476426506066 
559	 0.162338040980851 
560	 0.163156506155979 
561	 0.16393865750009 
562	 0.16461093175921 
563	 0.1653308795158 
564	 0.166051952944602 
565	 0.166707963027382 
566	 0.167240370832891 
567	 0.167831989922497 
568	 0.168362380194221 
569	 0.168692779136467 
570	 0.169305634121474 
571	 0.169759011874142 
572	 0.170000100333711 
573	 0.170437287847899 
574	 0.170699000985245 
575	 0.1709369578374 
576	 0.171326688801802 
577	 0.1717526103298 
578	 0.172090118887123 
579	 0.172359998077243 
580	 0.172661351579189 
581	 0.172852348535193 
582	 0.172998192059288 
583	 0.173158789778658 
584	 0.173345181062872 
585	 0.17343412152734 
586	 0.173502560909489 
587	 0.173653177356624 
588	 0.173614893178902 
589	 0.173570098999143 
590	 0.173626492669998 
591	 0.173752942463994 
592	 0.173855660776709 
593	 0.173832367210541 
594	 0.173689905644966 
595	 0.173772620876099 
596	 0.173697905058339 
597	 0.17349545360851 
598	 0.173398231315239 
599	 0.17321540074465 
600	 0.173033172138596 
601	 0.172925533735055 
602	 0.172904844253232 
603	 0.172768787709186 
604	 0.172610203079306 
605	 0.172583779506766 
606	 0.172614363033347 
607	 0.17263797185106 
608	 0.1725661177766 
609	 0.17230538751447 
610	 0.172280812741959 
611	 0.172319533394238 
612	 0.172221236150829 
613	 0.172109772889493 
614	 0.171972303949606 
615	 0.171794019293137 
616	 0.171583334423187 
617	 0.171537928597334 
618	 0.171555373660734 
619	 0.171529996785572 
620	 0.171401842004431 
621	 0.171341426822409 
622	 0.171353421461864 
623	 0.171374656762208 
624	 0.171326568133757 
625	 0.171227089488961 
626	 0.171134056161013 
627	 0.17113132464869 
628	 0.171064268060429 
629	 0.171057085362193 
630	 0.171119407124929 
631	 0.170777177693018 
632	 0.170777311455026 
633	 0.17095756311051 
634	 0.170800444539149 
635	 0.170768040623852 
636	 0.170668822016006 
637	 0.170498906185468 
638	 0.170602036679621 
639	 0.170785791063979 
640	 0.17086156071595 
641	 0.170729808135599 
642	 0.170645711125044 
643	 0.170579366011955 
644	 0.170491998215131 
645	 0.17034832968343 
646	 0.170292778816365 
647	 0.170169626486248 
648	 0.169915784861194 
649	 0.169826679237879 
650	 0.169512740361765 
651	 0.169090031212997 
652	 0.168814459433082 
653	 0.168314636188801 
654	 0.167907734974997 
655	 0.167482627117117 
656	 0.166376497411296 
657	 0.165543957380052 
658	 0.16489294571674 
659	 0.164171892531378 
660	 0.163446936818463 
661	 0.1624978506475 
662	 0.161510554024943 
663	 0.160879242789212 
664	 0.160058172580698 
665	 0.159361116795086 
666	 0.158904127077308 
667	 0.158275714151431 
668	 0.157745008956984 
669	 0.157375433921139 
670	 0.157142293167352 
671	 0.156878204413648 
672	 0.156962262642006 
673	 0.157282548495839 
674	 0.157293391128075 
675	 0.157542924591028 
676	 0.158152303118206 
677	 0.158952806483376 
678	 0.15923773835326 
679	 0.159654404723271 
680	 0.160384663780912 
681	 0.161348000804838 
682	 0.16223456860684 
683	 0.163305237300416 
684	 0.164595117409592 
685	 0.16590678438289 
686	 0.167083853236747 
687	 0.168398853203674 
688	 0.169963511068825 
689	 0.171192391355339 
690	 0.172269471020941 
691	 0.17333329948884 
692	 0.174473560795709 
693	 0.175458088263644 
694	 0.176341741022305 
695	 0.177050477338907 
696	 0.17730944036795 
697	 0.177755775914724 
698	 0.178268547028985 
699	 0.178478908962963 
700	 0.178452076812142 
701	 0.178513456718369 
702	 0.178569025848155 
703	 0.178243711250206 
704	 0.178032306714132 
705	 0.177875716793404 
706	 0.177614517258719 
707	 0.177024643338192 
708	 0.176421756048246 
709	 0.175862711598538 
710	 0.175260907525788 
711	 0.174279093072949 
712	 0.173323204996218 
713	 0.172400786515723 
714	 0.171033055377478 
715	 0.169873456178469 
716	 0.168833970329482 
717	 0.167656909111316 
718	 0.165518084179948 
719	 0.16372542724374 
720	 0.162515872818861 
721	 0.161157730412377 
722	 0.15946006413658 
723	 0.157722335042242 
724	 0.156383192603148 
725	 0.154964062707257 
726	 0.153059396493445 
727	 0.150684794406373 
728	 0.14802932460912 
729	 0.145473614101789 
730	 0.142527459312238 
731	 0.139721892021346 
732	 0.13749448820952 
733	 0.135607266958343 
734	 0.133845364358003 
735	 0.132174284456835 
736	 0.130740994173235 
737	 0.129657865348595 
738	 0.128863389337433 
739	 0.128299023449752 
740	 0.128031817991985 
741	 0.127618446841929 
742	 0.127333205585746 
743	 0.127629713512464 
744	 0.127317641432649 
745	 0.127192401363068 
746	 0.127499236080825 
747	 0.127502779902574 
748	 0.127424148773699 
749	 0.127389991570264 
750	 0.127450572286412 
751	 0.127445270328611 
752	 0.127448226236023 
753	 0.127490867218622 
754	 0.127567205454035 
755	 0.127580130349206 
756	 0.127590990112848 
757	 0.127616046186053 
758	 0.127569900225751 
759	 0.12791779872877 
760	 0.128375940759157 
761	 0.12807043452623 
762	 0.12814154887591 
763	 0.128441562678026 
764	 0.1287088210235 
765	 0.12879715327052 
766	 0.128918437854671 
767	 0.129140895106438 
768	 0.129398836981584 
769	 0.129506592546492 
770	 0.129712252842842 
771	 0.130047830602088 
772	 0.130451478298591 
773	 0.130740449494953 
774	 0.131038796328476 
775	 0.13137325410257 
776	 0.13172308590685 
777	 0.132008506237686 
778	 0.132426680494068 
779	 0.132947392279857 
780	 0.13331282251614 
781	 0.133733497171829 
782	 0.134112878669972 
783	 0.134457464205234 
784	 0.135160138089113 
785	 0.135669973910066 
786	 0.135997217929006 
787	 0.136371659324885 
788	 0.136949382007091 
789	 0.137386679830535 
790	 0.13777086963479 
791	 0.138496770936046 
792	 0.138947520138742 
793	 0.139426568207756 
794	 0.140043137309111 
795	 0.140347276802752 
796	 0.140840306933981 
797	 0.141368508806273 
798	 0.141717666068577 
799	 0.142010329958248 
800	 0.142391226134408 
801	 0.142791238302921 
802	 0.143028147040612 
803	 0.143092362142254 
804	 0.143325317898146 
805	 0.143643683662098 
806	 0.143526524348332 
807	 0.143409080797334 
808	 0.143356881621037 
809	 0.143287778024189 
810	 0.142905312910779 
811	 0.142407895385902 
812	 0.141972946577892 
813	 0.141719612082244 
814	 0.141279366299054 
815	 0.140277672892181 
816	 0.139357611464317 
817	 0.139517219128681 
818	 0.138327209776467 
819	 0.137515241332658 
820	 0.13727419473402 
821	 0.135708962507597 
822	 0.134376053687937 
823	 0.1327825148021 
824	 0.130597803423484 
825	 0.128686060187411 
826	 0.126316049824331 
827	 0.123657664018206 
828	 0.121349718539728 
829	 0.118983303572145 
830	 0.116902900468719 
831	 0.114927832939463 
832	 0.112731819506227 
833	 0.111541658123409 
834	 0.110368833836819 
835	 0.109085037432016 
836	 0.108912227725926 
837	 0.108406308571711 
838	 0.107614507128565 
839	 0.106799883712981 
840	 0.105822996804479 
841	 0.10566580921985 
842	 0.105667867398112 
843	 0.104856547830429 
844	 0.103792621018535 
845	 0.103104147898527 
846	 0.102902021695242 
847	 0.102870630252133 
848	 0.102498511880138 
849	 0.101783982860193 
850	 0.101103074342821 
851	 0.101113184032971 
852	 0.100457562459379 
853	 0.099708406966099 
854	 9.94462111142915E-02 
855	 9.93417636996302E-02 
856	 9.91501906526107E-02 
857	 9.89857441023102E-02 
858	 9.88741937533235E-02 
859	 9.80975295114785E-02 
860	 9.74933406589537E-02 
861	 0.0971248907981 
862	 9.66767159695605E-02 
863	 9.62637378503665E-02 
864	 9.62178161344266E-02 
865	 9.60802512795642E-02 
866	 9.49101181834254E-02 
867	 9.44552069146782E-02 
868	 9.43474738280579E-02 
869	 9.40006108757611E-02 
870	 9.30137894883507E-02 
871	 9.25136091884602E-02 
872	 9.23796116983981E-02 
873	 9.21638606591934E-02 
874	 9.13425813110407E-02 
875	 9.09574359657684E-02 
876	 9.04990849430373E-02 
877	 8.93805236740656E-02 
878	 8.85325178590258E-02 
879	 8.83530287394557E-02 
880	 8.82308720193885E-02 
881	 0.087341154122145 
882	 8.66613116780713E-02 
883	 8.63048753056982E-02 
884	 8.58279687047737E-02 
885	 8.46129755819073E-02 
886	 8.39637501935529E-02 
887	 8.34017067812778E-02 
888	 8.26921504390254E-02 
889	 8.21204136404933E-02 
890	 8.17982779259778E-02 
891	 8.17972758365235E-02 
892	 8.16935433486983E-02 
893	 8.00955044666792E-02 
894	 0.079165665523539 
895	 7.84334927970135E-02 
896	 7.74003622837744E-02 
897	 7.87242559694247E-02 
898	 7.89532650888269E-02 
899	 7.74484535262228E-02 
900	 7.55810757535128E-02 
901	 7.62735306970162E-02 
902	 7.57508493469821E-02 
903	 0.074746291235623 
904	 7.49343679646488E-02 
905	 7.37801522477596E-02 
906	 7.22114761665747E-02 
907	 7.13840591973682E-02 
908	 7.21001029179247E-02 
909	 7.12085131999298E-02 
910	 6.97366579272446E-02 
911	 6.90514392168933E-02 
912	 6.98494982203285E-02 
913	 6.86638407169556E-02 
914	 6.64079510261486E-02 
915	 6.45012944887894E-02 
916	 6.37715642032818E-02 
917	 6.19278855947004E-02 
918	 6.05509443329624E-02 
919	 5.99728974362712E-02 
920	 0.058460689927821 
921	 5.69443650569797E-02 
922	 5.59916744863537E-02 
923	 5.52624964467688E-02 
924	 0.052523641775267 
925	 5.28508947661122E-02 
926	 5.22023139460497E-02 
927	 4.67546008122245E-02 
928	 4.90192311242702E-02 
929	 5.24904766793358E-02 
930	 0.05288414948931 
931	 4.82491245028272E-02 
932	 5.31307813866902E-02 
933	 4.75610410111542E-02 
934	 0.030942178928922 
935	 2.14620382132983E-02 
936	 2.99505415056102E-02 
937	 3.55747921596479E-02 
938	 3.35019570811415E-02 
939	 2.71986210272663E-02 
940	 2.76868133244038E-02 
941	 2.41175306736504E-02 
942	 2.32234151911747E-02 
943	 3.55644704149056E-02 
944	 0.033382970522167 
945	 3.84785149410311E-02 
946	 4.17959902322544E-02 
947	 2.37720875524966E-02 
948	 0.01871065520894 
949	 2.21136295844967E-02 
950	 2.70968143374446E-02 
951	 2.81605262113731E-02 
952	 2.13020869334165E-02 
953	 1.57205512073701E-02 
954	 1.67119504945288E-02 
955	 2.38093934600258E-02 
956	 2.93226283800206E-02 
957	 2.66888633434172E-02 
958	 2.17548480981699E-02 
959	 2.56437207744196E-02 
960	 0.03432305464055 
961	 2.81819583191852E-02 
962	 0.017997713972394 
963	 2.59893244480504E-02 
964	 0.030044400906625 
965	 2.88748605067004E-02 
966	 2.60077976697973E-02 
967	 2.55814844192474E-02 
968	 2.20224792012771E-02 
969	 2.26689504866419E-02 
970	 2.58301423041972E-02 
971	 2.38410373592372E-02 
972	 3.13658558651495E-02 
973	 3.44932501069439E-02 
974	 3.11422643226914E-02 
975	 3.21891217148991E-02 
976	 2.72116703711387E-02 
977	 2.71576195079231E-02 
978	 3.08493314783551E-02 
979	 2.73435553480053E-02 
980	 2.40596801692966E-02 
981	 2.51189472940972E-02 
982	 2.82556597800169E-02 
983	 0.027859309081766 
984	 2.75748745253114E-02 
985	 2.61621786336922E-02 
986	 2.49409816189187E-02 
987	 2.66637406984691E-02 
988	 2.89098709788538E-02 
989	 2.91575218621076E-02 
990	 2.68517348178803E-02 
991	 2.38410688048875E-02 
992	 2.72666329516708E-02 
993	 2.65089769990328E-02 
994	 2.29544999783069E-02 
995	 2.53694807460596E-02 
996	 2.72437725019207E-02 
997	 2.79116016124555E-02 
998	 2.72127086760119E-02 
999	 2.57588061829211E-02 
1000	 2.68325131183136E-02 
1001	 3.02796432654951E-02 
1002	 3.02655604554379E-02 
1003	 2.97710298138708E-02 
1004	 2.90694287274213E-02 
1005	 2.87346687754419E-02 
1006	 2.87604904095137E-02 
1007	 0.027951914622857 
1008	 2.72514036692266E-02 
1009	 2.66521455762191E-02 
1010	 2.51566954655958E-02 
1011	 2.51402352024062E-02 
1012	 0.026598239655406 
1013	 2.87323108128139E-02 
1014	 0.029746186373211 
1015	 3.13528573393021E-02 
1016	 3.15966201690786E-02 
1017	 2.97871500077504E-02 
1018	 2.94292606138284E-02 
1019	 2.95041470571081E-02 
1020	 2.94026299841944E-02 
1021	 2.97456081445108E-02 
1022	 2.95419700649852E-02 
1023	 3.00295617455165E-02 
1024	 3.03511424727274E-02 
1025	 2.98067254788361E-02 
1026	 3.07307084682476E-02 
1027	 3.14276789318102E-02 
1028	 3.20504377167109E-02 
1029	 3.22575588662326E-02 
1030	 3.30261084201351E-02 
1031	 3.31834994479329E-02 
1032	 3.21376719334219E-02 
1033	 3.20411811118299E-02 
1034	 3.23418372419851E-02 
1035	 3.25930563334615E-02 
1036	 3.32803562271381E-02 
1037	 3.36296163856427E-02 
1038	 3.37722746487068E-02 
1039	 3.41365158606465E-02 
1040	 3.39544990303695E-02 
1041	 3.40233655285071E-02 
1042	 3.49068845553071E-02 
1043	 3.66285154501277E-02 
1044	 3.73195202125006E-02 
1045	 3.86768004176908E-02 
1046	 3.86891166778496E-02 
1047	 3.68963952096694E-02 
1048	 0.036576595797597 
1049	 3.62065932093684E-02 
1050	 0.036354146754685 
1051	 3.76980723406476E-02 
1052	 3.82452611013344E-02 
1053	 0.038668061850713 
1054	 3.89184662124171E-02 
1055	 3.86231317752038E-02 
1056	 3.86707424674114E-02 
1057	 3.88004888946187E-02 
1058	 3.88687367071457E-02 
1059	 3.93245561071217E-02 
1060	 4.01094790254176E-02 
1061	 4.07517931302129E-02 
1062	 4.23161707271033E-02 
1063	 4.20827253705711E-02 
1064	 4.04042914321064E-02 
1065	 3.99018507784946E-02 
1066	 3.82178153989691E-02 
1067	 3.80755862780649E-02 
1068	 4.00614008171681E-02 
1069	 4.09383464509497E-02 
1070	 4.22259670754597E-02 
1071	 4.27016678083005E-02 
1072	 4.25792942611315E-02 
1073	 4.20117858276668E-02 
1074	 0.04137878850094 
1075	 3.96919937904665E-02 
1076	 3.98809876863036E-02 
1077	 4.12863409305686E-02 
1078	 4.12803933872781E-02 
1079	 4.20107837586979E-02 
1080	 0.041446191876944 
1081	 0.037895794490385 
1082	 3.74365110506154E-02 
1083	 3.93709286890074E-02 
1084	 3.94352143116083E-02 
1085	 3.98681061378464E-02 
1086	 4.00770803170379E-02 
1087	 3.85099071959047E-02 
1088	 3.75962794795638E-02 
1089	 3.68717802222082E-02 
1090	 3.79054270209845E-02 
1091	 3.74345510170303E-02 
1092	 3.56544628088901E-02 
1093	 0.035612543019521 
1094	 3.61359496887097E-02 
1095	 3.67477482139011E-02 
1096	 3.93414596242749E-02 
1097	 3.99148317489688E-02 
1098	 3.89348289605876E-02 
1099	 3.89126339885202E-02 
1100	 3.82324906168556E-02 
1101	 0.037817713101801 
1102	 3.88277088727626E-02 
1103	 3.87968812761636E-02 
1104	 3.79918267137697E-02 
1105	 3.63539516853988E-02 
1106	 3.56579329017304E-02 
1107	 0.033672316869252 
1108	 3.24374746323626E-02 
1109	 3.53092159507129E-02 
1110	 3.67009033913781E-02 
1111	 4.00281894570521E-02 
1112	 4.09004162586827E-02 
1113	 3.93814393991359E-02 
1114	 4.07710136457391E-02 
1115	 4.42334586781416E-02 
1116	 4.48918733987428E-02 
1117	 4.42040846002907E-02 
1118	 4.55790418501027E-02 
1119	 3.84705658863199E-02 
1120	 0.041185691829527 
1121	 7.03765267503969E-02 
1122	 9.34280700401394E-02 
1123	 0.107357399422723 
1124	 0.118365773837841 
1125	 8.18364132038787E-02 
1126	 0.050545615251655 
1127	 6.13761460790155E-02 
1128	 9.68417493668342E-02 
1129	 9.15899173923633E-02 
1130	 9.02490458720953E-02 
1131	 8.16519641629024E-02 
1132	 3.32332584664822E-02 
1133	 0.028847084063517 
1134	 6.20869165430818E-02 
1135	 6.30031683681403E-02 
1136	 5.58370725242772E-02 
1137	 5.46103353337172E-02 
1138	 4.40235569735303E-02 
1139	 3.67502321950793E-02 
1140	 5.32258999946383E-02 
1141	 6.42166076917087E-02 
1142	 5.48163213932743E-02 
1143	 5.16591865430211E-02 
1144	 4.71628804005578E-02 
1145	 4.75683395759677E-02 
1146	 6.44769793110843E-02 
1147	 6.12672328494735E-02 
1148	 4.44977897955019E-02 
1149	 4.60414404909551E-02 
1150	 4.36836886526116E-02 
1151	 0.042356874878894 
1152	 3.93861953292585E-02 
1153	 3.57696006688105E-02 
1154	 3.36326725915998E-02 
1155	 2.89508237254161E-02 
1156	 3.23400335547639E-02 
1157	 3.59911257684789E-02 
1158	 3.33867563510318E-02 
1159	 0.029986358769307 
1160	 3.02740012925727E-02 
1161	 3.12481622182522E-02 
1162	 3.08113949159538E-02 
1163	 3.07898416719893E-02 
1164	 3.02928225460951E-02 
1165	 2.84055636681839E-02 
1166	 2.83377629819393E-02 
1167	 3.00655070453523E-02 
1168	 2.95190869526453E-02 
1169	 2.80543990243986E-02 
1170	 2.96210712217239E-02 
1171	 2.95617213779525E-02 
1172	 2.75447953846524E-02 
1173	 2.74341388847583E-02 
1174	 2.88690306748358E-02 
1175	 2.82793375095218E-02 
1176	 2.65637432384616E-02 
1177	 0.026537281335153 
1178	 2.61940115604746E-02 
1179	 0.025525659340097 
1180	 2.58189890536352E-02 
1181	 2.79484145963211E-02 
1182	 2.92219806354377E-02 
1183	 2.78053756869705E-02 
1184	 0.027367739394422 
1185	 2.81565899684028E-02 
1186	 2.68427220262102E-02 
1187	 0.025585824100582 
1188	 2.75141561791989E-02 
1189	 2.81006330279437E-02 
1190	 2.60638771236509E-02 
1191	 2.68365537564461E-02 
1192	 2.77771710784846E-02 
1193	 2.82321241712975E-02 
1194	 2.70052862042014E-02 
1195	 2.84860923275856E-02 
1196	 2.95724622478053E-02 
1197	 2.83024642207529E-02 
1198	 2.81143384598303E-02 
1199	 2.83466643137949E-02 
1200	 0.02730660697749 
1201	 2.63760205136179E-02 
1202	 2.63208932669514E-02 
1203	 2.65346978085242E-02 
1204	 2.73746837930074E-02 
1205	 2.84728133860323E-02 
1206	 2.75490064844863E-02 
1207	 2.68903227294086E-02 
1208	 2.70656591859811E-02 
1209	 2.60621743373004E-02 
1210	 2.61340637052479E-02 
1211	 2.65420878826193E-02 
1212	 2.63043874412969E-02 
1213	 2.59876418677194E-02 
1214	 2.59679993212155E-02 
1215	 2.60753122803654E-02 
1216	 2.64420041850191E-02 
1217	 2.63575967924603E-02 
1218	 0.026167463842197 
1219	 2.57870286614773E-02 
1220	 0.025216935478803 
1221	 2.51901558857032E-02 
1222	 2.60011452622757E-02 
1223	 2.66155807859175E-02 
1224	 2.68792407539474E-02 
1225	 0.027064438488332 
1226	 2.65795199255756E-02 
1227	 2.62159230312153E-02 
1228	 2.63278297976629E-02 
1229	 2.65977879627331E-02 
1230	 2.68954758140183E-02 
1231	 2.72044707322531E-02 
1232	 2.74574304301646E-02 
1233	 2.74901162053477E-02 
1234	 2.73512975301494E-02 
1235	 2.71706207012501E-02 
1236	 2.67995807242349E-02 
1237	 2.68186167226378E-02 
1238	 2.68193872104613E-02 
1239	 2.72088238345645E-02 
1240	 2.76188056985937E-02 
1241	 2.71788868034306E-02 
1242	 2.62364652521723E-02 
1243	 2.59088801419759E-02 
1244	 2.61362204191718E-02 
1245	 2.69319907989068E-02 
1246	 2.77360861806732E-02 
1247	 2.73484410857566E-02 
1248	 2.67573261402263E-02 
1249	 2.64253537929439E-02 
1250	 2.60641333445333E-02 
1251	 2.63201904504158E-02 
1252	 2.65761688512808E-02 
1253	 2.64730960506077E-02 
1254	 2.66715490932575E-02 
1255	 2.73573198817301E-02 
1256	 2.76083637584319E-02 
1257	 2.76380371311224E-02 
1258	 2.74832549663201E-02 
1259	 2.68445042653779E-02 
1260	 2.67617748428467E-02 
1261	 2.70921586738016E-02 
1262	 2.67706946007604E-02 
1263	 2.63774937336876E-02 
1264	 2.60759596383339E-02 
1265	 2.56177686103929E-02 
1266	 2.57129952996001E-02 
1267	 2.58000142585526E-02 
1268	 2.57634530027117E-02 
1269	 2.61058766322777E-02 
1270	 2.59919067123541E-02 
1271	 2.59147823826276E-02 
1272	 2.64305865371197E-02 
1273	 2.65013918170014E-02 
1274	 2.60553163602262E-02 
1275	 2.66071895202993E-02 
1276	 2.76891793981369E-02 
1277	 2.75478257903182E-02 
1278	 2.68251022943191E-02 
1279	 2.68713872103612E-02 
1280	 2.71029391732823E-02 
1281	 2.68932861912812E-02 
1282	 2.65135588431153E-02 
1283	 2.68599002644645E-02 
1284	 2.76349483597397E-02 
1285	 2.71792067707418E-02 
1286	 2.59815978969667E-02 
1287	 2.64207992920695E-02 
1288	 2.72562570684859E-02 
1289	 2.69337944308483E-02 
1290	 2.67309847134359E-02 
1291	 2.81378115604025E-02 
1292	 2.84068411856205E-02 
1293	 2.72834115374052E-02 
1294	 2.68555275809138E-02 
1295	 2.72843736977525E-02 
1296	 2.71040323212017E-02 
1297	 2.60164462354088E-02 
1298	 2.59035381108681E-02 
1299	 2.64508449841003E-02 
1300	 2.62816812269107E-02 
1301	 2.63163859787016E-02 
1302	 2.71982718896453E-02 
1303	 2.79939648902121E-02 
1304	 0.028060075290153 
1305	 2.74236472008847E-02 
1306	 2.68325838015724E-02 
1307	 2.68785976589613E-02 
1308	 2.71420675520909E-02 
1309	 2.61333208364432E-02 
1310	 2.60245513622722E-02 
1311	 2.84683833834415E-02 
1312	 2.94139661276406E-02 
1313	 2.92154497546067E-02 
1314	 2.92547545701944E-02 
1315	 2.82970718621936E-02 
1316	 2.85283648367417E-02 
1317	 3.00210269850204E-02 
1318	 3.00042348031941E-02 
1319	 3.00386077848197E-02 
1320	 3.04438183617693E-02 
1321	 2.87006719141677E-02 
1322	 2.86608706858694E-02 
1323	 3.00237000991641E-02 
1324	 3.16936735177435E-02 
1325	 3.32238664968941E-02 
1326	 3.02074388627252E-02 
1327	 3.03725248561654E-02 
1328	 0.030562531493355 
1329	 2.51534345438769E-02 
1330	 2.79182830315789E-02 
1331	 3.08769675195254E-02 
1332	 0.026625487866508 
1333	 2.95419168324137E-02 
1334	 3.54066452656075E-02 
1335	 3.86895535803108E-02 
1336	 4.37267656742673E-02 
1337	 4.41119171492841E-02 
1338	 3.73559661401369E-02 
1339	 3.83359443625297E-02 
1340	 4.24309819852968E-02 
1341	 3.96578502685308E-02 
1342	 0.034626180166081 
1343	 3.76233521228477E-02 
1344	 3.96796544081795E-02 
1345	 3.91056169164805E-02 
1346	 6.19982193701952E-02 
1347	 6.73572606532651E-02 
1348	 3.98937111677088E-03 
1349	-4.12984914374028E-03 
1350	 8.36719998017672E-02 
1351	 0.140982558338243 
1352	 0.2634299018186 
1353	 0.424163482489994 
1354	 0.544644915839633 
1355	 0.593116072433763 
1356	 0.45409640559485 
1357	 0.648346227286519 
1358	 0.97438993760796 
1359	 0.600062786206164 
1360	 0.511684842816523 
1361	 0.677061663145548 
1362	 0.756864334574016 
1363	 0.645569197489301 
1364	 1.28056284152167 
1365	 12.8112712594883 
1366	 3.529067856113 
1367	 0.958497340350354 
1368	 0.510799120587438 
1369	-9.54795933909391E-03 
1370	-3.02561110604211E-02 
1371	 0.455726746693791 
1372	 0.44680709588587 
1373	 1.95245437117635E-03 
1374	 9.35856186815103E-02 
1375	 0.388421049327957 
1376	 0.324924806037181 
1377	 0.353614425421909 
1378	 0.433318339490737 
1379	-3.55131669913249E-02 
1380	-2.92155584219312E-02 
1381	 3.46646045294319 
1382	 4.28477588558976 
1383	 0.787164127869718 
1384	 0.857250284766135 
1385	 1.41124672981924 
1386	 1.18391100005077 
1387	 2.00743653537479 
1388	 2.51630144089968 
1389	 1.07888078959772 
1390	 0.915768044676934 
1391	 1.21495825608684 
1392	 2.42648373173453 
1393	 1.7909890648098 
1394	 1.00993587075517 
1395	 1.07941641615673 
1396	 0.995781504646499 
1397	 0.665801116402852 
1398	 0.382858428844823 
1399	 2.70799608771316E-02 
1400	 3.08392937898487E-02 
1401	-5.45062605822813E-03 
1402	-0.172808817918631 
1403	 0.120093139087066 
1404	 1.12308093532819 
1405	 1.52138964035656 
1406	 1.62844684105464 
1407	 1.82422149284568 
1408	 1.56561075779652 
1409	 1.39650827522492 
1410	 1.35759300650406 
1411	 1.12788999980807 
1412	 0.432275554681444 
1413	 0.219726266318254 
1414	 2.09537419711427E-02 
1415	-0.109886038265257 
1416	 0.779410890658843 
1417	 0.944351305651401 
1418	 0.529499782941612 
1419	 0.560502054667717 
1420	 0.450533789950282 
1421	 0.388394388030776 
1422	 0.573650687695325 
1423	 0.758434614527843 
1424	 0.944816061441159 
1425	 0.711702250788356 
1426	 0.307532385803206 
1427	 0.245660147278606 
1428	 0.182913188620179 
1429	 7.58477057142788E-02 
1430	 1.33650421579271E-02 
1431	 6.98570371007095E-02 
1432	 0.213178930550391 
1433	 0.186659046928424 
1434	 0.167679727945598 
1435	 0.347278708985765 
1436	 0.324109938600671 
1437	 0.356550360570252 
1438	 0.99936582669511 
1439	 1.05421464566104 
1440	 0.650070225544706 
1441	 0.496301193158273 
1442	 0.467298354581638 
1443	 0.482917937802966 
1444	 0.449716346090867 
1445	 0.307434124085653 
1446	 0.125326518009652 
1447	 2.86330753304249E-02 
1448	 0.122344272238829 
1449	 0.161383385974914 
1450	 0.098161433823768 
1451	 0.133577744261821 
1452	 0.130661743428836 
1453	 3.53818055926653E-02 
1454	 1.96704931416129E-02 
1455	 6.83898172009039E-02 
1456	 0.100252268479704 
1457	 0.124545830754757 
1458	 0.129385338697785 
1459	 0.158235116332383 
1460	 0.140802637753922 
1461	 5.20679209575141E-02 
1462	 4.37298793367459E-02 
1463	 7.69604557557956E-02 
1464	 8.17157964926516E-02 
1465	 0.112066787427 
1466	 0.125374187247807 
1467	 0.107219436775891 
1468	 9.79737396935809E-02 
1469	 0.106933803332421 
1470	 8.09541138356523E-02 
1471	-2.83253502852741E-03 
1472	 1.41302963347205E-02 
1473	 0.101195513358856 
1474	 8.37137441372066E-02 
1475	 4.27409585325223E-02 
1476	 0.056060177781989 
1477	 4.98390340766549E-02 
1478	 3.77654329227939E-02 
1479	 0.078683294712811 
1480	 8.07818506709584E-02 
1481	 4.10463757695952E-02 
1482	 1.53676668671579E-02 
1483	-1.37719368581478E-02 
1484	-8.58150490419521E-03 
1485	-2.15641196083672E-04 
1486	 4.01783085518873E-03 
1487	 0.024017851666185 
1488	 3.84670077729043E-02 
1489	 5.03024339651181E-02 
1490	 4.90353253254934E-02 
1491	 4.98553048412488E-02 
1492	 4.68707175127943E-02 
1493	 2.66273627909966E-02 
1494	 2.31412252336443E-02 
1495	 3.20552585978592E-02 
1496	 3.24783840556539E-02 
1497	 3.17059053849282E-02 
1498	 3.28282589628868E-02 
1499	 3.42724818767181E-02 
1500	 3.15764106971321E-02 
1501	 2.81227434576897E-02 
1502	 2.62626001641884E-02 
1503	 1.86801816879015E-02 
1504	 1.72288052498685E-02 
1505	 2.25866866899353E-02 
1506	 2.42099079431853E-02 
1507	 2.37164347854866E-02 
1508	 0.024566186141501 
1509	 2.31361149995831E-02 
1510	 2.14252956511906E-02 
1511	 2.14189799779227E-02 
1512	 0.020448219859089 
1513	 2.35863414943087E-02 
1514	 2.74143159882689E-02 
1515	 2.75984661568919E-02 
1516	 0.029370642184075 
1517	 2.61339788588276E-02 
1518	 2.17369087918534E-02 
1519	 0.022161798410492 
1520	 2.17586883454873E-02 
1521	 2.25261447980965E-02 
1522	 2.42449188539357E-02 
1523	 2.43426895143544E-02 
1524	 2.30179602210676E-02 
1525	 1.98965791509444E-02 
1526	 1.87551710213253E-02 
1527	 1.97799303838482E-02 
1528	 2.09398394656532E-02 
1529	 2.33780404683677E-02 
1530	 2.46861193300772E-02 
1531	 0.023242191520587 
1532	 2.12604889063997E-02 
1533	 2.16152575347772E-02 
1534	 2.27186569357207E-02 
1535	 2.14427138442237E-02 
1536	 2.19176361725825E-02 
1537	 2.28164776055147E-02 
1538	 2.06552239517227E-02 
1539	 2.11519080324427E-02 
1540	 2.21513221593856E-02 
1541	 2.03706362647833E-02 
1542	 2.05684592488596E-02 
1543	 0.02270798704724 
1544	 0.024264060468082 
1545	 0.025555394509852 
1546	 2.63481684378742E-02 
1547	 2.51233552849192E-02 
1548	 2.43344053465971E-02 
1549	 2.56615504467472E-02 
1550	 2.57699164782317E-02 
1551	 2.37371564426618E-02 
1552	 0.022604609389185 
1553	 2.26367965504846E-02 
1554	 2.22750657282849E-02 
1555	 2.31523121376911E-02 
1556	 2.40110588482733E-02 
1557	 2.26564422938216E-02 
1558	 2.20283425647616E-02 
1559	 0.02395368613296 
1560	 2.46438645111581E-02 
1561	 2.29119853828149E-02 
1562	 2.30136481950462E-02 
1563	 2.44636716887526E-02 
1564	 2.47587017566178E-02 
1565	 0.025775708648893 
1566	 0.02643550442433 
1567	 2.39460928132375E-02 
1568	 2.23838702047947E-02 
1569	 2.31085209851195E-02 
1570	 2.40600217446347E-02 
1571	 2.54663778137729E-02 
1572	 2.64821024502802E-02 
1573	 2.75042184540907E-02 
1574	 2.68252831127807E-02 
1575	 2.55013287135767E-02 
1576	 2.63266267770098E-02 
1577	 2.61318732440719E-02 
1578	 0.025090743826319 
1579	 2.58844513173527E-02 
1580	 2.55158516787862E-02 
1581	 2.29660976341075E-02 
1582	 2.17236157621102E-02 
1583	 2.10343402756169E-02 
1584	 2.05802846335281E-02 
1585	 2.23204968890001E-02 
1586	 2.38311028018367E-02 
1587	 2.40911580942099E-02 
1588	 2.52267403418215E-02 
1589	 2.57263300478348E-02 
1590	 2.49569549648151E-02 
1591	 0.024941780519241 
1592	 2.40478230141978E-02 
1593	 2.29672222330199E-02 
1594	 2.34854891412731E-02 
1595	 2.27729357744922E-02 
1596	 2.31152126149019E-02 
1597	 2.47504735536463E-02 
1598	 2.35524021116877E-02 
1599	 2.32350266753674E-02 
1600	 2.40695495271707E-02 
1601	 0.02361588862645 
1602	 2.40187682415114E-02 
1603	 2.46503575455912E-02 
1604	 2.40219112601232E-02 
1605	 2.31873704095418E-02 
1606	 2.45422383031123E-02 
1607	 2.70055023492126E-02 
1608	 2.73411649625643E-02 
1609	 2.49055452529796E-02 
1610	 2.31616761071873E-02 
1611	 2.37013561941957E-02 
1612	 2.31147922905901E-02 
1613	 2.28176545292703E-02 
1614	 2.37887939330207E-02 
1615	 2.36132029179361E-02 
1616	 0.023563762367637 
1617	 2.41946678862349E-02 
1618	 2.42361486790378E-02 
1619	 2.34889411254518E-02 
1620	 2.21806983123291E-02 
1621	 2.18554565558405E-02 
1622	 2.24162956012739E-02 
1623	 0.022505680479381 
1624	 2.30932862105001E-02 
1625	 2.30083055358537E-02 
1626	 2.27023791905432E-02 
1627	 0.023598057368212 
1628	 0.024093146174567 
1629	 2.46231040448899E-02 
1630	 2.48085914784947E-02 
1631	 2.38477119955066E-02 
1632	 2.33143069356782E-02 
1633	 2.37287792686013E-02 
1634	 2.41069925438055E-02 
1635	 2.30937993120135E-02 
1636	 2.26161501999986E-02 
1637	 2.49690194101671E-02 
1638	 2.61383802147883E-02 
1639	 2.55706928878969E-02 
1640	 2.51072619693596E-02 
1641	 0.023050573586951 
1642	 2.17866484815493E-02 
1643	 2.32899899643024E-02 
1644	 2.47439211569054E-02 
1645	 2.41319723068113E-02 
1646	 2.39036100112703E-02 
1647	 0.025720075737479 
1648	 2.59444873738198E-02 
1649	 2.40419568999128E-02 
1650	 0.023168046094142 
1651	 2.19920240541323E-02 
1652	 2.06538955188579E-02 
1653	 2.39836340693359E-02 
1654	 0.024506996034869 
1655	 2.26598117226742E-02 
1656	 2.35614796258596E-02 
1657	 2.62450549423031E-02 
1658	 2.53632410940027E-02 
1659	 0.023022234311053 
1660	 2.24245029775302E-02 
1661	 2.01408738585148E-02 
1662	 1.97996268048445E-02 
1663	 2.32588268703035E-02 
1664	 2.32716109088722E-02 
1665	 1.98442672235167E-02 
1666	 2.08106649416864E-02 
1667	 2.39353742395724E-02 
1668	 2.57638531290697E-02 
1669	 2.71854716373129E-02 
1670	 2.57371763823403E-02 
1671	 2.50394659675349E-02 
1672	 2.63601705314346E-02 
1673	 2.63365703643977E-02 
1674	 2.61670032335665E-02 
1675	 2.73658637785438E-02 
1676	 2.80239941174039E-02 
1677	 2.84079787638914E-02 
1678	 2.71716038178308E-02 
1679	 2.44580741869486E-02 
1680	 2.26245468812869E-02 
1681	 2.29805656889891E-02 
1682	 2.52292239212497E-02 
1683	 2.62142603790607E-02 
1684	 2.63278956864474E-02 
1685	 2.61464365106646E-02 
1686	 2.52044272924741E-02 
1687	 2.46988776509381E-02 
1688	 2.49352441119561E-02 
1689	 2.54293914162358E-02 
1690	 2.67469434527079E-02 
1691	 2.89473094892581E-02 
1692	 2.95163645453609E-02 
1693	 2.85674367210587E-02 
1694	 2.79531482564223E-02 
1695	 2.80884392530201E-02 
1696	 2.71168311355229E-02 
1697	 2.47364424401435E-02 
1698	 2.44593397166483E-02 
1699	 2.50467251029385E-02 
1700	 2.52607248689738E-02 
1701	 2.66327999768135E-02 
1702	 2.57402072472866E-02 
1703	 2.33971980082603E-02 
1704	 2.32469271378659E-02 
1705	 2.42782890956013E-02 
1706	 2.83304025314525E-02 
1707	 2.98310209609024E-02 
1708	 2.47760436777099E-02 
1709	 2.40654851237757E-02 
1710	 2.46097761452468E-02 
1711	 2.14796547334098E-02 
1712	 2.35200193356742E-02 
1713	 2.16857828241323E-02 
1714	 2.12303586746765E-02 
1715	 2.41366167540015E-02 
1716	 2.58388203258235E-02 
1717	 2.56295521959331E-02 
1718	 2.31550300818891E-02 
1719	 2.20114915162274E-02 
1720	 2.51545555036004E-02 
1721	 2.85291253221583E-02 
1722	 2.84788780470749E-02 
1723	 2.55923876612035E-02 
1724	 2.18414395418976E-02 
1725	 1.89717432155205E-02 
1726	 2.04272202715421E-02 
1727	 2.36564689940514E-02 
1728	 2.57078004354684E-02 
1729	 2.81157059767883E-02 
1730	 2.78051471229059E-02 
1731	 2.65136492545842E-02 
1732	 2.71235183612065E-02 
1733	 2.62591387359218E-02 
1734	 2.66609182202012E-02 
1735	 2.82587792514934E-02 
1736	 0.025843718689943 
1737	 0.025790184303326 
1738	 2.96477603967246E-02 
1739	 2.81659642479664E-02 
1740	 2.84635987807755E-02 
1741	 3.38424440799301E-02 
1742	 3.35876040177321E-02 
1743	 3.08220609568182E-02 
1744	 2.97131539429993E-02 
1745	 2.67879829228356E-02 
1746	 2.43666390187683E-02 
1747	 2.41939122864175E-02 
1748	 2.70588921866074E-02 
1749	 2.61093430176829E-02 
1750	 2.33704508506839E-02 
1751	 2.35392923088802E-02 
1752	 0.023675808670861 
1753	 2.19328480221591E-02 
1754	 1.85676845154447E-02 
1755	 2.11041696103391E-02 
1756	 2.93394268741319E-02 
1757	 3.11371015716613E-02 
1758	 2.71473815167322E-02 
1759	 1.85337603321503E-02 
1760	 1.50617466182166E-02 
1761	 2.37661711919949E-02 
1762	 3.68202856909064E-02 
1763	 3.57510469153501E-02 
1764	 2.28358502881031E-02 
1765	 1.46903160830882E-02 
1766	 0.010664315941651 
1767	 2.25151665589573E-02 
1768	 4.37496388294913E-02 
1769	 0.04084324381239 
1770	 2.96966638207152E-02 
1771	 2.26759283164947E-02 
1772	 0.00754466265962 
1773	 1.44146872595764E-02 
1774	 2.66041101886194E-02 
1775	 1.05932880644916E-02 
1776	 1.32016797468134E-02 
1777	 1.30063409096075E-02 
1778	 0.012293390833847 
1779	 4.19656155024537E-02 
1780	 4.33780713404372E-02 
1781	 1.12271074362166E-02 
1782	 1.20112211795727E-02 
1783	 0.016612502609873 
1784	 1.58889069235699E-02 
1785	 3.63377369583413E-02 
1786	 3.97891464277619E-02 
1787	 2.49361384390251E-02 
1788	 2.58026535757695E-02 
1789	 3.71124407246129E-02 
1790	 3.12419743062057E-02 
1791	 2.53356792908345E-02 
1792	 3.44705950135985E-02 
1793	 6.20319671182962E-02 
1794	 4.62745160739699E-02 
1795	 2.09970683672265E-03 
1796	 1.39663557757513E-02 
1797	-4.48571618511802E-02 
1798	-2.89505960843644E-02 
1799	 0.110374039434787 
1800	 4.22644616260976E-02 
1801	 2.40373709401809E-02 
1802	-0.146220866408951 
1803	-0.146563557850838 
1804	 0.194613448818456 
1805	 0.350720619828962 
1806	 1.25589364317968 
1807	 2.73959192022696 
1808	 6.08150974021628 
1809	-37.6048694469651 
1810	 12.2079606142747 
1811	 2.30146576286614 
1812	-0.309873065945682 
1813	-0.366455514969656 
1814	-0.177511778615881 
1815	 0.163117119911801 
1816	 2.97710600084309 
1817	 1.53454666362468 
1818	 1.12944202321867 
1819	 5.05711061231652 
1820	 4.00444320652255 
1821	 7.16333649102484E-03 
1822	-0.15722487512751 
1823	-0.211291233135838 
1824	-0.200673770693822 
1825	 0.714202656055512 
1826	 1.83967433320216 
1827	-52.6171610137477 
1828	-26.5430052058094 
1829	 3.09225240467883 
1830	 1.76546535697316 
1831	 0.127055570566338 
1832	 8.61995020816996E-02 
1833	 0.288475903204226 
1834	 0.230561927682575 
1835	-2.00245613917512E-02 
1836	-1.95151738918978E-02 
1837	 4.28116542587288E-02 
1838	 0.187494242666962 
1839	 0.87579230735754 
1840	 3.21344309532508 
1841	 5.79460095121799 
1842	 3.06643490446812 
1843	 3.81879413209385 
1844	 3.93104109719771 
1845	 4.96317908383305 
1846	-3.58225620830304 
1847	-2.31786399503051 
1848	 20.6347462617072 
1849	-2.56306359547525 
1850	-0.655487836358503 
1851	-0.252777376099755 
1852	 0.131312950064053 
1853	 0.564927310481364 
1854	 0.72285429208619 
1855	 0.522707428351611 
1856	-0.42473086380609 
1857	 29.1608854743124 
1858	 1.21575257587062 
1859	 1.7133366444107 
1860	 0.956047493600047 
1861	 0.432723250656177 
1862	 0.165801231084611 
1863	 0.346757741447656 
1864	 1.096431720914 
1865	 1.44999872280844 
1866	 1.76496092834095 
1867	 2.73928342590815 
1868	 3.45508932096595 
1869	 3.52180311153943 
1870	 6.99558172578515 
1871	-37.7468326713665 
1872	 21.5111265531451 
1873	 8.51616283684812 
1874	-5.15948890634274 
1875	 0.130044382113913 
1876	 0.173247476002296 
1877	-0.654722127923827 
1878	-3.57712240689788 
1879	 2.88016776005808 
1880	 1.40121442634026 
1881	-7.56769101490208E-02 
1882	-0.380823402113387 
1883	-0.406352585563692 
1884	-0.259964539213049 
1885	 0.10067921192493 
1886	 0.148792098261036 
1887	 8.32181929685456E-02 
1888	 1.34424061608178 
1889	 1.7677701763382 
1890	 1.31452429876963 
1891	 1.29891619337265 
1892	 0.910263014484258 
1893	 0.615491519245409 
1894	 0.740548787253359 
1895	 0.744835977961951 
1896	 0.249641616609099 
1897	 0.37431043807835 
1898	 0.428653309243915 
1899	 0.655555061077337 
1900	 0.700347335720209 
1901	 0.781497576357885 
1902	 0.667804505704327 
1903	 3.84464393023767E-02 
1904	-0.308303292109649 
1905	 9.09156666399267E-02 
1906	 0.712771707163771 
1907	 0.884810744576226 
1908	 1.09278563409716 
1909	 1.83465950232929 
1910	 1.99363398552928 
1911	 1.46161825534021 
1912	 1.67519182413254 
1913	 3.01627746165673 
1914	 48.4131606559019 
1915	-6.25756933979081 
1916	-1.75851917116397 
1917	-1.9487796175766 
1918	-2.0348558721962 
1919	-8.41811989970946 
1920	-15.1556676205466 
1921	-4.39499461818603 
1922	-11.2235550284344 
1923	-10.7146538536701 
1924	-27.1889381562528 
1925	 5.36172202834559 
1926	 2.84222255986881 
1927	 1.45140618926225 
1928	 0.785070923612907 
1929	 1.11719203548339 
1930	 1.74929110647806 
1931	 3.54039941317257 
1932	 34.8900171597042 
1933	 8.88529763103474 
1934	 2.04703525600094 
1935	 1.95652699287206 
1936	 1.83826846161222 
1937	 2.48010038843807 
1938	 1.8794623453403 
1939	 1.24085383170539 
1940	 0.805744438004516 
1941	 0.886351427678621 
1942	 0.508609191479924 
1943	 1.00529579988086 
1944	 5.55546874191359 
1945	-6.44898050904936 
1946	-3.11492458321296 
1947	-1.35499407235032 
1948	-1.19160744839601 
1949	-1.35446325695958 
1950	-1.31033144504505 
1951	-3.32891079648018 
1952	-20.8253774966916 
1953	-19.6342768294187 
1954	-5.58346214105829 
1955	 5.81717336058491 
1956	-3.90102456429575 
1957	-10.798470929447 
1958	-3.10320660324954 
1959	-1.28426659684532 
1960	-0.418903053177417 
1961	-2.34346587495584E-02 
1962	 0.235045327345934 
1963	 0.164788869309616 
1964	-9.09825092675692E-02 
1965	-0.217526041664381 
1966	-0.244736131627593 
1967	-0.291157131239147 
1968	-0.289274032599831 
1969	-0.159425585615616 
1970	 7.1908851854125E-03 
1971	 9.97533174060888E-02 
1972	 0.14427409405801 
1973	 0.180307189572503 
1974	 0.148089076623546 
1975	 0.103171491212284 
1976	 0.122110284758113 
1977	 0.167593129098451 
1978	 0.221478448401409 
1979	 0.261499549322027 
1980	 0.325071055832109 
1981	 0.328487507055073 
1982	 0.253999300508736 
1983	 0.181681229443248 
1984	 0.104420109045761 
1985	 1.35281600942537E-02 
1986	 4.50036961523197E-03 
1987	 1.03016813923497E-02 
1988	 3.15533415077883E-04 
1989	 3.52111687659002E-03 
1990	 1.96106718903454E-02 
1991	 2.33449664973281E-02 
1992	-7.2513689228697E-03 
1993	-3.9608959463839E-03 
1994	 1.11311426944799E-02 
1995	 0.025238911474435 
1996	 4.73100063744988E-02 
1997	 0.133032858952723 
1998	 0.228673900935288 
1999	 0.252969100281666 
2000	 0.206841130321498 
2001	 0.268305269659184 
2002	 0.208540435543856 
2003	 0.126898693869234 
2004	 0.233409769320753 
2005	 0.136003523973658 
2006	 7.27137674924179E-02 
2007	 0.173824525777226 
2008	 0.279809070624693 
2009	 0.29026374696322 
2010	 0.315859750183088 
2011	 0.298897231012202 
2012	 0.185733670764405 
2013	 6.74108737147238E-02 
2014	 3.57280461424069E-03 
2015	 4.23141965812305E-02 
2016	 0.074816832146637 
2017	 5.39005862816362E-02 
2018	 8.02447481525796E-02 
2019	 0.121134075056868 
2020	 0.13882178928616 
2021	 0.136460801819992 
2022	 0.113101716987068 
2023	 9.96967057415162E-02 
2024	 0.086391125900542 
2025	 0.076360907556694 
2026	 7.13775687212855E-02 
2027	 6.97007740374722E-02 
2028	 6.13413944051434E-02 
2029	 5.50541550354013E-02 
2030	 3.71455147518588E-02 
2031	 7.63806316309798E-03 
2032	-0.016772364385785 
2033	-1.11049765578851E-02 
2034	 1.84345606285099E-03 
2035	 9.27389180564916E-03 
2036	 1.38054774267154E-02 
2037	 1.84319653579349E-02 
2038	 0.030497156797172 
2039	 3.62767926279228E-02 
2040	 5.79302724524867E-02 
2041	 0.059853659319484 
2042	 3.36596133658853E-02 
2043	 2.56370960663368E-02 
2044	 1.85267012247154E-02 
2045	 1.43215671876592E-02 
2046	 2.24506719117579E-02 
2047	 3.73702719983108E-02 
2048	 5.01966254381005E-02 
2049	 6.72658138004232E-02 
2050	 7.56927740420815E-02 
2051	 9.63193386098853E-02 
2052	 9.23127394516973E-02 
2053	 6.84818114083842E-02 
2054	 8.48793058181829E-02 
2055	 7.73760539161202E-02 
2056	 6.27120980809358E-02 
2057	 4.51680342711417E-02 
2058	 5.39398068482388E-02 
2059	 6.02794849951213E-02 
2060	 6.03180932908671E-02 
2061	 6.99844694901852E-02 
2062	 9.51896986115438E-02 
2063	 0.120374291080272 
2064	 0.121940438991633 
2065	 0.114400329867746 
2066	 0.126021899132504 
2067	 8.58870421284284E-02 
2068	 4.35613979235689E-02 
2069	 5.43360686161341E-02 
2070	 4.40532674109948E-02 
2071	 3.65945366537439E-02 
2072	 3.88023855313584E-02 
2073	 4.50448913423317E-02 
2074	 6.16697017281169E-02 
2075	 6.35243444912778E-02 
2076	 6.36482399269665E-02 
2077	 6.41071241992565E-02 
2078	 5.57102787984769E-02 
2079	 5.00549123460964E-02 
2080	 0.043766203044217 
2081	 4.51383904276881E-02 
2082	 5.05641031432883E-02 
2083	 0.044681306724896 
2084	 4.56874539760077E-02 
2085	 5.78817709644215E-02 
2086	 5.58029346552485E-02 
2087	 4.19600477552363E-02 
2088	 3.95391617438508E-02 
2089	 1.90709087691312E-02 
2090	 0.014011926820061 
2091	 4.41517363945151E-02 
2092	 4.45408411330834E-02 
2093	 3.07361086064167E-02 
2094	 3.36584035114403E-02 
2095	 3.62497290571809E-02 
2096	 2.83013259762865E-02 
2097	 0.025924671284753 
2098	 2.84583595017649E-02 
2099	 2.49995361382327E-02 
2100	 1.10785515535613E-02 
2101	 1.94207064772824E-02 
2102	 4.78326200582095E-02 
2103	 0.062251931199339 
2104	 6.13969807244724E-02 
2105	 6.63394347457901E-02 
2106	 6.00485672176782E-02 
2107	 5.82311800171698E-02 
2108	 6.56246432597946E-02 
2109	 7.36690849648473E-02 
2110	 7.17607174628155E-02 
2111	 4.66278874156565E-02 
2112	 2.87579840285703E-02 
2113	 1.90403839413144E-02 
2114	 2.17251536404936E-03 
2115	 4.0104337034482E-03 
2116	 3.46397102785504E-02 
2117	 4.11981778457261E-02 
2118	 4.27570045143057E-02 
2119	 4.42780020634081E-02 
2120	 3.84789732174231E-02 
2121	 2.92609632644306E-02 
2122	 3.26525186255485E-02 
2123	 3.46785782295462E-02 
2124	 3.20262102961538E-02 
2125	 3.01130014859149E-02 
2126	 2.40075922495146E-02 
2127	 2.91226401019484E-02 
2128	 3.95853247024852E-02 
2129	 5.08189738759683E-02 
2130	 5.55709354610964E-02 
2131	 4.78720685926645E-02 
2132	 3.91505763648771E-02 
2133	 0.024394060604001 
2134	 2.06022146540295E-02 
2135	 3.02549468455727E-02 
2136	 2.69604401537715E-02 
2137	 1.99567379907223E-02 
2138	 1.83393731522182E-02 
2139	 8.41740559627126E-03 
2140	 5.46256128645032E-03 
2141	 1.37055501308719E-02 
2142	 1.66046337244602E-02 
2143	 1.49878782827362E-02 
2144	 2.18899476641054E-02 
2145	 2.67041570311543E-02 
2146	 3.91374159291913E-02 
2147	 4.70487381520615E-02 
2148	 4.64273528557482E-02 
2149	 5.27230252423006E-02 
2150	 4.94110954867667E-02 
2151	 4.18742643405435E-02 
2152	 3.58294028845216E-02 
2153	 2.03993676142488E-02 
2154	 1.28981477997346E-02 
2155	 2.70793440169262E-02 
2156	 0.029945597767698 
2157	 3.33383069290962E-02 
2158	 4.64119175638565E-02 
2159	 4.52238439074958E-02 
2160	 2.90344020336427E-02 
2161	 2.45809431552345E-02 
2162	 1.37426105920638E-02 
2163	 1.47862086645123E-02 
2164	 2.83876516369094E-02 
2165	 0.036293679271533 
2166	 5.31206839073186E-02 
2167	 6.02241253907062E-02 
2168	 5.74309184230276E-02 
2169	 5.78857675843157E-02 
2170	 5.55343158092938E-02 
2171	 5.57984188416639E-02 
2172	 6.19250043714889E-02 
2173	 7.64939426168328E-02 
2174	 8.78013511305742E-02 
2175	 8.46356675618692E-02 
2176	 7.25319678751092E-02 
2177	 5.75890567016786E-02 
2178	 3.40367506683379E-02 
2179	 1.74595644662297E-02 
2180	 1.63956314011401E-02 
2181	 9.2394503348822E-03 
2182	 1.96928225969377E-02 
2183	 2.94867077792841E-02 
2184	 1.45667110269204E-02 
2185	-2.2847201830963E-03 
2186	-8.36286225764516E-03 
2187	-1.57984959222905E-02 
2188	-1.74613951442867E-02 
2189	 5.38582435678588E-04 
2190	 7.04839367923322E-03 
2191	-2.4110841128981E-03 
2192	 7.96991259842253E-03 
2193	 2.73986984806106E-02 
2194	 3.89728857594031E-02 
2195	 0.065806834427661 
2196	 7.64491119120247E-02 
2197	 7.21456029265591E-02 
2198	 7.67188277365909E-02 
2199	 8.32207050267175E-02 
2200	 7.71039388124342E-02 
2201	 8.90533259594439E-02 
2202	 0.09315570155237 
2203	 9.11354822790042E-02 
2204	 9.98060975510912E-02 
2205	 8.43090291056799E-02 
2206	 6.36315197074939E-02 
2207	 5.68953086452972E-02 
2208	 6.49049320807551E-02 
2209	 7.04353409788821E-02 
2210	 7.79809173563616E-02 
2211	 6.05784803324052E-02 
2212	 2.79720388754493E-02 
2213	 3.10402621908393E-02 
2214	 1.78439550440144E-02 
2215	 1.35466914564885E-02 
2216	 2.77268747000475E-02 
2217	 3.26711477767596E-02 
2218	 2.93422631793692E-02 
2219	 3.59753828263142E-02 
2220	 5.24894340845603E-02 
2221	 5.70188009951232E-02 
2222	 5.68934989844941E-02 
2223	 5.58645627391985E-02 
2224	 4.96718167692581E-02 
2225	 5.05421986930418E-02 
2226	 4.76020579114432E-02 
2227	 4.95832055651191E-02 
2228	 7.52535090054301E-02 
2229	 6.52052364446474E-02 
2230	 0.025761927374317 
2231	 1.54835903290005E-02 
2232	-1.99519202592957E-03 
2233	-2.08816115122524E-02 
2234	-2.74966103493638E-02 
2235	-1.94853021939138E-02 
2236	-2.79785144102537E-02 
2237	-1.61983577156429E-02 
2238	 1.15433661695062E-02 
2239	 0.032936022161486 
2240	 4.66675028008122E-02 
2241	 5.66773313458625E-02 
2242	 6.02986097236871E-02 
2243	 4.93791733428415E-02 
2244	 3.76073541366239E-02 
2245	 3.88714119343953E-02 
2246	 4.46147760641869E-02 
2247	 5.50366104118835E-02 
2248	 6.21977662812524E-02 
2249	 4.71966788977037E-02 
2250	 4.00600078005363E-02 
2251	 4.49164379570177E-02 
2252	 4.33047737001122E-02 
2253	 3.82117858281116E-02 
2254	 2.42233951465584E-02 
2255	-2.52178934949961E-03 
2256	-1.57924603622127E-02 
2257	 4.36705758173371E-03 
2258	 2.47792993312158E-02 
2259	 5.58016973037943E-02 
2260	 7.01802575014706E-02 
2261	 7.76720191301103E-02 
2262	 7.97299757057784E-02 
2263	 0.070651055909353 
2264	 5.91902055245675E-02 
2265	 0.044209486134558 
2266	 3.23795325483383E-02 
2267	 8.96571677375924E-03 
2268	-1.06598945267288E-04 
2269	 1.00645046061826E-02 
2270	 1.73434354086171E-03 
2271	-2.67398866971961E-02 
2272	-2.30647719610984E-02 
2273	-4.84867968674636E-03 
2274	 1.70811486518422E-02 
2275	 8.96313020865887E-02 
2276	 0.101351848835282 
2277	 5.33647765659584E-02 
2278	 4.29154500860823E-02 
2279	 3.17581232669007E-02 
2280	 2.17291116858598E-02 
2281	 2.08456980080244E-02 
2282	 0.035233235685097 
2283	 5.94747501648876E-02 
2284	 6.84833872152145E-02 
2285	 9.86738078667687E-02 
2286	 0.139847477981656 
2287	 0.145534828627656 
2288	 9.95967333353327E-02 
2289	 6.78318807380488E-02 
2290	 0.08802534406642 
2291	 8.42442577715125E-02 
2292	 0.101097987297563 
2293	 0.14326533210037 
2294	 0.133542496549039 
2295	 9.07915954920283E-02 
2296	 5.44678164043014E-02 
2297	 3.64313494445724E-02 
2298	-5.97573162525831E-03 
2299	-3.95004566878202E-02 
2300	-0.028858957755022 
2301	-0.010218770319593 
2302	-1.28149328176565E-02 
2303	-1.56602388818185E-02 
2304	 1.56807877252744E-02 
2305	 1.87112296590264E-02 
2306	 0.012239438379091 
2307	 5.16035122134524E-02 
2308	 9.83683982498262E-02 
2309	 0.126044897001153 
2310	 0.178829532995873 
2311	 0.218144027352346 
2312	 0.156181766964265 
2313	 0.07842298596396 
2314	 0.044131229124355 
2315	 1.85279273012662E-02 
2316	-5.46205295576994E-02 
2317	-8.76050539495672E-02 
2318	-3.97641742430213E-02 
2319	-5.15647653152668E-04 
2320	 0.101003572536226 
2321	 0.15736347543848 
2322	 0.134309405416066 
2323	 0.140598079467966 
2324	 0.156985119870736 
2325	 0.236685210818294 
2326	 0.23609583108994 
2327	 0.19784015111162 
2328	 0.179084038906836 
2329	 0.127122660875942 
2330	 0.157256531754093 
2331	 0.153787048777532 
2332	 0.124242866442168 
2333	 0.114135063452369 
2334	 0.071613973439256 
2335	 0.11235421280512 
2336	 0.163658326865201 
2337	 0.069398894942769 
2338	-3.16036639023581E-02 
2339	-0.168793422528316 
2340	-0.473592665787027 
2341	-0.545747118979949 
2342	-0.352755981476694 
2343	-0.143538108341148 
2344	-7.38485879284092E-02 
2345	 0.129721304723944 
2346	 0.238901356591111 
2347	 0.299760260241772 
2348	 0.392199487306507 
2349	 0.348044257844232 
2350	 0.249593637724251 
2351	 0.31076020235347 
2352	 0.35229921520463 
2353	 0.270967868225262 
2354	 0.488945169240469 
2355	 0.550594342872846 
2356	 0.360026471069126 
2357	 0.124043000899365 
2358	-0.568863505192365 
2359	-0.989662281945332 
2360	-0.708423973670775 
2361	-0.22140338152171 
2362	 0.105484948459145 
2363	 0.329785642209238 
2364	 8.34095993096956E-02 
2365	 4.18487744530349E-02 
2366	 0.347923670340309 
2367	 0.604992591546005 
2368	 1.13595068296365 
2369	 1.84152116276586 
2370	 4.45474707260799 
2371	 2.53320206142478 
2372	 3.14770534540984 
2373	-2.14869100026062 
2374	-2.60592539469622 
2375	-1.64060776542573 
2376	-0.38318306796881 
2377	 0.308469564770818 
2378	 0.897754979387744 
2379	 2.43276674748097 
2380	 1.96222521230423 
2381	-1.38752223703626 
2382	 0.355745465773313 
2383	 0.930020017185796 
2384	 1.19259227769576 
2385	-11.5965788839029 
2386	-0.269515434925177 
2387	-0.118880963050432 
2388	 0.130761709544354 
2389	 0.323662532474294 
2390	 0.430029495835348 
2391	 0.416542685971368 
2392	 0.196157196938434 
2393	 0.917307020099472 
2394	 1.4014422048501 
2395	 0.766795064630921 
2396	 0.680405513349543 
2397	 0.741353512758157 
2398	 0.595270917740859 
2399	 0.82700767227288 
2400	 3.43394530135467 
2401	 12.8067174949514 
2402	 4.06589365090633 
2403	 2.72333901051126 
2404	 2.42127926675968 
2405	 5.18085670462799 
2406	 21.3177709668508 
2407	-2.68302657861283 
2408	-2.31512102296518 
2409	 7.72827121747011 
2410	-0.498752702283036 
2411	 0.171500040049505 
2412	 0.233598198462105 
2413	 0.284568418090202 
2414	-1.46776014251224E-02 
2415	-2.54443191296263 
2416	-4.10975584681509 
2417	-9.90380696968144 
2418	-7.08466498370916 
2419	-7.14502807486876 
2420	-19.5075671134726 
2421	-3.61457436274408 
2422	-2.84806738674303 
2423	-14.9682531511407 
2424	-0.820291166878304 
2425	 7.0838065380584 
2426	 0.613502968868747 
2427	-6.70372524005076 
2428	-3.08201035819116 
2429	-0.177847153297895 
2430	 181.583847542824 
2431	 2.23313529904432 
2432	 0.276868811178701 
2433	 0.439628990555456 
2434	 0.250754337575583 
2435	 0.395584385030035 
2436	-0.10283517453967 
2437	-3.43834927701035 
2438	-6.76602992544693 
2439	 5.17613202377198 
2440	 4.11354728021587 
2441	-0.473154495952356 
2442	-0.554935327259136 
2443	-0.154037680888773 
2444	-0.125445354044659 
2445	-0.27103716127319 
2446	-0.246635957554581 
2447	 0.619224748746183 
2448	 0.921530892711815 
2449	 1.02311920715955 
2450	 1.18400574518474 
2451	 0.426829010348165 
2452	 0.208502845372285 
2453	 0.497303632005127 
2454	 0.832381086581364 
2455	 1.22262937208268 
2456	 1.7207845302834 
2457	 2.61772048029629 
2458	 1.67841525669257 
2459	 1.38231594967271 
2460	 1.79403870373506 
2461	 0.807107102734981 
2462	 0.654740484677222 
2463	 0.314976844871482 
2464	-0.2479728100221 
2465	-0.312486033532635 
2466	-0.568610924079507 
2467	-0.79071637402326 
2468	-0.710229049015237 
2469	-0.621137402177987 
2470	-0.461552496749303 
2471	-0.2919027043677 
2472	 0.340860017949268 
2473	 0.362120775735096 
2474	 0.487913093537294 
2475	 0.752859483414791 
2476	 0.394766500891727 
2477	 0.35637044615012 
2478	 0.762625273504153 
2479	 0.708999040574623 
2480	 1.08109648568312 
2481	 1.01791577147373 
2482	 1.02971056650358 
2483	 1.83647953439321 
2484	-13.8053689584199 
2485	-1.28380553237513 
2486	-1.57378018503186 
2487	 3.07947231909285 
2488	 0.636677008346931 
2489	 0.516679177287641 
2490	 0.835496285766379 
2491	 0.942348490922416 
2492	 0.887252807252773 
2493	 0.850872851942828 
2494	 0.367220489827553 
2495	-0.384218251235329 
2496	-0.735253760117763 
2497	-0.861848962760544 
2498	-0.746778497866334 
2499	-0.896915036446432 
2500	-4.43033678872603 
