Wavelength	rt0727far00001.asd
350	 6.83441468193611E-02 
351	 6.74653159551434E-02 
352	 6.76841164711002E-02 
353	 6.79189049725314E-02 
354	 6.74792991853802E-02 
355	 6.76646819010032E-02 
356	 6.77491815471798E-02 
357	 6.76570478635363E-02 
358	 6.75517218310702E-02 
359	 6.77424366095385E-02 
360	 6.77667317091986E-02 
361	 6.77502045015985E-02 
362	 6.81422256157648E-02 
363	 6.81977345266346E-02 
364	 6.83045124426626E-02 
365	 6.85204256671006E-02 
366	 6.81804230867103E-02 
367	 6.84494976724759E-02 
368	 6.87933254320735E-02 
369	 6.86258553488846E-02 
370	 6.88588527566701E-02 
371	 6.90840653700893E-02 
372	 6.91148931900257E-02 
373	 6.89899323312878E-02 
374	 6.93790443489772E-02 
375	 6.97750653225255E-02 
376	 6.97597015808551E-02 
377	 6.92409575441945E-02 
378	 6.98949704112861E-02 
379	 7.07081214022443E-02 
380	 7.05200819911029E-02 
381	 6.97122562517252E-02 
382	 7.01940188013447E-02 
383	 0.071054735205859 
384	 7.03944242939498E-02 
385	 7.00530850410071E-02 
386	 7.04294806616709E-02 
387	 7.11530813008275E-02 
388	 7.12167767000472E-02 
389	 7.21724712823101E-02 
390	 7.28490355307758E-02 
391	 7.23917854236098E-02 
392	 7.18233446545666E-02 
393	 7.20326491095094E-02 
394	 7.25029173831519E-02 
395	 7.24251868820861E-02 
396	 7.26545108229675E-02 
397	 0.07304733009628 
398	 7.32937457720486E-02 
399	 7.30619714003745E-02 
400	 0.073288768501316 
401	 0.07365217544983 
402	 7.37934381454945E-02 
403	 7.36881436643698E-02 
404	 7.37614217287567E-02 
405	 7.40344141323297E-02 
406	 7.43149473541746E-02 
407	 7.42363998454113E-02 
408	 0.074037918080786 
409	 7.41204716891363E-02 
410	 7.49207711347356E-02 
411	 7.51824419665833E-02 
412	 7.50880487905216E-02 
413	 7.50840219313916E-02 
414	 7.55865321753644E-02 
415	 7.59275917909818E-02 
416	 7.60862248777018E-02 
417	 7.62677645133817E-02 
418	 7.62386163666206E-02 
419	 7.62526631782375E-02 
420	 7.64649116871153E-02 
421	 7.68804105798119E-02 
422	 0.077297667614342 
423	 0.077564046483117 
424	 0.077649485251034 
425	 7.77677666464379E-02 
426	 7.80965859940174E-02 
427	 7.85293985369583E-02 
428	 7.88666362784372E-02 
429	 7.94506350703644E-02 
430	 7.98500328332323E-02 
431	 0.07999698143034 
432	 8.03217018688813E-02 
433	 8.06764365794668E-02 
434	 0.08100613118157 
435	 0.081310557601949 
436	 8.17065404361088E-02 
437	 8.20840438689124E-02 
438	 8.24327939698511E-02 
439	 8.27986389683277E-02 
440	 8.31880950307254E-02 
441	 0.08377083022333 
442	 0.084411054319097 
443	 8.44970905393505E-02 
444	 8.48859540416683E-02 
445	 8.53743719293433E-02 
446	 8.56189693769139E-02 
447	 8.59430682703835E-02 
448	 8.62895920982969E-02 
449	 8.66984655417472E-02 
450	 8.72465142313122E-02 
451	 0.087502765543512 
452	 8.76285548326748E-02 
453	 8.78122038884501E-02 
454	 8.81140029291014E-02 
455	 8.83508601770027E-02 
456	 8.86080453623927E-02 
457	 8.90007567080357E-02 
458	 8.92503641398454E-02 
459	 8.95118958749945E-02 
460	 8.98006131184194E-02 
461	 8.99732272441848E-02 
462	 9.00477337159422E-02 
463	 9.02636762180909E-02 
464	 9.07072023786538E-02 
465	 9.09345494908287E-02 
466	 9.11506700677013E-02 
467	 9.14301186611401E-02 
468	 9.17736712339686E-02 
469	 9.20987870037809E-02 
470	 9.23313224424285E-02 
471	 9.25545766856444E-02 
472	 9.30517654166949E-02 
473	 9.34700380933325E-02 
474	 9.36705893208887E-02 
475	 9.37304984604162E-02 
476	 9.42841738682631E-02 
477	 9.44894896399147E-02 
478	 0.094570358515507 
479	 9.53548100762186E-02 
480	 9.55665894297535E-02 
481	 0.095702337547587 
482	 9.61372411521345E-02 
483	 0.096519140283504 
484	 9.67935277541354E-02 
485	 9.71384820345067E-02 
486	 9.77029508888351E-02 
487	 9.79206563425653E-02 
488	 9.82753779258929E-02 
489	 9.88564173397849E-02 
490	 9.93253269492336E-02 
491	 9.96282008638824E-02 
492	 9.99417115984163E-02 
493	 0.100415114357717 
494	 0.101007082524203 
495	 0.101553038481365 
496	 0.10202472195621 
497	 0.102485291390479 
498	 0.103047649492829 
499	 0.103686165020264 
500	 0.104363091230622 
501	 0.105053872452643 
502	 0.105714312498281 
503	 0.106348036278429 
504	 0.106970133506465 
505	 0.107535079716041 
506	 0.108263095106088 
507	 0.108983998814891 
508	 0.109284310587199 
509	 0.110032356906079 
510	 0.110770335387488 
511	 0.111210780866682 
512	 0.111973457506295 
513	 0.112764807917357 
514	 0.113516377083923 
515	 0.1142369835787 
516	 0.114884141848506 
517	 0.115593319499838 
518	 0.116462701637698 
519	 0.117525056792655 
520	 0.118233050243288 
521	 0.118897268380878 
522	 0.119839783689645 
523	 0.120665265430157 
524	 0.12144950747701 
525	 0.122289662840485 
526	 0.12327589092752 
527	 0.12421634851051 
528	 0.125075753860579 
529	 0.125884938478994 
530	 0.12675687346551 
531	 0.127579796994608 
532	 0.128398987051365 
533	 0.129291848755338 
534	 0.130151557157829 
535	 0.131155591861671 
536	 0.132286854135157 
537	 0.133288211359355 
538	 0.134192547825641 
539	 0.135104714187388 
540	 0.136093278327091 
541	 0.137030215217317 
542	 0.137976793828251 
543	 0.138968334106724 
544	 0.140023887754426 
545	 0.141183227624235 
546	 0.142160441820959 
547	 0.142917119743904 
548	 0.143963567403341 
549	 0.145005872381002 
550	 0.145998677577251 
551	 0.146979971903141 
552	 0.147974379327487 
553	 0.148930142673328 
554	 0.149890504721619 
555	 0.150995617970018 
556	 0.151811879218135 
557	 0.152745374920217 
558	 0.154044945817274 
559	 0.154808965067806 
560	 0.155502430415555 
561	 0.156339294617467 
562	 0.157338292223125 
563	 0.158181030656374 
564	 0.158954919702496 
565	 0.159681935659544 
566	 0.160121452382363 
567	 0.160652665349664 
568	 0.161281498313303 
569	 0.161846322231599 
570	 0.162150769806391 
571	 0.162450984215183 
572	 0.162844519168551 
573	 0.163221804876116 
574	 0.163507397672138 
575	 0.163663118183478 
576	 0.163712870985128 
577	 0.16384889955113 
578	 0.163764342229891 
579	 0.163567369829365 
580	 0.163561731179957 
581	 0.163236296848459 
582	 0.16293095801163 
583	 0.162762570486841 
584	 0.162237198185974 
585	 0.16176980031696 
586	 0.16147437489349 
587	 0.161269725073716 
588	 0.160588896292372 
589	 0.159889650071384 
590	 0.159398778466775 
591	 0.158911626244436 
592	 0.158210576715727 
593	 0.157512796778638 
594	 0.15688571690363 
595	 0.155576102024738 
596	 0.154383575058001 
597	 0.153158917882961 
598	 0.151368715492241 
599	 0.150092099304476 
600	 0.148851986163497 
601	 0.147530566737897 
602	 0.146943002628242 
603	 0.146445218098565 
604	 0.146003297474357 
605	 0.145731004754662 
606	 0.145464948670838 
607	 0.145179010840885 
608	 0.144916969286214 
609	 0.144783344096825 
610	 0.144711251104663 
611	 0.144526668326925 
612	 0.144182103419472 
613	 0.144053727105332 
614	 0.143978412849888 
615	 0.143798962577665 
616	 0.143427811310048 
617	 0.143374839621173 
618	 0.143273263753668 
619	 0.14298251336499 
620	 0.142888891833138 
621	 0.142692740153032 
622	 0.14250369553122 
623	 0.142473351136372 
624	 0.142310259903033 
625	 0.142048647198624 
626	 0.141789706445257 
627	 0.141682988865436 
628	 0.141678750397024 
629	 0.14156969608028 
630	 0.141273325686414 
631	 0.141094567796814 
632	 0.140954494952805 
633	 0.14074469084457 
634	 0.140407804299048 
635	 0.140459686319514 
636	 0.140422375889774 
637	 0.140139133227944 
638	 0.140037612367258 
639	 0.140003138998629 
640	 0.13990719751515 
641	 0.139704291511195 
642	 0.1397207303263 
643	 0.139831471635943 
644	 0.139848149011829 
645	 0.139552764391416 
646	 0.139238465715718 
647	 0.139006521516717 
648	 0.138803101847382 
649	 0.138265470727588 
650	 0.137936209127206 
651	 0.137444211207953 
652	 0.136288663062697 
653	 0.135294058696952 
654	 0.134402960082312 
655	 0.13329116684036 
656	 0.13153645994563 
657	 0.130177500293814 
658	 0.129062918589608 
659	 0.127858573214818 
660	 0.126562602798556 
661	 0.125493681163062 
662	 0.124533080394323 
663	 0.12336433222611 
664	 0.122398545821283 
665	 0.121759315080646 
666	 0.121276189484984 
667	 0.120334385856656 
668	 0.119608199451179 
669	 0.119238895367056 
670	 0.119112398544106 
671	 0.118800804975272 
672	 0.118585238343077 
673	 0.118591040967312 
674	 0.118761122396879 
675	 0.119015175487723 
676	 0.119328576003077 
677	 0.119668410533676 
678	 0.119926257927113 
679	 0.120292687703214 
680	 0.120786561045355 
681	 0.121339750571341 
682	 0.12187973620634 
683	 0.122658478006331 
684	 0.123589190624664 
685	 0.124171647503583 
686	 0.125137480247149 
687	 0.126206471281944 
688	 0.126846413794076 
689	 0.127215459658988 
690	 0.127554817958014 
691	 0.127820248942255 
692	 0.127794275499861 
693	 0.12773176829207 
694	 0.127529388408617 
695	 0.127105149633328 
696	 0.126399655522672 
697	 0.125813629901058 
698	 0.125049493669499 
699	 0.1238396512851 
700	 0.122937574545908 
701	 0.121811578039499 
702	 0.120439313429268 
703	 0.119142106440605 
704	 0.117691478483541 
705	 0.116149927029929 
706	 0.114609951854717 
707	 0.11297333913166 
708	 0.110995605931539 
709	 0.108851370301019 
710	 0.106807360708431 
711	 0.104548414673445 
712	 0.102225604790277 
713	 9.99311174846172E-02 
714	 9.76152096522021E-02 
715	 9.56168838769383E-02 
716	 0.093467336769111 
717	 9.08637543916378E-02 
718	 8.82710607274233E-02 
719	 8.52750703809016E-02 
720	 8.26955936874645E-02 
721	 8.06131313247347E-02 
722	 7.88753789403706E-02 
723	 0.076841591205899 
724	 7.45590756151031E-02 
725	 0.072191581431022 
726	 6.97107039722655E-02 
727	 0.067317706598423 
728	 6.50436733519081E-02 
729	 6.22194192242936E-02 
730	 5.96183100142467E-02 
731	 5.75243025145091E-02 
732	 0.055668621300581 
733	 5.41367712697821E-02 
734	 0.05286589695263 
735	 5.17762768552249E-02 
736	 5.07126235436518E-02 
737	 5.01740627895904E-02 
738	 4.98494039855461E-02 
739	 4.94111092026843E-02 
740	 0.048992391302056 
741	 4.86911529580336E-02 
742	 4.85175428460898E-02 
743	 4.84414749046821E-02 
744	 0.048615936838519 
745	 4.85934628551894E-02 
746	 4.82782438079494E-02 
747	 4.81072440726948E-02 
748	 4.79035088302294E-02 
749	 4.78960546308216E-02 
750	 0.048187291415896 
751	 4.81857506304435E-02 
752	 4.81765382398409E-02 
753	 0.048142993563215 
754	 4.79549200090967E-02 
755	 4.79548044456775E-02 
756	 4.80653062865252E-02 
757	 4.81794197971259E-02 
758	 4.81993687246673E-02 
759	 4.84824285848154E-02 
760	 4.89955505414203E-02 
761	 4.90928336802025E-02 
762	 4.91614173595673E-02 
763	 4.92547113110485E-02 
764	 4.90259087608925E-02 
765	 4.83835621435061E-02 
766	 4.84031600181407E-02 
767	 4.85280197980266E-02 
768	 4.85595210701819E-02 
769	 4.86096162857165E-02 
770	 4.85698076587476E-02 
771	 4.85794234012621E-02 
772	 4.87177599757628E-02 
773	 4.87433658830723E-02 
774	 0.04907492276103 
775	 4.94678490590363E-02 
776	 0.049494634714279 
777	 4.95116338945507E-02 
778	 4.96562588388807E-02 
779	 4.99632204834185E-02 
780	 5.03642993853234E-02 
781	 5.07012310180367E-02 
782	 5.09083196964992E-02 
783	 5.09839494533081E-02 
784	 5.09689970062806E-02 
785	 5.14114841435816E-02 
786	 5.20764962274539E-02 
787	 5.24715732976467E-02 
788	 5.26280006789002E-02 
789	 5.29193087545096E-02 
790	 0.053391088090819 
791	 5.37865369480398E-02 
792	 5.38835648030193E-02 
793	 5.41082463409309E-02 
794	 5.46399201290542E-02 
795	 5.51059267480806E-02 
796	 5.54290008028028E-02 
797	 5.56373640831132E-02 
798	 5.58366048796875E-02 
799	 5.61617191224327E-02 
800	 5.63847582439343E-02 
801	 5.66063776819081E-02 
802	 5.70607580567242E-02 
803	 5.74682630305819E-02 
804	 5.75283143598118E-02 
805	 5.72950718448654E-02 
806	 5.71648017789615E-02 
807	 0.057303800020693 
808	 5.72815538769223E-02 
809	 5.69023019585166E-02 
810	 5.69907331820357E-02 
811	 5.71039389778124E-02 
812	 5.70669784543596E-02 
813	 5.67972888902208E-02 
814	 5.62161033746404E-02 
815	 0.056206583019478 
816	 5.63245932977304E-02 
817	 5.52597922425044E-02 
818	 5.45159154978606E-02 
819	 5.38070025972876E-02 
820	 5.28780055638204E-02 
821	 5.17717225864609E-02 
822	 5.10562969836752E-02 
823	 5.05016750317901E-02 
824	 4.97789076530683E-02 
825	 4.88831085026556E-02 
826	 0.047996354262674 
827	 4.70675133781269E-02 
828	 4.60584901148135E-02 
829	 4.50908263505781E-02 
830	 4.38262889592562E-02 
831	 4.26378481604322E-02 
832	 4.23175497767334E-02 
833	 4.22123038945044E-02 
834	 4.20757410832883E-02 
835	 0.041771761751303 
836	 4.12431104162118E-02 
837	 4.08522639258972E-02 
838	 0.040664287658785 
839	 4.06033755677705E-02 
840	 4.04739529480883E-02 
841	 4.00419409189307E-02 
842	 3.98601794930869E-02 
843	 4.03682742609077E-02 
844	 4.01454452928319E-02 
845	 0.039949192139475 
846	 0.039953072299793 
847	 3.98776261309072E-02 
848	 3.96290796512577E-02 
849	 3.94731789688917E-02 
850	 3.93929171808077E-02 
851	 3.89847341412997E-02 
852	 3.86319639374231E-02 
853	 3.88294149496801E-02 
854	 3.93960408824612E-02 
855	 3.87599596127087E-02 
856	 3.88769766532247E-02 
857	 3.94426046726002E-02 
858	 3.96114211538513E-02 
859	 3.89763405720953E-02 
860	 3.85483164795872E-02 
861	 3.86018855880906E-02 
862	 3.88447840963227E-02 
863	 3.82776742090607E-02 
864	 3.82423275132469E-02 
865	 3.87422016564729E-02 
866	 3.85285418980959E-02 
867	 3.83613002953372E-02 
868	 3.81230606638609E-02 
869	 3.78820407344438E-02 
870	 3.80537329343113E-02 
871	 3.78157380529679E-02 
872	 3.76617356822086E-02 
873	 3.79024239934554E-02 
874	 3.77839867151133E-02 
875	 3.78995502751605E-02 
876	 3.76890506740761E-02 
877	 3.68970137580639E-02 
878	 0.037648072464224 
879	 3.79365985380376E-02 
880	 3.77584816216937E-02 
881	 0.03790559248123 
882	 3.75014465243343E-02 
883	 3.73009744340944E-02 
884	 3.72792429506724E-02 
885	 3.69392184445064E-02 
886	 3.77612769439272E-02 
887	 0.037705800342456 
888	 3.65677150917759E-02 
889	 3.65480286909055E-02 
890	 3.65331652064723E-02 
891	 3.65703371890636E-02 
892	 3.66831523013591E-02 
893	 0.036479443633826 
894	 3.67429104945439E-02 
895	 3.71776385748979E-02 
896	 3.70941115291617E-02 
897	 3.59196580706024E-02 
898	 3.57978249707447E-02 
899	 3.67106852436715E-02 
900	 3.73513388892808E-02 
901	 3.58984155404457E-02 
902	 3.56133964385782E-02 
903	 0.036105379290344 
904	 0.036088260684295 
905	 3.73874564493817E-02 
906	 3.76362530771957E-02 
907	 3.59262490890429E-02 
908	 3.34213628148373E-02 
909	 3.55126440424538E-02 
910	 3.75572697355415E-02 
911	 3.76189709621868E-02 
912	 3.74076605958107E-02 
913	 3.64863410646682E-02 
914	 0.035686677190458 
915	 3.53090572379203E-02 
916	 3.49215361409075E-02 
917	 0.035822661827195 
918	 3.54084380962423E-02 
919	 3.41546120652088E-02 
920	 3.65102331364543E-02 
921	 0.036413475978196 
922	 3.53677183868122E-02 
923	 3.51450876177431E-02 
924	 3.49821032155075E-02 
925	 3.48878547725392E-02 
926	 3.51119169360866E-02 
927	 3.56971321885922E-02 
928	 3.54749849413688E-02 
929	 3.20379800336987E-02 
930	 2.95363618504442E-02 
931	 3.37648870367585E-02 
932	 0.014226738498175 
933	 6.25543423094331E-03 
934	 1.66291617147277E-02 
935	 2.28151703242219E-02 
936	 1.58070231212707E-02 
937	 2.94259621246165E-02 
938	 4.09076277423518E-02 
939	 2.90461886808635E-02 
940	 4.02619725911361E-02 
941	 2.94930522492164E-02 
942	 0.015628707943596 
943	 0.03822108324276 
944	 3.43045238498579E-02 
945	 0.022000817144417 
946	 2.36845884128352E-02 
947	 4.78357671593571E-02 
948	 4.72039711104846E-02 
949	 3.88291460071698E-02 
950	 3.10914855618279E-02 
951	 2.59694227819859E-02 
952	 3.21218864574022E-02 
953	 0.037370524287883 
954	 3.75270931372311E-02 
955	 3.60325412894739E-02 
956	 3.71830006382988E-02 
957	 3.76449530306489E-02 
958	 0.035502867659412 
959	 3.11286095884983E-02 
960	 0.030196018166145 
961	 3.31747356795387E-02 
962	 3.42786503792617E-02 
963	 2.84150362100608E-02 
964	 0.033253326362286 
965	 3.53712965640601E-02 
966	 3.41849900674395E-02 
967	 3.67382706381328E-02 
968	 3.08859810904406E-02 
969	 2.89586654479728E-02 
970	 3.15420200735643E-02 
971	 2.94972834769183E-02 
972	 3.11270184591684E-02 
973	 3.35036157559891E-02 
974	 0.034904018454226 
975	 3.56930920729246E-02 
976	 3.26580619241745E-02 
977	 0.028552112850424 
978	 2.84116075427653E-02 
979	 0.035061793382506 
980	 3.04898479964702E-02 
981	 3.00061934114187E-02 
982	 3.55042861691563E-02 
983	 3.67282436191513E-02 
984	 3.21439135039929E-02 
985	 3.02704532330886E-02 
986	 3.09649638427171E-02 
987	 2.83887215410248E-02 
988	 3.09437016181284E-02 
989	 3.36798528292762E-02 
990	 3.25929934434451E-02 
991	 2.75805705404706E-02 
992	 3.12581217370158E-02 
993	 3.24091653807397E-02 
994	 2.99629319392799E-02 
995	 0.030447130176124 
996	 0.0325497338594 
997	 3.14784995123775E-02 
998	 2.90991578126767E-02 
999	 3.01491683012231E-02 
1000	 2.95150312566396E-02 
1001	 3.23488922686139E-02 
1002	 0.033331366454358 
1003	 3.38683977274864E-02 
1004	 3.52179499359715E-02 
1005	 3.54309897499898E-02 
1006	 0.034402308014967 
1007	 0.033736711269709 
1008	 3.36935516310929E-02 
1009	 3.27021485123463E-02 
1010	 3.30382403928772E-02 
1011	 0.033586877088471 
1012	 0.033214026877956 
1013	 3.35577178217848E-02 
1014	 3.36139921766273E-02 
1015	 3.32317473276996E-02 
1016	 3.35698264840164E-02 
1017	 3.46768029543077E-02 
1018	 3.46095901258208E-02 
1019	 3.40651284094315E-02 
1020	 0.033820121022245 
1021	 3.26521700225855E-02 
1022	 3.28729066981582E-02 
1023	 3.25229333774122E-02 
1024	 3.23823008062733E-02 
1025	 3.23472776652148E-02 
1026	 3.22243398442504E-02 
1027	 3.23744368615048E-02 
1028	 0.0330392433953 
1029	 3.39120814342867E-02 
1030	 3.54788209671623E-02 
1031	 3.55094596051202E-02 
1032	 3.51964892605573E-02 
1033	 3.48591217074749E-02 
1034	 3.23710081248151E-02 
1035	 3.20141057399587E-02 
1036	 3.37662596623519E-02 
1037	 3.44490538357577E-02 
1038	 3.52838706360105E-02 
1039	 3.62149967457309E-02 
1040	 0.036492524867473 
1041	 3.58173539548765E-02 
1042	 3.51310297039066E-02 
1043	 0.033842382079442 
1044	 3.33510178871049E-02 
1045	 3.25931646238386E-02 
1046	 3.23902518010721E-02 
1047	 3.30624235873345E-02 
1048	 3.33730477346935E-02 
1049	 3.39172170323344E-02 
1050	 3.39586367907881E-02 
1051	 0.033922252823501 
1052	 3.36315371846083E-02 
1053	 3.21126609638411E-02 
1054	 3.17981359859743E-02 
1055	 3.19110180069881E-02 
1056	 3.23319568773906E-02 
1057	 3.32182836306914E-02 
1058	 0.035530338022818 
1059	 3.58246919923797E-02 
1060	 3.56128923483596E-02 
1061	 0.035213238458258 
1062	 3.32576963034831E-02 
1063	 3.28350607277652E-02 
1064	 0.033274867093764 
1065	 3.31995980990195E-02 
1066	 0.033333281262619 
1067	 3.34599041566955E-02 
1068	 0.033648462568949 
1069	 3.34224877350434E-02 
1070	 3.30918510788536E-02 
1071	 3.28391571476487E-02 
1072	 3.29828096061031E-02 
1073	 3.12294139108219E-02 
1074	 0.031185088951387 
1075	 3.17791742056253E-02 
1076	 3.20681445087868E-02 
1077	 3.33263687691473E-02 
1078	 3.30322526021568E-02 
1079	 3.07545940971545E-02 
1080	 3.11720215283976E-02 
1081	 3.25902817103005E-02 
1082	 0.033012082306909 
1083	 3.52108526747471E-02 
1084	 3.61996343589268E-02 
1085	 3.48421771952601E-02 
1086	 3.48064967746926E-02 
1087	 0.036107872748685 
1088	 3.64081622743547E-02 
1089	 3.63572348624313E-02 
1090	 3.62214940581454E-02 
1091	 3.57570961157037E-02 
1092	 3.46235937175763E-02 
1093	 3.39631770617174E-02 
1094	 3.30176871770474E-02 
1095	 3.27681277264983E-02 
1096	 3.27370270314282E-02 
1097	 3.28231950010873E-02 
1098	 3.39951948058688E-02 
1099	 3.43056649887165E-02 
1100	 3.49232655079776E-02 
1101	 3.48827088997878E-02 
1102	 3.21494446385131E-02 
1103	 3.19192179728043E-02 
1104	 3.38437302588663E-02 
1105	 3.39358647270226E-02 
1106	 3.36493884285262E-02 
1107	 3.71653297683887E-02 
1108	 3.74038664170169E-02 
1109	 3.40163972114739E-02 
1110	 3.38614729101918E-02 
1111	 3.68844602784964E-02 
1112	 3.66865795626168E-02 
1113	 3.38636299816118E-02 
1114	 3.36977691984459E-02 
1115	 3.09221313002396E-02 
1116	 3.15074347076306E-02 
1117	 4.52469946118387E-02 
1118	 5.43731694813899E-02 
1119	 6.04136164861961E-02 
1120	 6.66205539077592E-02 
1121	 0.063552997355702 
1122	 6.60550077116771E-02 
1123	 4.72128585030323E-02 
1124	 0.05256149829325 
1125	 9.61488015551854E-02 
1126	 6.87717533356715E-02 
1127	 4.23212589161381E-02 
1128	 6.78263352276284E-02 
1129	 0.063596509728322 
1130	 2.47657149655728E-02 
1131	 3.91393864552279E-02 
1132	 0.097324286505258 
1133	 8.18767355845638E-02 
1134	 3.91874888947437E-02 
1135	 3.51692938447698E-02 
1136	 9.68736162040429E-03 
1137	 1.05059301133075E-02 
1138	 5.04562918953252E-02 
1139	 6.95277074431561E-02 
1140	 6.31613822308434E-02 
1141	 6.24932030525446E-02 
1142	 3.42434493375589E-02 
1143	 2.39710095033873E-02 
1144	 4.68897604625858E-02 
1145	 5.17124186159117E-02 
1146	 6.13366032864245E-02 
1147	 0.067322822223532 
1148	 4.72996588746973E-02 
1149	 3.17506878574897E-02 
1150	 2.72193346961996E-02 
1151	 2.74971590223703E-02 
1152	 3.33928045719603E-02 
1153	 4.91834608315974E-02 
1154	 4.89663810408943E-02 
1155	 4.44482703956586E-02 
1156	 4.49571462541874E-02 
1157	 4.20150784379526E-02 
1158	 3.78533575275059E-02 
1159	 4.27686948528482E-02 
1160	 4.45979026065395E-02 
1161	 3.89712547550412E-02 
1162	 3.74761642456651E-02 
1163	 3.72692171855388E-02 
1164	 0.03462404370165 
1165	 3.48144320577581E-02 
1166	 3.58880183574693E-02 
1167	 3.49506102545111E-02 
1168	 3.43785462987814E-02 
1169	 3.54166621985011E-02 
1170	 3.63034417634496E-02 
1171	 3.59433533634195E-02 
1172	 0.034214780140514 
1173	 3.41827010309754E-02 
1174	 0.034246064636841 
1175	 3.38216925746595E-02 
1176	 3.48254452811569E-02 
1177	 0.035914336374932 
1178	 3.61656998644642E-02 
1179	 3.53378865144244E-02 
1180	 3.51200262556866E-02 
1181	 3.58778771882925E-02 
1182	 3.55793887263652E-02 
1183	 3.58868070597013E-02 
1184	 3.61015477115262E-02 
1185	 3.41872747854764E-02 
1186	 3.36252971978049E-02 
1187	 3.45480183599175E-02 
1188	 3.43642044665904E-02 
1189	 3.47658608773145E-02 
1190	 3.51558312631829E-02 
1191	 0.034363570535358 
1192	 3.42570255907155E-02 
1193	 0.0344696860324 
1194	 3.63860515880929E-02 
1195	 3.66872373310761E-02 
1196	 3.54943702696759E-02 
1197	 3.62621949578598E-02 
1198	 3.49000077807633E-02 
1199	 3.17080744014419E-02 
1200	 3.12912574153718E-02 
1201	 3.24859588113815E-02 
1202	 3.31210679187418E-02 
1203	 3.40099576544448E-02 
1204	 3.49936408643323E-02 
1205	 3.39553071639035E-02 
1206	 3.28047195158304E-02 
1207	 3.28434553124623E-02 
1208	 3.29228261044161E-02 
1209	 3.33898637069826E-02 
1210	 3.33763736471877E-02 
1211	 3.26310528956231E-02 
1212	 3.29277234087709E-02 
1213	 0.032945024155141 
1214	 3.25006154399073E-02 
1215	 3.14580781830715E-02 
1216	 3.14842459245922E-02 
1217	 3.11315681835809E-02 
1218	 3.08656487798044E-02 
1219	 3.15592275114828E-02 
1220	 3.19277102170877E-02 
1221	 3.23985369317671E-02 
1222	 3.31224367979915E-02 
1223	 3.28547153581238E-02 
1224	 3.28167780252756E-02 
1225	 3.33968560007073E-02 
1226	 3.27257220840291E-02 
1227	 3.31899406476733E-02 
1228	 3.40526834770784E-02 
1229	 3.26537224086484E-02 
1230	 3.21282679704513E-02 
1231	 3.22844843213531E-02 
1232	 3.20292390673905E-02 
1233	 0.032089157403486 
1234	 3.17310824816395E-02 
1235	 3.19128386281602E-02 
1236	 3.21574637805771E-02 
1237	 3.19810242042188E-02 
1238	 3.20098714993909E-02 
1239	 3.20368691090543E-02 
1240	 3.16501189475283E-02 
1241	 3.08908600169866E-02 
1242	 3.13741407782845E-02 
1243	 3.24065882659245E-02 
1244	 0.032983450752542 
1245	 3.29866913737295E-02 
1246	 3.24799534956387E-02 
1247	 3.26657135624085E-02 
1248	 3.29914903800541E-02 
1249	 3.29245764633522E-02 
1250	 3.31325833690818E-02 
1251	 3.32328698652133E-02 
1252	 3.25519002509452E-02 
1253	 3.19002474638553E-02 
1254	 3.21523755026527E-02 
1255	 3.23467764258896E-02 
1256	 0.032581021295845 
1257	 3.39478893479848E-02 
1258	 3.41752432454673E-02 
1259	 3.30629267132012E-02 
1260	 3.29538541058125E-02 
1261	 3.34224856836497E-02 
1262	 3.31174178639276E-02 
1263	 3.22981481201813E-02 
1264	 3.26900470612048E-02 
1265	 3.35845678010194E-02 
1266	 0.032793015310996 
1267	 3.27572448769596E-02 
1268	 3.32969842648208E-02 
1269	 3.25595042568245E-02 
1270	 0.032130718300046 
1271	 0.033059494520942 
1272	 3.39055444394365E-02 
1273	 3.37177185998518E-02 
1274	 3.36472990932713E-02 
1275	 3.29395453870836E-02 
1276	 3.19400402215059E-02 
1277	 3.22270925993778E-02 
1278	 3.31848275137184E-02 
1279	 3.40916056370423E-02 
1280	 3.39055720120832E-02 
1281	 3.38799350216626E-02 
1282	 3.30577588550768E-02 
1283	 0.033099592735628 
1284	 3.40780236033218E-02 
1285	 3.35605792134222E-02 
1286	 3.19446165600462E-02 
1287	 3.16816218809169E-02 
1288	 3.09638247891523E-02 
1289	 3.07334820238704E-02 
1290	 0.032118751136145 
1291	 3.28761109923233E-02 
1292	 3.20941932459778E-02 
1293	 3.18711526593715E-02 
1294	 3.17968596594858E-02 
1295	 3.10713463616272E-02 
1296	 3.16729410747593E-02 
1297	 3.34728392840928E-02 
1298	 3.41335550362454E-02 
1299	 3.39576967421813E-02 
1300	 3.28668229907758E-02 
1301	 3.11839080855807E-02 
1302	 3.19297731626771E-02 
1303	 3.42541188712014E-02 
1304	 3.49125362551378E-02 
1305	 3.53560302996966E-02 
1306	 3.51960755689251E-02 
1307	 3.30878886151769E-02 
1308	 3.30428547292802E-02 
1309	 3.42425997903849E-02 
1310	 3.34303128522806E-02 
1311	 3.31300501256804E-02 
1312	 3.27746762066204E-02 
1313	 3.00080975984235E-02 
1314	 2.88152600866343E-02 
1315	 2.87193198999875E-02 
1316	 2.85767706536963E-02 
1317	 2.86462675917597E-02 
1318	 2.88524086843343E-02 
1319	 0.030148327113473 
1320	 3.18758495644753E-02 
1321	 3.41653250562946E-02 
1322	 3.50583923383585E-02 
1323	 3.70740497484397E-02 
1324	 3.75167075074486E-02 
1325	 3.66498957162803E-02 
1326	 3.84480581936511E-02 
1327	 3.71715431623177E-02 
1328	 3.55651174845978E-02 
1329	 3.74921672517519E-02 
1330	 0.031451881079273 
1331	 2.54598721800312E-02 
1332	 2.93613288450238E-02 
1333	 3.06120811164401E-02 
1334	 0.027595143488432 
1335	 2.71778754156694E-02 
1336	 3.19780320753604E-02 
1337	 3.40627122408341E-02 
1338	 3.22469557913697E-02 
1339	 3.34815745247823E-02 
1340	 0.040790452177565 
1341	 4.21214563429528E-02 
1342	 3.70960249026746E-02 
1343	 3.69440818795437E-02 
1344	 3.97168082604907E-02 
1345	 3.49510003568971E-02 
1346	 1.34917022299984E-02 
1347	 0.015879725914816 
1348	 5.77405411373216E-02 
1349	 6.95308837436162E-02 
1350	 6.88776063361272E-02 
1351	 0.109617025308945 
1352	 0.136691969502219 
1353	 0.121454594624628 
1354	 0.104319151336517 
1355	 0.266076351894934 
1356	 0.387178029235139 
1357	 0.125301786984702 
1358	-0.108859657879921 
1359	 0.113924333106071 
1360	-0.703529526951374 
1361	-1.12574209938459 
1362	-0.440906281908747 
1363	 2.38966818894225E-02 
1364	 0.966331544836208 
1365	-2.49669318833153 
1366	 2.17138239384644 
1367	-2.26973607151236 
1368	 9.65797943333898 
1369	-0.776435382698256 
1370	-0.28823416306445 
1371	-0.191398953416683 
1372	 0.23665794045114 
1373	 0.496420435445057 
1374	 0.164667978827476 
1375	-0.756842643879793 
1376	-1.11895678892868 
1377	-1.6059421221555 
1378	-0.78690585740331 
1379	 0.341452793496231 
1380	 0.729867719937625 
1381	 0.627487152463269 
1382	 0.633741439577906 
1383	 1.51491299925133 
1384	 3.41778341541512 
1385	 0.980636243452482 
1386	 0.927095102785819 
1387	 2.13172443144202 
1388	 2.9939944569897 
1389	 2.13089798557245 
1390	 1.49673439209745 
1391	 0.348977439448944 
1392	 0.115755210900904 
1393	 0.47718119986241 
1394	 0.744987875082031 
1395	 1.16359619494486 
1396	 1.24833071336589 
1397	 0.739608114184491 
1398	-0.013224104220254 
1399	-1.38149311430321 
1400	 0.362460630981836 
1401	 0.968727621319346 
1402	 0.659581200970549 
1403	 0.26484697057001 
1404	 0.208844685431206 
1405	 0.204546667702041 
1406	 7.35952855710669E-02 
1407	-0.273777405159601 
1408	-0.982782269256786 
1409	-1.11995928397176 
1410	-0.7348021394071 
1411	-0.758826948798223 
1412	-0.223959232251192 
1413	 0.209372009321077 
1414	 6.52888105780186E-02 
1415	-1.59241404735676E-02 
1416	 0.758928922529562 
1417	 1.96497993883393 
1418	 3.4855783378068 
1419	 1.85407983812547 
1420	 1.70503151737593 
1421	 1.57313212266157 
1422	 0.815689241089293 
1423	 0.586363260347291 
1424	 0.45790840557121 
1425	 0.424194107380771 
1426	 0.607264430432847 
1427	 0.549456944616424 
1428	 0.401061379436116 
1429	 0.287344681107069 
1430	-9.44210478235347E-02 
1431	-0.288256529934577 
1432	-0.391169865244608 
1433	-0.337949907109216 
1434	 0.150602690326425 
1435	 0.252707186011285 
1436	 0.184015882956859 
1437	 0.336080987910653 
1438	 0.684738211138828 
1439	 0.399679125325723 
1440	 0.261530610718877 
1441	 0.455636903153993 
1442	 0.413264161391915 
1443	 0.193038441289091 
1444	 0.143050152815478 
1445	 9.24833058880172E-02 
1446	-7.47302584064336E-02 
1447	-3.33932107901666E-02 
1448	 0.116687594417869 
1449	 9.05332968995708E-02 
1450	 7.43200687561186E-02 
1451	 0.122066201770268 
1452	 0.104886066061444 
1453	 7.19797532706538E-02 
1454	 3.31540685501194E-02 
1455	-2.05142449621043E-02 
1456	-3.51776154134786E-02 
1457	-5.73258267866852E-02 
1458	-0.044616635317389 
1459	 9.21269173152737E-03 
1460	 2.73165402285341E-02 
1461	 4.13946800826072E-02 
1462	 4.87519001594324E-02 
1463	 5.15428925676383E-02 
1464	 4.51225508771616E-02 
1465	 2.28652372562359E-02 
1466	 1.53090023170653E-02 
1467	 3.19030669964412E-03 
1468	-2.55708503898007E-03 
1469	 2.12876834757007E-02 
1470	 0.010948265815771 
1471	-2.28758358631152E-02 
1472	-4.47150030924557E-02 
1473	-9.72097422034261E-02 
1474	-8.83656168520903E-02 
1475	-3.23520177791179E-02 
1476	-2.34448666077346E-02 
1477	-1.20157913303405E-02 
1478	-3.85934173065355E-03 
1479	-2.60921022401493E-02 
1480	-1.58809991527959E-02 
1481	 2.31988185060674E-02 
1482	 3.37939399687513E-02 
1483	 3.68325337606513E-02 
1484	 3.87261263519579E-02 
1485	 3.22660579553574E-02 
1486	 2.93241525872628E-02 
1487	 2.34151379707501E-02 
1488	 2.67962243569665E-02 
1489	 4.11787115820508E-02 
1490	 4.04356666828362E-02 
1491	 3.14895718222405E-02 
1492	 3.23063877920208E-02 
1493	 3.65510274944053E-02 
1494	 3.32877912171537E-02 
1495	 2.83869899321191E-02 
1496	 2.97271159187787E-02 
1497	 2.85733316807058E-02 
1498	 2.61525796456101E-02 
1499	 2.82850343599865E-02 
1500	 3.10175363091862E-02 
1501	 3.24561349464906E-02 
1502	 3.18355265488756E-02 
1503	 3.10783570133551E-02 
1504	 0.032357570202241 
1505	 3.29879704564007E-02 
1506	 3.22528615120509E-02 
1507	 3.26365538042305E-02 
1508	 3.32558262460087E-02 
1509	 3.45181687108894E-02 
1510	 3.45805754997595E-02 
1511	 3.17227706776734E-02 
1512	 0.031243707971174 
1513	 0.029462412698426 
1514	 2.45901711024143E-02 
1515	 2.38417505629678E-02 
1516	 2.75349102477964E-02 
1517	 2.85531614214513E-02 
1518	 2.75347183401632E-02 
1519	 2.87815143369633E-02 
1520	 2.86515895542306E-02 
1521	 2.69966655828835E-02 
1522	 2.68252985832522E-02 
1523	 2.78345052005125E-02 
1524	 2.92956552017475E-02 
1525	 2.99789838495817E-02 
1526	 3.05707086509256E-02 
1527	 3.21704326627848E-02 
1528	 3.18764347068919E-02 
1529	 2.95612425514759E-02 
1530	 2.88177416676974E-02 
1531	 3.03737160665374E-02 
1532	 3.17572074791751E-02 
1533	 3.20322626751243E-02 
1534	 3.31342779605776E-02 
1535	 0.032808184979023 
1536	 3.04129463988901E-02 
1537	 2.93681987908472E-02 
1538	 3.03999546633449E-02 
1539	 3.16002005884025E-02 
1540	 0.030233049394102 
1541	 2.93272300682568E-02 
1542	 3.14245346460385E-02 
1543	 3.10945917648219E-02 
1544	 0.029804481674557 
1545	 3.09607022842329E-02 
1546	 3.08141192781891E-02 
1547	 3.10986718394891E-02 
1548	 3.21249092616401E-02 
1549	 3.21190733798069E-02 
1550	 3.21223878389666E-02 
1551	 3.04868912344055E-02 
1552	 3.00102061259332E-02 
1553	 3.20584373663921E-02 
1554	 3.24516995917711E-02 
1555	 3.18010383802355E-02 
1556	 3.25452073097985E-02 
1557	 3.31065250099252E-02 
1558	 0.031620651871569 
1559	 0.03103919034508 
1560	 3.15349208657881E-02 
1561	 3.00949474943567E-02 
1562	 2.84318737894768E-02 
1563	 2.85291879140537E-02 
1564	 2.87644243893791E-02 
1565	 2.83195929817948E-02 
1566	 2.90209810078389E-02 
1567	 0.028893437082232 
1568	 0.02799576295591 
1569	 0.029640805868129 
1570	 3.04974100412478E-02 
1571	 2.86624331621924E-02 
1572	 2.81306810572125E-02 
1573	 2.90608529844422E-02 
1574	 2.86608820119517E-02 
1575	 2.83628809007201E-02 
1576	 2.89051774339225E-02 
1577	 2.83234418919095E-02 
1578	 2.72505720082377E-02 
1579	 2.90510573387266E-02 
1580	 3.14793837266362E-02 
1581	 3.08699109409535E-02 
1582	 3.04255038810012E-02 
1583	 2.95731807788544E-02 
1584	 0.028485558394591 
1585	 2.86778773029007E-02 
1586	 2.83727483054064E-02 
1587	 2.96987922999647E-02 
1588	 0.031229809598852 
1589	 3.07821920576368E-02 
1590	 3.08804514816463E-02 
1591	 3.10390613684275E-02 
1592	 2.96132714715131E-02 
1593	 0.029410659075743 
1594	 3.13086014049531E-02 
1595	 3.15115011634379E-02 
1596	 0.030945938320147 
1597	 3.20418425824044E-02 
1598	 3.16665634132673E-02 
1599	 2.97126819956697E-02 
1600	 3.04825082561999E-02 
1601	 3.15946780672954E-02 
1602	 3.07246252661111E-02 
1603	 3.02590732317122E-02 
1604	 3.08857193706574E-02 
1605	 0.031359504473298 
1606	 2.96880342165507E-02 
1607	 2.83897894258319E-02 
1608	 2.90496878375234E-02 
1609	 2.98790160168959E-02 
1610	 3.06035458953145E-02 
1611	 3.02416610245781E-02 
1612	 2.92598953363598E-02 
1613	 2.81874940493997E-02 
1614	 2.69698095476844E-02 
1615	 2.76639578235197E-02 
1616	 2.99262833947227E-02 
1617	 0.030012495335201 
1618	 2.90980277375483E-02 
1619	 3.00768273897224E-02 
1620	 3.00738724952169E-02 
1621	 2.90095794728647E-02 
1622	 2.93281602433203E-02 
1623	 3.03593639968892E-02 
1624	 3.13949886904012E-02 
1625	 3.22358786050085E-02 
1626	 3.24680299072902E-02 
1627	 3.24212442809704E-02 
1628	 3.22244703682127E-02 
1629	 3.14711110561973E-02 
1630	 3.15382521270003E-02 
1631	 3.26106721710282E-02 
1632	 3.22609103098791E-02 
1633	 3.06307958736967E-02 
1634	 3.11891602378231E-02 
1635	 3.22044490522561E-02 
1636	 0.031171747239618 
1637	 3.15698154099747E-02 
1638	 3.16983929541361E-02 
1639	 3.03857343377438E-02 
1640	 3.05273662126713E-02 
1641	 3.01295230354603E-02 
1642	 3.02244822805703E-02 
1643	 3.20646901446986E-02 
1644	 3.16438677739164E-02 
1645	 3.03240463128024E-02 
1646	 3.08454843358741E-02 
1647	 3.02182587589939E-02 
1648	 3.00645646336105E-02 
1649	 3.25401961053823E-02 
1650	 3.33938572695427E-02 
1651	 3.27282154572273E-02 
1652	 3.20758575801353E-02 
1653	 3.17196048832183E-02 
1654	 3.15449334022088E-02 
1655	 3.04508868141819E-02 
1656	 2.97567692063181E-02 
1657	 2.98938016465166E-02 
1658	 3.00701079809973E-02 
1659	 0.029903213075048 
1660	 2.99200425584781E-02 
1661	 3.08247966713096E-02 
1662	 3.03462101046858E-02 
1663	 0.028703485788794 
1664	 2.89549306136742E-02 
1665	 2.97996061992087E-02 
1666	 3.00612142935308E-02 
1667	 3.12498905394972E-02 
1668	 3.17974116829868E-02 
1669	 3.07123679967717E-02 
1670	 2.94877904167175E-02 
1671	 2.93901730637688E-02 
1672	 2.91275778001016E-02 
1673	 2.85834306059187E-02 
1674	 2.98195148657259E-02 
1675	 3.08045929865593E-02 
1676	 3.11128367843944E-02 
1677	 0.033009554994111 
1678	 3.31172711877625E-02 
1679	 3.25477501293657E-02 
1680	 0.033153371788808 
1681	 3.22821344601216E-02 
1682	 3.20539501615706E-02 
1683	 3.13195051066259E-02 
1684	 2.89204852789098E-02 
1685	 2.95948860036278E-02 
1686	 3.17998103784068E-02 
1687	 3.31355133114838E-02 
1688	 3.39471970596628E-02 
1689	 3.30255516339613E-02 
1690	 3.14560105127944E-02 
1691	 3.06723316742634E-02 
1692	 3.12836692471159E-02 
1693	 3.18385468193229E-02 
1694	 3.16632587183825E-02 
1695	 3.33791774198106E-02 
1696	 3.51609614106369E-02 
1697	 3.49392531680817E-02 
1698	 3.45059643363486E-02 
1699	 3.42475834749311E-02 
1700	 3.43269946709978E-02 
1701	 0.035357829821859 
1702	 3.69326860755555E-02 
1703	 3.63707300012449E-02 
1704	 3.29340432677807E-02 
1705	 3.22318246730033E-02 
1706	 0.034783300621302 
1707	 0.033807868623273 
1708	 3.29527460255356E-02 
1709	 3.46007497904278E-02 
1710	 3.12839703871065E-02 
1711	 0.030292342513739 
1712	 3.63930668797121E-02 
1713	 3.61659780050954E-02 
1714	 3.53469052359552E-02 
1715	 3.17422711259772E-02 
1716	 3.09804043449191E-02 
1717	 3.31362862085235E-02 
1718	 3.40041919771837E-02 
1719	 3.30565380167501E-02 
1720	 3.14907087836285E-02 
1721	 2.96985344052811E-02 
1722	 2.81859814049221E-02 
1723	 0.029822101407004 
1724	 0.031585016082175 
1725	 3.14301459995477E-02 
1726	 3.31465445282762E-02 
1727	 3.28502240902521E-02 
1728	 3.01030217245217E-02 
1729	 2.90447590471699E-02 
1730	 3.07098208665209E-02 
1731	 3.32095012559891E-02 
1732	 3.30347969134817E-02 
1733	 3.34875771715427E-02 
1734	 3.47453799546987E-02 
1735	 3.19021712647188E-02 
1736	 3.05766416505736E-02 
1737	 3.39329525453733E-02 
1738	 3.43711347129326E-02 
1739	 3.23434686283665E-02 
1740	 3.04935086974327E-02 
1741	 0.030055389685789 
1742	 3.20479460788659E-02 
1743	 3.50727212009727E-02 
1744	 3.83982349836913E-02 
1745	 3.75004987085819E-02 
1746	 3.61417629376854E-02 
1747	 0.036224094343446 
1748	 4.28059504074015E-02 
1749	 4.26473247655065E-02 
1750	 3.30932666377003E-02 
1751	 3.19830640483403E-02 
1752	 3.44673338683222E-02 
1753	 3.28792776429877E-02 
1754	 3.44426552327176E-02 
1755	 3.45672672488335E-02 
1756	 2.67065126229376E-02 
1757	 2.78778580817274E-02 
1758	 3.45180663445928E-02 
1759	 3.33204977633273E-02 
1760	 3.44338199151749E-02 
1761	 3.15230324040883E-02 
1762	 2.08482327370725E-02 
1763	 0.021561872186694 
1764	 2.59666339634276E-02 
1765	 2.81332547830809E-02 
1766	 3.32325225905092E-02 
1767	 3.19041963091934E-02 
1768	 0.028551510196935 
1769	 0.026775468425438 
1770	 2.44382166848233E-02 
1771	 0.026160808367512 
1772	 2.56515237930773E-02 
1773	 2.67956232903423E-02 
1774	 3.23663034316692E-02 
1775	 2.91649213147155E-02 
1776	 3.00103146507616E-02 
1777	 3.02629480088053E-02 
1778	 3.07337479354266E-02 
1779	 3.66765004544131E-02 
1780	 4.02796120784547E-02 
1781	 4.51588348912867E-02 
1782	 4.84396336987229E-02 
1783	 4.62815417946175E-02 
1784	 4.02437993014757E-02 
1785	 2.65354070278981E-02 
1786	 2.88335821563503E-02 
1787	 4.60503446028412E-02 
1788	 4.92024001165899E-02 
1789	 5.45009478730052E-02 
1790	 4.27243793598141E-02 
1791	 2.95654579165029E-02 
1792	 5.23473694651203E-02 
1793	 5.57264184648299E-02 
1794	 3.40318069552292E-02 
1795	 4.43716756682856E-02 
1796	 1.38384727189478E-02 
1797	-7.76452627741015E-03 
1798	-4.71677871273896E-02 
1799	-0.223279225964755 
1800	-0.319968919612639 
1801	-0.41393825409232 
1802	-0.256381823348351 
1803	-0.157838384717484 
1804	-6.90623865936034E-02 
1805	 0.115495551400377 
1806	 0.993798854742432 
1807	 1.19991738480393 
1808	 8.65866953130816E-02 
1809	-0.184776609858817 
1810	-0.653128388124784 
1811	-0.577821351572686 
1812	-0.24970619552326 
1813	-0.175804065826623 
1814	 0.347185633775198 
1815	 2.98757156046483E-02 
1816	 4.9733365106037 
1817	-2.25069450904251 
1818	-1.28097898086824 
1819	-5.52848930272128E-02 
1820	 0.153279619999947 
1821	-0.266940823489301 
1822	-0.16508079450022 
1823	-0.391142848168417 
1824	-0.452677801304451 
1825	 2.1097818316571 
1826	 1.1770580257569 
1827	-1.002862303091 
1828	-0.750574913792878 
1829	-0.384223595671247 
1830	-0.165369125886167 
1831	 1.68770418344457 
1832	 1.499719253111 
1833	 1.61567865100023 
1834	 1.3804553631037 
1835	 0.617235884884675 
1836	 0.598802885333069 
1837	 0.877603193024154 
1838	 1.20769084175739 
1839	-9.18459995509398 
1840	-1.40061008158929 
1841	-1.14297244970739 
1842	-0.532031272860572 
1843	-0.610565168344487 
1844	 1.53290076363761 
1845	 0.901077113490319 
1846	 0.283498333525625 
1847	 0.204805025149372 
1848	 0.35465237364188 
1849	 0.448108037347283 
1850	 0.74194601914147 
1851	 0.962553106668863 
1852	 0.799058096427163 
1853	 0.878152136220931 
1854	 0.96254268861358 
1855	 0.986569595702975 
1856	 1.17850760352555 
1857	-1.83837530739702 
1858	-1.55892905931246 
1859	 3.13712537377569 
1860	 2.67834943656689 
1861	 4.43964691031264 
1862	 1.65931651295809 
1863	 1.2481347721702 
1864	 1.69176559360015 
1865	 1.51919247426712 
1866	 0.598582096913249 
1867	 0.541980029459314 
1868	-2.27730274422827 
1869	-1.61447188015141 
1870	-2.31556655759298 
1871	 2.95099520241535 
1872	 1.82643760485008 
1873	 0.691947867579118 
1874	 0.360017855542815 
1875	 0.511811454280628 
1876	 0.708813901487769 
1877	-1.3706026674621 
1878	-1.57511771756149 
1879	 3.96707895448849 
1880	 3.36729896198974 
1881	 3.91804731669643 
1882	 0.858274752878363 
1883	 0.118660006317634 
1884	-0.429057017356841 
1885	-0.115999202942413 
1886	 0.20280323153555 
1887	 0.229808251454115 
1888	 0.911057205985892 
1889	 1.82265320311546 
1890	 3.01657658363271 
1891	 3.38118395248499 
1892	 3.24194998527135 
1893	 36.7156855048241 
1894	-1.78929468101891 
1895	-4.34747862940272 
1896	-0.615975760862342 
1897	-0.984066978170341 
1898	-1.253151939992 
1899	-1.2274965532906 
1900	-1.81500488629139 
1901	-0.129411316773697 
1902	 8.04576833236327E-03 
1903	 0.253275566407235 
1904	 0.326353942799547 
1905	 0.861365538705542 
1906	 1.2197267083755 
1907	 0.683263808729454 
1908	-0.635130124424134 
1909	-0.624238071102625 
1910	-0.54519547191432 
1911	-0.732312209387943 
1912	-3.70115397035496 
1913	-0.344265076888832 
1914	 0.893205557587051 
1915	 0.791780433010152 
1916	 0.921083855200157 
1917	 1.03270031183657 
1918	-1.09172073346866 
1919	 0.820702641444219 
1920	 0.261216790419457 
1921	 3.39972761418782E-02 
1922	-0.510284693712179 
1923	-0.562963909598087 
1924	-0.388810687144917 
1925	 1.3373057985309 
1926	-7.4926297042648 
1927	 3.79095460666182 
1928	 7.98896450463158 
1929	 5.69148799746998 
1930	 2.0482061127296 
1931	-0.943627048319499 
1932	-1.25935354642194 
1933	 0.66651063994247 
1934	-13.1965259652875 
1935	 2.45176531915619 
1936	 0.757823014591051 
1937	 1.62897771932432 
1938	-89.2396115084215 
1939	-10.4257694025902 
1940	 11.7683110391865 
1941	 19.9129884081819 
1942	-2.49171816926956 
1943	-1.68524770266548 
1944	-0.698521062158005 
1945	 0.129505703247688 
1946	 3.5948341539242 
1947	-1.57873511258105 
1948	-3.15362992363826 
1949	-2.21364953929083 
1950	-13.0560158595989 
1951	 5428.15964310868 
1952	-46.5877298562893 
1953	-1.00177392288019 
1954	-0.464900339294631 
1955	-0.683428613845922 
1956	 112.960592174052 
1957	 2.99497230600691 
1958	-1.25638161055886 
1959	-3.46840410078786 
1960	 4.25388986081742 
1961	 2.10355793969899 
1962	 0.485775220482195 
1963	 0.179827685776821 
1964	 0.222952624792077 
1965	 0.104413194812385 
1966	 0.101187301016018 
1967	 0.145712890974027 
1968	 0.163775823991603 
1969	 1.89897769975833E-02 
1970	-4.17664538287166E-02 
1971	-7.67533784586555E-02 
1972	-0.204341212335422 
1973	-0.215253480709183 
1974	-9.87399643938274E-02 
1975	-0.082412057854387 
1976	-0.109390087966183 
1977	-9.94751218865971E-02 
1978	-0.145760572932246 
1979	-0.136332088548211 
1980	-0.103549657229862 
1981	-3.07205579224733E-02 
1982	-3.49522586312986E-02 
1983	-2.07798761803272E-02 
1984	 2.84772455493991E-03 
1985	-2.13073619384278E-02 
1986	 1.14184405052721E-03 
1987	 6.37421422596873E-02 
1988	 6.57856751350229E-02 
1989	 3.91906321091054E-02 
1990	 3.49475310664151E-02 
1991	 1.64096324287983E-02 
1992	 1.75938442898501E-02 
1993	 4.35041358509766E-02 
1994	 5.33722004884415E-02 
1995	 6.83703038441463E-02 
1996	 6.21212340231977E-02 
1997	 2.48152903864816E-02 
1998	 2.51862734814336E-02 
1999	 8.15526980090844E-02 
2000	 0.105102383414386 
2001	 0.154895972007911 
2002	 0.205485691517192 
2003	 0.200133341659968 
2004	 0.187948674045616 
2005	 0.180589002848004 
2006	 0.253469894217226 
2007	 0.32114914125876 
2008	 0.317309807595868 
2009	 0.319647045426681 
2010	 0.318307677990862 
2011	 0.273856985684146 
2012	 0.181584058543381 
2013	 0.13725425924131 
2014	 0.136036725261187 
2015	 0.122497018378695 
2016	 0.112168340611371 
2017	 0.116961092719411 
2018	 0.081842919113945 
2019	 2.10949550427276E-02 
2020	-5.64209593979493E-03 
2021	-3.96241759749021E-03 
2022	-2.21786538469109E-02 
2023	-1.22808650557243E-02 
2024	 2.03477913605776E-03 
2025	 1.57450100490187E-02 
2026	 2.62738402763024E-02 
2027	 0.055696143114718 
2028	 6.15718643637886E-02 
2029	 0.037245029078943 
2030	 0.011000027003919 
2031	-1.0466562234545E-03 
2032	 9.40710849502849E-03 
2033	 2.60174124756299E-02 
2034	 0.040127746756715 
2035	 4.77140502476491E-02 
2036	 0.037098311250197 
2037	 3.04436999256631E-02 
2038	 3.70789245267799E-02 
2039	 0.038073341525589 
2040	 3.98317272893046E-02 
2041	 3.82615985512032E-02 
2042	 3.18798822952911E-02 
2043	 2.95002995265676E-02 
2044	 2.55333749738172E-02 
2045	 2.93038107656446E-02 
2046	 3.48675415346702E-02 
2047	 2.99576552970358E-02 
2048	 3.82631609923125E-02 
2049	 3.72654916793392E-02 
2050	 1.10442831594561E-02 
2051	-6.12669458412467E-04 
2052	-6.89150456522981E-03 
2053	-3.4095539092779E-03 
2054	 2.80506331779835E-02 
2055	 0.072026587093921 
2056	 8.76456432216272E-02 
2057	 7.65436621608333E-02 
2058	 7.39205471016765E-02 
2059	 0.060756028263946 
2060	 5.17256264573589E-02 
2061	 4.24200745976177E-02 
2062	 4.30344142556267E-02 
2063	 4.61654386668699E-02 
2064	 5.09944432800347E-02 
2065	 3.77286878600668E-02 
2066	 3.63232137763708E-02 
2067	 0.053305178022674 
2068	 4.45222190693975E-02 
2069	 4.75076217854403E-02 
2070	 6.69530330756822E-02 
2071	 6.64105510318934E-02 
2072	 6.31736985595991E-02 
2073	 0.066839613703156 
2074	 8.80765231445498E-02 
2075	 8.23563124234051E-02 
2076	 6.30916619255364E-02 
2077	 4.99678029566651E-02 
2078	 2.25137314302096E-02 
2079	 1.55867634956468E-02 
2080	 2.09469069953961E-02 
2081	 2.14066362954767E-02 
2082	 2.54919417228071E-02 
2083	 1.69055562700639E-02 
2084	 1.28225911283586E-02 
2085	 2.11806293097622E-02 
2086	 2.11715737977666E-02 
2087	 2.90603354385193E-02 
2088	 0.034749030596528 
2089	 2.33270248166806E-02 
2090	 1.78404083198175E-02 
2091	 6.47244099797595E-03 
2092	-1.88328038495085E-03 
2093	-1.66252109820516E-02 
2094	-1.82531253721537E-02 
2095	-1.58715322705812E-02 
2096	-3.81054027036116E-03 
2097	 2.11794230596307E-02 
2098	 3.30912692388689E-02 
2099	 5.04485493802985E-02 
2100	 5.81672882392202E-02 
2101	 4.88620695000885E-02 
2102	 4.48130974993431E-02 
2103	 3.09651030089524E-02 
2104	 2.31377296367204E-02 
2105	 2.11416934216085E-02 
2106	 1.37575036133561E-02 
2107	 1.61352546407484E-02 
2108	 2.35869161676135E-02 
2109	 3.02324016706735E-02 
2110	 3.48246425352506E-02 
2111	 0.032737947304513 
2112	 3.05576167579643E-02 
2113	 3.17361449698629E-02 
2114	 3.30831560994029E-02 
2115	 3.37827146340096E-02 
2116	 3.88610591278956E-02 
2117	 4.12328132699688E-02 
2118	 0.042005636919314 
2119	 4.13695410590285E-02 
2120	 4.09182219950303E-02 
2121	 3.69544216492326E-02 
2122	 3.22383098394036E-02 
2123	 3.30491794177603E-02 
2124	 3.33396445334488E-02 
2125	 2.77824329790124E-02 
2126	 2.53703056161267E-02 
2127	 2.29676839429059E-02 
2128	 2.38400333133794E-02 
2129	 2.94863537842079E-02 
2130	 2.70395598444201E-02 
2131	 2.43650449351665E-02 
2132	 2.30590591502239E-02 
2133	 2.68305946533367E-02 
2134	 2.82222580795158E-02 
2135	 3.35170165253837E-02 
2136	 3.30085090591315E-02 
2137	 0.023819216614651 
2138	 0.024091748834838 
2139	 2.96658003550039E-02 
2140	 3.12040258991745E-02 
2141	 3.86414926257132E-02 
2142	 3.89690320400072E-02 
2143	 3.00375657163742E-02 
2144	 2.87203292365566E-02 
2145	 0.023235852817314 
2146	 2.33736149271869E-02 
2147	 3.13460511278947E-02 
2148	 3.86161599722139E-02 
2149	 5.09736401023443E-02 
2150	 5.76637407925003E-02 
2151	 5.62513840871204E-02 
2152	 4.74828031486561E-02 
2153	 4.28697829611999E-02 
2154	 4.66407007263647E-02 
2155	 4.43061066162672E-02 
2156	 4.67361243723628E-02 
2157	 4.62057380665798E-02 
2158	 0.038265950376187 
2159	 3.25540449567579E-02 
2160	 3.03102113840713E-02 
2161	 2.74426581485058E-02 
2162	 1.99524984546442E-02 
2163	 2.05121391248326E-02 
2164	 2.85743601956462E-02 
2165	 2.89050351956857E-02 
2166	 3.24059677098269E-02 
2167	 0.032364943118048 
2168	 2.40036057285406E-02 
2169	 1.87854482893852E-02 
2170	 1.36260432318258E-02 
2171	 7.84342330091759E-03 
2172	 7.00461423540854E-03 
2173	 1.10485374645995E-02 
2174	 1.20922150235707E-02 
2175	 1.44777583834771E-02 
2176	 1.10185467599882E-02 
2177	 3.80710027568917E-03 
2178	 8.41865556710917E-03 
2179	 1.55925538150152E-02 
2180	 1.86282656116059E-02 
2181	 2.83503407880424E-02 
2182	 4.02069649824598E-02 
2183	 3.77172521582489E-02 
2184	 3.58794756876513E-02 
2185	 3.97018628629866E-02 
2186	 3.50184546175221E-02 
2187	 0.018678386944242 
2188	 1.28762373260347E-02 
2189	 7.66627219077728E-03 
2190	 6.85514917490813E-03 
2191	 1.73488564379195E-02 
2192	 1.65029280234533E-02 
2193	 5.07871410421139E-03 
2194	 5.21594334848075E-03 
2195	 1.03873950127822E-02 
2196	 0.011536883027316 
2197	 2.35075109722746E-02 
2198	 2.73931559783547E-02 
2199	 0.019969213432321 
2200	 1.39351917081308E-02 
2201	 5.53176150395051E-03 
2202	-1.44465012584262E-02 
2203	-1.05097544634113E-02 
2204	 3.51017835325018E-03 
2205	 1.88464698418405E-02 
2206	 4.34278566551698E-02 
2207	 5.75902814952569E-02 
2208	 5.21910591261481E-02 
2209	 4.19374654790736E-02 
2210	 4.54828053032013E-02 
2211	 4.34378095329129E-02 
2212	 3.77531692074585E-02 
2213	 4.65515710222613E-02 
2214	 4.13494425910465E-02 
2215	 0.032423345121474 
2216	 0.025648080145841 
2217	 2.31296006788043E-02 
2218	 2.65525881921736E-02 
2219	 2.66554075905548E-02 
2220	 2.72503325754686E-02 
2221	 3.09326916919156E-02 
2222	 3.09406233965561E-02 
2223	 0.039366925811236 
2224	 5.90017804962186E-02 
2225	 7.01869019809108E-02 
2226	 8.09326761758774E-02 
2227	 8.68206257805122E-02 
2228	 8.91036835953742E-02 
2229	 8.93402458257952E-02 
2230	 8.80919774877276E-02 
2231	 8.37528321313822E-02 
2232	 7.44032636608729E-02 
2233	 6.66166810603081E-02 
2234	 5.39141695086362E-02 
2235	 4.51181090800119E-02 
2236	 5.08163973694332E-02 
2237	 4.89702713106314E-02 
2238	 5.16628234992999E-02 
2239	 5.47956474492085E-02 
2240	 2.55811665528416E-02 
2241	 1.75652615971956E-02 
2242	 1.95936256956932E-02 
2243	 3.97131432019541E-03 
2244	 1.73322932195522E-02 
2245	 1.05060703644357E-02 
2246	-1.93186328762013E-02 
2247	-2.13216767334909E-02 
2248	-1.21208219952055E-02 
2249	 3.2803036921366E-03 
2250	 2.17181084547396E-02 
2251	 2.57400660332132E-02 
2252	 3.03260086506029E-02 
2253	 3.32850858214637E-02 
2254	 1.35531673183891E-02 
2255	 8.07556169045888E-03 
2256	 7.04573542047047E-03 
2257	-1.43636785476458E-05 
2258	 2.26554226288182E-02 
2259	 4.73954506440412E-02 
2260	 5.63791119843593E-02 
2261	 4.69478734811427E-02 
2262	 4.77913170699932E-02 
2263	 5.08159491803723E-02 
2264	 4.77546257206145E-02 
2265	 0.041063344911421 
2266	 4.25148238986579E-02 
2267	 3.79063501025647E-02 
2268	 3.40065614136662E-02 
2269	 3.87862914073482E-02 
2270	 4.82847537506398E-02 
2271	 6.75701552338128E-02 
2272	 6.63328080591185E-02 
2273	 5.44921610347552E-02 
2274	 4.75666227195221E-02 
2275	 1.85092065222234E-02 
2276	 5.60529110143973E-03 
2277	 1.92393533087233E-02 
2278	 1.81470561563709E-02 
2279	 2.50980017200006E-03 
2280	 4.66856112350821E-03 
2281	 2.04978095770575E-02 
2282	 1.88568058791621E-02 
2283	 1.46447626388988E-02 
2284	 2.68613472056729E-02 
2285	 4.75371309437857E-02 
2286	 7.00973984396598E-02 
2287	 5.85363961101339E-02 
2288	 4.62420064179657E-02 
2289	 3.76324797268355E-02 
2290	 5.66029946740201E-03 
2291	 1.70305101998402E-02 
2292	 6.07463311304998E-02 
2293	 0.039524561903982 
2294	 2.28656737785474E-02 
2295	 6.42588523825179E-02 
2296	 7.60555305776218E-02 
2297	 0.103235641742189 
2298	 0.142377868412825 
2299	 0.142401581040041 
2300	 9.00383899317304E-02 
2301	 4.08850964915573E-02 
2302	 2.30137607435488E-02 
2303	-5.97646298993085E-03 
2304	 1.74273789493504E-02 
2305	 7.10260841796749E-03 
2306	-3.64563824847829E-02 
2307	-3.32107631049019E-02 
2308	-0.053762589141622 
2309	-4.27402521129614E-02 
2310	-2.49756809095105E-02 
2311	-4.03954449413398E-02 
2312	 2.20318114366672E-03 
2313	 4.10200782302502E-02 
2314	 1.83256798304728E-02 
2315	-3.03177692710999E-02 
2316	-6.27007268898752E-02 
2317	-7.86364361121812E-02 
2318	-8.91003579180743E-02 
2319	-6.53888204603998E-02 
2320	-7.68559584334398E-02 
2321	-0.128426578934099 
2322	-0.163404039564785 
2323	-0.158448608438527 
2324	-0.164860460442687 
2325	-0.211590252430374 
2326	-0.225229801346437 
2327	-0.287693165175164 
2328	-0.334075699416321 
2329	-0.184441380803407 
2330	-7.21791578495623E-02 
2331	-5.38999779804545E-02 
2332	 1.44595872050418E-02 
2333	-2.78222627141782E-02 
2334	-0.116448559135006 
2335	-0.127232302639659 
2336	-0.235373547012512 
2337	-0.344286648677149 
2338	-0.418529421227201 
2339	-0.491659584801007 
2340	-0.393914914172094 
2341	-0.202862769924792 
2342	 3.08199322287409E-02 
2343	 0.154595656403993 
2344	 4.56303315499495E-02 
2345	-7.96307805704951E-02 
2346	-8.67480323901275E-02 
2347	-0.106240073484901 
2348	-7.00442416557883E-02 
2349	-4.31020253901503E-02 
2350	-0.299043769498562 
2351	-0.489566283890834 
2352	-0.459751769948098 
2353	-0.399959003857901 
2354	-0.18267128477882 
2355	 4.20948278054069E-02 
2356	 9.40393048468847E-02 
2357	-2.09054243685815E-02 
2358	-0.139013596164055 
2359	-0.218231165934898 
2360	-0.289193822473245 
2361	-0.37101088225976 
2362	-0.27784106963181 
2363	-0.257517639481635 
2364	-0.369045568107872 
2365	-0.296464750966408 
2366	-0.326242679430263 
2367	-0.330883468354704 
2368	-0.247857152475092 
2369	-0.423136708314724 
2370	-0.40944285360262 
2371	-0.312087857333614 
2372	-0.18014808961335 
2373	 0.158546336234329 
2374	 0.413828453797274 
2375	 0.435838872346668 
2376	-0.104484428511922 
2377	-1.6774755265635 
2378	-0.81926119764701 
2379	-0.261540883735072 
2380	-0.347940435997311 
2381	-0.19902465292353 
2382	-0.165130508030803 
2383	-0.390096408939714 
2384	 0.142739328176855 
2385	 0.204703184739915 
2386	 0.119794873122302 
2387	 6.82418763218085E-02 
2388	-0.071701380626955 
2389	-0.249644834255696 
2390	-0.368123288068229 
2391	-0.234338933993668 
2392	 0.017150721929709 
2393	-0.152860976730404 
2394	-0.152842885841548 
2395	 0.185150413388477 
2396	 0.223632216365572 
2397	 0.691290531233712 
2398	 1.01687745690413 
2399	 0.822133605635869 
2400	 0.676521127822918 
2401	 0.097576679929638 
2402	-0.509444712814392 
2403	-2.56550168313557 
2404	-3.89815785649955 
2405	-1.20080845419762 
2406	-0.628063119482045 
2407	-0.338150213220334 
2408	 8.27411773901738E-02 
2409	-5.75896807498529 
2410	-1.21143585347291 
2411	-0.668840556434399 
2412	 0.314326617102021 
2413	-1.55018812440104 
2414	-0.712165268513284 
2415	-1.19623881366371 
2416	-0.762802428875399 
2417	-0.669555066072182 
2418	-1.28478132158702 
2419	-0.710439352134799 
2420	 0.723004065442934 
2421	 1.25781499761708 
2422	-2.54445140118889 
2423	-0.653092811157053 
2424	-1.09537217363807 
2425	-4.03091573287922 
2426	 2.47019805751315 
2427	 1.15398404672481 
2428	 0.941000169309454 
2429	 0.722149849629473 
2430	 0.99102561640833 
2431	 2.90125339793885 
2432	 1.35342326461917 
2433	 1.08456099576772 
2434	 0.742512771023421 
2435	 0.201494162510877 
2436	-4.27578824600004E-02 
2437	 5.47223383002286E-02 
2438	 0.7626315155219 
2439	 1.08747014473147 
2440	 1.63228901798614 
2441	 0.9542110092689 
2442	 2.11405647705427E-02 
2443	-0.17263413865031 
2444	-0.108172047849245 
2445	-0.135649665280687 
2446	 1.00387683800448 
2447	 3.87653931430834 
2448	 4.57355638405175 
2449	 0.782476216362191 
2450	 0.725804920815627 
2451	 1.1193928547717 
2452	 1.94198838810238 
2453	 5.64539505318828 
2454	 2.76771132483946 
2455	 1.93285330034479 
2456	 1.94319582748042 
2457	 3.66293571795598 
2458	-0.971020143014414 
2459	-0.315147819924109 
2460	 0.1602682833194 
2461	-3.13489104222793 
2462	-0.137565632863659 
2463	-0.219254456796571 
2464	-9.56509527106777E-02 
2465	 0.167098282872828 
2466	 9.59173019991962E-02 
2467	 0.51823581843754 
2468	 0.653218261133448 
2469	 0.207324739966252 
2470	 8.85932532871751E-02 
2471	-2.41812876518991E-02 
2472	-0.881288575609716 
2473	-1.48444256233511 
2474	-1.13255109468662 
2475	-1.97127925483952 
2476	 11.7781985706892 
2477	 0.549585031561579 
2478	 5.71171657174194E-02 
2479	-0.511250632562494 
2480	-1.3984040542017 
2481	-2.29622205128761 
2482	-2.60390010092187 
2483	-2.82063806991835 
2484	-6.9896229507862 
2485	 2.64615159153493 
2486	 1.37257142135301 
2487	 1.21644792025777 
2488	 1.22903863501431 
2489	 0.968959827372982 
2490	 0.628319812110968 
2491	 0.37365717566596 
2492	-0.231939548073726 
2493	 0.885647847003285 
2494	 2.89631857353038 
2495	-0.781952600863242 
2496	-0.104400509370056 
2497	 10.981941887909 
2498	 3.03111748008396 
2499	-5.36450605163983 
2500	-3.82526608117017 
