Wavelength	rt0727far200009.asd
350	 5.59333343189434E-02 
351	 5.58928254833455E-02 
352	 5.51984196315948E-02 
353	 5.47454267400587E-02 
354	 5.51509750700453E-02 
355	 5.63109351549302E-02 
356	 5.63346452928975E-02 
357	 5.55062674850505E-02 
358	 5.49578705759491E-02 
359	 5.59937603120263E-02 
360	 5.65056810275489E-02 
361	 5.60180483782417E-02 
362	 5.53943923154874E-02 
363	 0.05598773640772 
364	 5.66919216209603E-02 
365	 0.056759375853563 
366	 5.64647617538055E-02 
367	 5.65081323367762E-02 
368	 5.63780646882314E-02 
369	 5.58487923393872E-02 
370	 5.70757032393344E-02 
371	 5.70266158433481E-02 
372	 5.60780388005284E-02 
373	 5.64589414031116E-02 
374	 5.70503975370585E-02 
375	 5.72570095637326E-02 
376	 5.71071783577528E-02 
377	 5.73949898746735E-02 
378	 5.75639147845346E-02 
379	 5.78069513263248E-02 
380	 5.82496642061705E-02 
381	 5.82324500829698E-02 
382	 5.87298984572364E-02 
383	 5.90754087918349E-02 
384	 5.82167822364503E-02 
385	 0.058334295253917 
386	 5.83255454272213E-02 
387	 5.81391499527172E-02 
388	 5.90942024333956E-02 
389	 5.94095102501578E-02 
390	 5.92951950092455E-02 
391	 5.93004116681111E-02 
392	 5.98316786766519E-02 
393	 5.96226084168083E-02 
394	 5.94456424327806E-02 
395	 0.060319858119724 
396	 6.03363412002541E-02 
397	 6.02457378880369E-02 
398	 6.03112191573079E-02 
399	 6.02522778494296E-02 
400	 0.060397482334464 
401	 6.06544025591296E-02 
402	 6.08935632783663E-02 
403	 6.10605815942857E-02 
404	 6.11129875513418E-02 
405	 0.061213076112263 
406	 0.061499848571759 
407	 6.15115503077757E-02 
408	 6.15853022036394E-02 
409	 6.17781325028071E-02 
410	 6.18387797914732E-02 
411	 6.19712439261481E-02 
412	 0.062205578997272 
413	 6.24378428939414E-02 
414	 0.062281715300337 
415	 0.062378058775643 
416	 6.27056285674857E-02 
417	 6.29639370020757E-02 
418	 6.29999497732807E-02 
419	 6.31930126115746E-02 
420	 6.35342929963735E-02 
421	 6.35793372256921E-02 
422	 6.37552553892069E-02 
423	 6.40937498078319E-02 
424	 0.064460014903092 
425	 0.064456723455584 
426	 6.48200101900054E-02 
427	 6.53719405336162E-02 
428	 6.55632964942038E-02 
429	 6.57196499650888E-02 
430	 6.59895224530805E-02 
431	 0.066338662059233 
432	 6.65432631294378E-02 
433	 6.68686514923266E-02 
434	 6.72512360400724E-02 
435	 6.75816961752603E-02 
436	 6.78350961374217E-02 
437	 6.81270992350136E-02 
438	 6.84767312754434E-02 
439	 6.88484937102841E-02 
440	 0.069289047141593 
441	 6.96015252545455E-02 
442	 6.97937413987879E-02 
443	 7.02057162926876E-02 
444	 7.06084579555752E-02 
445	 7.09786201543413E-02 
446	 7.13453256236717E-02 
447	 7.17330179141337E-02 
448	 7.20659187655365E-02 
449	 7.22924554548045E-02 
450	 7.24129953239254E-02 
451	 7.27751404185273E-02 
452	 7.31585174482481E-02 
453	 0.073419963062121 
454	 7.37563122024028E-02 
455	 7.39978504631604E-02 
456	 7.41274363539746E-02 
457	 7.42371366416335E-02 
458	 7.46806396854347E-02 
459	 0.074929991359696 
460	 7.49582796761202E-02 
461	 7.52612986227536E-02 
462	 7.54340373482873E-02 
463	 7.55295630805279E-02 
464	 7.56958592967895E-02 
465	 7.60972694895074E-02 
466	 7.65122611976778E-02 
467	 0.076835688229361 
468	 7.70370295128043E-02 
469	 7.71178815127121E-02 
470	 0.077361227634207 
471	 7.78023772245052E-02 
472	 7.81216125187244E-02 
473	 0.078311740028498 
474	 7.86356820920587E-02 
475	 7.92042216656742E-02 
476	 7.92954724113728E-02 
477	 7.95183295162973E-02 
478	 7.99023168079048E-02 
479	 8.01034147674715E-02 
480	 8.04577050308561E-02 
481	 8.08218363957072E-02 
482	 8.10788153186579E-02 
483	 8.12760021344475E-02 
484	 8.15960820961189E-02 
485	 8.19693356575839E-02 
486	 8.22697438644032E-02 
487	 8.26633348487906E-02 
488	 0.083054504675513 
489	 8.34053723881379E-02 
490	 8.37522423726425E-02 
491	 8.41896851919122E-02 
492	 8.46400557251314E-02 
493	 8.50694942393832E-02 
494	 8.57039589518482E-02 
495	 8.60946530780563E-02 
496	 0.086408174464321 
497	 8.70480653673477E-02 
498	 8.74592199863277E-02 
499	 8.80360187003267E-02 
500	 8.88767116148846E-02 
501	 8.94854944735095E-02 
502	 8.98998818021748E-02 
503	 9.04385226799682E-02 
504	 9.12938093943564E-02 
505	 9.17877030531326E-02 
506	 9.22189524397798E-02 
507	 9.28317465312529E-02 
508	 9.37406286895189E-02 
509	 0.09410083931407 
510	 9.44802000509899E-02 
511	 9.52848294775757E-02 
512	 9.60398686505186E-02 
513	 9.67095992746037E-02 
514	 9.73269877223819E-02 
515	 9.79937927072482E-02 
516	 9.89414711811894E-02 
517	 9.97745373627601E-02 
518	 0.10037278623282 
519	 0.101024353640232 
520	 0.101841176816076 
521	 0.10269608133918 
522	 0.103475717394907 
523	 0.10432196499175 
524	 0.105157120035681 
525	 0.105949977279705 
526	 0.106714707985344 
527	 0.10752876346522 
528	 0.108430714681303 
529	 0.109341197908341 
530	 0.10994340687468 
531	 0.110696288270565 
532	 0.111574276553699 
533	 0.112410285531636 
534	 0.113402417834336 
535	 0.114303305694412 
536	 0.115107559377044 
537	 0.116099563398417 
538	 0.116920962119752 
539	 0.117764333127757 
540	 0.11881930508747 
541	 0.119843996992226 
542	 0.120766393382182 
543	 0.121574134755143 
544	 0.122321626632349 
545	 0.12322603958735 
546	 0.124190013884595 
547	 0.125145939922206 
548	 0.126186959606036 
549	 0.127086722003094 
550	 0.127943522407851 
551	 0.128913425046891 
552	 0.129729316489874 
553	 0.130635783901155 
554	 0.131659215154484 
555	 0.132548179767255 
556	 0.133443159684191 
557	 0.134414462035755 
558	 0.135442547353088 
559	 0.136313139092848 
560	 0.137142228215679 
561	 0.137931059518311 
562	 0.138622035989983 
563	 0.139286282036739 
564	 0.139893036544573 
565	 0.140469962062378 
566	 0.141201175540928 
567	 0.141793393933428 
568	 0.14223610534518 
569	 0.142621565787849 
570	 0.142946321731557 
571	 0.143258921583382 
572	 0.143588288809909 
573	 0.143933997130722 
574	 0.14416803255633 
575	 0.144315084798993 
576	 0.144423010730856 
577	 0.14448758294128 
578	 0.144500695302906 
579	 0.144442591501482 
580	 0.144298299319884 
581	 0.144170853167922 
582	 0.143931826885175 
583	 0.143558581294333 
584	 0.143274233527139 
585	 0.142969810414685 
586	 0.142610802178527 
587	 0.142179758338835 
588	 0.141659728526682 
589	 0.141183346965777 
590	 0.140782539550684 
591	 0.140319530338558 
592	 0.139827479620648 
593	 0.139104057266094 
594	 0.138116955816366 
595	 0.137467019226227 
596	 0.136347642431546 
597	 0.134871253194686 
598	 0.133621912367871 
599	 0.132274583645338 
600	 0.131076470828589 
601	 0.130224830591716 
602	 0.129763239357793 
603	 0.129131912891069 
604	 0.128565303895906 
605	 0.128421536192528 
606	 0.128208678391156 
607	 0.128089231463027 
608	 0.127977881396676 
609	 0.127538369424787 
610	 0.127521020324669 
611	 0.127527048768014 
612	 0.127202773163471 
613	 0.127080485292407 
614	 0.126895253840665 
615	 0.126648484805664 
616	 0.12648531943583 
617	 0.126396385700708 
618	 0.126368334391784 
619	 0.126297579820031 
620	 0.125923979732339 
621	 0.125703780533052 
622	 0.125682297214645 
623	 0.125713035786369 
624	 0.12547161731135 
625	 0.125236752824163 
626	 0.125172299305172 
627	 0.125285079018353 
628	 0.125174582127617 
629	 0.124971988984168 
630	 0.12481646431178 
631	 0.124551047538073 
632	 0.124438816378481 
633	 0.124358468368963 
634	 0.12406483939356 
635	 0.123926204753486 
636	 0.123784878598015 
637	 0.123618547087416 
638	 0.123670013366995 
639	 0.123675729716051 
640	 0.123602879547429 
641	 0.123470182104409 
642	 0.1231842732812 
643	 0.122989784606893 
644	 0.122894417869285 
645	 0.122720445792121 
646	 0.122779959205309 
647	 0.122581874121165 
648	 0.121962364753669 
649	 0.121880222711052 
650	 0.121319247305438 
651	 0.120585005712397 
652	 0.120273133993443 
653	 0.11910059881241 
654	 0.11793880131556 
655	 0.11706563366209 
656	 0.115854607871015 
657	 0.114628927599487 
658	 0.11343575625267 
659	 0.112266437806262 
660	 0.111268599740879 
661	 0.110267211150021 
662	 0.109292499576753 
663	 0.108495376804663 
664	 0.107610635260427 
665	 0.106858273375837 
666	 0.106287339321608 
667	 0.10555265676163 
668	 0.10487232899623 
669	 0.104450833641424 
670	 0.104362563614635 
671	 0.104036968648642 
672	 0.103937741313055 
673	 0.104077001722498 
674	 0.104032396115478 
675	 0.104194130377006 
676	 0.104543594329056 
677	 0.104950959856278 
678	 0.10520024451523 
679	 0.10545686828144 
680	 0.105889045736191 
681	 0.10660579790243 
682	 0.107306009267616 
683	 0.107991965545418 
684	 0.108707948835679 
685	 0.109602392044796 
686	 0.110616052893 
687	 0.111468101277345 
688	 0.111973679995472 
689	 0.112629864764333 
690	 0.112981510057031 
691	 0.113236067097258 
692	 0.113921836064216 
693	 0.114022104069142 
694	 0.113747494918425 
695	 0.113351904720488 
696	 0.112667326519546 
697	 0.112202989936487 
698	 0.111693641560037 
699	 0.110817590347633 
700	 0.110077670564761 
701	 0.109093738190196 
702	 0.107855622329563 
703	 0.106588529105554 
704	 0.105240858627611 
705	 0.103830370875358 
706	 0.102368250526992 
707	 0.100652341226009 
708	 9.88622017733599E-02 
709	 9.70682698049716E-02 
710	 9.52578942298432E-02 
711	 9.31013963993509E-02 
712	 9.07830710876722E-02 
713	 8.85512251533725E-02 
714	 0.086638747291987 
715	 0.084958101155318 
716	 8.28703596285022E-02 
717	 0.07999857130729 
718	 7.72953426940246E-02 
719	 0.074570418995591 
720	 7.23302982062433E-02 
721	 7.03572838056604E-02 
722	 6.84459947555849E-02 
723	 0.066212255975562 
724	 6.40558730437628E-02 
725	 6.23662258988908E-02 
726	 6.02411392179011E-02 
727	 5.78670690094432E-02 
728	 5.55056095720567E-02 
729	 5.28498463420313E-02 
730	 5.02387738179179E-02 
731	 4.80919647901331E-02 
732	 4.64380513322212E-02 
733	 4.53255352098152E-02 
734	 4.42822822518407E-02 
735	 4.31475414423031E-02 
736	 4.21418507458505E-02 
737	 4.14010489259233E-02 
738	 4.09249778153302E-02 
739	 4.06613165992204E-02 
740	 0.040521236728172 
741	 4.03326247319463E-02 
742	 4.01852444886822E-02 
743	 4.02214949574493E-02 
744	 3.98488699180792E-02 
745	 3.96501940315456E-02 
746	 3.98301998915706E-02 
747	 3.99433856523903E-02 
748	 3.99311168478088E-02 
749	 3.97965281329386E-02 
750	 3.96051548167207E-02 
751	 3.94767208379989E-02 
752	 0.039583947331313 
753	 3.97339166018612E-02 
754	 3.95889723441279E-02 
755	 3.94136934984936E-02 
756	 3.94224031513186E-02 
757	 0.039590691467747 
758	 3.95451109084061E-02 
759	 4.00609194423184E-02 
760	 4.09206219718896E-02 
761	 4.07291279664148E-02 
762	 4.05018060951938E-02 
763	 4.02566253635893E-02 
764	 4.00963663126585E-02 
765	 4.00468837155534E-02 
766	 4.00350573041627E-02 
767	 0.039968496046904 
768	 3.99062356833779E-02 
769	 4.00389741786107E-02 
770	 4.02540187627547E-02 
771	 0.040364248191384 
772	 4.03305634739974E-02 
773	 4.05496779508332E-02 
774	 4.07357789513181E-02 
775	 4.08570329177846E-02 
776	 4.09840155955538E-02 
777	 4.10606899911964E-02 
778	 4.12793078806462E-02 
779	 4.16389924383547E-02 
780	 4.19342143812392E-02 
781	 4.21970638890316E-02 
782	 0.042361259870942 
783	 4.24487958996346E-02 
784	 4.27014396168873E-02 
785	 4.31145660822617E-02 
786	 4.34338331431863E-02 
787	 4.34537508254723E-02 
788	 4.38405920584406E-02 
789	 4.41485165095201E-02 
790	 4.43711169654786E-02 
791	 4.48510558309373E-02 
792	 4.50273767674792E-02 
793	 4.53243559210346E-02 
794	 4.59074475079438E-02 
795	 4.62972499382016E-02 
796	 4.64596128674276E-02 
797	 4.65652686095233E-02 
798	 4.68064150859861E-02 
799	 4.71539319657571E-02 
800	 4.74341465247658E-02 
801	 4.77825184529627E-02 
802	 4.83546060792627E-02 
803	 4.80351225476332E-02 
804	 4.81565950693838E-02 
805	 0.04881948128349 
806	 4.86907338742422E-02 
807	 4.85198674839724E-02 
808	 4.84436532841089E-02 
809	 4.84571562279943E-02 
810	 4.84815279254052E-02 
811	 4.82764314789339E-02 
812	 4.80787111320619E-02 
813	 4.81889717147656E-02 
814	 4.75013007426701E-02 
815	 0.04668612380112 
816	 4.64475930821874E-02 
817	 4.69170195888504E-02 
818	 4.59959151360482E-02 
819	 4.53446986380934E-02 
820	 4.51288421102842E-02 
821	 4.34660966560362E-02 
822	 0.042724398176342 
823	 4.23791388434683E-02 
824	 4.15653588825639E-02 
825	 4.05699985045795E-02 
826	 3.94884202350667E-02 
827	 3.83188599781128E-02 
828	 0.037247672341524 
829	 3.70569994532796E-02 
830	 3.64448660506827E-02 
831	 3.52541619403875E-02 
832	 3.42934450400762E-02 
833	 3.41341885925765E-02 
834	 3.39014107884695E-02 
835	 3.34921425033619E-02 
836	 3.39273020720107E-02 
837	 0.033622825460111 
838	 3.31664533388035E-02 
839	 3.30926943609736E-02 
840	 3.25588071501184E-02 
841	 3.25890562936228E-02 
842	 3.27931652869313E-02 
843	 3.24956926891163E-02 
844	 3.22627633027259E-02 
845	 0.031795682101945 
846	 3.15057124418784E-02 
847	 3.20724881755735E-02 
848	 3.19283899981549E-02 
849	 3.19412011794755E-02 
850	 3.23388725258677E-02 
851	 3.22128357774954E-02 
852	 3.19007948174022E-02 
853	 3.17091367696345E-02 
854	 3.17092138523795E-02 
855	 3.14611036580034E-02 
856	 3.15654011529772E-02 
857	 3.18910713816739E-02 
858	 3.20835187360535E-02 
859	 3.17839111202199E-02 
860	 3.12387324168166E-02 
861	 3.09594699427721E-02 
862	 3.13239991804677E-02 
863	 3.11704109527367E-02 
864	 0.031315604144709 
865	 3.16270194663733E-02 
866	 3.11517105202246E-02 
867	 3.09655699114404E-02 
868	 0.030944102236878 
869	 3.08204469864308E-02 
870	 0.030400353280548 
871	 3.05808308668057E-02 
872	 3.07947361784806E-02 
873	 3.05922435564281E-02 
874	 3.05195642005513E-02 
875	 3.05587261554193E-02 
876	 3.05236042589259E-02 
877	 0.03027274507268 
878	 3.00144617114206E-02 
879	 3.02270470413925E-02 
880	 3.03445893754261E-02 
881	 0.029718343198091 
882	 3.02614619910588E-02 
883	 0.030397513796666 
884	 3.00087690296039E-02 
885	 3.00926608232972E-02 
886	 2.98395287161021E-02 
887	 2.95476365801265E-02 
888	 2.93948080534005E-02 
889	 2.92904062557645E-02 
890	 2.93217837082489E-02 
891	 0.029637148097289 
892	 2.99703540227615E-02 
893	 2.91943147171153E-02 
894	 2.89382168472091E-02 
895	 2.91329993467281E-02 
896	 0.02929944237218 
897	 2.97166480338041E-02 
898	 3.01912966688876E-02 
899	 3.00799236817075E-02 
900	 2.92263377049831E-02 
901	 2.92435501947002E-02 
902	 2.91513359161552E-02 
903	 2.92463852128086E-02 
904	 2.97836243500144E-02 
905	 2.82844177521982E-02 
906	 2.74914423378676E-02 
907	 2.84047828650167E-02 
908	 2.99965002624347E-02 
909	 2.85968149651958E-02 
910	 2.86669793856643E-02 
911	 3.06335757848201E-02 
912	 3.06377160582872E-02 
913	 2.98574537179307E-02 
914	 2.86186737358482E-02 
915	 2.78322959135511E-02 
916	 0.028603872471526 
917	 2.77679645374896E-02 
918	 2.74635236938794E-02 
919	 2.82307323066532E-02 
920	 2.79081182921649E-02 
921	 2.79818366054103E-02 
922	 0.028006920836639 
923	 2.73949287081958E-02 
924	 2.59492761958988E-02 
925	 2.78046511686512E-02 
926	 2.97116363224207E-02 
927	 2.78202400524734E-02 
928	 2.84871697408969E-02 
929	 0.031752065667616 
930	 3.34264659489282E-02 
931	 2.63993620871523E-02 
932	 0.021606218288209 
933	 0.025593376262287 
934	 3.43908503700501E-02 
935	 3.65581247630887E-02 
936	 3.07987154310151E-02 
937	 2.66145539576067E-02 
938	 2.57403190008656E-02 
939	 2.75709475826096E-02 
940	 3.56021648960658E-02 
941	 3.06968312263415E-02 
942	 0.02450139515103 
943	 0.03672972331948 
944	 0.028376497094741 
945	 1.69672744243211E-02 
946	 1.63868462497771E-02 
947	 2.78544522718094E-02 
948	 2.48160627471821E-02 
949	 1.83278965914438E-02 
950	 1.93251284996766E-02 
951	 3.07643200487761E-02 
952	 3.09161010916263E-02 
953	 2.97062983008348E-02 
954	 2.93944472000604E-02 
955	 2.65829166646571E-02 
956	 2.67080897699656E-02 
957	 1.81457686892196E-02 
958	 9.79802378404495E-03 
959	 1.93075673697528E-02 
960	 3.14677913732427E-02 
961	 2.68093035873376E-02 
962	 1.91503682871597E-02 
963	 3.22499055172225E-02 
964	 3.00177057830273E-02 
965	 2.82091359674016E-02 
966	 2.90130324232338E-02 
967	 2.49766126542843E-02 
968	 2.32224769074658E-02 
969	 2.43809443033848E-02 
970	 2.59441493358839E-02 
971	 2.47435557308286E-02 
972	 3.04570394456177E-02 
973	 3.38561286048882E-02 
974	 3.25181694433121E-02 
975	 3.22651724567783E-02 
976	 3.05452667819467E-02 
977	 2.86776022049755E-02 
978	 2.78108753267317E-02 
979	 2.78033810499194E-02 
980	 2.41760613825771E-02 
981	 2.32574770381548E-02 
982	 2.55216047110512E-02 
983	 2.66537548271469E-02 
984	 2.76885424679115E-02 
985	 2.68353135336208E-02 
986	 2.53952156219167E-02 
987	 2.64526371073204E-02 
988	 2.81885618583055E-02 
989	 0.02818163366142 
990	 2.63173571847574E-02 
991	 2.47668294641828E-02 
992	 2.84524217763575E-02 
993	 2.89560038086842E-02 
994	 2.63382853582041E-02 
995	 2.65972869130193E-02 
996	 2.81182451537925E-02 
997	 3.05100544744073E-02 
998	 2.98191780725079E-02 
999	 2.31273387661991E-02 
1000	 2.37376801541997E-02 
1001	 2.86984662655564E-02 
1002	 2.91747233158868E-02 
1003	 2.88633498343811E-02 
1004	 2.79249460255592E-02 
1005	 2.78909178571141E-02 
1006	 2.77051347875166E-02 
1007	 2.76506627458981E-02 
1008	 2.89805535706468E-02 
1009	 2.98904598271772E-02 
1010	 2.91863366475885E-02 
1011	 2.83685293270652E-02 
1012	 2.78179477250467E-02 
1013	 2.77671076545271E-02 
1014	 2.75091174335592E-02 
1015	 2.82915309429889E-02 
1016	 2.78655822804009E-02 
1017	 2.56228556539694E-02 
1018	 2.50986219050293E-02 
1019	 2.51458334521731E-02 
1020	 2.51426278576878E-02 
1021	 2.54855687283102E-02 
1022	 2.71484096232232E-02 
1023	 2.74116638305964E-02 
1024	 0.027123163857387 
1025	 2.74280993386372E-02 
1026	 2.75215315043537E-02 
1027	 2.82751730962236E-02 
1028	 3.00631363015545E-02 
1029	 3.03628441933852E-02 
1030	 0.030524693974038 
1031	 3.02596930040234E-02 
1032	 2.82275068847494E-02 
1033	 2.79462314503771E-02 
1034	 2.85700068654319E-02 
1035	 2.87965508840412E-02 
1036	 3.03415364595655E-02 
1037	 3.04284971716322E-02 
1038	 2.92364970046748E-02 
1039	 2.83079613828526E-02 
1040	 2.86734914978677E-02 
1041	 2.74751992257369E-02 
1042	 0.026742385467893 
1043	 2.64135640778779E-02 
1044	 0.026333039195036 
1045	 2.55013930412943E-02 
1046	 2.58678563542773E-02 
1047	 2.80057894987731E-02 
1048	 2.85551773646364E-02 
1049	 2.87706426508173E-02 
1050	 2.86905456018518E-02 
1051	 2.71213730608758E-02 
1052	 2.71579748237983E-02 
1053	 2.86731777161084E-02 
1054	 2.88507821564266E-02 
1055	 2.92274887934041E-02 
1056	 2.92565624813318E-02 
1057	 2.87585943979567E-02 
1058	 2.64689275246101E-02 
1059	 2.63222408659842E-02 
1060	 2.71144042794362E-02 
1061	 2.75428453386456E-02 
1062	 2.92065442912768E-02 
1063	 2.90753144967526E-02 
1064	 2.71746710338731E-02 
1065	 2.71363973113229E-02 
1066	 2.72717617724568E-02 
1067	 2.73816506139699E-02 
1068	 2.91982769640735E-02 
1069	 2.97772036239151E-02 
1070	 0.02890598390984 
1071	 2.86083235969018E-02 
1072	 2.76326055245088E-02 
1073	 2.82578086960084E-02 
1074	 2.81215923387198E-02 
1075	 0.028051481940422 
1076	 2.81652614589058E-02 
1077	 2.84136572478595E-02 
1078	 2.81947104861905E-02 
1079	 2.76053216731763E-02 
1080	 2.78447542163571E-02 
1081	 0.028753924912026 
1082	 2.86984018272343E-02 
1083	 2.80957189774626E-02 
1084	 2.85254104802401E-02 
1085	 0.029053299032202 
1086	 0.029074166713095 
1087	 3.03557831687371E-02 
1088	 3.08242470970609E-02 
1089	 3.04388254198398E-02 
1090	 2.84624064289314E-02 
1091	 2.82845788728799E-02 
1092	 2.93324678546436E-02 
1093	 2.91740271125045E-02 
1094	 2.87395776178338E-02 
1095	 2.87515654816538E-02 
1096	 2.80964975285724E-02 
1097	 2.78387496277891E-02 
1098	 2.92660231161538E-02 
1099	 2.91002434880975E-02 
1100	 2.61853574678941E-02 
1101	 2.59878165723668E-02 
1102	 2.84991722519123E-02 
1103	 2.82374355794467E-02 
1104	 2.64317281458863E-02 
1105	 2.77247877090974E-02 
1106	 2.90076747758395E-02 
1107	 2.68744359686679E-02 
1108	 2.88214547818479E-02 
1109	 0.031570982421343 
1110	 3.14779202708352E-02 
1111	 0.025317742211087 
1112	 0.026073739578671 
1113	 3.13309374006269E-02 
1114	 3.27908613117131E-02 
1115	 3.83187576216386E-02 
1116	 3.89129006831442E-02 
1117	 0.026508661131251 
1118	 2.39455843439914E-02 
1119	 0.024714586591903 
1120	 3.08226227922955E-02 
1121	 6.86436114106742E-02 
1122	 8.91339173187512E-02 
1123	 6.02288939022971E-02 
1124	 3.73121777620289E-02 
1125	 1.38184743904132E-02 
1126	-2.82263630658333E-03 
1127	 1.95959666003573E-02 
1128	 0.059393021927655 
1129	 6.79614680847644E-02 
1130	 3.78056795924502E-02 
1131	 0.038525706890428 
1132	 0.053627428171893 
1133	 4.95135952035561E-02 
1134	 3.75942733558946E-02 
1135	 4.21065140441014E-02 
1136	 0.047593432548533 
1137	 5.12365695021188E-02 
1138	 6.69569343239341E-02 
1139	 6.73033321181087E-02 
1140	 5.73613077981656E-02 
1141	 4.96590785007523E-02 
1142	 5.15686661034435E-02 
1143	 6.31507063387397E-02 
1144	 6.57790390792694E-02 
1145	 5.36713819381888E-02 
1146	 0.044336410131746 
1147	 3.20880096449953E-02 
1148	 2.32587295780684E-02 
1149	 3.33503668535399E-02 
1150	 3.18134625062093E-02 
1151	 1.93866175175557E-02 
1152	 1.95795732978247E-02 
1153	 2.42723489754766E-02 
1154	 2.66220610134896E-02 
1155	 2.94643058445792E-02 
1156	 3.66587214921304E-02 
1157	 0.037733392920205 
1158	 3.37926421316924E-02 
1159	 3.23867348506533E-02 
1160	 3.43135374292545E-02 
1161	 3.49373355848577E-02 
1162	 3.17333581476332E-02 
1163	 2.93463838243655E-02 
1164	 2.86611356946848E-02 
1165	 2.70476948801972E-02 
1166	 2.73069593284063E-02 
1167	 2.82994461755684E-02 
1168	 2.69882130662989E-02 
1169	 0.026043893528092 
1170	 2.66660387168826E-02 
1171	 2.68055909793757E-02 
1172	 2.72313945393616E-02 
1173	 2.71952757283682E-02 
1174	 2.66925674732829E-02 
1175	 2.67523843790452E-02 
1176	 2.73644062655933E-02 
1177	 0.027117609343781 
1178	 2.63492984746116E-02 
1179	 2.58153855379854E-02 
1180	 2.57166075737698E-02 
1181	 0.026375215321469 
1182	 2.68052541081754E-02 
1183	 2.66270426731938E-02 
1184	 2.65809471078257E-02 
1185	 2.67963170293833E-02 
1186	 2.63968834021729E-02 
1187	 2.59618342865278E-02 
1188	 2.56941020286685E-02 
1189	 2.60536208337082E-02 
1190	 0.027566965036122 
1191	 2.72710683647553E-02 
1192	 2.71436485632928E-02 
1193	 2.62708934101024E-02 
1194	 2.65679708344553E-02 
1195	 2.65681733870454E-02 
1196	 2.64820414775854E-02 
1197	 2.69342564564481E-02 
1198	 0.026520949253027 
1199	 2.54554084063402E-02 
1200	 2.63031191100908E-02 
1201	 2.73337086340916E-02 
1202	 2.61592785206642E-02 
1203	 2.55193847836756E-02 
1204	 2.62787870589652E-02 
1205	 2.71394159020521E-02 
1206	 2.69380087080914E-02 
1207	 2.58051013305046E-02 
1208	 2.54096441862437E-02 
1209	 2.49795884197435E-02 
1210	 2.50187336880858E-02 
1211	 2.62783473578783E-02 
1212	 0.026676477540448 
1213	 2.68547491034677E-02 
1214	 2.68842445126831E-02 
1215	 2.71029586494769E-02 
1216	 2.66185273176836E-02 
1217	 2.61303374473963E-02 
1218	 2.57174995417374E-02 
1219	 2.64835006356108E-02 
1220	 2.73589044718524E-02 
1221	 2.76440484549968E-02 
1222	 2.79114690922979E-02 
1223	 0.027003628804492 
1224	 2.65866610974846E-02 
1225	 2.72105485111743E-02 
1226	 0.027375901549254 
1227	 2.75204137748754E-02 
1228	 2.78035838894583E-02 
1229	 2.77675243615843E-02 
1230	 2.71332236723553E-02 
1231	 2.68560447184152E-02 
1232	 2.71096699005619E-02 
1233	 2.69610576393849E-02 
1234	 2.72355960457627E-02 
1235	 2.72471498534032E-02 
1236	 2.68259047096537E-02 
1237	 2.68728260614786E-02 
1238	 2.69627252088147E-02 
1239	 2.76512047131713E-02 
1240	 2.75074798112793E-02 
1241	 2.72981776227145E-02 
1242	 2.69306779199071E-02 
1243	 2.59361703489863E-02 
1244	 0.025912889915843 
1245	 2.65609351992011E-02 
1246	 2.64097551944841E-02 
1247	 2.59722554277751E-02 
1248	 2.59990934818861E-02 
1249	 2.65899237906117E-02 
1250	 2.74863012302105E-02 
1251	 2.77526630330807E-02 
1252	 2.76951574687613E-02 
1253	 2.73629605987211E-02 
1254	 2.62892500140325E-02 
1255	 2.60301911455809E-02 
1256	 2.60188239812458E-02 
1257	 2.62296532610269E-02 
1258	 2.61712371328239E-02 
1259	 2.65985380612984E-02 
1260	 2.65588281945012E-02 
1261	 2.57442447013317E-02 
1262	 2.59175270329535E-02 
1263	 2.66846823249475E-02 
1264	 2.71308782885094E-02 
1265	 2.75108676519862E-02 
1266	 2.75250067794632E-02 
1267	 0.026704557544106 
1268	 2.63921433066151E-02 
1269	 2.70617462611131E-02 
1270	 2.67916318225167E-02 
1271	 2.65733283821132E-02 
1272	 0.027142141944097 
1273	 0.026907456434883 
1274	 2.63705073984461E-02 
1275	 0.026477224259109 
1276	 2.68284175333778E-02 
1277	 2.68239083443461E-02 
1278	 2.70060929605249E-02 
1279	 2.69542073994713E-02 
1280	 2.60851775928621E-02 
1281	 2.58481914545961E-02 
1282	 2.60144263159398E-02 
1283	 2.56266817197076E-02 
1284	 0.02473874275912 
1285	 0.024845452051825 
1286	 2.51243546242809E-02 
1287	 2.52372781768575E-02 
1288	 2.67480209466112E-02 
1289	 2.73681656950089E-02 
1290	 0.02721865671504 
1291	 2.61651225902794E-02 
1292	 2.69630854114652E-02 
1293	 2.71950664792112E-02 
1294	 2.71173660551361E-02 
1295	 2.75369888880663E-02 
1296	 2.67341761676202E-02 
1297	 2.56581600800615E-02 
1298	 2.55987633141924E-02 
1299	 2.59743077572512E-02 
1300	 2.61791192873545E-02 
1301	 2.66420140851404E-02 
1302	 2.77292197298443E-02 
1303	 2.92817307089163E-02 
1304	 3.04694186919305E-02 
1305	 3.03837696965845E-02 
1306	 2.99165982061548E-02 
1307	 2.68450948643439E-02 
1308	 2.55689092175476E-02 
1309	 2.47414081488859E-02 
1310	 2.49622569257883E-02 
1311	 2.64341627482943E-02 
1312	 2.71612772007597E-02 
1313	 2.92228511088601E-02 
1314	 2.96953707588159E-02 
1315	 2.80980793750626E-02 
1316	 0.028202495146795 
1317	 0.028191190738629 
1318	 0.028571805849174 
1319	 3.14311068231977E-02 
1320	 3.20505336060968E-02 
1321	 3.03276095026188E-02 
1322	 3.12569291626703E-02 
1323	 2.99463054766637E-02 
1324	 2.58278950370678E-02 
1325	 2.85800110378134E-02 
1326	 3.19028704286891E-02 
1327	 3.44466246564379E-02 
1328	 3.68992316851809E-02 
1329	 3.60337962284593E-02 
1330	 0.036325917728077 
1331	 3.55012500184961E-02 
1332	 3.38118308033036E-02 
1333	 3.13847438078635E-02 
1334	 2.60044672315762E-02 
1335	 0.024611977454112 
1336	 0.029015233945193 
1337	 2.99252046409831E-02 
1338	 2.97465759697057E-02 
1339	 0.03105077325449 
1340	 3.46735667095136E-02 
1341	 3.34685739154004E-02 
1342	 2.52107942424514E-02 
1343	 2.81072651852025E-02 
1344	 4.19203482874116E-02 
1345	 0.042783139710855 
1346	 3.63849280393328E-02 
1347	 5.22951249602018E-02 
1348	 8.95426485015724E-02 
1349	 8.76708310988242E-02 
1350	 0.049844262134699 
1351	 7.65911286054309E-02 
1352	 0.122158385740959 
1353	 7.78346507257126E-02 
1354	 3.52555792881999E-02 
1355	 0.27125754563765 
1356	-4.93370662031419E-03 
1357	-0.622963305437542 
1358	-0.430008262093093 
1359	 4.83697116289367E-02 
1360	 0.178605477281353 
1361	 0.396243637599651 
1362	 0.773635585053299 
1363	 0.64641753919862 
1364	 0.486889843549209 
1365	 6.36359743139154 
1366	 3.32951786111189 
1367	 1.04107199290136 
1368	 0.73121066832332 
1369	 0.619660070880879 
1370	 0.545538334150551 
1371	 0.426386083089361 
1372	 0.440972141559267 
1373	 0.756611637186868 
1374	 0.637952688473724 
1375	 0.210499724996416 
1376	 0.1899046842622 
1377	 0.26315976441196 
1378	 0.185898840774005 
1379	-4.32357680145079E-02 
1380	 0.171931670064766 
1381	 1.72271250222532 
1382	 1.49890334079769 
1383	 0.291272217982511 
1384	 0.403096138312943 
1385	 0.616340746761107 
1386	 7.04284752373291E-04 
1387	-0.735540059479795 
1388	-0.555662117739297 
1389	-0.4772788124603 
1390	-0.501559175433296 
1391	-0.25484801997636 
1392	 1.06679982791226 
1393	 0.824039509269925 
1394	 0.367602916214215 
1395	 0.349811377847804 
1396	 0.593062127272577 
1397	 0.920201634372863 
1398	 0.955608166709886 
1399	 0.29801458098515 
1400	 0.335548700328689 
1401	 0.253081495460857 
1402	 0.111021336405589 
1403	 0.168128102843119 
1404	 0.239047061090412 
1405	 0.461295289128151 
1406	 0.985743389850543 
1407	 0.655135838734612 
1408	 2.33423923102463E-02 
1409	-1.18580515879125E-02 
1410	-0.17770119422674 
1411	-0.069283260558934 
1412	 0.527789160092976 
1413	 0.623074211656226 
1414	 0.499767445960162 
1415	 0.737674650235004 
1416	 0.966369216861899 
1417	 1.0017066879999 
1418	 0.994508744175252 
1419	 1.17205411788358 
1420	 1.66236505830865 
1421	 1.26440545186682 
1422	 0.934839093468218 
1423	 0.792152531019231 
1424	 0.156916625221453 
1425	 4.82112651202773E-02 
1426	 0.162775371178876 
1427	 0.286668165982516 
1428	 0.542114381440374 
1429	 0.53353013909786 
1430	 0.33388782834593 
1431	 0.420154986017691 
1432	 0.656385269813935 
1433	 0.623561313001683 
1434	 0.717901809272987 
1435	 1.11523430863482 
1436	 2.05515259425642 
1437	 1.26668372517011 
1438	 1.32089039000061 
1439	 0.441075771007334 
1440	-4.62911391626228E-02 
1441	-0.133308087248685 
1442	-0.217937786343893 
1443	-2.23130454963529E-02 
1444	 0.133001085466052 
1445	 0.14870881732626 
1446	 0.132599056383686 
1447	 0.147752018581647 
1448	 0.180263522826784 
1449	 0.110803329054738 
1450	-2.62219915145895E-03 
1451	 2.64962960926321E-02 
1452	 7.47473943202362E-02 
1453	 2.99276658673487E-02 
1454	 2.51487985049484E-02 
1455	 0.105832857327251 
1456	 0.102769513138365 
1457	 2.83726069368387E-02 
1458	 2.19425644608897E-02 
1459	 4.60575232535521E-02 
1460	 4.71832910038441E-02 
1461	 2.71487850011995E-02 
1462	 4.49777431881298E-02 
1463	 0.107622180861224 
1464	 0.110741901810468 
1465	 0.102204629571285 
1466	 0.1282491067281 
1467	 0.127611537026879 
1468	 0.091212904399032 
1469	 4.19853264696138E-02 
1470	 7.91799357606384E-02 
1471	 0.129135068711412 
1472	 0.107866263552098 
1473	 0.113030810416216 
1474	 0.130396101859975 
1475	 9.72287856882715E-02 
1476	 7.56622407902785E-02 
1477	 0.108058190675687 
1478	 0.108519721155595 
1479	 3.58222059812585E-02 
1480	 2.65127758850125E-02 
1481	 8.25906634420787E-02 
1482	 0.093650021044979 
1483	 9.19180530843232E-02 
1484	 8.15903955632439E-02 
1485	 6.31131558338463E-02 
1486	 5.21688718467093E-02 
1487	 4.19789580432485E-02 
1488	 3.36736827082573E-02 
1489	 2.33955168226479E-02 
1490	 0.022085940904008 
1491	 2.69621010253699E-02 
1492	 2.67528094807686E-02 
1493	 2.67665594865407E-02 
1494	 2.84205344083744E-02 
1495	 0.027233478732881 
1496	 2.61673157031627E-02 
1497	 2.84756669669696E-02 
1498	 2.96829561744493E-02 
1499	 2.96355057896803E-02 
1500	 2.85806491902656E-02 
1501	 2.82191564845685E-02 
1502	 2.73453433376792E-02 
1503	 2.23384607178726E-02 
1504	 2.15611489981453E-02 
1505	 2.38121676473026E-02 
1506	 2.52502212150942E-02 
1507	 2.46259004622548E-02 
1508	 2.68475855916484E-02 
1509	 2.84043471239456E-02 
1510	 2.61184446233606E-02 
1511	 0.024270364611752 
1512	 2.52459371462285E-02 
1513	 2.54835836975487E-02 
1514	 0.023976365280754 
1515	 2.12573655208437E-02 
1516	 2.01064734158331E-02 
1517	 2.16150968021733E-02 
1518	 2.32757684922228E-02 
1519	 2.60151198346089E-02 
1520	 2.73072543605938E-02 
1521	 0.025680524204086 
1522	 2.49597619035655E-02 
1523	 2.50997683736431E-02 
1524	 2.44492254003716E-02 
1525	 2.49473988546512E-02 
1526	 2.61408423280355E-02 
1527	 2.69523387860264E-02 
1528	 2.84437404151058E-02 
1529	 2.79773357418602E-02 
1530	 2.51928540345061E-02 
1531	 2.31470017200992E-02 
1532	 2.25748763572617E-02 
1533	 2.39456164946543E-02 
1534	 2.57140387304758E-02 
1535	 2.51333155003714E-02 
1536	 2.36489977208713E-02 
1537	 2.47319800833294E-02 
1538	 2.53304667939523E-02 
1539	 2.35360636206837E-02 
1540	 2.46018622037481E-02 
1541	 2.60802777861929E-02 
1542	 2.49545342146851E-02 
1543	 2.56661153389429E-02 
1544	 2.61704447655635E-02 
1545	 0.024077307977257 
1546	 2.32810841138266E-02 
1547	 2.30833715817888E-02 
1548	 2.30083182268872E-02 
1549	 2.28613136887954E-02 
1550	 2.09702600740613E-02 
1551	 2.22030758552937E-02 
1552	 0.024188267460009 
1553	 2.20196415074616E-02 
1554	 2.14690165529363E-02 
1555	 2.31045071433633E-02 
1556	 2.33657197726068E-02 
1557	 2.45233744603153E-02 
1558	 2.68565214704821E-02 
1559	 2.76864508883267E-02 
1560	 0.026952662162854 
1561	 2.54312528345116E-02 
1562	 2.49801689195494E-02 
1563	 2.49622334975118E-02 
1564	 2.42165929413075E-02 
1565	 2.52574851148058E-02 
1566	 2.68685763307184E-02 
1567	 2.68319065427272E-02 
1568	 2.48768461065329E-02 
1569	 2.26905972575222E-02 
1570	 2.35523395128187E-02 
1571	 2.40242555689163E-02 
1572	 2.34124721220155E-02 
1573	 2.62996670779919E-02 
1574	 2.74065877525113E-02 
1575	 2.44360366272037E-02 
1576	 2.53119466732802E-02 
1577	 2.84359844917267E-02 
1578	 0.026759896453528 
1579	 2.50082699841534E-02 
1580	 2.63480834525374E-02 
1581	 2.63698630710534E-02 
1582	 2.61482888506951E-02 
1583	 2.59696918889636E-02 
1584	 2.53625888760142E-02 
1585	 2.55742623150794E-02 
1586	 2.49869851405384E-02 
1587	 2.58245179204279E-02 
1588	 2.74166140791964E-02 
1589	 2.62597716497089E-02 
1590	 2.60083057062145E-02 
1591	 2.68061271089835E-02 
1592	 2.58546163977619E-02 
1593	 2.47584211520525E-02 
1594	 2.46007145978552E-02 
1595	 2.54637471237632E-02 
1596	 2.60429991360305E-02 
1597	 2.54851193127183E-02 
1598	 2.53158827637114E-02 
1599	 2.49548902735867E-02 
1600	 2.44372640313722E-02 
1601	 2.51280981208689E-02 
1602	 2.57134133838712E-02 
1603	 2.40016370620468E-02 
1604	 2.30448203319988E-02 
1605	 2.55446774263932E-02 
1606	 2.65600671232895E-02 
1607	 2.57424329048682E-02 
1608	 2.59535321838038E-02 
1609	 2.57752987335446E-02 
1610	 2.45978891750693E-02 
1611	 2.42733533938969E-02 
1612	 2.56929538003943E-02 
1613	 2.61144042251178E-02 
1614	 2.51437688940396E-02 
1615	 2.61484093031335E-02 
1616	 2.77140084713512E-02 
1617	 2.60682643995915E-02 
1618	 2.49074657063942E-02 
1619	 2.64448895178786E-02 
1620	 2.63255423982432E-02 
1621	 2.56704444293378E-02 
1622	 2.64279059739552E-02 
1623	 2.59751150645295E-02 
1624	 2.45630913804808E-02 
1625	 2.43971408523404E-02 
1626	 0.024374538327842 
1627	 2.29785143054646E-02 
1628	 2.30798189285637E-02 
1629	 2.49059666960975E-02 
1630	 2.50284749039222E-02 
1631	 0.024854604574776 
1632	 2.57088517523823E-02 
1633	 2.54986421190575E-02 
1634	 2.49177188250357E-02 
1635	 2.52317937361969E-02 
1636	 2.46434276971697E-02 
1637	 2.41956987888419E-02 
1638	 2.57758817601916E-02 
1639	 0.026728956349052 
1640	 2.66887142404335E-02 
1641	 2.71639062884283E-02 
1642	 2.69148629369871E-02 
1643	 2.64418504956683E-02 
1644	 0.026949157080997 
1645	 2.77228564230436E-02 
1646	 2.76246715808063E-02 
1647	 2.70544556311933E-02 
1648	 2.75241165930645E-02 
1649	 2.62030238648608E-02 
1650	 2.37187173822382E-02 
1651	 2.46955858359226E-02 
1652	 2.55587664009383E-02 
1653	 2.54833184812739E-02 
1654	 0.02579974259777 
1655	 2.51048263218311E-02 
1656	 2.49599960523851E-02 
1657	 2.56118035997277E-02 
1658	 2.60589619272487E-02 
1659	 2.65022697332669E-02 
1660	 2.66197729972221E-02 
1661	 2.67083905918418E-02 
1662	 2.65187813997103E-02 
1663	 2.58973998792079E-02 
1664	 2.54793835150525E-02 
1665	 0.025469418816101 
1666	 2.45075196276289E-02 
1667	 2.23306053976592E-02 
1668	 2.50996647812887E-02 
1669	 2.49326366664993E-02 
1670	 2.48262513563255E-02 
1671	 2.66681651348985E-02 
1672	 2.41843642416391E-02 
1673	 0.02193692708323 
1674	 0.024030931617051 
1675	 2.52102984154015E-02 
1676	 2.48903463100699E-02 
1677	 2.48193464279248E-02 
1678	 2.36434727345586E-02 
1679	 2.20498357828263E-02 
1680	 2.19766451037322E-02 
1681	 2.28609296864766E-02 
1682	 2.42641821012588E-02 
1683	 2.54502044937456E-02 
1684	 2.56485278794559E-02 
1685	 2.64008512831754E-02 
1686	 2.68111155613953E-02 
1687	 2.54264404490914E-02 
1688	 2.50193516876376E-02 
1689	 2.53857958191268E-02 
1690	 2.43161961394988E-02 
1691	 2.40702231757872E-02 
1692	 2.61256640773645E-02 
1693	 2.70560773229126E-02 
1694	 0.026746428568676 
1695	 2.70502991547699E-02 
1696	 2.53308022562063E-02 
1697	 2.46500792530697E-02 
1698	 2.56187394671063E-02 
1699	 2.35863583634044E-02 
1700	 2.09407056662955E-02 
1701	 1.91031202723532E-02 
1702	 1.96357732166918E-02 
1703	 2.30002279128694E-02 
1704	 2.53855068086038E-02 
1705	 2.57009028093463E-02 
1706	 2.35982139932619E-02 
1707	 2.09914805266023E-02 
1708	 0.022132921925368 
1709	 2.54372163317911E-02 
1710	 2.69054420743885E-02 
1711	 2.68643194674848E-02 
1712	 0.02675517270881 
1713	 2.33801029067652E-02 
1714	 2.22795027575334E-02 
1715	 2.29738772763748E-02 
1716	 2.70458983511735E-02 
1717	 2.93093684404982E-02 
1718	 2.85792126328044E-02 
1719	 2.95073728340487E-02 
1720	 0.028616523259499 
1721	 2.55546473176248E-02 
1722	 2.59396122034491E-02 
1723	 2.59554185653675E-02 
1724	 0.02414218232724 
1725	 2.47694667356001E-02 
1726	 2.71296076290862E-02 
1727	 2.88787451900708E-02 
1728	 0.02825536933774 
1729	 2.76908659267083E-02 
1730	 2.88386292531427E-02 
1731	 2.77066446160539E-02 
1732	 2.71737200829908E-02 
1733	 3.09245821661049E-02 
1734	 3.11554135026887E-02 
1735	 2.88146110640683E-02 
1736	 2.95308212238348E-02 
1737	 2.78507756528992E-02 
1738	 2.71100690161375E-02 
1739	 3.24739116316303E-02 
1740	 3.41473030947476E-02 
1741	 3.15331058869468E-02 
1742	 3.00248590294797E-02 
1743	 2.56396277929112E-02 
1744	 2.35966912385438E-02 
1745	 2.77941768306574E-02 
1746	 2.76902885530509E-02 
1747	 2.83064448183466E-02 
1748	 2.96489916981967E-02 
1749	 2.92007744592398E-02 
1750	 2.96300220826856E-02 
1751	 2.98750134816749E-02 
1752	 2.84237382891894E-02 
1753	 2.67740987194817E-02 
1754	 2.46776209151599E-02 
1755	 0.024357073895576 
1756	 2.37639015167875E-02 
1757	 2.73753263559673E-02 
1758	 2.75125935122321E-02 
1759	 2.71094282314041E-02 
1760	 2.85865017263102E-02 
1761	 2.70822894049807E-02 
1762	 3.02452714892303E-02 
1763	 3.09302172939731E-02 
1764	 2.68487130142217E-02 
1765	 2.85831195976965E-02 
1766	 2.75097689188521E-02 
1767	 3.05443425188742E-02 
1768	 4.00938813176579E-02 
1769	 3.96917821112448E-02 
1770	 3.84438975207473E-02 
1771	 3.76720542078704E-02 
1772	 2.91563234621832E-02 
1773	 3.12152320061156E-02 
1774	 3.96937032510963E-02 
1775	 4.76489599570793E-02 
1776	 4.81186753310248E-02 
1777	 2.92824168460608E-02 
1778	 2.67819978424169E-02 
1779	 3.39738517192674E-02 
1780	 3.52301818759612E-02 
1781	 5.35402099471114E-02 
1782	 5.67239224828251E-02 
1783	 2.64346517086864E-02 
1784	 2.96561282940821E-02 
1785	 6.11490958368266E-02 
1786	 6.49499430614214E-02 
1787	 0.077773271405004 
1788	 6.83698110914648E-02 
1789	 1.80656123021583E-03 
1790	 1.55746416352355E-02 
1791	 3.10168243591725E-02 
1792	 6.67360093120376E-02 
1793	 0.114180124523743 
1794	 6.91986139715345E-02 
1795	 3.87007113621379E-03 
1796	 3.39583615923653E-03 
1797	-5.11883279318889E-02 
1798	-2.50344420673719E-02 
1799	 0.14788062400014 
1800	 0.163065775951185 
1801	 0.214519792499035 
1802	 0.245395346516149 
1803	 0.232050972846961 
1804	 0.231792291301814 
1805	 0.154262019923699 
1806	-0.552119260869838 
1807	-0.945549442944109 
1808	-0.82326295116036 
1809	 0.361401626280989 
1810	 10.3717690934873 
1811	 3.23912703660404 
1812	-1.71927175789207E-02 
1813	 9.20912131594405E-02 
1814	 0.287864224899495 
1815	 0.520578331503344 
1816	 3.50904284085946 
1817	 1.03126979798065 
1818	-7.68134070456352E-02 
1819	 1.20978665693264 
1820	 2.00575079064292 
1821	 1.53130612348373 
1822	 1.58440223103045 
1823	 0.392131689808489 
1824	 0.219197368880273 
1825	 0.630193206762016 
1826	 0.741216638388427 
1827	 0.766885815714613 
1828	 2.36164837096451 
1829	-0.82561778683868 
1830	-0.242635217142131 
1831	-0.185254232553882 
1832	-9.26962456699793E-02 
1833	 0.262502506783394 
1834	 0.415575757821294 
1835	 0.458356019553968 
1836	 0.4658120367508 
1837	 0.434914773249651 
1838	 0.359724315838381 
1839	-0.138697114664612 
1840	-1.66518929635768 
1841	-1.61253567141447 
1842	-0.873162026618538 
1843	-0.800225974467554 
1844	 1.00548776486382 
1845	 2.25197371172219 
1846	-1.32411130298781 
1847	-0.256330126033024 
1848	-10.8423051846741 
1849	 1.08427468340694 
1850	-0.198754610431531 
1851	 0.302874137797079 
1852	 8.00199163501659E-02 
1853	-6.59163687607369E-02 
1854	-0.05765875425272 
1855	 1.48922512618439 
1856	 2.37931827762096 
1857	 76.6053892239342 
1858	 3.31513994473015 
1859	 5.63940838120449 
1860	 2.83637423077733 
1861	 1.27619436094477 
1862	 0.533081542852823 
1863	 0.293381285067802 
1864	 0.300591034664606 
1865	 5.94123563492839E-02 
1866	-0.213415939623942 
1867	-0.419754873960651 
1868	-0.533900118581751 
1869	-0.67892707639947 
1870	-1.54209703145333 
1871	 2.95954435479044 
1872	 1.00133054673401 
1873	 6.09860162878696 
1874	-14.8671482794078 
1875	-2.77330342075636 
1876	-2.2556916605043 
1877	 0.624317917852355 
1878	 5.81165104299135 
1879	-1.62258263217135 
1880	-0.470985842939399 
1881	 0.796171767213359 
1882	 1.46241246295523 
1883	 0.911342754127578 
1884	 0.455996565164212 
1885	 0.216727685758065 
1886	-6.00707849856684E-02 
1887	-6.36191648242478E-02 
1888	 0.757428275597 
1889	 0.597556283730634 
1890	-0.15282857634243 
1891	-0.289710269330378 
1892	-0.28272574085117 
1893	-0.548680768584165 
1894	-0.355840900688321 
1895	-0.239081559238563 
1896	 0.202209108567572 
1897	 0.428155077566045 
1898	 0.106629141811475 
1899	-0.120479493675144 
1900	-0.12552448699936 
1901	-0.213654519025849 
1902	-0.117328442040388 
1903	 0.688803079176924 
1904	 0.93210137890798 
1905	 0.304188527450323 
1906	 0.221150572009891 
1907	 0.14430232802858 
1908	-0.076445302733758 
1909	-0.155477956947561 
1910	-0.610075178951488 
1911	-1.07620531856898 
1912	-1.31437206459242 
1913	-1.84097476510648 
1914	 4.90158317678091 
1915	-2.08082971336598 
1916	-0.871081420711058 
1917	-8.47601543514132E-02 
1918	 0.643541163443178 
1919	 2.39160338275486 
1920	 3.3115557692261 
1921	-0.331887987382633 
1922	-3.95046624258945 
1923	-0.311823084284505 
1924	 8.88543551665459 
1925	-2.7073841729948 
1926	-1.4039202283516 
1927	-0.71016455410013 
1928	-0.160927970202952 
1929	 0.340442985731595 
1930	 1.67553807113219 
1931	 4.06338074033643 
1932	 15.9513740088004 
1933	 4.25216715768669 
1934	 0.782600426132989 
1935	 4.14312692503167E-03 
1936	 0.094353469097056 
1937	 0.272185016425089 
1938	 1.11316285701918 
1939	 0.923405536276858 
1940	 0.725213301008527 
1941	 0.345604196366173 
1942	 0.307342210153075 
1943	 0.52407710656116 
1944	 4.39577908527008 
1945	-10.1194994844474 
1946	-2.47709861042707 
1947	-0.547495438342433 
1948	-0.227590887398888 
1949	-0.204093059507797 
1950	-0.24931956837445 
1951	-0.418297907037718 
1952	-5.4705543886498 
1953	-6.17670234628508 
1954	-2.42390222408182 
1955	 16.2666185302018 
1956	 16.5708034268759 
1957	 21.1757812068306 
1958	 2.43665044997404 
1959	 1.19714620994524 
1960	 1.30832974204474 
1961	 1.02302247887093 
1962	 0.430956745660036 
1963	 0.145991081837999 
1964	-8.15826194449394E-02 
1965	-4.84323897429005E-02 
1966	-3.98972417299925E-02 
1967	 0.178613259150506 
1968	 0.227166054888976 
1969	 0.140830724552768 
1970	-5.16261805833418E-02 
1971	-8.07401573645455E-02 
1972	-9.07102030685959E-02 
1973	-9.07631502219861E-02 
1974	-2.61075813988468E-03 
1975	 5.18021141257259E-02 
1976	 5.56588667817355E-02 
1977	 5.08327525152152E-02 
1978	 6.93101870595525E-02 
1979	 5.57545211276636E-02 
1980	 2.26635358738318E-02 
1981	 2.54187828776834E-02 
1982	 6.81507973304949E-02 
1983	 4.76167848099772E-02 
1984	 5.77750676317579E-02 
1985	 0.144810916607675 
1986	 0.193234482556226 
1987	 0.222284881119843 
1988	 0.209502781547763 
1989	 0.166125277629395 
1990	 0.123434593056068 
1991	 3.25902219222558E-02 
1992	-1.18094158273836E-03 
1993	-2.57929057202999E-02 
1994	-3.48589699775983E-02 
1995	-4.34540581324925E-02 
1996	-1.78875334948209E-02 
1997	-6.01547385753265E-02 
1998	-9.39023678727601E-03 
1999	 6.82003720507726E-02 
2000	 0.059412101752237 
2001	 0.152956265049563 
2002	 0.177525672366972 
2003	 7.80805559476878E-02 
2004	-2.57195239005415E-02 
2005	-0.146618945558263 
2006	-0.234178937719901 
2007	-0.223262255502677 
2008	-9.90669825693971E-02 
2009	-5.80056426574609E-02 
2010	 3.82525787865189E-02 
2011	 0.112544092736758 
2012	 0.144491660684521 
2013	 8.99823779534625E-02 
2014	 0.156181318156789 
2015	 0.195741830392226 
2016	 0.147536476494819 
2017	 0.151236889060794 
2018	 0.121408599974892 
2019	 5.09742053037944E-02 
2020	 0.063313267333037 
2021	 4.33575763615491E-02 
2022	-1.76193737586371E-02 
2023	-1.19010876303118E-02 
2024	-7.01683881567121E-03 
2025	-5.69895139273164E-03 
2026	-5.96714088254141E-03 
2027	 8.5291023625085E-03 
2028	 1.63637748336299E-02 
2029	 1.54439473753958E-02 
2030	 1.08738809451237E-02 
2031	 1.20062899748617E-02 
2032	 2.43649757978765E-02 
2033	 1.58337464502772E-02 
2034	-1.04977328959906E-02 
2035	-1.04369991389172E-02 
2036	-3.15095123162995E-02 
2037	-5.54600495174846E-02 
2038	-3.92126914742125E-02 
2039	-2.42087128356891E-02 
2040	 8.08503676949365E-03 
2041	 1.76189147981465E-02 
2042	 2.01688584340393E-02 
2043	 2.34043451734309E-02 
2044	 2.60925398676686E-03 
2045	 1.32490961624111E-02 
2046	 4.23907396353351E-02 
2047	 7.52148346581329E-02 
2048	 8.06899340355767E-02 
2049	 7.79901923114407E-02 
2050	 8.11965312960686E-02 
2051	 7.11178738370557E-02 
2052	 8.96405670784657E-02 
2053	 8.91642370454204E-02 
2054	 4.25450407524491E-02 
2055	-4.16492392021091E-03 
2056	-1.99950347312441E-02 
2057	-2.10919553647012E-02 
2058	-1.63216428730342E-02 
2059	 2.39345964786962E-02 
2060	 4.23875279930237E-02 
2061	 5.76805026821971E-02 
2062	 5.20604593190024E-02 
2063	 0.047514233719139 
2064	 7.71417574868232E-02 
2065	 0.109435959383439 
2066	 0.115842870997757 
2067	 0.110991526648554 
2068	 7.91229221337507E-02 
2069	 5.73993169442047E-02 
2070	 5.33805322995415E-02 
2071	 5.02625599368502E-02 
2072	 5.71626977833333E-02 
2073	 5.23147475737135E-02 
2074	 3.11602518517181E-02 
2075	 2.32359040838966E-02 
2076	 9.59334336667461E-03 
2077	 1.36668649668468E-02 
2078	 3.22160599055221E-02 
2079	 4.10688921751524E-02 
2080	 5.18120379534442E-02 
2081	 7.74907403799157E-02 
2082	 8.80329092288792E-02 
2083	 7.84626889266817E-02 
2084	 5.87490472199576E-02 
2085	 3.72482246252296E-02 
2086	 2.54893074799507E-02 
2087	 1.39079893665345E-02 
2088	 2.32696759148608E-02 
2089	 3.73706140255468E-02 
2090	 0.035806929721038 
2091	 3.83404452553955E-02 
2092	 3.25671068567301E-02 
2093	 1.39491858355759E-02 
2094	 2.6686264532673E-03 
2095	-0.013967323625503 
2096	-1.99163881022352E-02 
2097	-1.34435546442765E-02 
2098	-1.11739265162981E-02 
2099	-9.05173211381524E-04 
2100	-7.1507657225773E-03 
2101	-8.46874512627963E-03 
2102	-1.30352129433246E-02 
2103	-2.38597748144195E-02 
2104	-1.81091138251713E-02 
2105	 3.45039453790901E-03 
2106	-1.25335307666405E-04 
2107	 2.04991929206693E-03 
2108	 2.10294415304457E-02 
2109	 2.46815496470453E-02 
2110	 3.79577805785847E-02 
2111	 0.044494848089904 
2112	 4.02091752343778E-02 
2113	 4.40050059255381E-02 
2114	 4.67561323004123E-02 
2115	 4.44555929339201E-02 
2116	 4.42189531830333E-02 
2117	 4.15890133993032E-02 
2118	 2.87478707071525E-02 
2119	 2.48451615501289E-02 
2120	 2.20268713856976E-02 
2121	 3.37071824742981E-02 
2122	 4.52494873536914E-02 
2123	 4.46922628225093E-02 
2124	 3.61344037307518E-02 
2125	 2.92361713093181E-02 
2126	 0.030512439070322 
2127	 2.64979893689316E-02 
2128	 2.83211011620347E-02 
2129	 3.20543814194785E-02 
2130	 2.05733472495726E-02 
2131	 0.015255380478149 
2132	 1.74566942524673E-02 
2133	 1.38848713699502E-02 
2134	 1.84122772294936E-02 
2135	 3.52781075699214E-02 
2136	 3.68496984840107E-02 
2137	 3.71423015706811E-02 
2138	 3.48320907923991E-02 
2139	 1.76221038963409E-02 
2140	 9.55957127248835E-03 
2141	 4.80070223760904E-03 
2142	 3.24068983785884E-03 
2143	 2.24031162486406E-03 
2144	 1.08108058399972E-02 
2145	 2.68566891507107E-02 
2146	 2.96078361711305E-02 
2147	 0.017932621241695 
2148	 9.88901047064198E-03 
2149	-9.77291373607178E-04 
2150	-0.018851681786664 
2151	-1.55038386613037E-02 
2152	-6.38306815863231E-04 
2153	 5.83091663037814E-03 
2154	 1.22834509116551E-02 
2155	 1.85817071943533E-02 
2156	 9.13909317206232E-03 
2157	 8.1798242402352E-03 
2158	 1.26649949659512E-02 
2159	 1.59811033044478E-02 
2160	 1.55151441794014E-02 
2161	 2.12897589416439E-02 
2162	 2.41780605405164E-02 
2163	 2.72167677413876E-02 
2164	 4.40625725505496E-02 
2165	 4.98231314539376E-02 
2166	 5.25926822847583E-02 
2167	 5.16951340549214E-02 
2168	 3.82016061548427E-02 
2169	 2.99476992523967E-02 
2170	 2.03459048808672E-02 
2171	 0.01219634841918 
2172	 9.98794379811489E-03 
2173	 1.70804062552785E-02 
2174	 2.28483532020648E-02 
2175	 2.22236273101657E-02 
2176	 0.014025076448141 
2177	 7.8821209297241E-03 
2178	 4.70369974810349E-03 
2179	-4.3787097203537E-03 
2180	-1.70726102569669E-02 
2181	-3.38189172247726E-02 
2182	-2.17769994810509E-02 
2183	-6.26732076230756E-03 
2184	 3.41368072406783E-03 
2185	 3.46301822206982E-02 
2186	 4.19436152426843E-02 
2187	 1.51156060223682E-02 
2188	 1.32593082007149E-02 
2189	 2.39126329812711E-02 
2190	 2.01434881290027E-02 
2191	 1.20238472715018E-02 
2192	 1.05221889175153E-02 
2193	 8.69903291032516E-04 
2194	-5.50484428460124E-04 
2195	 2.09685650970711E-02 
2196	 0.020454270864275 
2197	-2.64002148012929E-03 
2198	-7.28491601974604E-03 
2199	-1.13023737076391E-02 
2200	-1.84496593678725E-02 
2201	-9.51662634372069E-03 
2202	 1.31174787180099E-02 
2203	 1.85033622187288E-02 
2204	 2.75130976237165E-02 
2205	 4.76812140359096E-02 
2206	 5.68074932554747E-02 
2207	 6.30146527768013E-02 
2208	 5.65645082635668E-02 
2209	 3.84104506022771E-02 
2210	 3.55551494389235E-02 
2211	 3.51786880196421E-02 
2212	 2.99761551154672E-02 
2213	 2.52646936323071E-02 
2214	 1.97491295521629E-02 
2215	 8.35679888195093E-03 
2216	 8.38824533713337E-03 
2217	 1.39179763520468E-02 
2218	 2.37862451848167E-02 
2219	 3.58915349911524E-02 
2220	 6.94619182415083E-02 
2221	 7.30738677011602E-02 
2222	 5.91697904070774E-02 
2223	 6.49569722525101E-02 
2224	 6.86616104716921E-02 
2225	 5.98969280452212E-02 
2226	 5.50449478386404E-02 
2227	 4.56022955688859E-02 
2228	 1.90943276030381E-02 
2229	 3.40831726323105E-05 
2230	-1.47930511748559E-02 
2231	-1.71446396396382E-02 
2232	-1.27117301115047E-02 
2233	-1.49109639664488E-02 
2234	-8.84259290584823E-03 
2235	-9.1543323694017E-03 
2236	 6.09087254440073E-04 
2237	-9.6862380610102E-03 
2238	-8.52296763916789E-03 
2239	 3.98612436283854E-03 
2240	-1.38135436049511E-02 
2241	-2.74210914095588E-02 
2242	-3.32406906088832E-02 
2243	-1.24677085039023E-02 
2244	 2.68677101173939E-02 
2245	 3.87329044767336E-02 
2246	 0.052950544787749 
2247	 7.56542190169158E-02 
2248	 9.27137928665519E-02 
2249	 0.104426109037253 
2250	 0.101078481519875 
2251	 8.05642326832432E-02 
2252	 6.33919048451049E-02 
2253	 5.37624771340107E-02 
2254	 6.36150346442357E-02 
2255	 7.45937088604494E-02 
2256	 7.43324241342643E-02 
2257	 7.94971259510106E-02 
2258	 5.72710275430526E-02 
2259	 0.05792055964961 
2260	 5.43077390798272E-02 
2261	 3.27005880691634E-02 
2262	 1.66487940150662E-02 
2263	 1.71132396726667E-02 
2264	 9.58855662642717E-03 
2265	-1.32579325732521E-02 
2266	-1.00174745171908E-02 
2267	 2.02357351654324E-02 
2268	 2.27415190215814E-02 
2269	 1.86353728920721E-02 
2270	 3.08982150951545E-02 
2271	 3.55416202674364E-02 
2272	 0.04333369331283 
2273	 6.05819052067989E-02 
2274	 6.95139832674677E-02 
2275	 9.04413920205982E-02 
2276	 8.17539094260694E-02 
2277	 6.38087691112499E-02 
2278	 4.69880277342712E-02 
2279	-1.16314130303645E-02 
2280	-0.033227691616534 
2281	-4.92224321028406E-02 
2282	-3.41297478084378E-02 
2283	 9.8915066686683E-03 
2284	 1.55037073571851E-02 
2285	 1.73588095558647E-02 
2286	 1.20466866255568E-02 
2287	 7.34861758719055E-03 
2288	 3.23609675967259E-02 
2289	 4.96197244932325E-02 
2290	 5.45156148712007E-02 
2291	 3.00730939087803E-02 
2292	 4.10627020472381E-03 
2293	 4.90659001264961E-03 
2294	 3.80703917961144E-02 
2295	 0.106241897711763 
2296	 0.108739528096087 
2297	 9.87002191219194E-02 
2298	 9.93684680293661E-02 
2299	 7.60265048415796E-02 
2300	 0.062125694540239 
2301	 5.27199691812594E-02 
2302	 4.13818975746076E-02 
2303	 3.82390837759177E-02 
2304	 5.28208287880294E-02 
2305	 7.26919373496808E-02 
2306	 7.83414178853804E-02 
2307	 6.28475880061558E-02 
2308	 6.17689393619512E-02 
2309	 6.89893924538385E-02 
2310	 2.51787513472256E-02 
2311	-4.62653682133224E-03 
2312	-8.73523358912496E-04 
2313	-9.34186271491545E-03 
2314	 4.61305276355381E-02 
2315	 8.95966489095522E-02 
2316	 3.92513023224823E-02 
2317	-3.30395032255823E-02 
2318	-6.27482364974781E-02 
2319	-0.033057498736148 
2320	-1.58192712719213E-02 
2321	-0.037035803713614 
2322	 0.051182454946901 
2323	 9.78231746243423E-02 
2324	 0.11106218511009 
2325	 0.214031771392333 
2326	 0.163203122816936 
2327	 7.06492185891866E-02 
2328	 5.54778639709921E-02 
2329	 2.91726886395798E-02 
2330	-6.92700177592129E-04 
2331	-3.56827032334535E-02 
2332	-0.114264910584465 
2333	-0.181390195429808 
2334	-0.176821855595595 
2335	-0.208890926218425 
2336	-0.218925186956227 
2337	-9.85673007802737E-02 
2338	 1.37517594148554E-02 
2339	 2.50824509348478E-02 
2340	 2.67673098938272E-03 
2341	-0.281967899462255 
2342	-0.852009119914983 
2343	-0.675841026499492 
2344	-0.353633074295412 
2345	-0.193891366118381 
2346	-5.15567223056251E-02 
2347	 2.79545396696863E-02 
2348	-0.002634016787319 
2349	 4.69825895569518E-02 
2350	 0.196867952488646 
2351	 0.328401582559445 
2352	 0.479181878982494 
2353	 0.418502414759381 
2354	 0.112565660977666 
2355	-2.41697308179444E-03 
2356	 2.41854072442985E-02 
2357	 0.200102734436879 
2358	 0.528278390675859 
2359	 0.13048341455875 
2360	-0.510293803409942 
2361	-0.608160882716025 
2362	-0.441730665781936 
2363	-0.363987994764527 
2364	-0.209892728193935 
2365	-0.185261125871915 
2366	-0.32873333921223 
2367	-0.396079630446904 
2368	-0.478442717605818 
2369	-0.952322382430266 
2370	-4.12734480940733 
2371	-2.89210559227986 
2372	-3.87843767853126 
2373	 3.22596809111467 
2374	 1.57309354159475 
2375	-8.41973737419965E-07 
2376	 0.165278705626534 
2377	 0.201949442605962 
2378	 0.176750522662442 
2379	 0.846855607111408 
2380	 0.902501190587619 
2381	-0.484032788102738 
2382	 0.135960890147242 
2383	-0.231309956426201 
2384	-0.319711432132767 
2385	 5.0583394463789 
2386	 0.844205062447895 
2387	 0.752686045758484 
2388	 0.726459021716009 
2389	 1.30086321515933 
2390	 2.85560020494049 
2391	 9.21615127082596 
2392	-6.40956621730147 
2393	-1.8585473069953 
2394	-0.504704137753868 
2395	-0.412518480500859 
2396	 0.222014501413696 
2397	-5.71947414666047E-02 
2398	-0.650497039498713 
2399	-0.466593452936989 
2400	-2.90671357827843 
2401	-28.7877748193649 
2402	-4.48056589360828 
2403	-1.17604544804182 
2404	-1.66789890166308 
2405	-4.25471074119423 
2406	-17.4381500192592 
2407	 3.07721755775338 
2408	 3.10420366958815 
2409	-8.12521865476577 
2410	 1.38733582409747 
2411	 0.736196550178233 
2412	 1.81695870223862 
2413	 0.322376758483946 
2414	 0.41687265987147 
2415	 7.19994798895072 
2416	 5.14238731668375 
2417	 7.32263289098035 
2418	 2.75444288663395 
2419	 0.626059043084452 
2420	-3.17596390763734 
2421	 1.01713720320877 
2422	 4.69337881016267 
2423	 94.0158627316736 
2424	 3.66848662561141 
2425	-16.7165768936637 
2426	-4.99174473495407 
2427	 13.0044263373754 
2428	 4.61802600081343 
2429	 3.77247191677089 
2430	-86.6744729147242 
2431	 2.50064338854293 
2432	 0.760399948633167 
2433	 0.923361175278857 
2434	 0.701485899852334 
2435	 0.327753844323603 
2436	 0.476401219821953 
2437	-0.56387969853437 
2438	-9.07383492131377 
2439	 6.30686572180844 
2440	 7.69445502089947 
2441	 3.20640473811144 
2442	 1.56717668617429 
2443	 1.23570740331936 
2444	 1.34226457759487 
2445	 1.52724359438106 
2446	 1.91525030431278 
2447	 1.73191297007321 
2448	 1.63453465944184 
2449	 2.61036754190756 
2450	 2.21982530152011 
2451	 1.46365038955269 
2452	 0.994177654317187 
2453	 0.436046966758344 
2454	 0.118342836344452 
2455	-9.17365858635278E-02 
2456	-0.292811946158524 
2457	 0.060059684774374 
2458	 0.898751824220333 
2459	 1.01223525700601 
2460	 1.03981423579103 
2461	 0.45795757081343 
2462	-0.234054598134602 
2463	-0.396067036244949 
2464	-4.48282105548181E-02 
2465	 2.45875905552896E-02 
2466	 2.51888493121613E-02 
2467	 6.62463010011906E-02 
2468	-0.247545743609928 
2469	-1.09068166756842 
2470	-0.383927827554894 
2471	 6.18020088713657E-02 
2472	-0.243243205058091 
2473	 2.36264375717426E-02 
2474	 0.357166444962314 
2475	 0.232597960240928 
2476	 0.328093874604385 
2477	 0.587542260059173 
2478	 0.621622969877744 
2479	 1.2400957350095 
2480	 3.07154462747291 
2481	 1.82572403292188 
2482	 1.92188127551405 
2483	 2.67781038927951 
2484	-12.6193473569135 
2485	-1.17913169521641 
2486	-1.5602119963222 
2487	 3.8105988398707 
2488	 0.795836241661552 
2489	 0.463151391151981 
2490	 0.660720848730037 
2491	 0.670484828548229 
2492	 0.941875871420131 
2493	 0.73296376766172 
2494	 0.150494074940298 
2495	-0.13014540108822 
2496	 0.171600549628603 
2497	 0.462695349496403 
2498	 0.652860375057077 
2499	 1.90306048182348 
2500	 9.9203078141583 
