Wavelength	rt0727far00000.asd
350	 6.69813096270853E-02 
351	 6.63763445017155E-02 
352	 6.68770462940334E-02 
353	 0.067168705621746 
354	 6.67144638206606E-02 
355	 6.77310203550651E-02 
356	 6.76714149823543E-02 
357	 6.66357874104043E-02 
358	 6.58451588806622E-02 
359	 6.74327165785738E-02 
360	 6.79477521626057E-02 
361	 6.71752047748146E-02 
362	 6.71451796578639E-02 
363	 6.73019017862498E-02 
364	 6.75634172938795E-02 
365	 6.77490173372289E-02 
366	 6.74679275298792E-02 
367	 6.74930527850743E-02 
368	 6.76406026489477E-02 
369	 6.76299306235686E-02 
370	 6.78085513475928E-02 
371	 6.80290181864023E-02 
372	 6.82970025530311E-02 
373	 0.068671340912275 
374	 0.06890227768062 
375	 6.86790493770001E-02 
376	 6.83245353192579E-02 
377	 6.89681482215644E-02 
378	 6.93525221110681E-02 
379	 6.94293221338788E-02 
380	 0.069426492227209 
381	 6.93656093777361E-02 
382	 7.00932488499922E-02 
383	 7.04776700204722E-02 
384	 6.91067346271544E-02 
385	 0.069609070212155 
386	 7.02760186454418E-02 
387	 7.03388027055414E-02 
388	 7.05736729519884E-02 
389	 7.04267801863293E-02 
390	 7.06785115425615E-02 
391	 0.071607914625776 
392	 7.18112952643565E-02 
393	 7.14571371687024E-02 
394	 7.12186919330399E-02 
395	 7.16760380858722E-02 
396	 7.18742923547794E-02 
397	 7.22511793609048E-02 
398	 7.26080382362572E-02 
399	 7.22230175810386E-02 
400	 7.22274338524025E-02 
401	 7.24976098543409E-02 
402	 7.27566889638284E-02 
403	 7.28510151908705E-02 
404	 7.31238825711086E-02 
405	 7.33097581544799E-02 
406	 7.31078802210824E-02 
407	 7.34314476995847E-02 
408	 0.073359270542094 
409	 7.30704440577257E-02 
410	 7.38202745592338E-02 
411	 7.41231006421091E-02 
412	 0.074160515894052 
413	 7.43224511396862E-02 
414	 7.47866734721925E-02 
415	 7.47598792117671E-02 
416	 7.47247393242688E-02 
417	 7.53918734136763E-02 
418	 7.53644757937041E-02 
419	 7.54922388274828E-02 
420	 7.59178199482733E-02 
421	 7.58894107853809E-02 
422	 7.61137383875199E-02 
423	 0.076530800467261 
424	 7.69170617636501E-02 
425	 7.70328733806155E-02 
426	 0.077335652069276 
427	 7.77456492145036E-02 
428	 7.79788546438465E-02 
429	 7.83842391066539E-02 
430	 7.87514737228525E-02 
431	 7.89896425069206E-02 
432	 7.92081204300522E-02 
433	 7.95187425419585E-02 
434	 7.98543736444122E-02 
435	 0.080172361844345 
436	 0.080662890257484 
437	 8.09883410643171E-02 
438	 8.12855278231753E-02 
439	 8.18879032036128E-02 
440	 8.24146832912032E-02 
441	 8.27856157232087E-02 
442	 8.30243425685824E-02 
443	 8.32431505594659E-02 
444	 8.36555442441756E-02 
445	 8.41125510872254E-02 
446	 8.44439800997082E-02 
447	 8.48348594116596E-02 
448	 8.53100413974344E-02 
449	 8.57321058138191E-02 
450	 8.58958232766985E-02 
451	 8.62819644781925E-02 
452	 8.66489888066998E-02 
453	 8.68389771813633E-02 
454	 8.70832165085605E-02 
455	 8.72554538719297E-02 
456	 8.75163759740445E-02 
457	 8.79995604965051E-02 
458	 8.81761676300111E-02 
459	 8.82829858504106E-02 
460	 8.85022456659767E-02 
461	 8.88975884223774E-02 
462	 8.90399981050077E-02 
463	 8.91490450111398E-02 
464	 8.94157593636544E-02 
465	 8.95588439072746E-02 
466	 8.97997669440211E-02 
467	 9.01846543175374E-02 
468	 9.06494183039162E-02 
469	 9.10700456100991E-02 
470	 9.12245221131617E-02 
471	 9.12223312917578E-02 
472	 9.16058467911003E-02 
473	 9.20758965929147E-02 
474	 9.24307472581839E-02 
475	 9.26234421038573E-02 
476	 9.30939844103217E-02 
477	 9.33154169213857E-02 
478	 9.34296161264271E-02 
479	 9.39693984365848E-02 
480	 9.42712881646073E-02 
481	 9.45750339845025E-02 
482	 9.50113602454551E-02 
483	 0.095235687943909 
484	 9.54602955777932E-02 
485	 9.58584880397288E-02 
486	 9.64690234832018E-02 
487	 9.67075856591811E-02 
488	 9.71078451294277E-02 
489	 0.097721386465617 
490	 9.80940761916385E-02 
491	 9.83198281961512E-02 
492	 9.86015723789251E-02 
493	 9.90974921593061E-02 
494	 0.099826718019656 
495	 0.100349105976018 
496	 0.100719388953109 
497	 0.101232335418611 
498	 0.101746782143393 
499	 0.102382597696367 
500	 0.10310384631291 
501	 0.103600589124294 
502	 0.104254914160549 
503	 0.10489159665103 
504	 0.105343928184729 
505	 0.106143993540989 
506	 0.106990860402577 
507	 0.107624785634668 
508	 0.107896710281284 
509	 0.108527387143625 
510	 0.109198562142399 
511	 0.10970614314039 
512	 0.110541966790203 
513	 0.111380113276161 
514	 0.112080638918276 
515	 0.112632722496483 
516	 0.113381803919793 
517	 0.11425396816525 
518	 0.115125632273901 
519	 0.115875147084483 
520	 0.116695690523846 
521	 0.117492265772252 
522	 0.118190726473388 
523	 0.118992812053206 
524	 0.119835563065185 
525	 0.120700834529453 
526	 0.121601579011417 
527	 0.122500245192701 
528	 0.123343555974276 
529	 0.124136661615326 
530	 0.124999349610453 
531	 0.12589083703775 
532	 0.126766100671667 
533	 0.127591987811075 
534	 0.128428382789305 
535	 0.129417294256448 
536	 0.130521577789807 
537	 0.131496624519681 
538	 0.132356459558486 
539	 0.133173505305894 
540	 0.134060851944736 
541	 0.13522093898179 
542	 0.136175078707751 
543	 0.137031739112873 
544	 0.13821415845698 
545	 0.139229342519593 
546	 0.140132200622263 
547	 0.141025207893134 
548	 0.141960913825306 
549	 0.142944856644723 
550	 0.14394027628325 
551	 0.144912416995347 
552	 0.14595661093 
553	 0.146851596656576 
554	 0.147706353247962 
555	 0.148994540208865 
556	 0.149891624517507 
557	 0.150712611091855 
558	 0.151786416994444 
559	 0.152567137848183 
560	 0.15334373697813 
561	 0.154223192228144 
562	 0.15517622974389 
563	 0.155972414966007 
564	 0.15669740387452 
565	 0.157382849836866 
566	 0.15785164801212 
567	 0.158351072875602 
568	 0.158937329179388 
569	 0.159545580195147 
570	 0.159925535657094 
571	 0.160163083567451 
572	 0.160427076851785 
573	 0.160930247411046 
574	 0.161179851865122 
575	 0.161260943414195 
576	 0.161350435508417 
577	 0.161458259587935 
578	 0.161482204411492 
579	 0.161372432869681 
580	 0.161128989033568 
581	 0.160836501139604 
582	 0.160583084766131 
583	 0.160325791837403 
584	 0.159757960216075 
585	 0.159501632247312 
586	 0.159301529397436 
587	 0.158681912953169 
588	 0.158115776187994 
589	 0.157576169221757 
590	 0.157004050351058 
591	 0.156302295071788 
592	 0.155749756320037 
593	 0.155163196474091 
594	 0.154321877751363 
595	 0.153118831735898 
596	 0.151910422455486 
597	 0.150637717646761 
598	 0.149075860050496 
599	 0.14771366718096 
600	 0.146435349784036 
601	 0.145242184264424 
602	 0.144458788972371 
603	 0.143912719779223 
604	 0.143562140538608 
605	 0.143361273412435 
606	 0.143049887404268 
607	 0.142763275771897 
608	 0.142563301731975 
609	 0.14241762964031 
610	 0.142439722601152 
611	 0.142318640148599 
612	 0.141893806858331 
613	 0.141687740233298 
614	 0.141529969047057 
615	 0.141358111588306 
616	 0.141163070301813 
617	 0.140899089420013 
618	 0.140686744514456 
619	 0.140568588112651 
620	 0.14045112292777 
621	 0.140159267873313 
622	 0.139989913791292 
623	 0.140194849189223 
624	 0.1400275145553 
625	 0.139633530611592 
626	 0.139318856832979 
627	 0.139474009554678 
628	 0.139534866846703 
629	 0.139374076926222 
630	 0.139050143504757 
631	 0.138831536602622 
632	 0.13861792875012 
633	 0.138394742032268 
634	 0.138193752521392 
635	 0.138146646202567 
636	 0.137980885257367 
637	 0.137697597124141 
638	 0.137736563486752 
639	 0.137746563832365 
640	 0.137694096787845 
641	 0.137617807571809 
642	 0.137439570772733 
643	 0.137414404018989 
644	 0.137463449274203 
645	 0.137233694233467 
646	 0.136864521740235 
647	 0.136556713659112 
648	 0.136347774261985 
649	 0.135809745071414 
650	 0.135420327623857 
651	 0.134871227829343 
652	 0.133789397642637 
653	 0.133217953373089 
654	 0.132320671712312 
655	 0.130740296881206 
656	 0.129197718141862 
657	 0.127878975018528 
658	 0.126695064053643 
659	 0.125508900657902 
660	 0.124364362439951 
661	 0.123372846877283 
662	 0.122424097447833 
663	 0.121327858636764 
664	 0.120343226046046 
665	 0.119660734257271 
666	 0.119158189456836 
667	 0.118187269052277 
668	 0.117417759430972 
669	 0.117069220706284 
670	 0.117087858244341 
671	 0.11691001242032 
672	 0.116585048211745 
673	 0.116364187986041 
674	 0.116619178188513 
675	 0.116844504905317 
676	 0.117143727241243 
677	 0.117561243057371 
678	 0.117657137090598 
679	 0.117923943488903 
680	 0.118491893487729 
681	 0.119269853317195 
682	 0.119943987190648 
683	 0.120653978674529 
684	 0.121386785116385 
685	 0.121932609311482 
686	 0.122768439803632 
687	 0.12378504395073 
688	 0.124570999457896 
689	 0.124809948616704 
690	 0.125055082621472 
691	 0.125375401926763 
692	 0.125536814151431 
693	 0.125615401990986 
694	 0.12527524341347 
695	 0.124580491080143 
696	 0.124104750333394 
697	 0.123492325561621 
698	 0.122637787045043 
699	 0.121596976340814 
700	 0.120492299591933 
701	 0.119260112185134 
702	 0.118007587369329 
703	 0.116865610123451 
704	 0.115499377651952 
705	 0.113968238071653 
706	 0.112399441793936 
707	 0.110779129613309 
708	 0.10865709835192 
709	 0.106421721089045 
710	 0.104595795751467 
711	 0.102474198474418 
712	 0.100112723047226 
713	 9.76969482054855E-02 
714	 9.54508355577781E-02 
715	 9.36293154804549E-02 
716	 9.16039777507928E-02 
717	 8.89396185904015E-02 
718	 0.08660617785874 
719	 8.36962379024296E-02 
720	 0.081044136876774 
721	 7.89191348010599E-02 
722	 7.70248199538243E-02 
723	 7.49621418966994E-02 
724	 0.072938070642306 
725	 7.09630697188583E-02 
726	 6.84484321237512E-02 
727	 6.59543501388779E-02 
728	 6.38631422129473E-02 
729	 6.12526607468038E-02 
730	 5.87616808541117E-02 
731	 0.05663969359386 
732	 5.47086797855741E-02 
733	 5.33800235658845E-02 
734	 5.23724654131317E-02 
735	 5.14504796944363E-02 
736	 5.04060677488409E-02 
737	 4.99923589233454E-02 
738	 4.97029954364449E-02 
739	 4.90872884604001E-02 
740	 4.86499160166209E-02 
741	 4.84490364843771E-02 
742	 4.83028021279755E-02 
743	 0.047982457443796 
744	 4.80004812235021E-02 
745	 4.80551341260856E-02 
746	 4.79874808597523E-02 
747	 4.79347407426323E-02 
748	 0.047848850396267 
749	 4.77475675681807E-02 
750	 4.76680652324563E-02 
751	 4.76502980095164E-02 
752	 4.77101045201903E-02 
753	 4.77739729428048E-02 
754	 4.77293487321246E-02 
755	 4.75637632541727E-02 
756	 4.75048467929974E-02 
757	 4.76129088718207E-02 
758	 4.77067654874498E-02 
759	 4.79798971087706E-02 
760	 0.048467792121138 
761	 4.86745060081497E-02 
762	 4.85737026918961E-02 
763	 4.84857179470185E-02 
764	 4.82843343194096E-02 
765	 4.78918457336007E-02 
766	 4.80060332304792E-02 
767	 4.80323452991847E-02 
768	 4.79145941000472E-02 
769	 4.80636816681443E-02 
770	 4.81539521789764E-02 
771	 4.82276571933487E-02 
772	 4.83563623982639E-02 
773	 4.84932646903826E-02 
774	 4.86518380669465E-02 
775	 4.88188891648151E-02 
776	 4.89876378480868E-02 
777	 4.92521495067755E-02 
778	 4.94697615235997E-02 
779	 4.96607819081652E-02 
780	 5.00045473563129E-02 
781	 0.050131888433956 
782	 5.02083348548361E-02 
783	 5.04106951278351E-02 
784	 5.07149218365607E-02 
785	 0.051052794524611 
786	 5.13943457016785E-02 
787	 5.17146081791729E-02 
788	 5.19235408774383E-02 
789	 5.23223591429124E-02 
790	 0.052791398118953 
791	 5.29347690007773E-02 
792	 5.33227427742014E-02 
793	 5.36765115480313E-02 
794	 5.38423095606296E-02 
795	 5.40162825514596E-02 
796	 0.054582857962457 
797	 5.51430771391464E-02 
798	 5.53114054379188E-02 
799	 5.54562734126621E-02 
800	 5.55446535468117E-02 
801	 5.57382057150076E-02 
802	 0.056191517403649 
803	 5.62706376333258E-02 
804	 5.62810641426528E-02 
805	 5.63495728351644E-02 
806	 5.63252822166893E-02 
807	 5.63341015885567E-02 
808	 5.64411177928058E-02 
809	 5.65874425995394E-02 
810	 5.63799547084144E-02 
811	 5.64405748490509E-02 
812	 5.67413226378993E-02 
813	 5.68386084599218E-02 
814	 5.59945147461641E-02 
815	 5.54586922956644E-02 
816	 5.51901139990662E-02 
817	 5.41200600039208E-02 
818	 0.053842803465388 
819	 5.35380177876546E-02 
820	 5.27583949219246E-02 
821	 5.17121276221701E-02 
822	 5.07194778418719E-02 
823	 4.98239551694808E-02 
824	 4.90556415640001E-02 
825	 4.86919389470119E-02 
826	 4.77956417385925E-02 
827	 4.64451528900443E-02 
828	 4.52332251363264E-02 
829	 0.044209755300961 
830	 4.34807523055392E-02 
831	 4.31295731405041E-02 
832	 4.31458154681871E-02 
833	 4.25632230267549E-02 
834	 4.20864624729752E-02 
835	 4.19890396783672E-02 
836	 4.17836068470833E-02 
837	 4.13562085733562E-02 
838	 4.09790928086244E-02 
839	 4.08910905113826E-02 
840	 4.10752240484634E-02 
841	 4.10245096480644E-02 
842	 4.05913431529362E-02 
843	 3.99868910413197E-02 
844	 4.02629885862562E-02 
845	 4.00510962297268E-02 
846	 3.95305946960034E-02 
847	 3.98153373807967E-02 
848	 3.97823143363455E-02 
849	 3.98419867178802E-02 
850	 3.99428551120009E-02 
851	 3.93172933835589E-02 
852	 3.92786235329553E-02 
853	 3.96934705411457E-02 
854	 0.039896268818386 
855	 3.88142221047358E-02 
856	 3.90944848683102E-02 
857	 3.96231169729827E-02 
858	 3.90362644119392E-02 
859	 3.90288991761997E-02 
860	 3.87282393230635E-02 
861	 3.85726484652551E-02 
862	 3.92542773054073E-02 
863	 3.87640781845491E-02 
864	 3.86055118320169E-02 
865	 3.89515187099648E-02 
866	 3.86466941293789E-02 
867	 3.83048879308551E-02 
868	 3.81222032338608E-02 
869	 3.81385689879227E-02 
870	 3.82648431827925E-02 
871	 3.85182974141911E-02 
872	 3.86417481622486E-02 
873	 3.84548516585359E-02 
874	 3.80372580595001E-02 
875	 3.80604426297376E-02 
876	 3.80107078359736E-02 
877	 3.74804228500901E-02 
878	 3.79279888054036E-02 
879	 0.037991854488236 
880	 3.77836310620766E-02 
881	 3.79487789935914E-02 
882	 3.76584985217545E-02 
883	 3.76023594719091E-02 
884	 3.76044388574055E-02 
885	 3.70261879995315E-02 
886	 3.77393646326545E-02 
887	 0.037701313725567 
888	 3.65866412231204E-02 
889	 3.64614777348136E-02 
890	 0.037295168976967 
891	 3.78081674558263E-02 
892	 0.037340202076835 
893	 0.037057836692023 
894	 3.73945071101383E-02 
895	 3.79686259732662E-02 
896	 3.80772032234938E-02 
897	 3.73524290873408E-02 
898	 3.62843738033942E-02 
899	 3.63321474252784E-02 
900	 3.79263089430758E-02 
901	 0.037861416817423 
902	 3.71910903079843E-02 
903	 3.65814586978681E-02 
904	 0.036614583716466 
905	 0.038688816140829 
906	 3.78367209129439E-02 
907	 3.50125714224007E-02 
908	 3.56060030278164E-02 
909	 3.71615497381492E-02 
910	 3.85673407237149E-02 
911	 0.03917109356793 
912	 3.87825697727481E-02 
913	 3.65936653665524E-02 
914	 3.62504439693347E-02 
915	 3.76401598247203E-02 
916	 3.63783088171247E-02 
917	 3.65461081597456E-02 
918	 3.64715470474824E-02 
919	 3.57490413727849E-02 
920	 3.63468012367607E-02 
921	 3.62629004233084E-02 
922	 3.64887684702532E-02 
923	 3.76815107767806E-02 
924	 3.85819019594863E-02 
925	 3.61458164901974E-02 
926	 3.59244707382457E-02 
927	 4.22835943880872E-02 
928	 3.99310465364633E-02 
929	 3.32915318287721E-02 
930	 2.89218837538318E-02 
931	 0.033354581505168 
932	 1.90479485174892E-02 
933	 1.77986781236901E-02 
934	 3.22157505925227E-02 
935	 4.01451320949772E-02 
936	 0.041657995852928 
937	 4.37261945539767E-02 
938	 4.44791242702485E-02 
939	 4.06441289469998E-02 
940	 3.46850551108778E-02 
941	 2.88825208109657E-02 
942	 2.81301032972511E-02 
943	 3.54404230778123E-02 
944	 3.26597777550211E-02 
945	 2.44194902242027E-02 
946	 2.75600048048365E-02 
947	 0.052299637981856 
948	 5.07034478728539E-02 
949	 4.50661544517384E-02 
950	 3.38527007202687E-02 
951	 1.09215281386052E-02 
952	 4.12929900820955E-02 
953	 0.052639305968757 
954	 3.51877188304221E-02 
955	 2.56712778424435E-02 
956	 3.20046310091035E-02 
957	 3.76958852030283E-02 
958	 3.85542539886799E-02 
959	 3.90116659056391E-02 
960	 3.39140039887073E-02 
961	 3.86359673770397E-02 
962	 4.41549232410236E-02 
963	 3.35009100360124E-02 
964	 0.03839786656467 
965	 4.07613579682673E-02 
966	 3.71365702901214E-02 
967	 3.52947217417499E-02 
968	 3.37751688228573E-02 
969	 0.031749288374208 
970	 2.97998367277468E-02 
971	 2.97261654127279E-02 
972	 0.034227315969011 
973	 3.84919610719045E-02 
974	 0.039826004033506 
975	 3.86951972630289E-02 
976	 3.33945675162563E-02 
977	 0.030427107583733 
978	 3.23309855629179E-02 
979	 3.61754765027186E-02 
980	 3.31610413918407E-02 
981	 3.27069630298729E-02 
982	 0.035428802144963 
983	 0.034556229346417 
984	 0.030932730870713 
985	 0.03008393034946 
986	 3.18492320270328E-02 
987	 3.19960713905905E-02 
988	 0.032471201252266 
989	 3.44493214664755E-02 
990	 3.50742359669978E-02 
991	 3.10981757098286E-02 
992	 3.60223204009167E-02 
993	 3.61949358722591E-02 
994	 3.15308828347366E-02 
995	 3.14754658655893E-02 
996	 0.032573776060478 
997	 3.58752189377498E-02 
998	 3.78762045074882E-02 
999	 3.44702252412281E-02 
1000	 3.36580098584616E-02 
1001	 3.58003755031854E-02 
1002	 3.52672673970538E-02 
1003	 3.44699162688956E-02 
1004	 3.25617664202967E-02 
1005	 3.18048139916307E-02 
1006	 3.12872906201755E-02 
1007	 0.030214220836086 
1008	 3.10527894892143E-02 
1009	 3.22000055522254E-02 
1010	 3.27510168130591E-02 
1011	 3.31967863858423E-02 
1012	 3.31185259834585E-02 
1013	 3.32489677368396E-02 
1014	 3.31870426995976E-02 
1015	 3.27693097986788E-02 
1016	 3.28338059831109E-02 
1017	 3.33352067017424E-02 
1018	 3.32590844663072E-02 
1019	 3.30123386191891E-02 
1020	 3.32678848399824E-02 
1021	 3.31917962132853E-02 
1022	 3.33610104873943E-02 
1023	 3.49924976083923E-02 
1024	 3.57483665453222E-02 
1025	 3.62532376536232E-02 
1026	 0.036209390298323 
1027	 3.61381157613833E-02 
1028	 3.55534578500919E-02 
1029	 3.50504303893719E-02 
1030	 3.48585014754981E-02 
1031	 3.40030074631727E-02 
1032	 3.17171637168025E-02 
1033	 3.13245819195353E-02 
1034	 3.12662114870631E-02 
1035	 3.16848060648929E-02 
1036	 3.43449193540068E-02 
1037	 3.52105010212362E-02 
1038	 3.54205987237331E-02 
1039	 3.53671835082098E-02 
1040	 3.45295633724019E-02 
1041	 3.43566866719556E-02 
1042	 3.44487215851102E-02 
1043	 3.53485240547117E-02 
1044	 3.51529527186654E-02 
1045	 3.47485679570214E-02 
1046	 3.41475378860178E-02 
1047	 3.26657414578161E-02 
1048	 3.19945649672654E-02 
1049	 3.13327414319019E-02 
1050	 3.12107981584568E-02 
1051	 3.19888538855961E-02 
1052	 3.20843883060471E-02 
1053	 3.18509849776716E-02 
1054	 3.22633045031063E-02 
1055	 3.31658211141985E-02 
1056	 0.033356178566604 
1057	 3.34280374492919E-02 
1058	 3.38575600664983E-02 
1059	 0.033903176255433 
1060	 3.29340790173808E-02 
1061	 3.29054528999616E-02 
1062	 3.35494718787332E-02 
1063	 3.38675371988493E-02 
1064	 3.41498427203156E-02 
1065	 3.44620075231184E-02 
1066	 0.035251575735228 
1067	 3.52547225383703E-02 
1068	 3.48496458270945E-02 
1069	 3.44119639835044E-02 
1070	 3.26270662101301E-02 
1071	 3.21497258320994E-02 
1072	 3.24531976072001E-02 
1073	 3.27965265672821E-02 
1074	 3.34553438754931E-02 
1075	 3.53698690910941E-02 
1076	 3.57618349017338E-02 
1077	 3.52588500809343E-02 
1078	 3.55824558004659E-02 
1079	 3.64540713601875E-02 
1080	 3.58453851815848E-02 
1081	 3.42445309796683E-02 
1082	 3.38210587524157E-02 
1083	 3.29244710728958E-02 
1084	 3.20924028750025E-02 
1085	 3.20077315664455E-02 
1086	 3.22864731049331E-02 
1087	 3.25500509859851E-02 
1088	 3.21798000019915E-02 
1089	 3.10940646567417E-02 
1090	 3.25832902380958E-02 
1091	 0.03314350791946 
1092	 3.31716567325059E-02 
1093	 3.31602411489693E-02 
1094	 3.42483456194782E-02 
1095	 3.38231112927717E-02 
1096	 3.05186441550345E-02 
1097	 3.02326120998778E-02 
1098	 3.23003208558278E-02 
1099	 3.24452858099687E-02 
1100	 3.34469747476217E-02 
1101	 3.35368983315547E-02 
1102	 2.99041846516419E-02 
1103	 2.89516222563195E-02 
1104	 2.98043856454595E-02 
1105	 3.11790907395331E-02 
1106	 3.18397234933221E-02 
1107	 3.46188869304085E-02 
1108	 3.26519953580154E-02 
1109	 2.88774237270835E-02 
1110	 2.80819154059505E-02 
1111	 2.67208843517079E-02 
1112	 2.70059998889557E-02 
1113	 3.58504438173889E-02 
1114	 3.63034265844605E-02 
1115	 2.56629299953199E-02 
1116	 2.44474137832506E-02 
1117	 2.52127535734584E-02 
1118	 2.30002221005704E-02 
1119	 3.88156766003278E-02 
1120	 4.52089748614417E-02 
1121	 4.09563745798181E-02 
1122	-4.34029185013294E-03 
1123	-2.72245481754731E-02 
1124	-3.40036252148884E-03 
1125	-8.50268080310551E-04 
1126	-0.013462061232534 
1127	 1.04380002126596E-02 
1128	 4.50885639091622E-02 
1129	 3.95973731377518E-02 
1130	 2.58824049889683E-02 
1131	 3.47564080196139E-02 
1132	 1.85102158707363E-02 
1133	 1.80465016588009E-02 
1134	 5.92262802385374E-02 
1135	 0.062646325016109 
1136	 3.46147819643304E-02 
1137	 3.15541706185992E-02 
1138	 3.24920270646841E-02 
1139	 3.19981782205788E-02 
1140	 3.04273505078908E-02 
1141	 0.024811844204748 
1142	 1.89473774739433E-02 
1143	 1.66992759915362E-02 
1144	 0.021754688556433 
1145	 3.04494468027196E-02 
1146	 3.91773039579837E-02 
1147	 0.038148915437765 
1148	 2.99389137704545E-02 
1149	 0.03227043911967 
1150	 3.03420576653078E-02 
1151	 1.95825419841835E-02 
1152	 2.18801965073077E-02 
1153	 3.06042365841099E-02 
1154	 3.24044907731318E-02 
1155	 3.61772068480603E-02 
1156	 3.63846338775403E-02 
1157	 2.95550637984585E-02 
1158	 2.82179423807031E-02 
1159	 3.06764385149396E-02 
1160	 2.94401220574823E-02 
1161	 2.96742121999221E-02 
1162	 3.06559968812719E-02 
1163	 2.88058495896731E-02 
1164	 2.98835764642506E-02 
1165	 3.29156472797994E-02 
1166	 3.31945897561112E-02 
1167	 3.29248788225163E-02 
1168	 0.033660160437798 
1169	 3.32241474327078E-02 
1170	 3.36705545467221E-02 
1171	 3.42862188087576E-02 
1172	 3.52512045673854E-02 
1173	 3.52947705905509E-02 
1174	 3.51790894864595E-02 
1175	 3.54974705568476E-02 
1176	 3.42151393009384E-02 
1177	 0.034593396210081 
1178	 3.63674295576629E-02 
1179	 3.63479611661012E-02 
1180	 3.59758515432983E-02 
1181	 3.57457245243854E-02 
1182	 3.42968914419369E-02 
1183	 3.39918441884518E-02 
1184	 3.42372299426255E-02 
1185	 3.32236516740464E-02 
1186	 3.22367579434703E-02 
1187	 3.23485226813519E-02 
1188	 3.30163817037189E-02 
1189	 3.25345933397475E-02 
1190	 3.32027572955694E-02 
1191	 3.36537815502736E-02 
1192	 3.31261395201217E-02 
1193	 3.12787223859496E-02 
1194	 3.25875790731533E-02 
1195	 3.36784783523507E-02 
1196	 3.30058030361105E-02 
1197	 3.41800306518873E-02 
1198	 3.51960183092869E-02 
1199	 3.43000181670991E-02 
1200	 3.33316947419485E-02 
1201	 3.39634242848696E-02 
1202	 3.45673275544151E-02 
1203	 3.40376627338052E-02 
1204	 3.48250281729208E-02 
1205	 3.49178980032562E-02 
1206	 3.36531628916938E-02 
1207	 3.37492894702954E-02 
1208	 3.32613401858687E-02 
1209	 3.24285544436432E-02 
1210	 3.28169774736039E-02 
1211	 3.32436731155031E-02 
1212	 3.30899251872439E-02 
1213	 3.28890835731627E-02 
1214	 3.31795864392894E-02 
1215	 3.34274803181807E-02 
1216	 3.32904408099671E-02 
1217	 3.34708910123836E-02 
1218	 0.033826842032228 
1219	 3.26960553101307E-02 
1220	 3.19488413417334E-02 
1221	 3.31959758617696E-02 
1222	 3.38670023844441E-02 
1223	 3.33160915080739E-02 
1224	 3.37198624327219E-02 
1225	 3.33878517956167E-02 
1226	 3.20311904661654E-02 
1227	 3.29024447179355E-02 
1228	 3.38005230132163E-02 
1229	 3.34319775078632E-02 
1230	 3.35348637874702E-02 
1231	 3.33992813260459E-02 
1232	 0.03288469261884 
1233	 3.28645308896294E-02 
1234	 3.33098381819073E-02 
1235	 0.033103638228685 
1236	 3.21732979194835E-02 
1237	 3.21730304057796E-02 
1238	 3.23772219441792E-02 
1239	 3.22464760693634E-02 
1240	 3.24802593199384E-02 
1241	 0.032754306768115 
1242	 3.23979745875634E-02 
1243	 3.24143206383289E-02 
1244	 3.32042006481003E-02 
1245	 3.35642563227542E-02 
1246	 3.33325709923667E-02 
1247	 3.34013082704828E-02 
1248	 3.34591447806174E-02 
1249	 3.34365981673587E-02 
1250	 3.36411320052229E-02 
1251	 3.34974436687131E-02 
1252	 3.32240423117939E-02 
1253	 3.28652158233105E-02 
1254	 3.26254518599842E-02 
1255	 3.29242344941187E-02 
1256	 3.29009267889116E-02 
1257	 3.28308349856907E-02 
1258	 3.27249012887123E-02 
1259	 3.20589180723396E-02 
1260	 3.19717215576703E-02 
1261	 3.22685832909461E-02 
1262	 3.22485266967608E-02 
1263	 3.21663039694232E-02 
1264	 3.32245051334648E-02 
1265	 3.36958246206362E-02 
1266	 3.34897539330051E-02 
1267	 0.034001990429219 
1268	 3.41748137205574E-02 
1269	 3.39012557767138E-02 
1270	 3.37218876879811E-02 
1271	 3.28522160787425E-02 
1272	 3.19643505645001E-02 
1273	 3.11275672584664E-02 
1274	 3.11232938372667E-02 
1275	 3.21782297573351E-02 
1276	 3.26442441864094E-02 
1277	 3.26521289716598E-02 
1278	 3.24436739177682E-02 
1279	 3.21400908039508E-02 
1280	 3.28814739619694E-02 
1281	 3.31711346957259E-02 
1282	 3.39744416312009E-02 
1283	 3.36503893551766E-02 
1284	 3.15591156789077E-02 
1285	 3.17846724251219E-02 
1286	 3.39238413225527E-02 
1287	 0.033625029563264 
1288	 3.29173630404977E-02 
1289	 3.31822933403774E-02 
1290	 3.24754517353728E-02 
1291	 3.10478469268126E-02 
1292	 0.031401593778827 
1293	 3.21798475266813E-02 
1294	 3.17730889518441E-02 
1295	 3.14878733626528E-02 
1296	 3.23121258423986E-02 
1297	 3.32156377645853E-02 
1298	 3.28780040056406E-02 
1299	 3.22440511788345E-02 
1300	 3.29953889415838E-02 
1301	 3.29086966367423E-02 
1302	 0.031587458498847 
1303	 3.20195708452295E-02 
1304	 0.032664884506135 
1305	 3.25161729247261E-02 
1306	 3.26094013450074E-02 
1307	 0.03315983211602 
1308	 3.35642952861358E-02 
1309	 3.33309921636959E-02 
1310	 3.34058866294361E-02 
1311	 3.47727831461321E-02 
1312	 3.45196278203026E-02 
1313	 3.26812794156436E-02 
1314	 3.21607275343787E-02 
1315	 3.11599941106393E-02 
1316	 3.06131328297273E-02 
1317	 3.10774679150847E-02 
1318	 3.09901155555373E-02 
1319	 3.14179319134653E-02 
1320	 3.12435806418493E-02 
1321	 2.94199869111893E-02 
1322	 3.00610343915557E-02 
1323	 3.12065486330783E-02 
1324	 2.97443323823568E-02 
1325	 3.07822473404373E-02 
1326	 3.12583441759483E-02 
1327	 3.04469745451992E-02 
1328	 3.23251966085784E-02 
1329	 3.15046486782975E-02 
1330	 2.99216500902398E-02 
1331	 3.27940975914848E-02 
1332	 3.50392986488087E-02 
1333	 3.26350000395237E-02 
1334	 3.40969551698875E-02 
1335	 3.68957114225533E-02 
1336	 3.94751379743294E-02 
1337	 3.95937037806277E-02 
1338	 4.24551143091388E-02 
1339	 4.03309424038399E-02 
1340	 0.029475954730494 
1341	 2.41284333231288E-02 
1342	 2.25743383463834E-02 
1343	 1.78872682259342E-02 
1344	 1.15108083661547E-03 
1345	 3.52126951217787E-03 
1346	 3.91729813662927E-02 
1347	 4.30410646182853E-02 
1348	 4.31639480125749E-02 
1349	 4.79447948485602E-02 
1350	-4.14492959639865E-02 
1351	-0.102437037021205 
1352	-2.85762877994189E-02 
1353	 3.41035418713107E-03 
1354	-2.26793773942771E-02 
1355	-3.61978190229967E-02 
1356	 0.178212285898751 
1357	 8.98014265599011E-02 
1358	-4.87081342053402E-02 
1359	 0.383022142619553 
1360	-4.08594572376253E-02 
1361	-0.138639931853959 
1362	 8.63274708397958E-02 
1363	-0.108315847440969 
1364	-0.43155107289282 
1365	 2.39383144667553 
1366	-2.56419693126427 
1367	-1.59361691436816 
1368	 5.24101250843678 
1369	-0.61066007372511 
1370	-0.1275243504517 
1371	-0.115874404204825 
1372	-0.54848427063298 
1373	-0.760793943241182 
1374	-0.589280591128554 
1375	-0.363556384762564 
1376	-1.18048723159883 
1377	-2.55589934254555 
1378	-1.19726464936511 
1379	-0.618628251591305 
1380	-0.933857598895915 
1381	-1.10813745923593 
1382	-0.833454630933153 
1383	-2.43935240070453 
1384	-6.02163602641511 
1385	-0.867838653263241 
1386	-0.5516769360859 
1387	-2.26435683320702 
1388	-3.29916358720448 
1389	-0.756844127994334 
1390	-0.449104862094518 
1391	-1.04643270684021 
1392	-1.02654082539539 
1393	-0.488067118070725 
1394	-0.371245144120081 
1395	-0.614589457535317 
1396	 0.248466567352534 
1397	 0.773616887722308 
1398	 0.999602619351866 
1399	 0.556360129300697 
1400	 0.663101439802948 
1401	 0.476242132648655 
1402	-0.26685740048252 
1403	-0.104066400651346 
1404	-4.23999092003502E-02 
1405	-8.16295897719867E-02 
1406	-0.388490415363721 
1407	-0.466342177433327 
1408	-0.371137000588681 
1409	-0.345636044972593 
1410	-0.140647677113978 
1411	-0.116896549891807 
1412	-0.34481170020659 
1413	-0.387322560932183 
1414	-0.126709629570345 
1415	-0.340206869956734 
1416	-2.38120839266596 
1417	-3.59709224427152 
1418	-10.7646224405123 
1419	-4.69460709966014 
1420	-0.737742636764274 
1421	-0.349362229226261 
1422	-0.610315139415903 
1423	-0.574462450958708 
1424	-0.177653348407974 
1425	 2.94125485447738E-02 
1426	-7.48785676076495E-02 
1427	 3.12469384344072E-02 
1428	 0.381132815159719 
1429	 0.469317280502117 
1430	 0.506508602686028 
1431	 0.549672041370263 
1432	 0.549471402781698 
1433	 0.454899618076984 
1434	 0.111357838493819 
1435	 0.105083054604464 
1436	 0.278490491394772 
1437	 0.251988692302818 
1438	 0.176617985667956 
1439	 0.564915042655212 
1440	 0.534301966971882 
1441	 0.221619630749427 
1442	 0.119027373477777 
1443	 0.084359670173935 
1444	-6.33891339306446E-02 
1445	-0.209963379085393 
1446	-0.167019175039431 
1447	-4.81746871228618E-03 
1448	 4.19782564748732E-02 
1449	 5.23492281661881E-02 
1450	 8.11132094572223E-02 
1451	 4.59377361718806E-02 
1452	 1.00270110537857E-02 
1453	 9.98534723431018E-03 
1454	 2.45726475125402E-02 
1455	 5.71412085864894E-02 
1456	 6.91147946690038E-02 
1457	 8.62664516732121E-02 
1458	 8.86228941762404E-02 
1459	 8.08007711535856E-02 
1460	 6.53502031148876E-02 
1461	 0.038461291527374 
1462	 2.68485333563336E-02 
1463	 6.50958657109753E-03 
1464	-9.73914791885889E-04 
1465	 1.15706879600702E-02 
1466	 2.86429620325287E-02 
1467	 0.04781667427222 
1468	 5.84824110445507E-02 
1469	 9.30320662202243E-02 
1470	 9.72569606880874E-02 
1471	 6.81787387750972E-02 
1472	 4.84456126789962E-02 
1473	 1.05439344386355E-02 
1474	 1.14382589443582E-02 
1475	 4.69760224501918E-02 
1476	 4.75622302580024E-02 
1477	 4.18412828174553E-02 
1478	 0.039355356361528 
1479	 2.50612192475622E-02 
1480	 7.74159399782282E-03 
1481	-0.014460805928143 
1482	-5.70512310200106E-03 
1483	 1.32603472121063E-02 
1484	 1.73660858031308E-02 
1485	 3.61098510273546E-02 
1486	 3.95786385147737E-02 
1487	 1.99417020432233E-02 
1488	 1.82483026929559E-02 
1489	 3.17699544273385E-02 
1490	 3.04621788099817E-02 
1491	 2.40971073717053E-02 
1492	 2.20525172148065E-02 
1493	 1.20173094139605E-02 
1494	 1.22713956085952E-02 
1495	 2.30727169133631E-02 
1496	 2.52691075134685E-02 
1497	 0.02721228019043 
1498	 2.79661510359701E-02 
1499	 2.22951248126694E-02 
1500	 2.23868664711363E-02 
1501	 2.78627880163069E-02 
1502	 2.86716979934837E-02 
1503	 2.75185890715593E-02 
1504	 2.87942742494988E-02 
1505	 3.02228490911544E-02 
1506	 2.93467875483746E-02 
1507	 2.95056060091012E-02 
1508	 0.031482257088211 
1509	 2.81570291011616E-02 
1510	 2.55692315306798E-02 
1511	 2.69656981946382E-02 
1512	 2.81088941593929E-02 
1513	 2.84068660888812E-02 
1514	 2.79802160056762E-02 
1515	 2.87004552923787E-02 
1516	 2.77911592333986E-02 
1517	 2.68443470439668E-02 
1518	 2.93011100850286E-02 
1519	 2.94721430772804E-02 
1520	 2.88962034592398E-02 
1521	 2.94642009339921E-02 
1522	 2.87480833870425E-02 
1523	 2.98416698227681E-02 
1524	 3.03275323397354E-02 
1525	 2.97188932376544E-02 
1526	 2.99651058106175E-02 
1527	 2.82754424597705E-02 
1528	 2.82424216201176E-02 
1529	 2.97609362442833E-02 
1530	 2.96649224860547E-02 
1531	 0.029398418960248 
1532	 2.93308361862852E-02 
1533	 3.02632933112431E-02 
1534	 3.11993072336437E-02 
1535	 3.15182019598592E-02 
1536	 3.23029576385212E-02 
1537	 3.21673894239537E-02 
1538	 3.11783942773926E-02 
1539	 3.07055666692304E-02 
1540	 0.029519344814794 
1541	 2.82546655309877E-02 
1542	 2.82779322550478E-02 
1543	 2.84325288009221E-02 
1544	 2.85365258542034E-02 
1545	 2.81711562200803E-02 
1546	 2.71152509379206E-02 
1547	 2.77421929872339E-02 
1548	 2.99034875638649E-02 
1549	 3.08432493015724E-02 
1550	 3.07373158977837E-02 
1551	 3.02477855025454E-02 
1552	 3.02023763339951E-02 
1553	 3.03113679335841E-02 
1554	 2.97498619329183E-02 
1555	 2.97546455013269E-02 
1556	 2.95753172714884E-02 
1557	 2.92793306486294E-02 
1558	 3.01934360938923E-02 
1559	 3.13146590285703E-02 
1560	 3.12083686144135E-02 
1561	 3.08654837172028E-02 
1562	 3.14070432318203E-02 
1563	 3.14343429557533E-02 
1564	 3.05345944812158E-02 
1565	 2.98381650880426E-02 
1566	 3.04027162378276E-02 
1567	 3.12365677099784E-02 
1568	 3.06798965973452E-02 
1569	 3.06530281351478E-02 
1570	 3.12391572481747E-02 
1571	 0.031755165043306 
1572	 3.39291937314878E-02 
1573	 3.57377998770229E-02 
1574	 3.53396848883327E-02 
1575	 3.45034141900364E-02 
1576	 3.37266987071307E-02 
1577	 3.21605287606181E-02 
1578	 3.19305220321571E-02 
1579	 0.031668501525674 
1580	 2.94549967807159E-02 
1581	 2.92445328397031E-02 
1582	 2.96994020556697E-02 
1583	 0.030677920820497 
1584	 3.27635619237278E-02 
1585	 3.25905752066891E-02 
1586	 3.27140134484941E-02 
1587	 3.35093416518639E-02 
1588	 3.25086948975257E-02 
1589	 3.21165266482551E-02 
1590	 3.28431577637089E-02 
1591	 3.20810734283271E-02 
1592	 3.14142039754229E-02 
1593	 3.21666004526215E-02 
1594	 0.03195474807707 
1595	 3.17454884278237E-02 
1596	 3.16845329794298E-02 
1597	 3.10360745562401E-02 
1598	 3.13292958817035E-02 
1599	 3.15211175065267E-02 
1600	 3.20320829718629E-02 
1601	 3.34929479677429E-02 
1602	 3.43054502663886E-02 
1603	 3.35180952625994E-02 
1604	 3.22850643630291E-02 
1605	 3.30987867201359E-02 
1606	 3.24084310943227E-02 
1607	 3.07975476914805E-02 
1608	 3.32863878462054E-02 
1609	 3.48925727842569E-02 
1610	 0.033093324756608 
1611	 3.23690162588143E-02 
1612	 3.26742938073727E-02 
1613	 3.16796014432431E-02 
1614	 3.13523100988773E-02 
1615	 3.30785795118173E-02 
1616	 0.033504145105836 
1617	 3.14703991349871E-02 
1618	 3.15672595743499E-02 
1619	 3.28408214715691E-02 
1620	 3.18415414487562E-02 
1621	 3.23701350042093E-02 
1622	 3.31873688601614E-02 
1623	 3.30414065016884E-02 
1624	 3.43862832180983E-02 
1625	 3.43311940079669E-02 
1626	 3.33814707155426E-02 
1627	 3.37040903235133E-02 
1628	 3.27752446017668E-02 
1629	 3.18486445738211E-02 
1630	 3.19694148343994E-02 
1631	 0.031236626224387 
1632	 3.10486968283502E-02 
1633	 3.08611047367526E-02 
1634	 3.05690349611715E-02 
1635	 3.15278445963865E-02 
1636	 0.031802110449761 
1637	 3.19565400370078E-02 
1638	 3.26778143915207E-02 
1639	 3.13000524257756E-02 
1640	 0.029674938967371 
1641	 2.99174238145631E-02 
1642	 3.03772315389397E-02 
1643	 3.10833513687637E-02 
1644	 3.17395702300656E-02 
1645	 3.09381153960971E-02 
1646	 3.05951402145743E-02 
1647	 3.17768849351811E-02 
1648	 3.21502399566656E-02 
1649	 3.17618052450585E-02 
1650	 3.18921188842152E-02 
1651	 3.28713391950818E-02 
1652	 3.24430025169361E-02 
1653	 3.27573491041135E-02 
1654	 3.34522594744227E-02 
1655	 3.24937088276196E-02 
1656	 3.20490984025339E-02 
1657	 3.33553312001386E-02 
1658	 3.32604554473634E-02 
1659	 3.17731792054866E-02 
1660	 3.20668409296279E-02 
1661	 3.37070290865943E-02 
1662	 3.24712714179431E-02 
1663	 2.91024336996429E-02 
1664	 2.92555303993726E-02 
1665	 0.029976056149665 
1666	 0.03011977981438 
1667	 3.27579694972344E-02 
1668	 3.20102455371656E-02 
1669	 3.13375059757961E-02 
1670	 3.04109926581821E-02 
1671	 3.03191376336374E-02 
1672	 3.10647830872212E-02 
1673	 3.06113936131404E-02 
1674	 3.09718078692784E-02 
1675	 3.26256201875143E-02 
1676	 0.032129362492086 
1677	 3.03911220890223E-02 
1678	 3.01764612792063E-02 
1679	 0.031117925378464 
1680	 3.18393020561134E-02 
1681	 3.28518741585714E-02 
1682	 3.41209692080783E-02 
1683	 3.38143509248057E-02 
1684	 3.32692275765957E-02 
1685	 3.27881576921049E-02 
1686	 3.10045675211225E-02 
1687	 2.96108883170415E-02 
1688	 2.93524086487976E-02 
1689	 0.030224247814368 
1690	 3.21683327740297E-02 
1691	 3.31148547355237E-02 
1692	 3.20407301013933E-02 
1693	 3.02384717350694E-02 
1694	 3.03185042349697E-02 
1695	 3.00080977430663E-02 
1696	 2.77684113882567E-02 
1697	 2.86970157783705E-02 
1698	 2.93750705280091E-02 
1699	 2.86371085435173E-02 
1700	 3.13751166926132E-02 
1701	 3.20179480302504E-02 
1702	 2.86861995723505E-02 
1703	 2.78675428546849E-02 
1704	 2.90956153273659E-02 
1705	 2.90639892899965E-02 
1706	 3.00568964295513E-02 
1707	 3.00302358662589E-02 
1708	 0.027945160462281 
1709	 2.85048997067909E-02 
1710	 3.03627416198101E-02 
1711	 2.96183579986466E-02 
1712	 2.86318992869787E-02 
1713	 3.11592578299724E-02 
1714	 3.14760719212009E-02 
1715	 0.032650443281276 
1716	 3.11775882088999E-02 
1717	 3.00784862675795E-02 
1718	 2.96645515132233E-02 
1719	 2.96773335068095E-02 
1720	 2.87208656695565E-02 
1721	 0.027640028918152 
1722	 2.78870382373427E-02 
1723	 2.96645526669112E-02 
1724	 3.03526427175521E-02 
1725	 3.11693214318988E-02 
1726	 3.34033677313015E-02 
1727	 3.22752469590781E-02 
1728	 3.06951541497482E-02 
1729	 3.03305391682943E-02 
1730	 3.12120098940001E-02 
1731	 3.34107759146199E-02 
1732	 3.32229540263776E-02 
1733	 3.31690441290355E-02 
1734	 3.15089719040816E-02 
1735	 2.72905184353359E-02 
1736	 2.89441548745511E-02 
1737	 3.29152012293571E-02 
1738	 3.31883077623472E-02 
1739	 3.40895116374343E-02 
1740	 3.71539987771632E-02 
1741	 3.83260520225165E-02 
1742	 3.70842601432968E-02 
1743	 3.76885444552219E-02 
1744	 3.86303248122094E-02 
1745	 3.55243101596888E-02 
1746	 3.26545730965074E-02 
1747	 3.06368315406841E-02 
1748	 2.48046288075186E-02 
1749	 2.34609083563654E-02 
1750	 2.58181803900765E-02 
1751	 2.59476591947734E-02 
1752	 2.86517015176509E-02 
1753	 3.08695614356197E-02 
1754	 3.18383864228335E-02 
1755	 3.20012190710818E-02 
1756	 3.01123544471963E-02 
1757	 2.71289687173434E-02 
1758	 2.99268038323477E-02 
1759	 3.30627830627667E-02 
1760	 3.56078811952171E-02 
1761	 3.50727046666468E-02 
1762	 3.20580970898743E-02 
1763	 3.04514624810179E-02 
1764	 3.09148135531298E-02 
1765	 3.45484970582104E-02 
1766	 3.52776448389197E-02 
1767	 2.83876133161753E-02 
1768	 2.65906486253981E-02 
1769	 3.53750474732499E-02 
1770	 4.47883260919871E-02 
1771	 0.045021491073962 
1772	 0.039523710322413 
1773	 3.40485984132624E-02 
1774	 1.94550231700714E-02 
1775	 2.96617294448265E-02 
1776	 3.26721296231324E-02 
1777	 1.68203907538027E-02 
1778	 1.68131676008987E-02 
1779	 0.031853616828864 
1780	 3.40212139840929E-02 
1781	 3.84906597753964E-02 
1782	 0.042706950716575 
1783	 3.76818906628028E-02 
1784	 3.66923679743276E-02 
1785	 4.04549389778859E-02 
1786	 4.13771892198423E-02 
1787	 3.76342216671016E-02 
1788	 3.67259900058493E-02 
1789	 3.98886087843877E-02 
1790	 3.50395818498824E-02 
1791	 3.74933737931666E-02 
1792	 0.039835334713001 
1793	 4.92133851839177E-02 
1794	 5.98649021577827E-02 
1795	 3.68057501424811E-02 
1796	 4.51499109336546E-03 
1797	-6.89727784769316E-02 
1798	-0.109668867525578 
1799	-7.21178408360966E-02 
1800	 6.04612758102854E-02 
1801	 6.69788918082165E-02 
1802	-0.330354814087644 
1803	-0.42063477584483 
1804	-0.357955218336464 
1805	-0.518121229601629 
1806	 5.52604921034733E-02 
1807	 0.643782700705214 
1808	-0.322731129642608 
1809	-0.628100869909425 
1810	-0.694492403483379 
1811	-0.679498302984185 
1812	-0.908207238516244 
1813	-0.888592949551359 
1814	 0.328257900141386 
1815	 0.870462379146135 
1816	-0.995833605538093 
1817	 7.23894501555642E-02 
1818	-0.505309650065183 
1819	-0.136040719160973 
1820	 0.154751261444874 
1821	 2.21310781843119E-02 
1822	 5.56377184241902E-02 
1823	 2.14114229045998E-03 
1824	-0.07029496788078 
1825	 2.29131106853964 
1826	 0.919065662331614 
1827	 1.14878979797307E-02 
1828	 1.28050290124974E-03 
1829	-9.87276682076176E-02 
1830	-6.09845011519733E-02 
1831	 4.04272065210918 
1832	 4.63143548026373 
1833	 3.85846212069411 
1834	 4.00993377090318 
1835	 3.66863859884132 
1836	 4.05843174275907 
1837	 5.15935862326739 
1838	 7.61359087648319 
1839	-34.3093213620784 
1840	-6.90107013564139 
1841	-6.24376879396984 
1842	-3.16076817717326 
1843	-3.69893180679507 
1844	 5.58040887351153 
1845	 2.58826638535763 
1846	 0.473325584947699 
1847	 5.18098404507008E-02 
1848	 0.210081807127249 
1849	 0.553240332186399 
1850	 0.352522634160479 
1851	 0.071301697826671 
1852	-1.83132088331343E-02 
1853	-0.164101366616174 
1854	-0.281183856514166 
1855	-7.64176920380906E-02 
1856	-0.121264601274581 
1857	 2.29212170795723 
1858	 1.8736483903732 
1859	-2.22155658488485 
1860	-0.88274430444406 
1861	 0.469573611879071 
1862	 0.277894465255006 
1863	 0.456294910493688 
1864	 1.26461866929114 
1865	 1.70014943265589 
1866	 1.28508609540988 
1867	 2.10079945917936 
1868	-3.42612806316964 
1869	-2.95173794718818 
1870	-6.38254126920048 
1871	 6.3903137804609 
1872	 1.89108386223259 
1873	 0.743588133046507 
1874	 0.423252218801994 
1875	 0.6774157421054 
1876	 0.917787989043844 
1877	-3.63142604361624 
1878	-3.25168624788053 
1879	 2.66904444519073 
1880	 2.29268162162473 
1881	 2.91872215859311 
1882	 2.52038384650381 
1883	 2.38839571048827 
1884	 1.83392526538683 
1885	 1.16514564885909 
1886	 0.988003848293351 
1887	 0.843250659930724 
1888	 1.07219826203596 
1889	 1.17446287694713 
1890	 0.166379579167653 
1891	-1.48711639639997E-02 
1892	 0.419672475537547 
1893	 20.2243101902083 
1894	-19.2618568996271 
1895	 48.0776718419616 
1896	-2.16545449385826 
1897	-1.08133437416183 
1898	-0.691527958785601 
1899	-0.683432053410605 
1900	-1.01492303306002 
1901	 1.02804210345511 
1902	 0.6652157661524 
1903	 0.583649087440928 
1904	 0.402179511978471 
1905	 0.596331137277699 
1906	 0.573256421207112 
1907	 9.69082108918304E-02 
1908	-0.43030169401343 
1909	 8.62049201438252E-02 
1910	 0.246862566783641 
1911	 1.17782755619898 
1912	-119.06525512779 
1913	-7.26112464048179 
1914	-1.92236239823308 
1915	-1.32929940717107 
1916	-1.01699831523655 
1917	-2.56443007511185 
1918	 0.056802188089446 
1919	 0.113707377939512 
1920	 0.324324663307009 
1921	 0.194288947281551 
1922	-1.84320321496297E-02 
1923	-0.168847088564659 
1924	-0.235088924697385 
1925	 1.90946153281686 
1926	-3.76000474911879 
1927	 1.46143259321792 
1928	 2.21587343595433 
1929	 0.462968733709875 
1930	-1.60802352061592 
1931	 2.44929151036215 
1932	 3.58504967013995 
1933	-1.94508710325821 
1934	 10.9421697493845 
1935	 1.76516970337263 
1936	 1.18007349900885 
1937	 1.65705319546869 
1938	-82.0887992333415 
1939	-9.29184132336757 
1940	 9.27742991353441 
1941	 10.8065026479181 
1942	-1.01980986273034 
1943	-0.829334585068797 
1944	-0.992134870765492 
1945	-0.779823113120108 
1946	-4.78272882177041 
1947	 1.43940198098497 
1948	 1.74486345182356 
1949	 0.551087324643125 
1950	 7.30284984059427 
1951	-7087.66195418262 
1952	 93.2745580850297 
1953	 4.10803827761865 
1954	 2.31324345478924 
1955	 3.47038362965719 
1956	-457.502247497128 
1957	-40.3361424610485 
1958	-3.65921719615195 
1959	-3.58459996490961 
1960	 2.80906489099268 
1961	 1.20114695964193 
1962	 0.243031274159617 
1963	 0.264888739352759 
1964	 0.225160171983402 
1965	 0.070201097303167 
1966	 0.17135315871809 
1967	 0.40740880013336 
1968	 0.510541125860048 
1969	 0.563717286657937 
1970	 0.658442900272184 
1971	 0.515260104514698 
1972	 0.387025101996503 
1973	 0.366706603784251 
1974	 0.266387586911151 
1975	 0.205002299206206 
1976	 0.20112855754308 
1977	 0.129258345000573 
1978	 9.52342282063976E-02 
1979	 7.82690649453999E-02 
1980	 9.06013484899571E-02 
1981	 7.58236367177478E-02 
1982	 8.23471912147941E-02 
1983	 5.25923870435156E-02 
1984	-1.16266587341374E-02 
1985	-3.39555803651024E-02 
1986	-5.80825093868222E-02 
1987	-0.040696013856338 
1988	 1.68806227958581E-02 
1989	 2.20629863927083E-02 
1990	 4.80224034118163E-02 
1991	 8.18553425272083E-02 
1992	 0.07096037321171 
1993	 7.83929985430083E-02 
1994	 6.18137937923935E-02 
1995	 1.49393117488385E-02 
1996	-5.70264660465394E-02 
1997	-0.101182073192624 
1998	-0.118602166162824 
1999	-3.19327786564432E-02 
2000	 0.050967441048838 
2001	 0.129820219143235 
2002	 0.187444597510188 
2003	 0.18036845874032 
2004	 0.195460358633008 
2005	 0.261234472941263 
2006	 0.303633364779052 
2007	 0.313737960692105 
2008	 0.370410610575501 
2009	 0.398234755271046 
2010	 0.376725958315297 
2011	 0.363121572713887 
2012	 0.38438310562479 
2013	 0.33234268054331 
2014	 0.245640648025596 
2015	 0.181232488459815 
2016	 0.151565374162706 
2017	 0.185611730152103 
2018	 0.214063195887369 
2019	 0.21054712464527 
2020	 0.2240929812786 
2021	 0.202310969375171 
2022	 0.166834758913772 
2023	 0.167260742845455 
2024	 0.146192300677906 
2025	 0.101810413939329 
2026	 8.14272949499322E-02 
2027	 6.61102227108394E-02 
2028	 4.85576067371234E-02 
2029	 5.88618547325971E-02 
2030	 7.34194686002938E-02 
2031	 6.81965614763581E-02 
2032	 6.54742129109091E-02 
2033	 0.056221051828485 
2034	 4.80628988526484E-02 
2035	 0.047580175125189 
2036	 3.21464108144369E-02 
2037	 1.13230884097632E-02 
2038	 1.28594195120157E-02 
2039	 1.68230010786231E-02 
2040	 3.48059825498726E-02 
2041	 5.04860034878468E-02 
2042	 7.34199122300329E-02 
2043	 8.08719925237901E-02 
2044	 0.085903405531676 
2045	 7.80513186803945E-02 
2046	 0.069041832566925 
2047	 6.80366654972934E-02 
2048	 5.00453603834167E-02 
2049	 4.15747931063347E-02 
2050	 4.13637002574685E-02 
2051	 3.29352172316414E-02 
2052	 2.54651309738783E-02 
2053	 1.44412576678154E-02 
2054	-7.34414245779902E-03 
2055	-1.98488650164547E-02 
2056	-2.44727580403027E-02 
2057	-2.02626271594051E-02 
2058	-1.20620580828769E-02 
2059	 1.26777470889389E-02 
2060	 2.14909053904767E-02 
2061	 2.39862480457915E-02 
2062	 3.89003310910436E-02 
2063	 3.92154965253267E-02 
2064	 1.53465451125472E-02 
2065	 1.59599180060071E-02 
2066	 2.36700964591502E-02 
2067	 0.0160584994831 
2068	 2.44543173051403E-02 
2069	 3.43136078481244E-02 
2070	 3.24883522964108E-02 
2071	 4.38101770601202E-02 
2072	 5.89292531143273E-02 
2073	 5.96474827365494E-02 
2074	 4.31747812533468E-02 
2075	 4.13490102224626E-02 
2076	 3.96571205782002E-02 
2077	 3.65196905440785E-02 
2078	 4.38067594521277E-02 
2079	 3.94423975248802E-02 
2080	 2.26838213269361E-02 
2081	 1.74056591195148E-02 
2082	 2.15383070621415E-02 
2083	 2.10006734651337E-02 
2084	 2.37037876296785E-02 
2085	 0.025590067040723 
2086	 0.020688632036166 
2087	 0.018435602554149 
2088	 2.16016823825735E-02 
2089	 3.52218518242143E-02 
2090	 5.96101521270819E-02 
2091	 0.071733000166859 
2092	 7.11926582442914E-02 
2093	 0.059497186238121 
2094	 0.059179688519309 
2095	 4.48568390927031E-02 
2096	 4.32941564954733E-02 
2097	 6.42499026376905E-02 
2098	 6.80344123622206E-02 
2099	 6.21785396762038E-02 
2100	 5.98482902370075E-02 
2101	 5.95266242780328E-02 
2102	 5.06022545300381E-02 
2103	 3.62662399709008E-02 
2104	 2.66716327318147E-02 
2105	 1.78799915427727E-02 
2106	 1.07321779127918E-02 
2107	 1.03083175362267E-02 
2108	 0.010052910666339 
2109	 1.56551322368075E-02 
2110	 2.53258705853036E-02 
2111	 3.44472210670079E-02 
2112	 4.70444811019159E-02 
2113	 5.29794724071069E-02 
2114	 4.95537501765498E-02 
2115	 0.053717056251227 
2116	 6.02522426459456E-02 
2117	 0.061839695690602 
2118	 6.94186669129233E-02 
2119	 6.91986256022944E-02 
2120	 5.89522230211679E-02 
2121	 5.30695220471712E-02 
2122	 4.88066442982575E-02 
2123	 3.72625826756246E-02 
2124	 4.14923734718656E-02 
2125	 3.82761248943789E-02 
2126	 2.85620277292542E-02 
2127	 0.031287793866914 
2128	 3.02940229435029E-02 
2129	 2.75618874291421E-02 
2130	 3.09153699356365E-02 
2131	 2.74106449979437E-02 
2132	 1.76554029450685E-02 
2133	 1.90237195820265E-02 
2134	 1.92036393418843E-02 
2135	 2.10751118954128E-02 
2136	 2.67832952574484E-02 
2137	 3.71506674406116E-02 
2138	 4.20422267618784E-02 
2139	 4.92091659125238E-02 
2140	 5.43597452288124E-02 
2141	 5.64935022708334E-02 
2142	 5.54802483141669E-02 
2143	 5.38793969432848E-02 
2144	 5.05295625284359E-02 
2145	 3.93447407785878E-02 
2146	 3.57104210907524E-02 
2147	 3.58456085596327E-02 
2148	 4.68063471453194E-02 
2149	 6.02512457888146E-02 
2150	 6.07578574964103E-02 
2151	 6.13025084127631E-02 
2152	 5.97627061365438E-02 
2153	 5.70404204142117E-02 
2154	 5.82218861038229E-02 
2155	 5.62399972713998E-02 
2156	 4.99700066299486E-02 
2157	 5.05414766901206E-02 
2158	 5.31651899089184E-02 
2159	 0.058536767654608 
2160	 7.80780380557552E-02 
2161	 7.81901206795818E-02 
2162	 0.066965482476908 
2163	 6.04031211083743E-02 
2164	 4.01645158859995E-02 
2165	 3.12032207274927E-02 
2166	 3.20507488057908E-02 
2167	 3.31512809087523E-02 
2168	 3.89045205955929E-02 
2169	 4.07867174692199E-02 
2170	 4.78785367166907E-02 
2171	 4.28439717325988E-02 
2172	 3.14675880688092E-02 
2173	 3.36875215008776E-02 
2174	 3.90186281583241E-02 
2175	 5.21342622436551E-02 
2176	 5.69643787530241E-02 
2177	 5.97026975508917E-02 
2178	 5.93393213942001E-02 
2179	 4.82995503595382E-02 
2180	 5.40152089597828E-02 
2181	 5.67216060588967E-02 
2182	 4.86286008867294E-02 
2183	 4.30091709237014E-02 
2184	 3.26918083227958E-02 
2185	 0.019424450629918 
2186	 1.66878857609359E-02 
2187	 0.032093027938352 
2188	 2.84591440966145E-02 
2189	 1.43118142877072E-02 
2190	 1.16574142056692E-02 
2191	-4.65931579031511E-03 
2192	-5.65715167765277E-04 
2193	 3.18932401622198E-02 
2194	 4.80362290468773E-02 
2195	 6.78812033241377E-02 
2196	 0.083838274770356 
2197	 9.66218429354807E-02 
2198	 9.79660098395058E-02 
2199	 9.12749961415705E-02 
2200	 8.68555407756601E-02 
2201	 7.06791637728578E-02 
2202	 5.90830386812671E-02 
2203	 6.84603244051092E-02 
2204	 6.11712668837794E-02 
2205	 4.10262115851702E-02 
2206	 4.40782899411337E-02 
2207	 4.60649274062919E-02 
2208	 3.31699592854148E-02 
2209	 2.14476479187585E-02 
2210	-2.05806433993521E-03 
2211	-9.81778697276618E-03 
2212	 5.85715476807298E-03 
2213	 1.88140088979811E-02 
2214	 3.71587618475184E-02 
2215	 3.75110150711344E-02 
2216	 3.05582466596717E-02 
2217	 3.19050682245201E-02 
2218	 3.60833113177874E-02 
2219	 3.61096062484861E-02 
2220	 4.00279142125055E-02 
2221	 3.82787196906346E-02 
2222	 2.93845598466212E-02 
2223	 2.30047891765903E-02 
2224	 1.61333101311884E-02 
2225	 1.71489971921839E-02 
2226	 1.56876591123624E-02 
2227	 2.13837648059394E-02 
2228	 4.63204441651367E-02 
2229	 4.78110333261097E-02 
2230	 3.64225713092653E-02 
2231	 3.24718713302222E-02 
2232	 1.85560807569115E-02 
2233	 1.35183490633738E-02 
2234	 9.48576153245637E-03 
2235	 2.41740547999135E-02 
2236	 4.15325831194811E-02 
2237	 4.72917136213817E-02 
2238	 0.066643738013827 
2239	 8.19205890733419E-02 
2240	 7.98347357930897E-02 
2241	 8.42827516211393E-02 
2242	 6.99027242758437E-02 
2243	 4.45474417899741E-02 
2244	 4.00639064856453E-02 
2245	 3.26056264161481E-02 
2246	 2.42661035375801E-02 
2247	 4.33037613113415E-02 
2248	 6.05981313420016E-02 
2249	 7.29600642453503E-02 
2250	 0.106040287879193 
2251	 0.124816162352556 
2252	 0.129810577244009 
2253	 0.137578065027693 
2254	 0.122385575353913 
2255	 9.96193622676878E-02 
2256	 0.082665437148062 
2257	 0.046861071671778 
2258	 0.022634639322713 
2259	 2.23850090930718E-02 
2260	 1.75202957228952E-02 
2261	 0.024206821586248 
2262	 2.88573353101774E-02 
2263	 3.11836501694147E-02 
2264	 3.24251473226903E-02 
2265	 3.39322138536716E-02 
2266	 3.13202836685814E-02 
2267	 2.42414477646276E-02 
2268	 0.032263373901189 
2269	 5.16849756554418E-02 
2270	 6.04962512950901E-02 
2271	 7.47391008295366E-02 
2272	 8.15883716736724E-02 
2273	 7.21346116799678E-02 
2274	 7.02688975734302E-02 
2275	 8.37919503930332E-02 
2276	 8.61969854874567E-02 
2277	 6.80055445719601E-02 
2278	 6.57095335408652E-02 
2279	 6.81186729705739E-02 
2280	 5.95840087912434E-02 
2281	 4.82516486252137E-02 
2282	 0.058012457809318 
2283	 5.15143057837963E-02 
2284	 3.89889970366676E-02 
2285	 3.15893154803421E-02 
2286	 5.81654837043668E-02 
2287	 4.22533799682788E-02 
2288	 0.033414069875686 
2289	 5.40390647757915E-02 
2290	 3.62534504486568E-03 
2291	-4.27845521966696E-02 
2292	-6.79431085144945E-02 
2293	-0.101178221901368 
2294	-9.01018153796682E-02 
2295	-2.56995632436587E-02 
2296	 3.51653880447203E-02 
2297	 3.20142417183669E-02 
2298	-1.04056034556842E-02 
2299	-3.18563774749389E-02 
2300	-2.81394966224217E-02 
2301	-9.05179730531306E-03 
2302	 2.44247576117355E-02 
2303	 3.57801179157732E-03 
2304	-0.039499299624803 
2305	-3.72796400019439E-02 
2306	-1.57249212722996E-02 
2307	-4.33313817558943E-03 
2308	 1.61065687242118E-02 
2309	 5.57176604643453E-02 
2310	 9.44150119267854E-02 
2311	 0.12979299950055 
2312	 0.143776716881368 
2313	 0.102098668574894 
2314	 0.015624251692079 
2315	-3.37940268968677E-02 
2316	-5.08338628203941E-02 
2317	-3.49967093925962E-02 
2318	-2.54730952592417E-02 
2319	-6.41699504339175E-02 
2320	-4.23361952067619E-02 
2321	-6.53284424801902E-03 
2322	-1.60603201801943E-02 
2323	 1.47946453000261E-02 
2324	-3.36748949004963E-02 
2325	-0.099208690065865 
2326	-0.031906652592298 
2327	 5.83037263736718E-03 
2328	 2.08875271829064E-02 
2329	 3.09994172419786E-02 
2330	-3.50083916747537E-02 
2331	-9.37019214402375E-02 
2332	-3.09506268303362E-02 
2333	 4.76286894217316E-02 
2334	 3.72048884151812E-02 
2335	 0.112777167346185 
2336	 0.143072234643994 
2337	 6.76717505929195E-02 
2338	 0.115575019380396 
2339	 1.72594787852848E-02 
2340	-0.150774520122343 
2341	-0.278736153199175 
2342	-0.511386797556842 
2343	-0.568209647696113 
2344	-0.514661904368314 
2345	-0.437161907272977 
2346	-0.287581604514736 
2347	-0.185283371519155 
2348	-9.67025317909875E-02 
2349	-2.73695976207532E-02 
2350	 3.30423642118294E-02 
2351	 0.230485446333896 
2352	 0.424405473615313 
2353	 0.432828266948001 
2354	 0.268856018980262 
2355	 5.30134726670218E-02 
2356	-2.79351069675094E-03 
2357	-2.70368078464416E-03 
2358	 2.87621102328731E-02 
2359	 0.074258862394129 
2360	 5.84198034265459E-02 
2361	 0.035821680045652 
2362	 2.2992910209993E-03 
2363	-8.17919652515672E-02 
2364	-0.130614993551538 
2365	-0.187869062657193 
2366	-0.310107863380941 
2367	-0.30301411267133 
2368	-0.259361585267077 
2369	-0.108345482824623 
2370	 8.90370570948749E-02 
2371	 0.410480610603668 
2372	 0.639546208740339 
2373	 0.610921536549323 
2374	 0.377100390560624 
2375	-0.172787686707491 
2376	-1.22027377570952 
2377	-1.48878104252314 
2378	-0.179684937401889 
2379	 0.158033666582059 
2380	-0.184601248498258 
2381	-0.632260023715065 
2382	-0.739702139687005 
2383	-0.72769034963843 
2384	-0.406663049146715 
2385	-6.38287575045598E-03 
2386	-0.05561765589349 
2387	-8.07653373395713E-02 
2388	 2.76211903907874E-02 
2389	-0.115138242672195 
2390	-5.42322088270392E-03 
2391	 0.480831475900274 
2392	 0.556242724783232 
2393	 1.19828954169287 
2394	 2.13157278173562 
2395	 1.14079071944798 
2396	 1.19453879927074 
2397	 0.815373162606885 
2398	 3.75334788021276E-02 
2399	-0.401620882977264 
2400	-0.953258630440751 
2401	-0.544906561892453 
2402	-0.293259313637898 
2403	-1.46767929812246 
2404	-1.26385431651343 
2405	-0.57492842380195 
2406	-0.562091010571853 
2407	-0.518249561288313 
2408	-0.76497323994522 
2409	 6.87081568755433 
2410	 1.65429529472329 
2411	 1.74029099454757 
2412	 1.70418932169091 
2413	-2.12377339917145 
2414	-0.146855532990879 
2415	 0.301187962584013 
2416	 0.141797076855517 
2417	-0.335970209911856 
2418	-0.865170891959918 
2419	-2.86739463072248 
2420	 32.1937890792111 
2421	 6.59494275976995 
2422	-14.4070443355853 
2423	-3.35719052187588 
2424	-2.78217197695619 
2425	-6.52830040132165 
2426	 1.32954980041506 
2427	-0.270788509174378 
2428	-0.731874642161153 
2429	-1.18365508806761 
2430	-1.29797175020861 
2431	-0.744768427870706 
2432	 0.206778256486237 
2433	 0.654361902025185 
2434	 0.721796358752383 
2435	 0.396001683943882 
2436	 0.553195686919868 
2437	 0.81719086149378 
2438	 1.23786760384072 
2439	 2.92346224747142 
2440	 3.57638097518992 
2441	 2.0360398203027 
2442	 1.29544334568053 
2443	 0.863898873048583 
2444	 0.521843148769845 
2445	-0.399298350293386 
2446	-1.65559374552818 
2447	-7.07051153929507 
2448	-7.48623177688084 
2449	-0.965364021148989 
2450	-0.468502330451632 
2451	-0.231354526164868 
2452	-2.42340765387882E-02 
2453	-0.425599756822512 
2454	-0.619188541657075 
2455	 0.334991224675329 
2456	 1.32878704217089 
2457	 2.89840968075944 
2458	-3.84004564723263 
2459	-2.35411617606014 
2460	-1.66435957562768 
2461	 4.2879410672522 
2462	 0.283339183868526 
2463	-0.253426739335091 
2464	-8.02004718858054E-02 
2465	-0.155593284393185 
2466	-0.130138642208416 
2467	 0.327984462767436 
2468	 0.419621061285596 
2469	 0.487222439444532 
2470	 0.616687302175401 
2471	 0.801162142448866 
2472	 1.0614081392561 
2473	 1.11038423167537 
2474	 1.25233543600997 
2475	 0.842294117416318 
2476	-3.14735337018079 
2477	-0.185690633845467 
2478	 0.187346795229589 
2479	 0.180517562070506 
2480	 0.35155067012399 
2481	 0.188037710016882 
2482	 0.115565681378183 
2483	 1.10505841132304 
2484	 3.8113369933827 
2485	-1.47926085449568 
2486	-0.938929713246516 
2487	-0.605988797418162 
2488	-0.29195463521239 
2489	-0.844305461674972 
2490	-0.830159030556801 
2491	 0.559168761095156 
2492	 0.363433754414499 
2493	 2.97128749264845 
2494	-5.39546508220526 
2495	 3.10765545944929 
2496	 2.11303056342028 
2497	-28.3812608363769 
2498	-6.59540128430093 
2499	 7.68551012349296 
2500	 2.20425402276408 
