Wavelength	rt0727far00005.asd
350	 7.01603506608012E-02 
351	 6.96586415016071E-02 
352	 6.93659672952372E-02 
353	 0.069293164493349 
354	 6.93520485947885E-02 
355	 6.97209887992046E-02 
356	 6.98310831663465E-02 
357	 6.94181626235647E-02 
358	 6.87212668172645E-02 
359	 6.95415907208362E-02 
360	 6.98417081040913E-02 
361	 0.069594746264693 
362	 7.00636930084542E-02 
363	 6.98514200340233E-02 
364	 6.96192448798108E-02 
365	 6.96662799525556E-02 
366	 6.93536144858694E-02 
367	 6.94942420648507E-02 
368	 6.99228893816739E-02 
369	 7.02085692469147E-02 
370	 6.99190170428633E-02 
371	 7.02234138513904E-02 
372	 7.06108361491562E-02 
373	 6.98714299489978E-02 
374	 7.00829761151016E-02 
375	 7.04039440261961E-02 
376	 0.070413847675648 
377	 7.06870939411324E-02 
378	 7.05482366736635E-02 
379	 7.06163870662723E-02 
380	 7.11901144884382E-02 
381	 7.04891354167688E-02 
382	 7.12205053496183E-02 
383	 7.23207723294556E-02 
384	 7.14067781356088E-02 
385	 7.07236292576023E-02 
386	 7.09277738176977E-02 
387	 7.18500037481048E-02 
388	 7.25670737877625E-02 
389	 7.26816661988106E-02 
390	 7.26105974633809E-02 
391	 7.27448944341785E-02 
392	 7.29961138901762E-02 
393	 0.0728743419029 
394	 7.27397103178748E-02 
395	 7.30968162834917E-02 
396	 7.34436923736642E-02 
397	 7.36102629433463E-02 
398	 7.36402677202649E-02 
399	 7.37378260854233E-02 
400	 7.41693121276683E-02 
401	 7.43276603493237E-02 
402	 0.073970049076165 
403	 7.38480759688513E-02 
404	 7.43332895809333E-02 
405	 7.47602926428728E-02 
406	 7.43812282393981E-02 
407	 7.44864379720935E-02 
408	 7.44652817160346E-02 
409	 7.44196133628464E-02 
410	 7.51771422291713E-02 
411	 7.53849436204699E-02 
412	 7.52664828022228E-02 
413	 7.53065461140289E-02 
414	 7.59326650102646E-02 
415	 7.62641508398775E-02 
416	 7.63192559995777E-02 
417	 7.64466424674156E-02 
418	 7.64290272044367E-02 
419	 7.66792369431874E-02 
420	 0.077145637249745 
421	 0.077262376844306 
422	 7.73308712140548E-02 
423	 0.077500474404385 
424	 7.78418525152969E-02 
425	 0.078352782596067 
426	 7.84421684013051E-02 
427	 7.84684007974286E-02 
428	 7.91030645497603E-02 
429	 7.96208972400144E-02 
430	 7.98833960144037E-02 
431	 0.080014117356631 
432	 8.03641599564846E-02 
433	 8.06918774184502E-02 
434	 8.10740196912809E-02 
435	 8.15333905045927E-02 
436	 8.17106410654553E-02 
437	 8.19933643848673E-02 
438	 8.24627166257493E-02 
439	 8.29929498207069E-02 
440	 8.33225474151314E-02 
441	 8.37469384310977E-02 
442	 8.42966468272394E-02 
443	 8.45212596817946E-02 
444	 8.48239798760951E-02 
445	 8.51716255773246E-02 
446	 8.54608945297822E-02 
447	 0.08579653541794 
448	 8.62057206690709E-02 
449	 0.08666018580264 
450	 8.70856515168997E-02 
451	 8.73616792539454E-02 
452	 8.75917452773258E-02 
453	 8.78435298809257E-02 
454	 8.80411669920317E-02 
455	 8.81377334150487E-02 
456	 8.84103850680989E-02 
457	 8.90571230790873E-02 
458	 0.089250042118927 
459	 8.93150180997811E-02 
460	 8.94703652568181E-02 
461	 0.089749878479749 
462	 8.99126642364119E-02 
463	 9.00760962319726E-02 
464	 9.03540115241056E-02 
465	 9.06445580173572E-02 
466	 9.09448618600322E-02 
467	 9.13016257122658E-02 
468	 9.17426071303372E-02 
469	 9.19606737013684E-02 
470	 9.20948813384789E-02 
471	 9.23059376278707E-02 
472	 9.27185224957507E-02 
473	 9.31144049322244E-02 
474	 0.093406865668718 
475	 9.36360130441565E-02 
476	 9.41724400615188E-02 
477	 9.44147866423412E-02 
478	 9.45494993213389E-02 
479	 9.51980239734811E-02 
480	 9.52734633810172E-02 
481	 9.53884454004885E-02 
482	 9.59255805909432E-02 
483	 9.63555931507393E-02 
484	 9.65986780701068E-02 
485	 9.69107222080042E-02 
486	 9.75293198629087E-02 
487	 0.097781174029496 
488	 9.80647710756169E-02 
489	 9.85149294855233E-02 
490	 0.098956515651645 
491	 0.099381227081957 
492	 9.97630361692135E-02 
493	 0.100143315740415 
494	 0.100764653368635 
495	 0.101345968055325 
496	 0.10182076206941 
497	 0.102248627900004 
498	 0.102680263770785 
499	 0.10340661173722 
500	 0.10432350904581 
501	 0.104689901923301 
502	 0.105377477586451 
503	 0.106161890558675 
504	 0.106668190987545 
505	 0.107252179402357 
506	 0.107947158834772 
507	 0.108584611592891 
508	 0.108901205339842 
509	 0.109651060508854 
510	 0.110426704398567 
511	 0.110984343006499 
512	 0.111960325181126 
513	 0.112622474422755 
514	 0.113106092661272 
515	 0.113861495222409 
516	 0.114636573651494 
517	 0.115483210451204 
518	 0.116367827128337 
519	 0.117134293163913 
520	 0.117936260346501 
521	 0.118657636314945 
522	 0.119292949231512 
523	 0.120449428740243 
524	 0.121342618546973 
525	 0.121996415098418 
526	 0.122979058300899 
527	 0.123897451421514 
528	 0.12471063299671 
529	 0.125496216491265 
530	 0.126486523736528 
531	 0.127348825289702 
532	 0.128167021549768 
533	 0.129111647900193 
534	 0.129858594286417 
535	 0.13074600322452 
536	 0.131836842468835 
537	 0.132835933611849 
538	 0.133789605836478 
539	 0.134727855700873 
540	 0.135671462931335 
541	 0.136585548604353 
542	 0.137608326940452 
543	 0.138696345575101 
544	 0.139707800341926 
545	 0.140739498279682 
546	 0.141742959996149 
547	 0.142704313997573 
548	 0.143719806680665 
549	 0.144683307344972 
550	 0.145549618695034 
551	 0.146357443630164 
552	 0.147451207137812 
553	 0.148561888656992 
554	 0.149589246211082 
555	 0.150654055683259 
556	 0.151519175873914 
557	 0.152431559748577 
558	 0.153552046378717 
559	 0.154406237106119 
560	 0.155267624732357 
561	 0.156165236735649 
562	 0.156993439050351 
563	 0.157894878604638 
564	 0.15866504460415 
565	 0.159222061521611 
566	 0.159797765275509 
567	 0.160364924207913 
568	 0.160937156267713 
569	 0.161490556770861 
570	 0.161777085798703 
571	 0.162029223955602 
572	 0.162416793351048 
573	 0.162991935276094 
574	 0.163228001937772 
575	 0.163248590990785 
576	 0.163304587870627 
577	 0.163517595414731 
578	 0.16365895168727 
579	 0.163568266485015 
580	 0.1631912927796 
581	 0.162941942009842 
582	 0.162805549752898 
583	 0.16264984875949 
584	 0.162222604899019 
585	 0.161890244625606 
586	 0.161587933245217 
587	 0.16110996136832 
588	 0.160485489719201 
589	 0.159987561398571 
590	 0.159612841352819 
591	 0.15900705665084 
592	 0.158372915458942 
593	 0.157714399672162 
594	 0.156959434125816 
595	 0.155858676919389 
596	 0.154744131050738 
597	 0.153549623023508 
598	 0.15205183652659 
599	 0.150694480341611 
600	 0.149419331533823 
601	 0.148303465113992 
602	 0.147781668150723 
603	 0.147187993579979 
604	 0.146738763116516 
605	 0.146745995666986 
606	 0.146465574028772 
607	 0.146104223461247 
608	 0.145783795378759 
609	 0.14549966964384 
610	 0.14549160733333 
611	 0.145432243161819 
612	 0.145084418830442 
613	 0.144808089651738 
614	 0.144735499483239 
615	 0.14469575678074 
616	 0.144395037585653 
617	 0.144214090593802 
618	 0.144119341446078 
619	 0.144042134743641 
620	 0.143948592461036 
621	 0.143643731464648 
622	 0.14336118016887 
623	 0.14334703030907 
624	 0.143154890984507 
625	 0.14290438902835 
626	 0.142775627727146 
627	 0.14294977090756 
628	 0.142722809233309 
629	 0.142428408226268 
630	 0.142343380424811 
631	 0.142023744776127 
632	 0.141876074103846 
633	 0.141814783624678 
634	 0.141581759379543 
635	 0.141571697565396 
636	 0.141485891021037 
637	 0.141244762439482 
638	 0.141165560787292 
639	 0.141161172028611 
640	 0.141069376736762 
641	 0.140845809924274 
642	 0.141044263268005 
643	 0.141127783297809 
644	 0.140961773253231 
645	 0.140759974572184 
646	 0.140517220751738 
647	 0.140241444802181 
648	 0.139921515128592 
649	 0.13946913617483 
650	 0.139062284887866 
651	 0.138435497703021 
652	 0.13733594009652 
653	 0.136480612173506 
654	 0.135581297003243 
655	 0.13434196013175 
656	 0.132745902747125 
657	 0.131441518046283 
658	 0.130193841540245 
659	 0.128759384299169 
660	 0.12757105343445 
661	 0.126476229672874 
662	 0.125356630515137 
663	 0.124167065878647 
664	 0.123120330166443 
665	 0.122340806115811 
666	 0.121727136509262 
667	 0.120818439394579 
668	 0.120121844981803 
669	 0.119664912458165 
670	 0.119329528580186 
671	 0.119100236307719 
672	 0.119037416993765 
673	 0.1191061006047 
674	 0.11919138986899 
675	 0.119421981324161 
676	 0.119806647347562 
677	 0.120253089307201 
678	 0.120457954292987 
679	 0.120707454614105 
680	 0.121268103830213 
681	 0.122267610796327 
682	 0.1229997045075 
683	 0.12368978350682 
684	 0.124486440267399 
685	 0.125417165474785 
686	 0.126638724795951 
687	 0.127640989063304 
688	 0.128044429844213 
689	 0.128764638160699 
690	 0.129403736155601 
691	 0.129754994912244 
692	 0.129737141771466 
693	 0.129819309320509 
694	 0.129683723244643 
695	 0.129246053195744 
696	 0.128879626223886 
697	 0.128277339176607 
698	 0.127421592798142 
699	 0.126469531729398 
700	 0.125607160132391 
701	 0.124320935577385 
702	 0.122939575364926 
703	 0.122233568375307 
704	 0.1208636039885 
705	 0.119188660778313 
706	 0.117601176971328 
707	 0.115794629254466 
708	 0.113861211540061 
709	 0.111861983690409 
710	 0.109835207508239 
711	 0.107641819119164 
712	 0.105253818098821 
713	 0.102757011342149 
714	 0.100289875839593 
715	 0.098164410843645 
716	 9.59093599943718E-02 
717	 9.32341773644611E-02 
718	 0.090529170757786 
719	 8.76211859695848E-02 
720	 8.52965585341705E-02 
721	 8.34979681938214E-02 
722	 8.16804541996951E-02 
723	 7.93520245537613E-02 
724	 7.68122957290891E-02 
725	 7.44928280406321E-02 
726	 7.16311010294921E-02 
727	 6.90025976857069E-02 
728	 6.70370794850084E-02 
729	 6.41430856658847E-02 
730	 6.15083640803945E-02 
731	 5.93092551742048E-02 
732	 0.057083653457753 
733	 5.53874396708597E-02 
734	 0.054137266222188 
735	 5.31253053041702E-02 
736	 5.19402966893922E-02 
737	 5.13234299990468E-02 
738	 5.09687408216426E-02 
739	 0.050515818114624 
740	 5.01146184097311E-02 
741	 4.99179169572926E-02 
742	 4.97371881097324E-02 
743	 4.93308604453902E-02 
744	 4.95520055447071E-02 
745	 4.97076101119084E-02 
746	 4.95090525850404E-02 
747	 4.94038014663923E-02 
748	 0.049258864773826 
749	 4.91326562931957E-02 
750	 0.049100494779256 
751	 4.91694828161597E-02 
752	 4.91865262304886E-02 
753	 4.91597192732249E-02 
754	 0.04917033579423 
755	 4.90599017567238E-02 
756	 4.90491765609678E-02 
757	 4.92120782652316E-02 
758	 0.049413579208742 
759	 4.97323748566347E-02 
760	 0.050119086365464 
761	 5.02557813944175E-02 
762	 5.04342226376323E-02 
763	 5.04222456228742E-02 
764	 5.00998431679573E-02 
765	 4.95778815009132E-02 
766	 4.94489483507059E-02 
767	 4.96586717128922E-02 
768	 4.99425652410994E-02 
769	 0.049842723235265 
770	 0.049785233696125 
771	 0.049882835725734 
772	 5.01055356992411E-02 
773	 5.02063280350012E-02 
774	 5.04996628782593E-02 
775	 5.07621643132321E-02 
776	 5.06860406886746E-02 
777	 5.09380406098508E-02 
778	 5.12191732544896E-02 
779	 0.051488796903755 
780	 5.19984978281131E-02 
781	 5.21549926897357E-02 
782	 0.052055059111689 
783	 5.20296017719022E-02 
784	 5.26518548936992E-02 
785	 5.32815922885172E-02 
786	 5.37321271800309E-02 
787	 5.40178788717442E-02 
788	 5.42554884581366E-02 
789	 0.054763068657733 
790	 5.53527427563864E-02 
791	 5.55018287276653E-02 
792	 5.56538499114258E-02 
793	 5.59185262840557E-02 
794	 5.63133441449246E-02 
795	 5.67687315752994E-02 
796	 5.71701192683475E-02 
797	 5.74935487114099E-02 
798	 5.78049508115149E-02 
799	 5.83005010697898E-02 
800	 5.84629231224938E-02 
801	 5.84529641685543E-02 
802	 5.87791627860404E-02 
803	 5.92046755461994E-02 
804	 5.94549667425684E-02 
805	 5.94275035010237E-02 
806	 5.92073658784338E-02 
807	 5.91830782720013E-02 
808	 5.93427800042102E-02 
809	 0.059518279096849 
810	 5.93587040964174E-02 
811	 5.92770508273064E-02 
812	 5.91524363283477E-02 
813	 5.87056856179814E-02 
814	 5.84362421558564E-02 
815	 5.83773745915904E-02 
816	 5.80177128858967E-02 
817	 5.67775698259971E-02 
818	 5.63679734284736E-02 
819	 5.61433054426078E-02 
820	 5.54617458252909E-02 
821	 5.39037981755067E-02 
822	 5.27625913011442E-02 
823	 5.20736410237363E-02 
824	 5.14354595979866E-02 
825	 5.05111980505297E-02 
826	 4.92586783847174E-02 
827	 4.78825869482499E-02 
828	 4.67730276834158E-02 
829	 4.57429020355857E-02 
830	 4.48169172831342E-02 
831	 4.40757090217121E-02 
832	 4.36402207806561E-02 
833	 4.33785670855768E-02 
834	 4.30752066469766E-02 
835	 4.26258430215999E-02 
836	 4.20727012777847E-02 
837	 4.16621073252043E-02 
838	 0.041458526553448 
839	 0.041388462201568 
840	 4.11599884523149E-02 
841	 4.11021104727133E-02 
842	 4.09996889311147E-02 
843	 4.06271264198333E-02 
844	 4.06402323553139E-02 
845	 4.05332837365683E-02 
846	 4.02019165937281E-02 
847	 3.98784741154292E-02 
848	 3.99014626746725E-02 
849	 4.01154361353128E-02 
850	 4.01465585285112E-02 
851	 3.95181101062829E-02 
852	 3.95238750237324E-02 
853	 3.99399451514975E-02 
854	 4.01512046563119E-02 
855	 3.94940916629126E-02 
856	 3.94316402202047E-02 
857	 3.97262009193142E-02 
858	 3.97384252048014E-02 
859	 3.92419582186858E-02 
860	 0.038857748362082 
861	 3.88263301668024E-02 
862	 0.039047846365056 
863	 3.88226195924395E-02 
864	 3.89789394862033E-02 
865	 0.03929612134552 
866	 3.87031615904084E-02 
867	 3.85849814293403E-02 
868	 3.85029581662381E-02 
869	 3.83298146841056E-02 
870	 3.86418392535873E-02 
871	 3.88140831175102E-02 
872	 0.038700078073131 
873	 3.83581536849839E-02 
874	 0.038011706397149 
875	 3.81535561948124E-02 
876	 3.81915040907199E-02 
877	 3.76451213255318E-02 
878	 3.77347168041617E-02 
879	 0.03801007465327 
880	 3.80313173640875E-02 
881	 3.76294671209025E-02 
882	 3.80122101777107E-02 
883	 0.038050803663186 
884	 3.75934200888619E-02 
885	 3.73496209109469E-02 
886	 3.77748637051634E-02 
887	 3.74735182018311E-02 
888	 3.65020466035425E-02 
889	 3.66957602120438E-02 
890	 3.71552733047251E-02 
891	 3.72231531612578E-02 
892	 3.68249870804401E-02 
893	 3.70335293429168E-02 
894	 3.75058748967129E-02 
895	 3.78793447065354E-02 
896	 3.78081191923679E-02 
897	 3.72758394820306E-02 
898	 0.036569698058439 
899	 3.65191259169139E-02 
900	 3.73662052416036E-02 
901	 3.73711413958679E-02 
902	 3.66659149473333E-02 
903	 3.60321507430572E-02 
904	 3.62916158503159E-02 
905	 3.75201402116657E-02 
906	 3.72414014928425E-02 
907	 3.53133393126601E-02 
908	 3.39583949511595E-02 
909	 3.61933927433068E-02 
910	 3.76370431489279E-02 
911	 3.73018077177044E-02 
912	 3.78592856398464E-02 
913	 3.67430763143092E-02 
914	 3.65704317810989E-02 
915	 3.75108575622885E-02 
916	 3.65541604163735E-02 
917	 3.49516894997675E-02 
918	 3.43794081212443E-02 
919	 3.50846959830602E-02 
920	 3.56401044084856E-02 
921	 0.036032971674355 
922	 3.68088611619823E-02 
923	 3.75411076124023E-02 
924	 3.53209728925229E-02 
925	 3.38790199455152E-02 
926	 3.39889272416042E-02 
927	 3.50849145959567E-02 
928	 3.54265212599326E-02 
929	 0.035556588808415 
930	 3.73583164291854E-02 
931	 3.96340391540658E-02 
932	 1.13760743950465E-02 
933	 5.52163618181906E-05 
934	 2.14199594764735E-02 
935	 0.046311375279586 
936	 4.47803889136275E-02 
937	 4.63292648679855E-02 
938	 4.47395211031577E-02 
939	 3.05042697827878E-02 
940	 2.82159103599488E-02 
941	 2.32474712467312E-02 
942	 2.24918242409631E-02 
943	 3.87745370706674E-02 
944	 4.48440830002032E-02 
945	 3.47598113428709E-02 
946	 2.71114322054826E-02 
947	 4.31836777817366E-02 
948	 5.04654810411252E-02 
949	 5.27511320774104E-02 
950	 4.32410938920141E-02 
951	 1.73893262015416E-02 
952	 1.86791905272113E-02 
953	 3.58868044383461E-02 
954	 0.047699078977541 
955	 3.89404896459438E-02 
956	 3.30709506483285E-02 
957	 0.036707978975076 
958	 4.31090226256772E-02 
959	 0.040927365314302 
960	 3.47212644833987E-02 
961	 3.71169132923759E-02 
962	 4.07749135509311E-02 
963	 3.18290480235869E-02 
964	 3.22003962207855E-02 
965	 3.63673363597924E-02 
966	 3.93301339255772E-02 
967	 3.87532013569063E-02 
968	 3.67986912693229E-02 
969	 3.20803688509323E-02 
970	 2.82528709220492E-02 
971	 3.15438302074632E-02 
972	 3.29579811928876E-02 
973	 0.036623111563532 
974	 4.15050520280203E-02 
975	 0.040954501039373 
976	 3.52158724588312E-02 
977	 3.04268245643962E-02 
978	 2.99799705791117E-02 
979	 3.27425429068657E-02 
980	 3.04546538007971E-02 
981	 3.42928109186375E-02 
982	 4.03204128520757E-02 
983	 3.51232793266115E-02 
984	 3.08368492255334E-02 
985	 3.17354887589956E-02 
986	 3.46706411901942E-02 
987	 3.27463920769803E-02 
988	 2.95942087772237E-02 
989	 2.97421709707817E-02 
990	 3.25442075961996E-02 
991	 3.38796236095301E-02 
992	 3.49507854481846E-02 
993	 3.26981281429506E-02 
994	 3.03550183644022E-02 
995	 3.37814262771718E-02 
996	 3.71747897459256E-02 
997	 3.61194750708112E-02 
998	 3.13911795244145E-02 
999	 2.81041247554411E-02 
1000	 0.035093837663002 
1001	 3.36560222561241E-02 
1002	 3.32759131385009E-02 
1003	 3.31640539480538E-02 
1004	 3.37198909527554E-02 
1005	 3.37871571198697E-02 
1006	 3.33712951881741E-02 
1007	 3.36963211697496E-02 
1008	 3.38613516667133E-02 
1009	 3.45691942026019E-02 
1010	 3.47422087397066E-02 
1011	 3.40941984367341E-02 
1012	 3.34875363412302E-02 
1013	 3.31306622035085E-02 
1014	 3.32023274230525E-02 
1015	 3.40135707318794E-02 
1016	 3.43869552686219E-02 
1017	 0.034713351284361 
1018	 3.50710206708135E-02 
1019	 3.55337679806967E-02 
1020	 3.54637556821953E-02 
1021	 3.49248649094282E-02 
1022	 3.52094206829053E-02 
1023	 3.51705832167657E-02 
1024	 3.38068311316489E-02 
1025	 3.32795438132849E-02 
1026	 3.35067601974107E-02 
1027	 3.36044271229476E-02 
1028	 3.40641988870625E-02 
1029	 3.42623261779378E-02 
1030	 3.45637225673712E-02 
1031	 3.46204479254949E-02 
1032	 3.42198832421846E-02 
1033	 0.034006051516724 
1034	 3.37097990483631E-02 
1035	 3.38118703250953E-02 
1036	 3.44293627455963E-02 
1037	 3.47398628281813E-02 
1038	 0.035787519493362 
1039	 3.54820592762516E-02 
1040	 0.034248890375164 
1041	 3.34794382192035E-02 
1042	 3.33301233633232E-02 
1043	 3.31387794976663E-02 
1044	 3.33412162697246E-02 
1045	 3.47321228318827E-02 
1046	 3.49799000869523E-02 
1047	 3.50264414592137E-02 
1048	 3.45969712852769E-02 
1049	 3.32305420209069E-02 
1050	 3.25669160112631E-02 
1051	 3.10065266583894E-02 
1052	 3.10349655273689E-02 
1053	 3.32592152878017E-02 
1054	 3.39391279646179E-02 
1055	 3.46650477033677E-02 
1056	 3.52395769089709E-02 
1057	 3.53700689995851E-02 
1058	 0.034160668520528 
1059	 3.39630775312391E-02 
1060	 3.42582400311559E-02 
1061	 3.43628846503618E-02 
1062	 3.41937632538186E-02 
1063	 3.45104958850725E-02 
1064	 3.58829178739908E-02 
1065	 3.57626619935305E-02 
1066	 3.46898322697616E-02 
1067	 3.43656699225315E-02 
1068	 3.34701894508462E-02 
1069	 3.28608059203827E-02 
1070	 3.25959777463929E-02 
1071	 3.28384427207474E-02 
1072	 3.29299808166374E-02 
1073	 3.38891145969165E-02 
1074	 3.41534105040607E-02 
1075	 0.035074299320161 
1076	 3.54970484825971E-02 
1077	 3.51457158843019E-02 
1078	 3.49386298289778E-02 
1079	 3.47049016765386E-02 
1080	 3.48131942994725E-02 
1081	 3.57253175859108E-02 
1082	 3.50315159036923E-02 
1083	 3.23435013486028E-02 
1084	 3.24748960693893E-02 
1085	 3.33236785833399E-02 
1086	 3.33711375977735E-02 
1087	 3.65222224867833E-02 
1088	 3.75487947752707E-02 
1089	 3.59636230142533E-02 
1090	 3.39010793620342E-02 
1091	 3.31137164932508E-02 
1092	 3.25041390688246E-02 
1093	 3.22232102778586E-02 
1094	 3.25671779316913E-02 
1095	 3.29712386232155E-02 
1096	 3.40993930464671E-02 
1097	 0.034100603354559 
1098	 0.033809289728976 
1099	 3.35460692456416E-02 
1100	 3.19665520340867E-02 
1101	 3.14865464353502E-02 
1102	 3.17355552427186E-02 
1103	 0.032108006302873 
1104	 3.35195015393652E-02 
1105	 3.41769762246788E-02 
1106	 3.39053126499273E-02 
1107	 3.40413620821589E-02 
1108	 3.44348251394163E-02 
1109	 3.58259979548246E-02 
1110	 3.56838828167973E-02 
1111	 0.036577586805238 
1112	 3.52547540337954E-02 
1113	 2.59883222674706E-02 
1114	 2.56565665501737E-02 
1115	 3.63165044798748E-02 
1116	 0.037773114987457 
1117	 4.04491519604367E-02 
1118	 4.31685550708831E-02 
1119	 3.23229558459611E-02 
1120	 0.020949737175667 
1121	 1.36976201568727E-02 
1122	 2.19431970474308E-03 
1123	-1.93318567110228E-02 
1124	-6.49192755438435E-02 
1125	-7.16760018893632E-02 
1126	-0.011794116031008 
1127	 7.98845715811081E-03 
1128	-8.81762179504364E-03 
1129	 1.51637475196109E-03 
1130	-4.22470017150691E-03 
1131	 6.50767857619807E-03 
1132	 4.91630003907885E-02 
1133	 5.76393832873932E-02 
1134	 4.22160021859944E-02 
1135	 4.10042275816032E-02 
1136	 4.20685300264811E-02 
1137	 0.041941656584287 
1138	 4.65465961827281E-02 
1139	 4.81778815165884E-02 
1140	 4.78337953915419E-02 
1141	 3.85350189825188E-02 
1142	 2.88184182257039E-02 
1143	 4.01281830340779E-02 
1144	 5.14409840276308E-02 
1145	 3.81305736084778E-02 
1146	 2.78829657158645E-02 
1147	 2.67476706051521E-02 
1148	 1.75785414233577E-02 
1149	 2.08313402664053E-02 
1150	 2.67063435033537E-02 
1151	 3.97622743517517E-02 
1152	 3.86644908719891E-02 
1153	 0.033860727168665 
1154	 3.43324117392855E-02 
1155	 3.22203157294062E-02 
1156	 3.25284058812455E-02 
1157	 0.037639604245955 
1158	 3.94096942480525E-02 
1159	 3.67746694053858E-02 
1160	 0.035370734740212 
1161	 3.45366553858032E-02 
1162	 0.034301578751405 
1163	 3.42889086265599E-02 
1164	 3.39856307763288E-02 
1165	 3.42639377098075E-02 
1166	 3.44058782054698E-02 
1167	 0.034807056471624 
1168	 3.49853525267127E-02 
1169	 3.44087991756361E-02 
1170	 3.47102401641421E-02 
1171	 3.50586447564079E-02 
1172	 3.61178321205216E-02 
1173	 3.62211385697923E-02 
1174	 3.63550176577305E-02 
1175	 3.56491547365783E-02 
1176	 3.42728145467476E-02 
1177	 3.40351369400923E-02 
1178	 3.35176250414552E-02 
1179	 3.37954904208565E-02 
1180	 3.48951869223211E-02 
1181	 3.43231372120988E-02 
1182	 3.46731721568227E-02 
1183	 3.45657291058063E-02 
1184	 3.34615169976153E-02 
1185	 3.52928428086288E-02 
1186	 3.63939621281032E-02 
1187	 0.035326146702702 
1188	 3.51424097248457E-02 
1189	 3.37188985384895E-02 
1190	 3.17109270375803E-02 
1191	 0.032797275618534 
1192	 3.37642408963982E-02 
1193	 3.56125495221431E-02 
1194	 0.036049604174421 
1195	 3.61812180839212E-02 
1196	 3.54623497283393E-02 
1197	 3.47627812904927E-02 
1198	 3.55516321983399E-02 
1199	 3.63987307558429E-02 
1200	 3.67163681006118E-02 
1201	 3.63572186220698E-02 
1202	 3.48593405184244E-02 
1203	 3.43633268086557E-02 
1204	 3.49699291305323E-02 
1205	 3.47524281986323E-02 
1206	 3.46368616990881E-02 
1207	 3.59194599698098E-02 
1208	 3.64391548622833E-02 
1209	 3.54796903049763E-02 
1210	 3.50611355252045E-02 
1211	 3.50662238263481E-02 
1212	 3.51591712532889E-02 
1213	 3.54258799750138E-02 
1214	 3.49496521968247E-02 
1215	 3.40266212189696E-02 
1216	 3.27307890468461E-02 
1217	 3.30311283120943E-02 
1218	 3.37412829089643E-02 
1219	 3.41601166513865E-02 
1220	 3.51514902676884E-02 
1221	 3.51791725551108E-02 
1222	 3.36320128375487E-02 
1223	 3.32663593460634E-02 
1224	 3.41599346858379E-02 
1225	 3.40659329582499E-02 
1226	 3.38521184971949E-02 
1227	 3.40858367264543E-02 
1228	 3.37197662287474E-02 
1229	 0.033656177606186 
1230	 0.034189783188792 
1231	 3.43582344824071E-02 
1232	 3.44236250092844E-02 
1233	 3.41404890907609E-02 
1234	 3.36868842079542E-02 
1235	 3.35296883491222E-02 
1236	 0.034201722295453 
1237	 3.42744769784631E-02 
1238	 3.39724020066954E-02 
1239	 3.37326442863717E-02 
1240	 3.39469445230599E-02 
1241	 3.42797877682977E-02 
1242	 3.42799040122396E-02 
1243	 3.43671463146854E-02 
1244	 3.44733355302996E-02 
1245	 3.45803872160757E-02 
1246	 3.46821322392221E-02 
1247	 3.45956688031494E-02 
1248	 3.41492155388699E-02 
1249	 0.033126018580951 
1250	 3.21953206067004E-02 
1251	 3.22977805768155E-02 
1252	 3.32250190722467E-02 
1253	 3.33161248025144E-02 
1254	 3.30791028264158E-02 
1255	 3.34092890379575E-02 
1256	 3.33203089875694E-02 
1257	 0.032088895697673 
1258	 3.20438788369218E-02 
1259	 3.32510337717038E-02 
1260	 3.35052410338598E-02 
1261	 0.033390924208782 
1262	 3.34807030822184E-02 
1263	 3.37661015288447E-02 
1264	 3.29467864426201E-02 
1265	 3.21459196537725E-02 
1266	 3.32329196412967E-02 
1267	 3.41225727154128E-02 
1268	 3.35241151608073E-02 
1269	 0.033740643794739 
1270	 3.42590897260821E-02 
1271	 3.39021734169058E-02 
1272	 3.42833372711486E-02 
1273	 0.034812474106126 
1274	 3.45624366550629E-02 
1275	 3.45700578332374E-02 
1276	 3.43664951386998E-02 
1277	 3.43277189668123E-02 
1278	 3.47636858609534E-02 
1279	 3.45442743061881E-02 
1280	 3.44813502791067E-02 
1281	 3.45411586878956E-02 
1282	 3.40917625974159E-02 
1283	 0.033808508996847 
1284	 3.42231112685238E-02 
1285	 3.43843172443229E-02 
1286	 3.39879830038057E-02 
1287	 3.36335610928992E-02 
1288	 3.33205707520403E-02 
1289	 3.32940191906859E-02 
1290	 3.28366244968756E-02 
1291	 3.37801549490546E-02 
1292	 3.45817424937674E-02 
1293	 3.35617268157955E-02 
1294	 3.36790011551787E-02 
1295	 3.38122639009545E-02 
1296	 0.03372275199165 
1297	 0.034753870442593 
1298	 3.35429758657484E-02 
1299	 3.20968716268188E-02 
1300	 3.26393582260334E-02 
1301	 3.32699133786872E-02 
1302	 3.44800487366361E-02 
1303	 3.50456733852524E-02 
1304	 3.37883312870256E-02 
1305	 3.35818116582071E-02 
1306	 3.34320922376706E-02 
1307	 3.33821303952136E-02 
1308	 3.33103320914016E-02 
1309	 3.36410235809653E-02 
1310	 3.40528742276771E-02 
1311	 3.50209140320968E-02 
1312	 3.47828789829594E-02 
1313	 3.32520174579377E-02 
1314	 3.32360820381793E-02 
1315	 3.32417337574116E-02 
1316	 3.35671542048037E-02 
1317	 3.65273762028585E-02 
1318	 3.72100372574646E-02 
1319	 3.50363299035806E-02 
1320	 3.47756885889133E-02 
1321	 3.44753518759801E-02 
1322	 3.58246410137665E-02 
1323	 0.037554116170124 
1324	 3.64150519878449E-02 
1325	 3.77890186719507E-02 
1326	 3.80920248956634E-02 
1327	 3.79830961191813E-02 
1328	 4.12800079146001E-02 
1329	 0.039520976672099 
1330	 3.57124554486111E-02 
1331	 3.14762388700711E-02 
1332	 2.57952764598463E-02 
1333	 2.99730352662971E-02 
1334	 3.46910650198202E-02 
1335	 3.61315577520198E-02 
1336	 4.05539074232761E-02 
1337	 4.04064001961001E-02 
1338	 3.06831062646437E-02 
1339	 2.99476312609309E-02 
1340	 3.52530657987735E-02 
1341	 0.034798420319613 
1342	 0.030575905078922 
1343	 3.35972628947108E-02 
1344	 4.34052872337033E-02 
1345	 4.54463290864517E-02 
1346	 4.89355754735359E-02 
1347	 6.03758932635261E-02 
1348	 7.19893569408843E-02 
1349	 6.11326719306457E-02 
1350	 1.07551390363163E-02 
1351	 2.39955615005698E-02 
1352	 0.15825901717248 
1353	 0.138804972937884 
1354	-2.64317236328981E-02 
1355	 1.54249637336543E-02 
1356	 0.025365927040635 
1357	-0.247433470601342 
1358	-0.164187402757924 
1359	 0.77342226981851 
1360	 0.56199666738083 
1361	-0.336539225362303 
1362	 0.16647080609548 
1363	 0.772992360104107 
1364	 1.70839919161707 
1365	 1.178463207035 
1366	-1.83822318818664 
1367	-2.91496634828615 
1368	 8.00442711724109 
1369	-0.119004717093657 
1370	 0.425255271495415 
1371	 1.83677039661557 
1372	 2.02475950926142 
1373	 0.185891547208788 
1374	 0.221055537265761 
1375	 0.433905974555783 
1376	 0.206270411019613 
1377	 0.620136122399791 
1378	 0.494919608626358 
1379	 6.59332038851219E-02 
1380	-8.81472417907691E-02 
1381	 0.127658268001136 
1382	 8.48141754354092E-02 
1383	-0.830255529310982 
1384	-2.80941747943928 
1385	-0.837954737393567 
1386	-0.724370186300433 
1387	-1.05544528112345 
1388	-1.19129412228678 
1389	-0.659676960100805 
1390	-0.175273493389384 
1391	 0.578414150719931 
1392	 0.208603106923643 
1393	-0.290675563421234 
1394	 5.27562285791688E-03 
1395	-0.501609023889221 
1396	-1.56445710711024 
1397	-0.253829530123659 
1398	 0.973765713505517 
1399	 1.86693496091476 
1400	 0.819460925266241 
1401	 0.73395860097806 
1402	-8.35051550835566E-02 
1403	-3.97227609667023E-02 
1404	 0.169093477803245 
1405	 0.179629734343896 
1406	 0.113476785318632 
1407	 0.291087346613367 
1408	 0.738643478231733 
1409	 0.890347679602047 
1410	 0.939784111328307 
1411	 0.724067728495675 
1412	 0.364396289851677 
1413	 9.66003891120295E-02 
1414	-0.105942209460127 
1415	-0.168133900663565 
1416	-1.12883105843122 
1417	-2.07583958255436 
1418	-1.85247445799225 
1419	-0.747589764087954 
1420	-0.410244496254524 
1421	-0.646044959237431 
1422	-1.24744585620035 
1423	-1.02307319097711 
1424	-0.710839140599463 
1425	-0.591339226442258 
1426	-0.196957629565458 
1427	-9.23343524910979E-03 
1428	-0.010239138578977 
1429	-1.43298131030475E-02 
1430	-1.14005641572755E-02 
1431	 5.59044434087168E-03 
1432	-2.29472223689287E-02 
1433	-6.86433791651423E-02 
1434	-0.100207237815236 
1435	-0.115779115612717 
1436	-0.282771786175652 
1437	-0.272377475070436 
1438	-0.105405601474561 
1439	 0.140670368393959 
1440	-4.76903832809159E-02 
1441	-0.265927470850624 
1442	-0.260370511575546 
1443	-0.265129592997746 
1444	-0.113299479957478 
1445	 7.62660091201488E-02 
1446	-7.13523233739454E-02 
1447	-0.153046343731251 
1448	-0.109507104754115 
1449	-9.22734628974995E-02 
1450	-8.99676972424297E-03 
1451	 4.50320776681019E-02 
1452	 6.19357991718438E-02 
1453	 0.105262592111227 
1454	 9.03144205392566E-02 
1455	 6.76435132862274E-02 
1456	 7.06297577379981E-02 
1457	 5.35977641404782E-02 
1458	 3.40987062760157E-02 
1459	 3.17658428360887E-02 
1460	 3.15848412323744E-02 
1461	 1.29401563937242E-02 
1462	 0.00895433978308 
1463	 2.60162105810177E-02 
1464	 4.42131902201113E-02 
1465	 7.26096244157113E-02 
1466	 5.06030802242853E-02 
1467	 1.07202161335199E-03 
1468	 3.20629405908513E-03 
1469	 6.98095346366839E-04 
1470	-0.018253025256336 
1471	-0.018260838435139 
1472	 4.65108849608578E-03 
1473	 2.03891447265216E-02 
1474	 1.01685193089858E-02 
1475	 2.20508702410205E-02 
1476	 3.87461086832529E-02 
1477	 2.40382696573144E-02 
1478	 1.57717268926393E-02 
1479	 4.50639907681767E-02 
1480	 4.20244717718905E-02 
1481	-1.05261324965366E-03 
1482	-9.41096806999013E-03 
1483	-6.46376130142881E-03 
1484	-1.4619761811131E-03 
1485	 5.56966604490465E-03 
1486	 1.63329104586304E-02 
1487	 3.74155922738178E-02 
1488	 4.25880725942215E-02 
1489	 4.12112421500307E-02 
1490	 4.32167572286349E-02 
1491	 4.03809869842383E-02 
1492	 3.93109777491631E-02 
1493	 4.25805809627895E-02 
1494	 4.48351854583006E-02 
1495	 0.047188191767405 
1496	 4.51476793693669E-02 
1497	 4.03679911686071E-02 
1498	 3.83936170467472E-02 
1499	 3.46815626791994E-02 
1500	 0.032841736577734 
1501	 3.33837924373393E-02 
1502	 3.44505859545353E-02 
1503	 3.58502244658475E-02 
1504	 3.65683177211631E-02 
1505	 3.96067416128091E-02 
1506	 3.94912402146967E-02 
1507	 3.60575736206286E-02 
1508	 3.63200883484201E-02 
1509	 3.60667467840895E-02 
1510	 3.47541993118368E-02 
1511	 3.83800371337975E-02 
1512	 3.85765095215327E-02 
1513	 3.64133612442131E-02 
1514	 3.64060957105526E-02 
1515	 3.50747173332618E-02 
1516	 3.49442368862399E-02 
1517	 3.56404587282903E-02 
1518	 3.50867868496535E-02 
1519	 3.43382961201902E-02 
1520	 3.36286034035712E-02 
1521	 0.034360466751148 
1522	 3.49758948425277E-02 
1523	 3.32129091021162E-02 
1524	 3.25994000472166E-02 
1525	 3.31803314569035E-02 
1526	 3.36506079935336E-02 
1527	 3.44331035124169E-02 
1528	 3.42485516557006E-02 
1529	 3.36983803937971E-02 
1530	 3.30149783482319E-02 
1531	 0.032878955674295 
1532	 0.033573681686516 
1533	 3.46223157073991E-02 
1534	 0.036057305306446 
1535	 3.62383187755372E-02 
1536	 3.62684126192238E-02 
1537	 3.60042789887651E-02 
1538	 3.36954513126396E-02 
1539	 3.38744056376048E-02 
1540	 3.69036825288013E-02 
1541	 3.58770289825205E-02 
1542	 3.32562849370477E-02 
1543	 3.38576554183084E-02 
1544	 3.29075953599618E-02 
1545	 3.27962367309489E-02 
1546	 3.58804977433201E-02 
1547	 3.64938837596068E-02 
1548	 3.62721260952586E-02 
1549	 3.53190820510081E-02 
1550	 3.43572287077037E-02 
1551	 3.56299469948344E-02 
1552	 0.035337732555606 
1553	 3.52503580421063E-02 
1554	 0.03627265289171 
1555	 3.52459917766912E-02 
1556	 3.37180662953017E-02 
1557	 3.40317684917379E-02 
1558	 3.40502702016504E-02 
1559	 3.29008416180828E-02 
1560	 3.36361761910173E-02 
1561	 3.45828299405138E-02 
1562	 3.42385241312202E-02 
1563	 3.42605411148698E-02 
1564	 0.033734419219363 
1565	 3.25807274904966E-02 
1566	 3.27254820150619E-02 
1567	 3.36918922616346E-02 
1568	 3.37955354483185E-02 
1569	 0.033277174901861 
1570	 3.24561904921642E-02 
1571	 3.22123952356907E-02 
1572	 3.28359703628538E-02 
1573	 3.22787433229224E-02 
1574	 3.18200844368096E-02 
1575	 3.27023404827664E-02 
1576	 3.24259299751156E-02 
1577	 3.25200051019148E-02 
1578	 3.38157294343526E-02 
1579	 3.31991959091258E-02 
1580	 3.20998948324092E-02 
1581	 3.32426657255549E-02 
1582	 3.40696862008544E-02 
1583	 3.27345804843572E-02 
1584	 3.23844962993793E-02 
1585	 0.033385700889358 
1586	 3.30731487155187E-02 
1587	 3.25278798551925E-02 
1588	 3.32052863969669E-02 
1589	 3.31162767396231E-02 
1590	 3.21151683462352E-02 
1591	 3.34440661491236E-02 
1592	 3.47391363089465E-02 
1593	 3.36752294628297E-02 
1594	 0.033259629405834 
1595	 0.03249999625279 
1596	 0.031589543506308 
1597	 3.23927511840524E-02 
1598	 0.033078938484547 
1599	 0.03328745902569 
1600	 3.35145211105767E-02 
1601	 3.39293872410348E-02 
1602	 3.41561733634267E-02 
1603	 3.28461273428021E-02 
1604	 3.21292429618346E-02 
1605	 3.26184750976704E-02 
1606	 3.17937465805507E-02 
1607	 0.030518443816157 
1608	 3.12782662115085E-02 
1609	 3.19982261749215E-02 
1610	 3.08673138777245E-02 
1611	 0.03144632397819 
1612	 3.28308089205819E-02 
1613	 3.30426712174921E-02 
1614	 3.38335260809142E-02 
1615	 3.47352562359352E-02 
1616	 3.41954055669139E-02 
1617	 3.25256273515517E-02 
1618	 0.032171516129981 
1619	 3.26940667797656E-02 
1620	 3.24972033435257E-02 
1621	 3.35943048124078E-02 
1622	 3.43582763290936E-02 
1623	 3.34182768401338E-02 
1624	 3.33003270269729E-02 
1625	 0.031923132448852 
1626	 2.95586993983631E-02 
1627	 3.03372832223298E-02 
1628	 3.15456122263256E-02 
1629	 3.11213344005935E-02 
1630	 3.14139457208102E-02 
1631	 3.17380849957872E-02 
1632	 3.12026937618602E-02 
1633	 3.10211974181867E-02 
1634	 0.032228672281334 
1635	 3.33074064711784E-02 
1636	 3.26856587738517E-02 
1637	 3.26480416483403E-02 
1638	 3.34200216073322E-02 
1639	 3.26420213914215E-02 
1640	 3.22517116514265E-02 
1641	 3.40286616249166E-02 
1642	 3.50273402649957E-02 
1643	 3.43645492862599E-02 
1644	 3.41735607577515E-02 
1645	 3.42171943697031E-02 
1646	 3.42210547064479E-02 
1647	 3.46592095135368E-02 
1648	 3.54108516880177E-02 
1649	 3.50859396133523E-02 
1650	 3.29108297283695E-02 
1651	 3.12471242790819E-02 
1652	 0.031272712292315 
1653	 0.032413208967023 
1654	 0.032365155911511 
1655	 3.21729501217929E-02 
1656	 3.27199977932571E-02 
1657	 3.31441699960099E-02 
1658	 0.033386255788003 
1659	 3.44151891086277E-02 
1660	 3.39360379303528E-02 
1661	 3.18696906251749E-02 
1662	 3.12328899886432E-02 
1663	 3.06201009090179E-02 
1664	 2.99395726050065E-02 
1665	 3.01270923671865E-02 
1666	 3.02590793537466E-02 
1667	 2.98209088238765E-02 
1668	 3.00060037498919E-02 
1669	 3.13761446093987E-02 
1670	 3.13085088875894E-02 
1671	 3.18500199977318E-02 
1672	 3.35326918294291E-02 
1673	 3.22077032974905E-02 
1674	 3.13721176255898E-02 
1675	 3.31602234265162E-02 
1676	 3.42729700282953E-02 
1677	 3.31224686366438E-02 
1678	 3.17816779549122E-02 
1679	 0.032680379066619 
1680	 3.22456779242046E-02 
1681	 3.21095267409485E-02 
1682	 3.34406682130142E-02 
1683	 3.24880025119128E-02 
1684	 3.13180485422546E-02 
1685	 3.03005941597252E-02 
1686	 3.09474798321994E-02 
1687	 3.25444878642678E-02 
1688	 0.030886725507818 
1689	 3.17160318134432E-02 
1690	 0.033742859163375 
1691	 3.15602636314839E-02 
1692	 3.18651013483925E-02 
1693	 0.034148542611718 
1694	 3.47862058750828E-02 
1695	 0.035055446061454 
1696	 3.47505362516182E-02 
1697	 3.51891450577472E-02 
1698	 3.43446843042903E-02 
1699	 3.28768103468335E-02 
1700	 3.37273774575281E-02 
1701	 3.41039606707217E-02 
1702	 3.25992620182469E-02 
1703	 3.17944961454706E-02 
1704	 0.032785127184466 
1705	 0.032510132066516 
1706	 3.16669669814703E-02 
1707	 3.30818848136864E-02 
1708	 3.43965651548844E-02 
1709	 3.49859029130036E-02 
1710	 3.49644652026594E-02 
1711	 3.40047682592637E-02 
1712	 3.48960333608096E-02 
1713	 3.55644587354367E-02 
1714	 3.52428905976675E-02 
1715	 0.036200318348261 
1716	 3.66373053115849E-02 
1717	 3.58236385961724E-02 
1718	 3.52141886888246E-02 
1719	 3.28896357116746E-02 
1720	 0.029290815548918 
1721	 2.97243932120076E-02 
1722	 0.032913673448706 
1723	 3.23065562194855E-02 
1724	 3.00846107632651E-02 
1725	 3.10873128764132E-02 
1726	 3.18942616874185E-02 
1727	 3.11184221724913E-02 
1728	 3.13535134822403E-02 
1729	 3.18673563586864E-02 
1730	 3.15977728105237E-02 
1731	 3.45732466905372E-02 
1732	 3.86194096486471E-02 
1733	 3.46672753083706E-02 
1734	 3.06507303721527E-02 
1735	 3.14825891006898E-02 
1736	 3.04497825236359E-02 
1737	 2.97322992658347E-02 
1738	 0.030365393133563 
1739	 2.90373696364986E-02 
1740	 2.68696433483493E-02 
1741	 2.98014616455568E-02 
1742	 3.23984068255205E-02 
1743	 2.99628351912912E-02 
1744	 2.94490379300962E-02 
1745	 3.07082782989261E-02 
1746	 2.99647685092882E-02 
1747	 3.07884920639077E-02 
1748	 3.28258055355742E-02 
1749	 3.25425634898353E-02 
1750	 3.30894395387029E-02 
1751	 3.38432464507426E-02 
1752	 3.26014192600668E-02 
1753	 3.32640386955993E-02 
1754	 0.034093857466226 
1755	 3.36696163215934E-02 
1756	 3.53950024730321E-02 
1757	 3.55607360050095E-02 
1758	 3.30013004377585E-02 
1759	 3.21827388675052E-02 
1760	 3.06320883566683E-02 
1761	 3.17087720886431E-02 
1762	 3.42876808536053E-02 
1763	 3.36821097365285E-02 
1764	 2.89854601151012E-02 
1765	 2.08683490386462E-02 
1766	 1.41355480527866E-02 
1767	 0.017720113323538 
1768	 2.48968769024898E-02 
1769	 2.89960411388721E-02 
1770	 3.91563567826132E-02 
1771	 3.43677026098353E-02 
1772	 2.02607138214973E-02 
1773	 2.42150419379837E-02 
1774	 2.51805682998313E-02 
1775	 3.67627726302722E-02 
1776	 4.44185961046973E-02 
1777	 0.038856946843729 
1778	 3.72098970354831E-02 
1779	 4.05552011164758E-02 
1780	 3.97965306997871E-02 
1781	 3.90198287857752E-02 
1782	 0.034710706356181 
1783	 2.15193420493447E-02 
1784	 2.04514378750297E-02 
1785	 2.20036085474765E-02 
1786	 2.32939372043524E-02 
1787	 4.20256142088213E-02 
1788	 4.00737353930206E-02 
1789	 0.015171271295685 
1790	-3.65865419501274E-03 
1791	-1.99597286644465E-02 
1792	-1.19217200154054E-02 
1793	 3.69900036777558E-02 
1794	 7.97003290698055E-02 
1795	 7.35641236909297E-02 
1796	 2.90736578033058E-02 
1797	 1.23944202386775E-02 
1798	-3.66120263238142E-02 
1799	-7.33818789087042E-02 
1800	-0.112039428726835 
1801	-0.177975389006794 
1802	-0.210336589886994 
1803	-0.148700363894766 
1804	 0.137361685119478 
1805	 0.295122887109848 
1806	 0.651350703244357 
1807	 1.26784829701901 
1808	 0.415963549690879 
1809	 0.358310156276166 
1810	 0.720760725623952 
1811	 0.546808085228299 
1812	-4.51549941381761E-02 
1813	-0.169000111114214 
1814	-0.417164167768266 
1815	-0.339498964582825 
1816	-4.04304854230431 
1817	 2.2830942676924 
1818	 1.86261416333291 
1819	 0.726290480737463 
1820	-0.199942547217214 
1821	 2.3931489397212 
1822	 1.83018964810851 
1823	 1.42419978834351 
1824	 1.06736053948116 
1825	-4.91734069779227 
1826	-1.35645871642698 
1827	 0.278536226447068 
1828	 0.240460414867073 
1829	 0.530059003041339 
1830	 0.516214275545382 
1831	 1.84085278690615 
1832	 2.23980119311563 
1833	 1.97616677933925 
1834	 1.87502605419922 
1835	 1.69099991668153 
1836	 1.69132661614899 
1837	 1.01450482577281 
1838	 1.27480053685559 
1839	-11.0341812776838 
1840	-1.57489453568028 
1841	-2.31062952030221 
1842	-1.67548216006404 
1843	-2.43854590864942 
1844	 4.56894668884271 
1845	 2.45743055274673 
1846	 1.06355472448461 
1847	 0.570105102247605 
1848	 0.441314612182412 
1849	-0.295534466773187 
1850	-0.580152617313101 
1851	-0.302100142116097 
1852	-0.41852984120248 
1853	-0.450432490554262 
1854	-0.444314088303926 
1855	-0.431453377321722 
1856	-0.268262087691916 
1857	-1.25095719045212 
1858	-1.7617910901327 
1859	 2.7223786232877 
1860	 2.463729096949 
1861	 2.95495872606669 
1862	 1.22169334186044 
1863	 1.16695066030382 
1864	 1.40408032827336 
1865	 1.9882158402366 
1866	 3.28521944939985 
1867	 5.79326019029616 
1868	-19.354208021559 
1869	-13.8331909939735 
1870	-12.1355908571105 
1871	 6.26586644659769 
1872	 1.77297456778141 
1873	 0.870798733145497 
1874	 0.76656469262143 
1875	 1.28245387600334 
1876	 1.77843261656233 
1877	-3.68400669928219 
1878	-2.97100848062554 
1879	 3.58889102124576 
1880	 3.10231354770998 
1881	 4.24318413973028 
1882	 2.13783178945375 
1883	 1.73994396124999 
1884	 1.43838837748324 
1885	 0.988726833559011 
1886	 0.911474357989182 
1887	 0.545853090769789 
1888	-0.145361796694379 
1889	-0.448857505927911 
1890	-9.88286967685456E-02 
1891	 0.100232754387588 
1892	 1.29810093979668 
1893	 44.6442913302024 
1894	-20.606525593139 
1895	 25.7801500534913 
1896	-1.38459666957404 
1897	-1.45681065410204 
1898	-1.22944173254668 
1899	-0.416989339367309 
1900	-0.243698002106128 
1901	-0.696724294856704 
1902	-0.596191526600841 
1903	-0.458164091301604 
1904	-0.152555894797641 
1905	-9.55247768268407E-02 
1906	-0.521633981167223 
1907	-0.926416295058223 
1908	-1.81101693080664 
1909	-2.04503392146864 
1910	-1.62348361810671 
1911	-2.41731677830942 
1912	 61.9390568830154 
1913	 0.488571591943521 
1914	-1.27187151149347 
1915	-1.29372338276458 
1916	-1.44504503001912 
1917	-8.10055709742061 
1918	-3.61944559083369 
1919	 1.76940669299138 
1920	 0.628560172152296 
1921	 0.431927342476251 
1922	 0.448368301299088 
1923	 0.631375213676209 
1924	 1.34411509443384 
1925	 5.94495380825388 
1926	-7.80127199531492 
1927	 0.983054925075708 
1928	-0.547429749357947 
1929	-1.7883970860897 
1930	-1.09609530391608 
1931	 1.08542018183448 
1932	 1.05907342680847 
1933	-0.653789439475625 
1934	 10.1901775366123 
1935	-0.649708319932054 
1936	-0.12975509716128 
1937	 0.201543883135819 
1938	-13.3537004319851 
1939	-1.24370420253447 
1940	-1.19961108839756 
1941	-1.08095273586531 
1942	-0.360760830685305 
1943	-1.58342046728786 
1944	-3.09938023287099 
1945	-2.18315651489652 
1946	-12.6478110688989 
1947	 4.82538783704099 
1948	 10.2796320137894 
1949	 3.23670019013276 
1950	 12.7738053189932 
1951	-5265.97642286859 
1952	 31.8827786537521 
1953	 0.427560988344266 
1954	 0.894858990938793 
1955	 1.28213957471571 
1956	-56.1947627370283 
1957	-8.8835486063255 
1958	-1.52714514272781 
1959	-2.39322484263093 
1960	 2.76306592958307 
1961	 1.84833712338004 
1962	 1.00685692796537 
1963	 0.823485624002478 
1964	 1.04111565179341 
1965	 0.788685655742896 
1966	 0.505507522036652 
1967	 7.65243928028193E-02 
1968	-5.15162943333488E-02 
1969	-0.133998612516135 
1970	-6.82472595760015E-02 
1971	 9.03483949245217E-02 
1972	 6.90665977247095E-02 
1973	 2.96237216997667E-02 
1974	 8.07802001159636E-02 
1975	 8.27446922240172E-02 
1976	 0.119925087486356 
1977	 0.140636912957954 
1978	 6.35574299823908E-02 
1979	 4.87225314728322E-02 
1980	 3.54070972932485E-02 
1981	 2.95604921861017E-02 
1982	 3.37497895909828E-02 
1983	 8.34647196344286E-02 
1984	 0.121826085532757 
1985	 0.134935100277899 
1986	 0.125964501454991 
1987	 0.109411235570415 
1988	 7.08734249830082E-02 
1989	 1.62857790104091E-02 
1990	-3.30883456835583E-03 
1991	 4.20153574039078E-02 
1992	 0.114935882243489 
1993	 0.113306867444455 
1994	 0.118617908883202 
1995	 0.125413394308845 
1996	 0.11093857699633 
1997	 3.37360815313079E-02 
1998	 7.76651158738006E-03 
1999	 0.017644049586379 
2000	 1.25098423122158E-02 
2001	 3.06881390005268E-02 
2002	 0.115310315540115 
2003	 0.181870435587169 
2004	 0.159159954447299 
2005	 6.11602749792089E-02 
2006	-0.064011214342833 
2007	-3.61146341105305E-02 
2008	 5.10348760642911E-02 
2009	 5.54890627702074E-02 
2010	 0.075934680298421 
2011	 0.119272121392201 
2012	 0.140114226822431 
2013	 9.21164845616407E-02 
2014	 0.10363453162315 
2015	 9.10094950319796E-02 
2016	 5.42049005470487E-02 
2017	 4.97384084831015E-02 
2018	 0.049394639488329 
2019	 7.66371437414388E-02 
2020	 8.04056470540085E-02 
2021	 5.36985483346553E-02 
2022	 7.50251838536128E-02 
2023	 9.06124649494335E-02 
2024	 8.72049447148908E-02 
2025	 7.83235847887474E-02 
2026	 8.19248543057783E-02 
2027	 8.17581750922134E-02 
2028	 6.96645539019506E-02 
2029	 7.43545364142882E-02 
2030	 6.61859433804403E-02 
2031	 4.97015818059412E-02 
2032	 4.10248722484667E-02 
2033	 2.77263638757478E-02 
2034	 2.69303444983965E-02 
2035	 3.76872685668295E-02 
2036	 3.87143207749251E-02 
2037	 4.13632116812262E-02 
2038	 4.92016140182835E-02 
2039	 5.52886636943716E-02 
2040	 5.81034276698375E-02 
2041	 5.83294587998136E-02 
2042	 6.38051015565527E-02 
2043	 6.05863934438736E-02 
2044	 4.50905969828709E-02 
2045	 2.58201410925265E-02 
2046	 3.18052961176066E-02 
2047	 3.67914189971541E-02 
2048	 2.56587326235712E-02 
2049	 2.64267998980825E-02 
2050	 4.17017296495175E-02 
2051	 5.74304946820931E-02 
2052	 8.22641117720726E-02 
2053	 0.106293171869399 
2054	 9.97507044540967E-02 
2055	 8.15228577036211E-02 
2056	 7.34943346688498E-02 
2057	 7.22671455927463E-02 
2058	 6.38327010334219E-02 
2059	 5.15591426701634E-02 
2060	 0.044346103537634 
2061	 3.10979837210884E-02 
2062	 2.98303322241813E-02 
2063	 3.93754787532287E-02 
2064	 7.21439134274407E-02 
2065	 9.23744055016993E-02 
2066	 7.91824083825345E-02 
2067	 8.04151561919661E-02 
2068	 0.065148705887925 
2069	 5.34802420755407E-02 
2070	 8.44353904955172E-02 
2071	 9.16451239282731E-02 
2072	 9.20060831669979E-02 
2073	 9.29070580937703E-02 
2074	 8.52256025335949E-02 
2075	 7.80107067636418E-02 
2076	 0.072086851880765 
2077	 6.56676697501178E-02 
2078	 5.67695205359021E-02 
2079	 5.21696854958896E-02 
2080	 4.71789402211264E-02 
2081	 5.09708529084466E-02 
2082	 5.14590114799034E-02 
2083	 4.54076052440104E-02 
2084	 5.18043900998566E-02 
2085	 5.45106648279137E-02 
2086	 5.01110623210653E-02 
2087	 5.15451077497597E-02 
2088	 5.32902529861405E-02 
2089	 4.67615877148159E-02 
2090	 3.80893069766735E-02 
2091	 3.97360907651314E-02 
2092	 3.93416159202363E-02 
2093	 3.66784560875527E-02 
2094	 3.29353042835866E-02 
2095	 2.91546607759769E-02 
2096	 2.85079330442172E-02 
2097	 2.65686680210694E-02 
2098	 2.99616978901996E-02 
2099	 4.25039537816083E-02 
2100	 0.045895657739819 
2101	 5.31155497110191E-02 
2102	 4.94236879523098E-02 
2103	 3.95572027733941E-02 
2104	 4.01839427807488E-02 
2105	 3.87603646736154E-02 
2106	 4.06634404753099E-02 
2107	 3.86393897477205E-02 
2108	 3.36326113662613E-02 
2109	 3.62431217805065E-02 
2110	 2.77589043205156E-02 
2111	 2.55532502991531E-02 
2112	 3.61395157747107E-02 
2113	 4.23130204072382E-02 
2114	 5.16653402143465E-02 
2115	 5.55118411112776E-02 
2116	 5.78127494199103E-02 
2117	 5.82947702365744E-02 
2118	 5.18354813892293E-02 
2119	 4.71709120486408E-02 
2120	 4.57204355582866E-02 
2121	 3.76936425058495E-02 
2122	 3.10770728602179E-02 
2123	 2.97674577242528E-02 
2124	 2.82729917067623E-02 
2125	 0.033246745653404 
2126	 4.14630471644158E-02 
2127	 4.12599387426419E-02 
2128	 3.96222600256345E-02 
2129	 4.55353896706167E-02 
2130	 4.48309456684929E-02 
2131	 5.32334612073638E-02 
2132	 6.39451450164917E-02 
2133	 5.81499417291802E-02 
2134	 5.73605489454217E-02 
2135	 5.72914981411649E-02 
2136	 4.99785942002473E-02 
2137	 3.56066440879028E-02 
2138	 3.35718669547219E-02 
2139	 3.04017116283852E-02 
2140	 3.05451121850197E-02 
2141	 4.49835527335945E-02 
2142	 4.76434512806013E-02 
2143	 4.19434121205022E-02 
2144	 4.14815809455398E-02 
2145	 4.32517324358571E-02 
2146	 4.28683151720304E-02 
2147	 4.34874232801682E-02 
2148	 3.83358798301732E-02 
2149	 3.73955227055214E-02 
2150	 3.61759292922133E-02 
2151	 3.33985995040056E-02 
2152	 3.70334196732722E-02 
2153	 3.44550097831102E-02 
2154	 2.59144976735616E-02 
2155	 2.19645964592249E-02 
2156	 2.97747123828312E-02 
2157	 3.51072806140262E-02 
2158	 4.48888876590166E-02 
2159	 4.38452021753634E-02 
2160	 4.02097309613677E-02 
2161	 3.71604806211662E-02 
2162	 0.025280999934548 
2163	 2.12286781461086E-02 
2164	 2.48280033700824E-02 
2165	 2.13860048490219E-02 
2166	 0.013084810925306 
2167	 1.08106180112234E-02 
2168	 9.83394739705899E-03 
2169	 5.83731846072118E-03 
2170	-3.62553959032497E-03 
2171	 6.48076248964967E-03 
2172	 1.00643402204659E-02 
2173	 8.35784100924941E-03 
2174	 1.96951852016765E-02 
2175	 2.02048629960839E-02 
2176	 1.54058296137674E-02 
2177	 3.53585654862644E-02 
2178	 4.48261301504056E-02 
2179	 4.06990090464795E-02 
2180	 5.48072184524757E-02 
2181	 0.052544758341772 
2182	 5.09560936103457E-02 
2183	 5.91636884001954E-02 
2184	 4.29772502416731E-02 
2185	 3.45851232471956E-02 
2186	 3.08475367776502E-02 
2187	 3.32283973850345E-02 
2188	 2.89492468828252E-02 
2189	 2.32561823685207E-02 
2190	 2.03518384908814E-02 
2191	 1.59879543744588E-02 
2192	 1.19540105558341E-02 
2193	 1.08003107071455E-02 
2194	 1.18944973983145E-02 
2195	 1.73987134872908E-02 
2196	 1.21152793543558E-02 
2197	-9.88595398593094E-04 
2198	 2.7676575957255E-03 
2199	 1.24940945798346E-02 
2200	 2.96976574568228E-03 
2201	 2.59946925410147E-02 
2202	 4.12632049373072E-02 
2203	 2.34709362950732E-02 
2204	 2.10731214402459E-02 
2205	 1.56871448361071E-02 
2206	 1.36665311640669E-02 
2207	 3.92694695421371E-02 
2208	 5.18044345535386E-02 
2209	 6.31210333760591E-02 
2210	 6.72055811635141E-02 
2211	 4.60814302320696E-02 
2212	 3.06254074459797E-02 
2213	 1.32717549132637E-02 
2214	 8.15080951974314E-03 
2215	 7.40406966837976E-03 
2216	 0.012309201210407 
2217	 1.81685876588641E-02 
2218	 2.19916629830923E-02 
2219	 0.025309716162856 
2220	 3.47240020570091E-02 
2221	 4.38364162720311E-02 
2222	 6.17264651975239E-02 
2223	 0.064238292054001 
2224	 5.84769081669931E-02 
2225	 0.052386252839288 
2226	 2.72816708942716E-02 
2227	 2.26445116414642E-02 
2228	 2.94852507652043E-02 
2229	 3.38571036393789E-02 
2230	 0.048521867548692 
2231	 5.67281911027187E-02 
2232	 6.52428731310716E-02 
2233	 6.92323201960064E-02 
2234	 6.93159616863323E-02 
2235	 6.86396170016712E-02 
2236	 0.050497212493047 
2237	 4.18863488302077E-02 
2238	 0.058404803581752 
2239	 4.12913549026298E-02 
2240	 3.59378267716951E-02 
2241	 5.73229469667964E-02 
2242	 0.027317955639395 
2243	 5.04171958760682E-03 
2244	 1.30349309062145E-02 
2245	 5.88537744516298E-04 
2246	 1.86135323058644E-04 
2247	 3.05879014877968E-02 
2248	 4.91675934823278E-02 
2249	 4.56920105390147E-02 
2250	 0.050046110477652 
2251	 4.28519215662035E-02 
2252	 2.91701214603723E-02 
2253	 2.52990964297522E-02 
2254	 0.012067975962598 
2255	 5.39364623161716E-03 
2256	 1.94019014815974E-03 
2257	 3.37665883073401E-03 
2258	 1.08464190498784E-02 
2259	 5.76547456049457E-03 
2260	 1.17826103117495E-02 
2261	 3.16943600631792E-02 
2262	 3.50971593498486E-02 
2263	 3.06547209434044E-02 
2264	 3.30540872081262E-02 
2265	 2.00967343430283E-02 
2266	 2.53571162275083E-02 
2267	 5.42128104309083E-02 
2268	 6.36393117990847E-02 
2269	 8.24766478190364E-02 
2270	 7.71929730081493E-02 
2271	 3.80429388419466E-02 
2272	 2.77483273591696E-02 
2273	 5.58916233428595E-03 
2274	-4.19137789383054E-04 
2275	 3.85057186939598E-02 
2276	 4.01909320079179E-02 
2277	 3.15888009468269E-02 
2278	 1.73804686595097E-02 
2279	-3.79743652876074E-02 
2280	-5.50551694714115E-02 
2281	-6.88477774123081E-02 
2282	-3.72743191391254E-02 
2283	-4.10522166534217E-03 
2284	 1.51079582423208E-02 
2285	 3.89734739859046E-02 
2286	 5.40347485615242E-02 
2287	 5.61603757577691E-02 
2288	 5.11935157006563E-02 
2289	 3.01842736406165E-02 
2290	-1.98216750062081E-02 
2291	-4.77042496913273E-02 
2292	-0.034163615874613 
2293	-2.86054008790165E-02 
2294	-1.94777974003663E-02 
2295	 1.16569545243128E-02 
2296	 3.17461583679683E-02 
2297	 6.19211122495475E-02 
2298	 9.76258132374529E-02 
2299	 0.11119582532596 
2300	 0.100764996793488 
2301	 7.07534037031673E-02 
2302	 3.89821481062695E-02 
2303	 7.85326236549208E-04 
2304	 2.77147024581867E-03 
2305	 5.85775902508387E-03 
2306	 0.018096260545084 
2307	 7.01082386332293E-02 
2308	 0.099418926115925 
2309	 0.131988025465244 
2310	 0.179699225427868 
2311	 0.211842273793041 
2312	 0.183326063222304 
2313	 0.150462388769276 
2314	 0.113129217033601 
2315	 4.85795725287237E-02 
2316	 1.21934051399096E-02 
2317	 5.94156644224539E-03 
2318	 1.62728999490757E-02 
2319	-5.04330207238713E-03 
2320	-9.59054553253962E-03 
2321	 3.14308766480988E-02 
2322	-9.25172200289839E-03 
2323	 7.65936807667819E-03 
2324	 0.11964827706351 
2325	 0.146080076848851 
2326	 0.184553788479314 
2327	 0.219487846889791 
2328	 0.141325676316742 
2329	 8.28746619018849E-02 
2330	 5.68641671165199E-02 
2331	 0.050637909898694 
2332	 8.51381286460944E-02 
2333	 0.10537410529096 
2334	 0.118709712626004 
2335	 0.152739440091817 
2336	 0.17057982643476 
2337	 0.108680745753482 
2338	 9.59725864184517E-03 
2339	-0.144200733547691 
2340	-0.146300425416693 
2341	-0.038093316366339 
2342	 4.63535384695602E-02 
2343	 0.179590383606103 
2344	 0.101510093061976 
2345	-0.029464493704071 
2346	-1.65936745307077E-02 
2347	 1.31970451185487E-02 
2348	 2.21051506538141E-02 
2349	 0.191247086634022 
2350	 0.308554192574421 
2351	 0.254681221383717 
2352	 0.374870855614526 
2353	 0.299286109505964 
2354	 0.343277983937864 
2355	 0.559103677801747 
2356	 0.42400904148741 
2357	 0.229541030952886 
2358	 0.132376544288797 
2359	 7.24220639445378E-02 
2360	 0.048775878430287 
2361	 0.164851811542556 
2362	 0.284054213920372 
2363	 0.151919977040991 
2364	 0.140491897961317 
2365	 0.136556718624103 
2366	-8.15186945497615E-03 
2367	-0.08224103038449 
2368	-0.212398578875681 
2369	-0.160082964293407 
2370	 9.45805056149899E-03 
2371	 0.171971450405352 
2372	 0.362614591887453 
2373	 0.421281075972157 
2374	 0.366187047258715 
2375	 0.115087268614234 
2376	-0.882754011808873 
2377	-1.54124602851946 
2378	-1.03157888069936 
2379	-0.307392526342246 
2380	 0.142422078576342 
2381	 0.609889766005015 
2382	 0.609210143922631 
2383	 0.357384079156442 
2384	-0.310458465391704 
2385	-0.34337119634318 
2386	-0.201480941023245 
2387	-4.10577800460582E-02 
2388	 0.250015990945408 
2389	 0.495712402220506 
2390	 0.584642395640454 
2391	 0.508906058624434 
2392	-9.44104751840456E-02 
2393	-9.96028810335392E-02 
2394	-8.73763939916527E-02 
2395	-0.156211758644793 
2396	 0.172697464312959 
2397	 1.96219105178339E-03 
2398	-0.32865740450931 
2399	-0.347474806088144 
2400	 6.54221068820883E-02 
2401	 9.44957876208926E-02 
2402	-0.605080637680187 
2403	-0.208961116328935 
2404	-0.163260582264186 
2405	-0.209301361704423 
2406	-1.09693699436395E-02 
2407	-0.148776416675456 
2408	-0.362713134691037 
2409	 2.79552080148519 
2410	-0.452549330871858 
2411	-1.7276241283732 
2412	-2.12704500775055 
2413	 2.40359166261977 
2414	 0.917031076894413 
2415	 1.06816838894675 
2416	 1.04731896853432 
2417	 1.42289259049318 
2418	 2.84391093464212 
2419	 2.92175219173413 
2420	-4.57591997452354 
2421	-1.50164400808299 
2422	 2.39656904803356 
2423	 0.341750620743125 
2424	 0.432392232883017 
2425	 2.64316287701016 
2426	-1.66410718175407 
2427	-0.607949181968027 
2428	-0.680989128011012 
2429	-0.593743720499325 
2430	-0.745313016538075 
2431	-1.64004621338356 
2432	-0.866749350155814 
2433	-0.657732929739112 
2434	-0.464907385073279 
2435	-0.371925190679756 
2436	-0.256480184840326 
2437	-9.74320927889707E-02 
2438	 0.513435066655638 
2439	 1.05934945369129 
2440	 1.23140058518942 
2441	 0.858829118737491 
2442	 0.753588761341996 
2443	 0.976369253759778 
2444	 0.825588333164097 
2445	 0.633742377618424 
2446	 0.51914542373889 
2447	 0.612110802901469 
2448	 0.913857537477372 
2449	 0.806127967840499 
2450	 1.06831597072329 
2451	 1.1624396987613 
2452	 2.05358458085897 
2453	 4.8820421984076 
2454	 1.81087594419413 
2455	 0.352657991748886 
2456	-0.213843646623168 
2457	-6.35275083728566E-02 
2458	-0.802532786392409 
2459	-1.07295484880129 
2460	-2.20123882562634 
2461	 0.655103462077675 
2462	-0.611938582866769 
2463	-0.57013271438425 
2464	-0.529429623651352 
2465	-0.473624888077519 
2466	-0.598674988457759 
2467	-0.404575791278289 
2468	-0.222349758005598 
2469	-0.41096130463395 
2470	-0.323734654466716 
2471	-0.212256652892072 
2472	-7.65219659152381E-02 
2473	-3.13919064812119E-02 
2474	-0.440060089902101 
2475	-0.673892619750923 
2476	 3.73283978444017 
2477	-9.59991050084294E-02 
2478	-0.59246157276489 
2479	-0.898599553052131 
2480	-0.458335438465187 
2481	 0.390290999516842 
2482	 0.525555916422775 
2483	 1.57141017647823 
2484	 6.72549708864756 
2485	-1.60738342583315 
2486	-0.793542169485582 
2487	-1.0990763902147 
2488	-0.770899796869337 
2489	-0.648529002748854 
2490	-1.64447373870822 
2491	-0.899692396793681 
2492	-1.1741497623013 
2493	-1.57535350567367 
2494	 1.12783547501013 
2495	-3.01006641361992 
2496	-3.68048581135193 
2497	 13.4713498114558 
2498	 0.907808850117033 
2499	-3.6069358258825 
2500	-1.94335339194271 
