Wavelength	rt0727close00002.asd
350	 0.053539406256911 
351	 5.35905381492915E-02 
352	 5.33683945529593E-02 
353	 5.35347021014094E-02 
354	 5.41324504655703E-02 
355	 5.37833170444608E-02 
356	 5.38185485382852E-02 
357	 5.37753740352172E-02 
358	 5.31584958546578E-02 
359	 5.38406787575975E-02 
360	 5.39937588640495E-02 
361	 5.36000330832421E-02 
362	 5.38748044094757E-02 
363	 0.054363871714086 
364	 5.47683437093393E-02 
365	 5.48472215362134E-02 
366	 5.44054014957491E-02 
367	 5.43402172520249E-02 
368	 5.44256203607491E-02 
369	 5.43726109315235E-02 
370	 0.054934479534983 
371	 5.48170367780413E-02 
372	 5.42289530498249E-02 
373	 5.42638806601334E-02 
374	 5.50739618192437E-02 
375	 5.55546622262945E-02 
376	 0.055370289318716 
377	 5.54148256371762E-02 
378	 5.56125615348358E-02 
379	 5.56436033061863E-02 
380	 5.54432885926785E-02 
381	 5.59248854704538E-02 
382	 5.67944591433937E-02 
383	 5.70002475373563E-02 
384	 5.57216521540832E-02 
385	 5.61875597143899E-02 
386	 5.65093598120784E-02 
387	 5.61335965534846E-02 
388	 5.64395581020143E-02 
389	 5.72121708014575E-02 
390	 5.76622611746181E-02 
391	 5.74722497665087E-02 
392	 5.76516464243175E-02 
393	 5.82362873996132E-02 
394	 5.86497878475815E-02 
395	 5.83602577671875E-02 
396	 5.82615502738911E-02 
397	 5.85470079062973E-02 
398	 5.88624012832249E-02 
399	 5.85187839717389E-02 
400	 5.85447595251701E-02 
401	 5.89180002512367E-02 
402	 5.93662877227966E-02 
403	 0.059483974169301 
404	 5.94269160986764E-02 
405	 5.94765083965671E-02 
406	 5.98302060290784E-02 
407	 5.99049194800838E-02 
408	 6.00388317434456E-02 
409	 6.02612255112588E-02 
410	 6.02661812140104E-02 
411	 6.04305700859035E-02 
412	 6.05720484591579E-02 
413	 6.05553441822514E-02 
414	 6.05664231106375E-02 
415	 6.08397232873267E-02 
416	 6.12520129538912E-02 
417	 6.15180829171552E-02 
418	 6.13864244671342E-02 
419	 6.15647447844694E-02 
420	 6.20690959584696E-02 
421	 6.21325818917245E-02 
422	 6.21576636582699E-02 
423	 0.062468445136444 
424	 6.30594268977308E-02 
425	 6.30356575531334E-02 
426	 6.32571558820475E-02 
427	 6.37071851442497E-02 
428	 6.39669390597578E-02 
429	 6.40776903711274E-02 
430	 6.43105479109415E-02 
431	 6.47193554214591E-02 
432	 6.50797620431765E-02 
433	 6.54166876531974E-02 
434	 6.56911550270453E-02 
435	 6.59116647684169E-02 
436	 6.62337071532137E-02 
437	 6.66789268138734E-02 
438	 6.71786435506345E-02 
439	 0.067604447696827 
440	 6.78289792400519E-02 
441	 6.79999750742326E-02 
442	 6.82842646090847E-02 
443	 6.88361015762531E-02 
444	 0.069245887124623 
445	 0.069519497295158 
446	 6.97769529418777E-02 
447	 7.00706648083487E-02 
448	 7.03745537154453E-02 
449	 7.05639806498287E-02 
450	 7.05068300608024E-02 
451	 7.08782622759369E-02 
452	 7.12964107558954E-02 
453	 7.14760392905267E-02 
454	 7.16472012091788E-02 
455	 7.18288824715605E-02 
456	 7.19557344269352E-02 
457	 7.19821125397309E-02 
458	 0.072157390685664 
459	 7.24278804171583E-02 
460	 7.26929077966993E-02 
461	 7.28245534181868E-02 
462	 7.27924794002712E-02 
463	 7.28609606203765E-02 
464	 7.31672446192961E-02 
465	 7.33396707582109E-02 
466	 7.35824826814427E-02 
467	 7.38169258286067E-02 
468	 7.38755265127909E-02 
469	 7.39836016370594E-02 
470	 7.41421155728634E-02 
471	 7.43584799701604E-02 
472	 7.46787465820027E-02 
473	 7.48603039403248E-02 
474	 7.50536510899676E-02 
475	 7.53765593420602E-02 
476	 7.54077025323906E-02 
477	 7.56092751217629E-02 
478	 7.59796623989202E-02 
479	 7.62143174828724E-02 
480	 7.65351972208646E-02 
481	 7.67462720911208E-02 
482	 0.076807614746014 
483	 7.70909953207062E-02 
484	 7.75248397457449E-02 
485	 7.78654544778337E-02 
486	 0.077935383298618 
487	 7.83102863892645E-02 
488	 0.078670678376458 
489	 7.89365126281074E-02 
490	 7.93001858627989E-02 
491	 7.96150357740107E-02 
492	 8.00037724554002E-02 
493	 8.05363796977351E-02 
494	 8.10322143476865E-02 
495	 8.13701001558154E-02 
496	 8.17167746835467E-02 
497	 0.082332489563397 
498	 8.28657101145001E-02 
499	 8.32470559096058E-02 
500	 8.35925636616659E-02 
501	 8.42534990570793E-02 
502	 8.48421872484819E-02 
503	 8.53998248142947E-02 
504	 8.60292644682402E-02 
505	 8.65399473855613E-02 
506	 8.70701895274868E-02 
507	 8.77030731758912E-02 
508	 8.84383979893764E-02 
509	 8.88219978177665E-02 
510	 8.92354540292821E-02 
511	 0.089960339224192 
512	 9.07714582710705E-02 
513	 9.14707326699963E-02 
514	 9.20431774305615E-02 
515	 9.26092593576281E-02 
516	 9.35298169631512E-02 
517	 9.43212640887513E-02 
518	 9.48337562137921E-02 
519	 0.095421499627886 
520	 9.62640912181909E-02 
521	 9.70944364653386E-02 
522	 9.77063107016961E-02 
523	 9.84663758320136E-02 
524	 9.92896153228538E-02 
525	 0.100103672451742 
526	 0.100860222059237 
527	 0.101655183033156 
528	 0.102497785930107 
529	 0.103316425651454 
530	 0.103879883305113 
531	 0.104640600322283 
532	 0.105552875319847 
533	 0.106406151503448 
534	 0.107276141676967 
535	 0.108120039219127 
536	 0.108961240224882 
537	 0.109895284997985 
538	 0.110760525256122 
539	 0.111619064054117 
540	 0.112551933903248 
541	 0.113528508171356 
542	 0.114484324081143 
543	 0.115367731195433 
544	 0.116172549912729 
545	 0.117192726303987 
546	 0.118207641750517 
547	 0.119106825929846 
548	 0.120130097094465 
549	 0.121082510211066 
550	 0.121965474150057 
551	 0.122842876141952 
552	 0.123693445223662 
553	 0.124607805789371 
554	 0.125587279788674 
555	 0.126521522667426 
556	 0.127313034852353 
557	 0.128177909768174 
558	 0.129238395655994 
559	 0.130077787512326 
560	 0.13099186189641 
561	 0.131887107721947 
562	 0.132488592507802 
563	 0.133298109080694 
564	 0.134025069506363 
565	 0.134548033544689 
566	 0.135294235145758 
567	 0.135847209630374 
568	 0.136313901933329 
569	 0.136929974681987 
570	 0.13748489250465 
571	 0.137970380863856 
572	 0.138431046382895 
573	 0.138946807607302 
574	 0.139354687904939 
575	 0.139617342053635 
576	 0.139818421119492 
577	 0.140341954405379 
578	 0.140708128699359 
579	 0.140907458941893 
580	 0.141209142929325 
581	 0.141479668643682 
582	 0.141787787676005 
583	 0.142141728389534 
584	 0.142400998593029 
585	 0.14257880809944 
586	 0.142731739726468 
587	 0.142923295645982 
588	 0.143091177310833 
589	 0.143228887261133 
590	 0.143383582872948 
591	 0.143653943588794 
592	 0.143852908573977 
593	 0.143807529528364 
594	 0.14356476212701 
595	 0.143853484380677 
596	 0.143778199115418 
597	 0.143514473680915 
598	 0.143710484560706 
599	 0.143424040411627 
600	 0.143179717380356 
601	 0.143248901440706 
602	 0.14319585734959 
603	 0.143173929648288 
604	 0.143142479647976 
605	 0.143048058996138 
606	 0.143042535968436 
607	 0.143112503479837 
608	 0.143106891980777 
609	 0.142773644413559 
610	 0.142844192039111 
611	 0.142935641214483 
612	 0.142700808092409 
613	 0.142625636573704 
614	 0.142530386625405 
615	 0.142452050575385 
616	 0.142486807493086 
617	 0.142137923799312 
618	 0.14204085240096 
619	 0.142305991365622 
620	 0.142002596472343 
621	 0.141868523051006 
622	 0.141973479403244 
623	 0.142128051158579 
624	 0.141981857048679 
625	 0.14196490605014 
626	 0.142072006907267 
627	 0.141877184129808 
628	 0.141903516521622 
629	 0.142021987682159 
630	 0.142013681052667 
631	 0.141723125576348 
632	 0.14172579295258 
633	 0.141890828865823 
634	 0.141805750489657 
635	 0.141822099775233 
636	 0.14184536013521 
637	 0.141879458331923 
638	 0.142133264158375 
639	 0.142230138389787 
640	 0.142178816213027 
641	 0.142106629831318 
642	 0.142069961826356 
643	 0.142203704548159 
644	 0.142324725022718 
645	 0.142031650231821 
646	 0.142199745657132 
647	 0.142281113010063 
648	 0.141917677899948 
649	 0.141894018228063 
650	 0.141552467899308 
651	 0.141101921923233 
652	 0.14096414211865 
653	 0.14054697384038 
654	 0.1400002978763 
655	 0.139398242260023 
656	 0.138731070859769 
657	 0.138030428434097 
658	 0.137196457105507 
659	 0.136239924250622 
660	 0.135708816775774 
661	 0.134998061155793 
662	 0.134051214266269 
663	 0.133175668459955 
664	 0.132403785679798 
665	 0.131857785833662 
666	 0.131465897499736 
667	 0.130817505212954 
668	 0.130275614808109 
669	 0.129905700617876 
670	 0.129683099679549 
671	 0.129619945638082 
672	 0.12975003749176 
673	 0.129960489868444 
674	 0.130027327603732 
675	 0.130210822643796 
676	 0.130690501285373 
677	 0.131428737580486 
678	 0.131890649278525 
679	 0.132408472403571 
680	 0.133131273527565 
681	 0.134097939642634 
682	 0.135176100368175 
683	 0.136253699078297 
684	 0.137309971731715 
685	 0.138561498268024 
686	 0.139770969225817 
687	 0.141146884295068 
688	 0.14273392972312 
689	 0.143980156660319 
690	 0.14495344930511 
691	 0.145965304840673 
692	 0.147418295952218 
693	 0.14854118942926 
694	 0.149073711129538 
695	 0.149287728732329 
696	 0.150009649629927 
697	 0.150600941266171 
698	 0.150996620781245 
699	 0.151238021025163 
700	 0.151501461320787 
701	 0.151594873076206 
702	 0.151472348977858 
703	 0.151232089651517 
704	 0.151201492539549 
705	 0.151119149524266 
706	 0.150817329591435 
707	 0.150524222451278 
708	 0.150083233951691 
709	 0.149579353918112 
710	 0.149133963626482 
711	 0.148571853617425 
712	 0.147727920045947 
713	 0.146751058798772 
714	 0.146101896255993 
715	 0.145749042626779 
716	 0.14529782144121 
717	 0.144272720658623 
718	 0.142864507388833 
719	 0.14130323014625 
720	 0.140030693577138 
721	 0.138922783932066 
722	 0.137996667406022 
723	 0.136856789112886 
724	 0.135609296816194 
725	 0.134590978494524 
726	 0.133272954380019 
727	 0.131375740009534 
728	 0.128982677936603 
729	 0.127048527490841 
730	 0.124578360974177 
731	 0.122229209831478 
732	 0.120704875892052 
733	 0.118971503739076 
734	 0.117451036138888 
735	 0.116308483657529 
736	 0.115244004403709 
737	 0.11421692002739 
738	 0.113340627736012 
739	 0.112788174841785 
740	 0.112803449502043 
741	 0.112510315769599 
742	 0.11215075951429 
743	 0.11237266040191 
744	 0.112144126639853 
745	 0.112064938685543 
746	 0.112313024748856 
747	 0.11230443684275 
748	 0.112212992875734 
749	 0.112147527959289 
750	 0.112182402862275 
751	 0.112298811122351 
752	 0.112468051560173 
753	 0.112550619924342 
754	 0.112405411289754 
755	 0.112332835409613 
756	 0.112431043309896 
757	 0.112615814304755 
758	 0.112539195847047 
759	 0.112793814254841 
760	 0.113446109500697 
761	 0.113697391336998 
762	 0.114082198379215 
763	 0.114114399426906 
764	 0.113885296464451 
765	 0.113688935310281 
766	 0.113743633344208 
767	 0.113813114003722 
768	 0.11391004418633 
769	 0.114253559582501 
770	 0.114494520409819 
771	 0.114651968986697 
772	 0.114801069761235 
773	 0.11492989050147 
774	 0.115238718480133 
775	 0.115626125818418 
776	 0.115887654928111 
777	 0.116055906448272 
778	 0.11651016111931 
779	 0.117076223210284 
780	 0.117073507642079 
781	 0.117476078419727 
782	 0.117887602836702 
783	 0.11802911849719 
784	 0.118479848228479 
785	 0.118882817572039 
786	 0.119160458081455 
787	 0.11941981756627 
788	 0.120200407021712 
789	 0.120753142273485 
790	 0.12099210662692 
791	 0.121404919759191 
792	 0.121513535165692 
793	 0.12186380314864 
794	 0.122540874075731 
795	 0.122642433401617 
796	 0.122926813617462 
797	 0.123290861542861 
798	 0.123529604168458 
799	 0.123907987683367 
800	 0.124169504051364 
801	 0.124382676049751 
802	 0.124733150983817 
803	 0.124737856955944 
804	 0.124692685517415 
805	 0.124766579192468 
806	 0.12491034593676 
807	 0.124907769439239 
808	 0.12492041800297 
809	 0.124962401140747 
810	 0.12436526335608 
811	 0.124097927793014 
812	 0.12411549265712 
813	 0.123897519908356 
814	 0.123419308184111 
815	 0.122738304046442 
816	 0.122176774506157 
817	 0.121974940110761 
818	 0.120606826292557 
819	 0.119865335243905 
820	 0.119903536263426 
821	 0.118827328846746 
822	 0.117730245569459 
823	 0.116334357849303 
824	 0.114504537639407 
825	 0.112759235750977 
826	 0.11122349429047 
827	 0.109281773436118 
828	 0.106592723727208 
829	 0.105245616683643 
830	 0.103596219460592 
831	 0.101396361570229 
832	 9.96136958276636E-02 
833	 9.85495323462337E-02 
834	 9.74146877788627E-02 
835	 9.62596707722466E-02 
836	 9.62949099260687E-02 
837	 9.57858910096309E-02 
838	 0.094995869034625 
839	 9.43475833182435E-02 
840	 9.34709741737477E-02 
841	 9.31664155740796E-02 
842	 9.30920652295107E-02 
843	 9.26375414499983E-02 
844	 9.20872980860719E-02 
845	 9.13729678363173E-02 
846	 9.07986252362778E-02 
847	 9.07888942337086E-02 
848	 9.04937818892506E-02 
849	 9.00388742985843E-02 
850	 8.97051697103428E-02 
851	 0.089748121072206 
852	 0.088868504076623 
853	 0.088135869339763 
854	 8.82590279398562E-02 
855	 8.81062748258908E-02 
856	 8.77378754870282E-02 
857	 8.74037379683592E-02 
858	 8.72235369066622E-02 
859	 8.65970081297705E-02 
860	 0.086064868192062 
861	 8.56825425846894E-02 
862	 8.52718519231325E-02 
863	 8.49091100530716E-02 
864	 8.50657609024703E-02 
865	 8.53155614166973E-02 
866	 8.45616810295625E-02 
867	 8.36547596193158E-02 
868	 0.083484529580627 
869	 0.083720876541663 
870	 8.26008473074959E-02 
871	 0.081994982378272 
872	 8.19197220095196E-02 
873	 8.18539041242482E-02 
874	 0.081013960628987 
875	 8.05330981730776E-02 
876	 8.00891728602835E-02 
877	 7.92708997126105E-02 
878	 7.91423283548301E-02 
879	 7.87230613520664E-02 
880	 7.77759035510129E-02 
881	 7.66565308886298E-02 
882	 0.076497577679759 
883	 0.076550168499909 
884	 0.076125628500924 
885	 7.49595621935674E-02 
886	 0.074987475471245 
887	 7.46788011466789E-02 
888	 7.36521845453186E-02 
889	 7.32333370046799E-02 
890	 7.27813239967928E-02 
891	 7.29077935206063E-02 
892	 7.34231482378778E-02 
893	 7.20745151599086E-02 
894	 7.14599918747912E-02 
895	 7.10681081018681E-02 
896	 7.01780506597146E-02 
897	 7.11536889587471E-02 
898	 7.12297074835281E-02 
899	 0.069705236833817 
900	 6.76785486658545E-02 
901	 0.06817350879317 
902	 6.84239672754706E-02 
903	 6.77866909346093E-02 
904	 6.65916599297428E-02 
905	 0.065293433845067 
906	 6.49810987614399E-02 
907	 0.065266218547533 
908	 6.47929651071333E-02 
909	 6.53268171972441E-02 
910	 6.48936186108619E-02 
911	 6.35940570026751E-02 
912	 6.35063576265309E-02 
913	 6.32912760202335E-02 
914	 6.19491787936144E-02 
915	 5.95651640908985E-02 
916	 0.057380878068125 
917	 5.57550010568693E-02 
918	 5.49631996408906E-02 
919	 5.45970968024874E-02 
920	 5.36126952992973E-02 
921	 5.44790724429621E-02 
922	 5.35508744825084E-02 
923	 4.94800514026864E-02 
924	 4.85659348993838E-02 
925	 4.91830981485897E-02 
926	 4.98835721350859E-02 
927	 4.94163458003656E-02 
928	 0.048472772976066 
929	 0.048240860508303 
930	 4.59397071596074E-02 
931	 3.85654830752659E-02 
932	 5.08990308388353E-02 
933	 5.06831645934816E-02 
934	 3.20320369008298E-02 
935	 1.91255609018195E-02 
936	 3.12646547340876E-02 
937	 3.33788390069979E-02 
938	 2.53118770508792E-02 
939	 1.89232662863103E-02 
940	 2.69199708464432E-02 
941	 2.21498835542446E-02 
942	 1.50287229564867E-02 
943	 2.86587975185582E-02 
944	 3.15439422895391E-02 
945	 2.46129689773543E-02 
946	 1.87374484419214E-02 
947	 2.31804064847812E-02 
948	 1.81048528246655E-02 
949	 1.40162651340542E-02 
950	 2.11083604582435E-02 
951	 3.92605248729113E-02 
952	 2.65546857193782E-02 
953	 1.25350050676726E-02 
954	 1.75965886328483E-02 
955	 3.99820548878233E-02 
956	 2.17634633967815E-02 
957	 1.28974497347423E-02 
958	 2.14781246109691E-02 
959	 2.49299674379918E-02 
960	 0.026635958421492 
961	 2.66384880311337E-02 
962	 2.64139432214749E-02 
963	 2.73935778444719E-02 
964	 2.60005674621165E-02 
965	 0.024694738048723 
966	 0.023656998857618 
967	 2.19420843782977E-02 
968	 2.38645257284829E-02 
969	 0.024559212998577 
970	 2.22340808709577E-02 
971	 1.91182375151676E-02 
972	 2.34472737598791E-02 
973	 2.60730804473624E-02 
974	 2.68039250009257E-02 
975	 0.033484604516982 
976	 0.029863268863679 
977	 2.73796309588755E-02 
978	 0.028288502174457 
979	 2.53563411293396E-02 
980	 2.22401751080804E-02 
981	 2.33302420110104E-02 
982	 2.69603485278127E-02 
983	 2.76933753291092E-02 
984	 2.70007829094019E-02 
985	 2.38525336481159E-02 
986	 2.03914061289726E-02 
987	 2.07084130473041E-02 
988	 2.55045155625587E-02 
989	 2.88701167723679E-02 
990	 2.87868400002697E-02 
991	 2.70652624587441E-02 
992	 2.68608234468547E-02 
993	 2.55061664273211E-02 
994	 2.26694862612159E-02 
995	 2.08030703220938E-02 
996	 2.57649361006827E-02 
997	 2.94511803555126E-02 
998	 2.74397609799605E-02 
999	 0.021097706389666 
1000	 2.33774438072289E-02 
1001	 3.06521961835975E-02 
1002	 2.94297907851062E-02 
1003	 2.86368380758697E-02 
1004	 2.81159277534643E-02 
1005	 2.73199195590919E-02 
1006	 2.58493511388421E-02 
1007	 2.58709155181054E-02 
1008	 2.58291980219575E-02 
1009	 2.58107803585525E-02 
1010	 2.60518511068131E-02 
1011	 0.027170113765588 
1012	 2.92213421972612E-02 
1013	 2.91627524500578E-02 
1014	 2.96408729116417E-02 
1015	 3.03069198772556E-02 
1016	 3.07547704381297E-02 
1017	 3.14238854028788E-02 
1018	 3.11673386479851E-02 
1019	 2.98998581280742E-02 
1020	 2.96692682700169E-02 
1021	 2.95344444773134E-02 
1022	 0.028547404813462 
1023	 2.76215032163804E-02 
1024	 2.76059056852777E-02 
1025	 2.70738690793995E-02 
1026	 2.65995530458403E-02 
1027	 2.74119173423343E-02 
1028	 3.04623985812012E-02 
1029	 3.14325322444836E-02 
1030	 0.032342192186507 
1031	 3.23677435514146E-02 
1032	 0.030785079568204 
1033	 3.07763554339355E-02 
1034	 3.12592150611921E-02 
1035	 3.11684217160523E-02 
1036	 3.09930233923535E-02 
1037	 3.14267908003375E-02 
1038	 3.16119431990332E-02 
1039	 0.032288118568132 
1040	 3.25286436955666E-02 
1041	 3.40746818916613E-02 
1042	 3.49102778477369E-02 
1043	 3.53581089778547E-02 
1044	 3.51701995742168E-02 
1045	 0.034427069556773 
1046	 3.50061032938777E-02 
1047	 3.52414563556444E-02 
1048	 3.59461078866014E-02 
1049	 3.94074267334639E-02 
1050	 0.039836473322473 
1051	 3.74496928641376E-02 
1052	 3.70362833433392E-02 
1053	 3.56747880349087E-02 
1054	 3.56881152077869E-02 
1055	 3.85884081431728E-02 
1056	 3.97382213354599E-02 
1057	 0.040453042058619 
1058	 4.11196684640999E-02 
1059	 4.10899486071731E-02 
1060	 3.96804933689944E-02 
1061	 3.93034304385228E-02 
1062	 3.90380436225476E-02 
1063	 3.88668039947586E-02 
1064	 3.87900681700777E-02 
1065	 3.89573308737112E-02 
1066	 0.039219815828523 
1067	 3.96953274429851E-02 
1068	 4.10143096433837E-02 
1069	 4.15187260198251E-02 
1070	 4.15054536506798E-02 
1071	 4.17102508189486E-02 
1072	 4.15472047361349E-02 
1073	 4.14815364065994E-02 
1074	 4.15460946888601E-02 
1075	 0.042128166070533 
1076	 4.22304720106429E-02 
1077	 4.21540806817014E-02 
1078	 4.16986384905712E-02 
1079	 4.09016858219795E-02 
1080	 4.01676703172757E-02 
1081	 3.87047138044397E-02 
1082	 3.83750383652093E-02 
1083	 3.90399752128535E-02 
1084	 3.88817469048549E-02 
1085	 3.93312502024165E-02 
1086	 3.88687468115823E-02 
1087	 3.64732505671415E-02 
1088	 3.54949713504266E-02 
1089	 3.47823904284595E-02 
1090	 3.41804260220057E-02 
1091	 3.49410612466528E-02 
1092	 3.78290397741299E-02 
1093	 3.83662547452903E-02 
1094	 3.90749447845976E-02 
1095	 3.91576013332623E-02 
1096	 3.70905486667893E-02 
1097	 3.66187491759744E-02 
1098	 3.73455767539575E-02 
1099	 3.67384896076696E-02 
1100	 3.52684609346366E-02 
1101	 3.49389217020995E-02 
1102	 3.42260546865078E-02 
1103	 3.38611881143687E-02 
1104	 3.52340039393182E-02 
1105	 3.59393431100711E-02 
1106	 3.35277812903605E-02 
1107	 3.39793938717711E-02 
1108	 3.48549905565677E-02 
1109	 0.033536755270937 
1110	 3.45634322666006E-02 
1111	 4.05073933858125E-02 
1112	 4.04987282106854E-02 
1113	 3.39444956088182E-02 
1114	 3.36095118860324E-02 
1115	 3.36524313620623E-02 
1116	 3.24132975786971E-02 
1117	 4.26053493701739E-02 
1118	 4.81646648476113E-02 
1119	 3.13950076546489E-02 
1120	 3.26488757927719E-02 
1121	 6.64100080829545E-02 
1122	 0.081682081387857 
1123	 8.47561538475887E-02 
1124	 0.109451803134544 
1125	 5.68863874648151E-02 
1126	 3.98364126574335E-02 
1127	 9.61765480178438E-02 
1128	 8.67767989078321E-02 
1129	 8.21411101257678E-02 
1130	 8.27294672622884E-02 
1131	 8.35851339113514E-02 
1132	 7.22021266512749E-02 
1133	 6.39108384954276E-02 
1134	 0.058825339831256 
1135	 4.38731649754758E-02 
1136	 1.61246385779198E-02 
1137	 0.016447210156098 
1138	 2.84684115714721E-02 
1139	 3.31366926451581E-02 
1140	 5.61569895227323E-02 
1141	 6.09259742322179E-02 
1142	 5.33750367534965E-02 
1143	 6.32130370413206E-02 
1144	 4.37215399734432E-02 
1145	 0.026842914841842 
1146	 3.66078491325191E-02 
1147	 2.43837221844302E-02 
1148	 5.00209039726199E-03 
1149	-1.31253258077848E-03 
1150	 3.73783635996164E-03 
1151	 5.84969296474051E-03 
1152	 9.06859812087387E-03 
1153	 2.82549570068346E-02 
1154	 3.31229110837699E-02 
1155	 2.89179925649028E-02 
1156	 2.54178324348146E-02 
1157	 2.83407526104596E-02 
1158	 2.86372512716645E-02 
1159	 2.62793497100034E-02 
1160	 2.52931823028452E-02 
1161	 2.52475996429705E-02 
1162	 2.42202736392293E-02 
1163	 2.47598501310529E-02 
1164	 2.57890316049507E-02 
1165	 0.026325404757254 
1166	 2.72326716802338E-02 
1167	 2.67782557316352E-02 
1168	 2.62388692933146E-02 
1169	 2.69418049899689E-02 
1170	 2.73300991799297E-02 
1171	 2.71150534425656E-02 
1172	 2.72023195218641E-02 
1173	 2.68558508919252E-02 
1174	 2.56868857220094E-02 
1175	 2.45095435363615E-02 
1176	 2.42318317182962E-02 
1177	 2.48424739060508E-02 
1178	 2.55998920908808E-02 
1179	 2.48061222100733E-02 
1180	 2.49718759439942E-02 
1181	 2.59433539415592E-02 
1182	 2.35623810277191E-02 
1183	 2.26164438979669E-02 
1184	 2.43089840279381E-02 
1185	 2.30299153354724E-02 
1186	 2.12044323345269E-02 
1187	 2.15256880053507E-02 
1188	 2.15898673472025E-02 
1189	 2.27115320688283E-02 
1190	 2.55133958684715E-02 
1191	 0.026762855055034 
1192	 2.78793070298144E-02 
1193	 2.78530004838234E-02 
1194	 0.027949484290921 
1195	 2.74463636866931E-02 
1196	 2.74767204555235E-02 
1197	 2.80743380288045E-02 
1198	 2.71197621242292E-02 
1199	 0.026366070183418 
1200	 2.79287796578444E-02 
1201	 2.84979949144331E-02 
1202	 2.75322765838888E-02 
1203	 2.72960430819668E-02 
1204	 2.68292060004841E-02 
1205	 0.025611006781166 
1206	 2.52404113343392E-02 
1207	 2.60232964272302E-02 
1208	 2.61223400501296E-02 
1209	 2.56810080051842E-02 
1210	 2.52089349352902E-02 
1211	 2.48622265093946E-02 
1212	 0.024936986883963 
1213	 2.54853372721688E-02 
1214	 2.58841322544857E-02 
1215	 2.67489256674334E-02 
1216	 2.65564721507176E-02 
1217	 2.59771670930937E-02 
1218	 2.49313476721962E-02 
1219	 2.40015837315056E-02 
1220	 2.47881220982501E-02 
1221	 2.55243900747083E-02 
1222	 0.02612942345974 
1223	 2.72998297060488E-02 
1224	 2.72203116445612E-02 
1225	 2.61804836772993E-02 
1226	 2.50016672172187E-02 
1227	 2.42834832854256E-02 
1228	 2.36195910650344E-02 
1229	 2.26873972406777E-02 
1230	 2.30801930680158E-02 
1231	 2.31266352197809E-02 
1232	 2.25958172584705E-02 
1233	 2.31449793470069E-02 
1234	 2.33521144448221E-02 
1235	 2.34739735427295E-02 
1236	 0.02365370695927 
1237	 2.36415382271308E-02 
1238	 2.31372045982169E-02 
1239	 2.35413609180628E-02 
1240	 2.37907628537346E-02 
1241	 2.37097362996614E-02 
1242	 2.46202643797916E-02 
1243	 2.47734259701841E-02 
1244	 2.44328892169044E-02 
1245	 2.50961539491938E-02 
1246	 2.55843852096462E-02 
1247	 0.025276263243357 
1248	 0.024797677379384 
1249	 2.41738105140382E-02 
1250	 2.36160063218786E-02 
1251	 2.35072777644975E-02 
1252	 0.024285539056064 
1253	 2.51121891151189E-02 
1254	 0.025501862303081 
1255	 2.60090074912954E-02 
1256	 2.61845573363741E-02 
1257	 2.61518418219636E-02 
1258	 2.60794484084367E-02 
1259	 2.56763240638248E-02 
1260	 2.55289716849053E-02 
1261	 2.55635852065165E-02 
1262	 2.52452137436527E-02 
1263	 0.024811999420975 
1264	 2.42130254482004E-02 
1265	 2.37598755410686E-02 
1266	 2.43628349433411E-02 
1267	 2.48485855624596E-02 
1268	 2.46355088825765E-02 
1269	 2.47401104402745E-02 
1270	 2.46268598692454E-02 
1271	 2.49986261642606E-02 
1272	 2.59990599802213E-02 
1273	 2.64120969080185E-02 
1274	 2.63461914134665E-02 
1275	 2.58802528081633E-02 
1276	 0.025592510048845 
1277	 2.56545352482103E-02 
1278	 2.53884005563864E-02 
1279	 2.54344772360799E-02 
1280	 2.51915925789497E-02 
1281	 2.50327579517951E-02 
1282	 2.49110915724562E-02 
1283	 0.024774725853725 
1284	 2.46428982866205E-02 
1285	 2.45810928420561E-02 
1286	 2.42585766319359E-02 
1287	 2.39930658329152E-02 
1288	 2.39117691091931E-02 
1289	 2.37062413214058E-02 
1290	 2.33442366666149E-02 
1291	 2.33003380125379E-02 
1292	 2.29429322209257E-02 
1293	 2.31458332249119E-02 
1294	 2.35088334338678E-02 
1295	 2.40556538883758E-02 
1296	 2.58547642545924E-02 
1297	 2.63928088268982E-02 
1298	 0.025711717709279 
1299	 2.61327870333225E-02 
1300	 0.024869053422463 
1301	 2.28813982985046E-02 
1302	 2.34385337101206E-02 
1303	 2.48273709782013E-02 
1304	 0.026051712734467 
1305	 2.61698182867125E-02 
1306	 2.60970040956732E-02 
1307	 2.48544800811688E-02 
1308	 2.39998384061855E-02 
1309	 2.31613040899119E-02 
1310	 2.19535194523209E-02 
1311	 1.88842664929009E-02 
1312	 1.83281418620479E-02 
1313	 2.10481788294144E-02 
1314	 2.10765515061538E-02 
1315	 1.97571186049909E-02 
1316	 2.04668922695316E-02 
1317	 2.06764230184197E-02 
1318	 1.96535551545348E-02 
1319	 2.05943021572085E-02 
1320	 2.19457242588087E-02 
1321	 2.25338965272741E-02 
1322	 2.01211261319171E-02 
1323	 1.85711810693954E-02 
1324	 2.28339724299803E-02 
1325	 2.42322337645721E-02 
1326	 2.29933738151746E-02 
1327	 2.53950024214642E-02 
1328	 3.02151739610591E-02 
1329	 3.33595733083061E-02 
1330	 0.033881302767741 
1331	 3.62142594745095E-02 
1332	 3.37202151142392E-02 
1333	 0.035214955907077 
1334	 3.90848693364683E-02 
1335	 3.75917186965023E-02 
1336	 0.035481711833995 
1337	 3.33298087933703E-02 
1338	 2.16769228600606E-02 
1339	 1.96995719153019E-02 
1340	 2.84515469745514E-02 
1341	 3.29760257893151E-02 
1342	 3.74991729419107E-02 
1343	 4.21273662711161E-02 
1344	 4.59133029544131E-02 
1345	 5.40238429261514E-02 
1346	 7.90645894445863E-02 
1347	 9.21229984219671E-02 
1348	 8.74653790715196E-02 
1349	 9.24437818128027E-02 
1350	 7.45742114030425E-02 
1351	 6.92898662748144E-02 
1352	 9.77394536611346E-02 
1353	 0.167345839448658 
1354	 0.461219157250914 
1355	 0.628421896969803 
1356	 0.162161907587126 
1357	-8.89809922409486E-02 
1358	 7.73532733735669E-02 
1359	-4.49769317259788E-02 
1360	 0.103332430997407 
1361	 1.27795715655991 
1362	 2.21942848734791 
1363	 1.88689849734448 
1364	 1.74428653548434 
1365	 4.38110167864985 
1366	 1.08142416347327 
1367	 0.476623558077332 
1368	 0.245278485500608 
1369	 0.499728950994676 
1370	 0.522689118449873 
1371	 0.246394101500795 
1372	 0.197282056605255 
1373	 0.541347245678693 
1374	 0.621695066616587 
1375	 0.39878594075171 
1376	 0.401791955430745 
1377	 0.329688840855892 
1378	 0.372459513771636 
1379	 0.821459598411592 
1380	 1.18799120022067 
1381	 2.54903600127426 
1382	 2.90561076385865 
1383	 0.743327607551022 
1384	 0.718188206203183 
1385	 1.59238855973162 
1386	 1.68868323714553 
1387	 2.12624055527303 
1388	 2.34634343746092 
1389	 1.13083007228583 
1390	 1.0338208021424 
1391	 1.87293823811307 
1392	 2.09922016557794 
1393	 0.859053136800182 
1394	 0.305175225779161 
1395	 0.38797443655499 
1396	 0.467977900279971 
1397	 0.659264014619599 
1398	 1.31254618875176 
1399	 0.491837923329357 
1400	 0.150403295568186 
1401	 0.163289482222747 
1402	 0.352754426645516 
1403	 1.64493472117679 
1404	 2.06305936609025 
1405	 2.07540166906438 
1406	 1.37387864779189 
1407	 1.28449771309625 
1408	 1.01169476309138 
1409	 0.611271492808746 
1410	 0.142119618455009 
1411	 0.172412718360635 
1412	 0.12969136339882 
1413	 7.86101549846237E-02 
1414	 0.533927893358897 
1415	 1.55270880851984 
1416	 3.85540353266993 
1417	 4.09807881995043 
1418	 2.6101851249209 
1419	 2.91566163509661 
1420	 2.24750725650275 
1421	 1.53314241892984 
1422	 4.11844056426879 
1423	 3.68816230762664 
1424	 0.587669700800049 
1425	 0.298650077148142 
1426	 0.520472843149835 
1427	 0.322807714427845 
1428	 0.295529185926045 
1429	 0.30252708675736 
1430	-1.82383371793891E-02 
1431	-5.84368050959318E-02 
1432	 0.380244301739265 
1433	 0.471171020007112 
1434	 0.426486980863515 
1435	 0.333774578499944 
1436	-1.21766816379472 
1437	-1.21671711154733 
1438	-0.855140639674152 
1439	-0.188222695077554 
1440	 7.99985560927795E-02 
1441	 0.013903111343416 
1442	 0.153801040742487 
1443	 0.121746559963109 
1444	 0.128399396141258 
1445	 0.307780128091972 
1446	 0.267165827884552 
1447	 0.190691527357126 
1448	 0.207973280054635 
1449	 0.254494417684272 
1450	 0.295827306824388 
1451	 0.279559649519005 
1452	 0.255091968713659 
1453	 0.215461455970559 
1454	 0.173639662741552 
1455	 0.120324905962812 
1456	 7.17830978880322E-02 
1457	 1.69079001068825E-02 
1458	 1.22184213649403E-02 
1459	 2.69603858583097E-02 
1460	 1.77140058081292E-02 
1461	 1.85347912661975E-02 
1462	 2.21686473605791E-02 
1463	 5.44276017625465E-03 
1464	 2.27629811182322E-03 
1465	 3.32267161750575E-02 
1466	 4.36212627317303E-02 
1467	 2.33946395757739E-02 
1468	 3.22586581366754E-02 
1469	 7.07408318473842E-02 
1470	 0.083331271327944 
1471	 9.44510900013801E-02 
1472	 8.87900994183679E-02 
1473	 0.059253815857974 
1474	 5.59007654783025E-02 
1475	 4.80481056599268E-02 
1476	 4.82831032366676E-02 
1477	 7.08549311546147E-02 
1478	 7.48706257304237E-02 
1479	 8.70708431614806E-02 
1480	 8.07238746164499E-02 
1481	 0.03476013270116 
1482	 0.03716591108386 
1483	 7.01120688225612E-02 
1484	 5.60136739676618E-02 
1485	 3.90815562219347E-02 
1486	 4.10610124898038E-02 
1487	 2.78009557970338E-02 
1488	 2.15174045086681E-02 
1489	 3.02763811592087E-02 
1490	 3.41779526470466E-02 
1491	 3.72472500864483E-02 
1492	 3.16475322767404E-02 
1493	 2.12905802657945E-02 
1494	 1.96148955163139E-02 
1495	 1.38543485384631E-02 
1496	 1.20904990524196E-02 
1497	 2.12235852716063E-02 
1498	 2.27718789100374E-02 
1499	 1.86979342435135E-02 
1500	 1.78127490318047E-02 
1501	 1.42093505330436E-02 
1502	 1.57568118337247E-02 
1503	 2.54537940435601E-02 
1504	 2.60246573539419E-02 
1505	 0.023417484053039 
1506	 2.11033110147784E-02 
1507	 2.31383637280231E-02 
1508	 2.22035197041775E-02 
1509	 0.021185494522931 
1510	 2.31184836545311E-02 
1511	 1.99055129522115E-02 
1512	 1.57263680869025E-02 
1513	 1.71507209882627E-02 
1514	 2.26691226724909E-02 
1515	 2.71153947947546E-02 
1516	 2.74005153690218E-02 
1517	 2.28235039655265E-02 
1518	 1.84338807792104E-02 
1519	 1.69001073947802E-02 
1520	 1.51711706944117E-02 
1521	 1.77222044400448E-02 
1522	 2.19807451635681E-02 
1523	 2.30810790205595E-02 
1524	 2.42398373230191E-02 
1525	 2.43368449977085E-02 
1526	 2.41909030881164E-02 
1527	 2.42800518997158E-02 
1528	 2.18395710285415E-02 
1529	 2.07238127705021E-02 
1530	 2.03906606691188E-02 
1531	 1.95568862470475E-02 
1532	 2.20021281317994E-02 
1533	 2.31803492597005E-02 
1534	 2.18503295778271E-02 
1535	 2.11293359591989E-02 
1536	 1.97255297582048E-02 
1537	 1.95190996053211E-02 
1538	 2.13084522466079E-02 
1539	 2.26343499827013E-02 
1540	 2.26676676048141E-02 
1541	 2.15898034215249E-02 
1542	 2.04730177442033E-02 
1543	 2.18780140248222E-02 
1544	 0.024028313925684 
1545	 2.46778063917441E-02 
1546	 2.55318904958949E-02 
1547	 2.56065571572509E-02 
1548	 2.47547754818544E-02 
1549	 2.32643513108494E-02 
1550	 2.25615532771616E-02 
1551	 2.14784116726802E-02 
1552	 1.91438553198036E-02 
1553	 2.16613419111294E-02 
1554	 2.45684891695043E-02 
1555	 2.37075078406388E-02 
1556	 2.35417955418562E-02 
1557	 2.20318096278641E-02 
1558	 1.96548387013164E-02 
1559	 1.94184982135278E-02 
1560	 1.99024603646516E-02 
1561	 2.07007531268114E-02 
1562	 2.14098639950332E-02 
1563	 2.10862407635857E-02 
1564	 2.17155639366063E-02 
1565	 0.021818365564413 
1566	 1.82056201252322E-02 
1567	 1.64682585525004E-02 
1568	 1.90257754675181E-02 
1569	 0.021397966109951 
1570	 2.37422113465358E-02 
1571	 2.46459648388711E-02 
1572	 2.35359810242036E-02 
1573	 2.36689572397854E-02 
1574	 2.34923928957885E-02 
1575	 2.41216237975266E-02 
1576	 2.60200571278156E-02 
1577	 2.39952343137344E-02 
1578	 0.022696485778679 
1579	 2.56896753672927E-02 
1580	 2.56945470609595E-02 
1581	 2.39076541468802E-02 
1582	 2.41382831539823E-02 
1583	 2.27800420810728E-02 
1584	 2.09965704142317E-02 
1585	 2.18437902895053E-02 
1586	 2.25698375649051E-02 
1587	 2.25905043579386E-02 
1588	 2.37787138272942E-02 
1589	 2.43710309035724E-02 
1590	 2.29756884437295E-02 
1591	 2.04409774609052E-02 
1592	 0.018609781819551 
1593	 1.93041705180321E-02 
1594	 2.18748563114065E-02 
1595	 2.39839625403416E-02 
1596	 0.024263083185179 
1597	 2.29144311284681E-02 
1598	 2.07983129557897E-02 
1599	 2.00514365890666E-02 
1600	 1.98572481296578E-02 
1601	 1.96345156114821E-02 
1602	 2.19263684197408E-02 
1603	 2.34728820909024E-02 
1604	 2.29055141552634E-02 
1605	 2.35496360885088E-02 
1606	 0.02312024252744 
1607	 2.27655003437706E-02 
1608	 0.024145030582577 
1609	 2.17071050736909E-02 
1610	 1.92294757459499E-02 
1611	 2.07126787993941E-02 
1612	 2.15381381278229E-02 
1613	 0.022482547234391 
1614	 0.024926011824538 
1615	 2.65265448445402E-02 
1616	 2.63529782153529E-02 
1617	 2.54831101939979E-02 
1618	 2.51570407082982E-02 
1619	 0.022950542883525 
1620	 1.99716988360121E-02 
1621	 2.21050789855874E-02 
1622	 2.42135576304323E-02 
1623	 2.40286927777698E-02 
1624	 2.57925118862122E-02 
1625	 2.61714247860639E-02 
1626	 2.52826654859137E-02 
1627	 2.37436173654617E-02 
1628	 0.022127296009025 
1629	 2.37111300867601E-02 
1630	 2.48002045823497E-02 
1631	 2.42380837902465E-02 
1632	 0.025124723840688 
1633	 2.45902493501086E-02 
1634	 2.18186331524267E-02 
1635	 2.05448715346889E-02 
1636	 0.021099147964063 
1637	 2.09027623844499E-02 
1638	 2.11173493679334E-02 
1639	 2.32712669726081E-02 
1640	 2.38486031524189E-02 
1641	 2.33146132582268E-02 
1642	 2.31991162873359E-02 
1643	 2.22956920174888E-02 
1644	 2.31240089275073E-02 
1645	 2.30474068650233E-02 
1646	 2.03999813510414E-02 
1647	 2.08490108796529E-02 
1648	 2.14299648420506E-02 
1649	 2.09404130842571E-02 
1650	 2.31063920995577E-02 
1651	 2.42112589216193E-02 
1652	 2.29004234993822E-02 
1653	 2.17266190776372E-02 
1654	 2.16880952029723E-02 
1655	 2.27568088211852E-02 
1656	 2.27369411321614E-02 
1657	 2.17627129668262E-02 
1658	 2.19162849946724E-02 
1659	 2.20603442034846E-02 
1660	 2.19518656274778E-02 
1661	 2.42086198128399E-02 
1662	 2.42456640475505E-02 
1663	 2.02226445175401E-02 
1664	 1.97463350742205E-02 
1665	 2.13935872194245E-02 
1666	 2.14505791471413E-02 
1667	 2.24883608761345E-02 
1668	 2.39297452136472E-02 
1669	 2.41099958772553E-02 
1670	 2.32899363746304E-02 
1671	 2.35123728830473E-02 
1672	 2.37570558114514E-02 
1673	 2.40541780074429E-02 
1674	 2.45678755595522E-02 
1675	 2.43724902924117E-02 
1676	 2.46641586367485E-02 
1677	 2.42844812889681E-02 
1678	 2.16728058701202E-02 
1679	 1.92514227139666E-02 
1680	 0.020467430603042 
1681	 2.02470919745106E-02 
1682	 1.81985676180369E-02 
1683	 1.97673729020237E-02 
1684	 1.91038921966322E-02 
1685	 1.79000626017633E-02 
1686	 2.07006432435934E-02 
1687	 0.02259752336048 
1688	 2.47698951373756E-02 
1689	 2.54627144058296E-02 
1690	 2.32771433957721E-02 
1691	 2.28695594240815E-02 
1692	 2.20954466136723E-02 
1693	 0.019738897526862 
1694	 1.91467326590384E-02 
1695	 2.00274707012816E-02 
1696	 1.93904974680296E-02 
1697	 1.94021689486147E-02 
1698	 2.21063916988845E-02 
1699	 2.34262159973203E-02 
1700	 0.022609076014887 
1701	 2.36448474458671E-02 
1702	 2.65422995176716E-02 
1703	 2.85175594788789E-02 
1704	 2.91331411917826E-02 
1705	 2.89138478316195E-02 
1706	 2.74165146133103E-02 
1707	 2.35523803921107E-02 
1708	 2.06864126843982E-02 
1709	 1.98044562885917E-02 
1710	 1.87843210411765E-02 
1711	 2.00758707581153E-02 
1712	 2.40162653959265E-02 
1713	 2.58473559849237E-02 
1714	 2.62276310001233E-02 
1715	 2.35248983658874E-02 
1716	 2.33343158653517E-02 
1717	 2.55557458262039E-02 
1718	 0.025735912340282 
1719	 2.22678544431789E-02 
1720	 2.18701415228405E-02 
1721	 2.26213453916352E-02 
1722	 2.15410907880351E-02 
1723	 2.23236071807288E-02 
1724	 2.32463981624216E-02 
1725	 2.03235636076223E-02 
1726	 1.97802248236515E-02 
1727	 2.44344408882471E-02 
1728	 2.53558296982143E-02 
1729	 0.024544028750751 
1730	 2.41392910024494E-02 
1731	 2.32020108998351E-02 
1732	 2.36255205393947E-02 
1733	 2.43580299358596E-02 
1734	 2.57253054775037E-02 
1735	 2.47029124384856E-02 
1736	 2.45321561062059E-02 
1737	 2.66813226699079E-02 
1738	 2.64845705271988E-02 
1739	 2.82790074154254E-02 
1740	 2.77415417950401E-02 
1741	 2.41418292761644E-02 
1742	 2.36391691667466E-02 
1743	 1.90794769118139E-02 
1744	 0.016387338166585 
1745	 2.02109860986828E-02 
1746	 2.34334638241674E-02 
1747	 2.47158716340086E-02 
1748	 2.30740837285567E-02 
1749	 2.31729683160568E-02 
1750	 2.38181820121053E-02 
1751	 2.30871665379625E-02 
1752	 2.58315528105467E-02 
1753	 2.53711141221396E-02 
1754	 1.93857770601674E-02 
1755	 1.70884482057523E-02 
1756	 1.29127405690978E-02 
1757	 1.40513447831942E-02 
1758	 2.09163291822604E-02 
1759	 2.47218857915589E-02 
1760	 0.02913952238104 
1761	 3.41103749697347E-02 
1762	 3.06553478063716E-02 
1763	 2.66024718796874E-02 
1764	 2.53637781510944E-02 
1765	 1.68398295904503E-02 
1766	 1.44987918851805E-02 
1767	 2.55787100440772E-02 
1768	 3.08437070748217E-02 
1769	 3.38153736680735E-02 
1770	 4.70308627730746E-02 
1771	 4.99243276660604E-02 
1772	 4.66182584838316E-02 
1773	 4.99709930152472E-02 
1774	 3.84049143681201E-02 
1775	 3.66191988126129E-02 
1776	 4.34282019819992E-02 
1777	 7.73451812525183E-02 
1778	 8.22160198023553E-02 
1779	 5.78562402249207E-02 
1780	 5.21362438626085E-02 
1781	 2.63766403242347E-02 
1782	 1.75233371324272E-02 
1783	 5.54433584267825E-02 
1784	 6.42175205520806E-02 
1785	 5.20973080375831E-02 
1786	 0.050339981153149 
1787	 4.06097303213572E-02 
1788	 3.53924950920958E-02 
1789	 3.48927245647476E-02 
1790	 4.62751041488539E-02 
1791	 5.92410146497129E-02 
1792	 2.97629522207723E-02 
1793	 7.41168068405929E-03 
1794	-2.63818868778811E-02 
1795	-6.11908656744778E-02 
1796	 6.52655949347221E-02 
1797	 0.202005924091936 
1798	 0.225791038757275 
1799	 0.221510858223814 
1800	 0.132875084113165 
1801	 8.14128269746297E-02 
1802	 0.231558112552032 
1803	 0.379717855936033 
1804	 0.424156105670629 
1805	 0.490395315759621 
1806	 0.702421366527966 
1807	 1.39460786339265 
1808	 5.64052342423319 
1809	-35.0669602810716 
1810	 11.0078897932157 
1811	 3.71839308243521 
1812	 0.777312915487486 
1813	 0.629287001996777 
1814	 1.20277519146736 
1815	 1.05136007287937 
1816	 0.205337467298742 
1817	-6.21034639238915E-02 
1818	 0.363281382644664 
1819	 6.88900407704501 
1820	 7.31804279550054 
1821	 1.15485238543473 
1822	 0.743877509189858 
1823	 0.273782429422679 
1824	 0.11203866620591 
1825	 0.515408675716871 
1826	 0.74232942252402 
1827	 22.4195544311773 
1828	 8.71286029865757 
1829	 1.09387064668555 
1830	 1.15747502659349 
1831	 0.144789680642548 
1832	 0.180119652289246 
1833	 0.271533627960541 
1834	 0.326521440398188 
1835	 0.686651181315455 
1836	 0.823481641555369 
1837	 0.597414285097284 
1838	 0.498399971202901 
1839	 0.125410246102325 
1840	 0.515980653010168 
1841	 2.05978376806706 
1842	 1.58017447394019 
1843	 3.17885719794483 
1844	 9.19432844251731 
1845	 16.2270280579674 
1846	-14.0077846901255 
1847	-7.56822791674994 
1848	 31.3732399506564 
1849	-2.08520631490296 
1850	-0.569572102953268 
1851	-0.50692931203933 
1852	-0.512507809221469 
1853	-0.229866677065299 
1854	 3.62860613963626E-02 
1855	 1.50028378436225 
1856	 6.2372530252707 
1857	-154.271463225372 
1858	-4.36518514920067 
1859	-3.99803634146959 
1860	-0.691563388170484 
1861	 0.288820665508185 
1862	 0.340649467338701 
1863	 0.548884773441888 
1864	 1.38334900203572 
1865	 1.54773726038826 
1866	 0.735734265324651 
1867	 0.844853276138502 
1868	 0.746278177736399 
1869	 1.19812422966478 
1870	 5.76779424320632 
1871	-45.3384101056816 
1872	 43.0512189401012 
1873	 30.9957780593224 
1874	-60.5029240470711 
1875	-8.3694335595052 
1876	-6.97402409259036 
1877	-11.3245472572669 
1878	-36.7056284853529 
1879	 2.75315899811649 
1880	 1.11760868135802 
1881	 1.76116719995606 
1882	 1.5648273635473 
1883	 1.22192594685807 
1884	 1.39613746698045 
1885	 1.01971057173679 
1886	 0.73200911293837 
1887	 1.16118821806269 
1888	 2.12471379951517 
1889	 1.8273339100292 
1890	 0.954860139734934 
1891	 0.91812750722119 
1892	 0.539868083851383 
1893	 0.78023203545977 
1894	 1.16796913262133 
1895	 1.13561213511183 
1896	 1.21635325648833 
1897	 0.561606446531002 
1898	 0.151361213338357 
1899	 0.333588000480068 
1900	 0.305360111105484 
1901	 0.149106196278918 
1902	 0.189068621447502 
1903	 0.493215485675848 
1904	 0.503327753852227 
1905	 0.703104670078023 
1906	 1.16896638552415 
1907	 0.958352540247169 
1908	 0.873796165748143 
1909	 1.68708162106119 
1910	 2.36244797847768 
1911	 1.69654622692249 
1912	 1.80127199367079 
1913	 2.90982215611387 
1914	 33.4135702229426 
1915	-4.54235007264471 
1916	-1.85041906976433 
1917	-2.23617293775009 
1918	-2.25300129519901 
1919	-6.34314627530206 
1920	-12.6694454123066 
1921	-2.93290619979163 
1922	-7.92358509662916 
1923	-8.2814539587102 
1924	-14.5614471067067 
1925	 1.42457238152857 
1926	 0.648140852529998 
1927	 0.588941922206111 
1928	 0.50983396902496 
1929	 0.331518772044569 
1930	 0.419550253352266 
1931	 0.121303507566063 
1932	 0.13837058629951 
1933	 1.08864129961234 
1934	 0.522713860846842 
1935	 1.25335158702806 
1936	 1.85266955296683 
1937	 2.18369621006899 
1938	 2.7418436374176 
1939	 2.13473772518264 
1940	 0.9713774664724 
1941	 1.02479307719457 
1942	 1.25581819992161 
1943	 1.89641910901478 
1944	 6.89844995353043 
1945	-6.18059719847765 
1946	-2.85563756364986 
1947	-0.961601987287589 
1948	-0.951411583511754 
1949	-1.20415322004802 
1950	-1.32413535868368 
1951	-6.5179050519082 
1952	-48.9629043453421 
1953	-46.6204037963082 
1954	-15.0403795141926 
1955	 53.0728342689497 
1956	 20.1869157469511 
1957	 14.9364880746183 
1958	 2.2900181207085 
1959	 0.86021692730712 
1960	 0.481488712044008 
1961	 0.780775463338274 
1962	 0.915140151709915 
1963	 0.836413526567642 
1964	 1.01694589059277 
1965	 0.870521928332207 
1966	 0.797282134958196 
1967	 0.708396878907556 
1968	 0.73388078586827 
1969	 0.47989440269242 
1970	 0.282272546031695 
1971	 0.102105542382308 
1972	-5.93853351019841E-02 
1973	-5.74150259085548E-02 
1974	 4.30569952488626E-02 
1975	 8.06079986926264E-02 
1976	 0.113370202777266 
1977	 0.139314350527805 
1978	 0.107816871844851 
1979	 0.112212605656198 
1980	 0.138487836686097 
1981	 0.155548325678859 
1982	 0.111572938887723 
1983	 9.51377451316644E-02 
1984	 0.058402085976068 
1985	-1.78534223641033E-02 
1986	-5.62772034816325E-02 
1987	-4.79253536071028E-02 
1988	-2.54589699716787E-02 
1989	 1.55293776348136E-02 
1990	 4.02220040634579E-02 
1991	 6.12548136756914E-02 
1992	 9.97682614059305E-02 
1993	 8.84169719952615E-02 
1994	 0.101218202108323 
1995	 0.151595161052662 
1996	 0.212627282033526 
1997	 0.272447764354727 
1998	 0.356407736969132 
1999	 0.361783045189487 
2000	 0.360468554125223 
2001	 0.309381009987916 
2002	 0.272384186432133 
2003	 0.446334342846202 
2004	 0.635059798783409 
2005	 0.546554585827374 
2006	 0.507032741631614 
2007	 0.479554333385609 
2008	 0.27222786184723 
2009	 0.18379697459564 
2010	 0.219925832289452 
2011	 0.175065902918713 
2012	 2.28567569124135E-02 
2013	 2.58429372010082E-02 
2014	 0.103300437224192 
2015	-0.05113072879029 
2016	-1.74196175844532E-02 
2017	 4.90985636140476E-02 
2018	 4.75313803642044E-02 
2019	 0.091540623772248 
2020	 9.36913792163334E-02 
2021	 7.50418507685076E-02 
2022	 7.47931662347266E-02 
2023	 6.58342976816628E-02 
2024	 6.00917307995831E-02 
2025	 5.99669403022973E-02 
2026	 5.65293121520348E-02 
2027	 4.07668647417296E-02 
2028	 0.055590497339491 
2029	 7.13449179691719E-02 
2030	 3.08088193980836E-02 
2031	 1.53035225402552E-02 
2032	 0.020711975758241 
2033	 4.79174568108046E-04 
2034	 1.16310433637379E-04 
2035	 4.88215312954354E-03 
2036	-4.2972454974383E-03 
2037	-6.66587505470134E-03 
2038	 1.93898025317791E-03 
2039	 0.012643245549016 
2040	 3.07097733705589E-02 
2041	 3.74429613555341E-02 
2042	 4.48672070923678E-02 
2043	 5.37209625376168E-02 
2044	 5.72799976925031E-02 
2045	 5.59053708803975E-02 
2046	 7.47001045385817E-02 
2047	 8.54782312637353E-02 
2048	 9.36408062056325E-02 
2049	 0.1029104560217 
2050	 9.54338937253755E-02 
2051	 9.78101247814163E-02 
2052	 8.58644016058337E-02 
2053	 7.27027841965805E-02 
2054	 7.90851159695818E-02 
2055	 5.52094468026991E-02 
2056	 4.82987756167639E-02 
2057	 7.22775222099007E-02 
2058	 7.47705886554254E-02 
2059	 5.30316019045244E-02 
2060	 5.31431195998066E-02 
2061	 7.08141821599638E-02 
2062	 5.42994622958645E-02 
2063	 4.01977941849154E-02 
2064	 6.85356950893702E-02 
2065	 7.24401174135359E-02 
2066	 5.52139785661342E-02 
2067	 4.90615995974819E-02 
2068	 3.82437365321369E-02 
2069	 4.69305921186486E-02 
2070	 5.35825287792517E-02 
2071	 5.16358266634371E-02 
2072	 6.85008012821655E-02 
2073	 6.24256024424323E-02 
2074	 2.72773498752915E-02 
2075	 2.40588948304677E-02 
2076	 3.42161079811074E-02 
2077	 3.04802197879499E-02 
2078	 2.60489212794003E-02 
2079	 3.24719820960533E-02 
2080	 4.45999421925069E-02 
2081	 4.13787674777931E-02 
2082	 3.33062698712798E-02 
2083	 4.33210150643393E-02 
2084	 3.71313987391703E-02 
2085	 5.21461467886922E-03 
2086	 9.23650207581194E-03 
2087	 2.45441177379737E-02 
2088	 2.12505530720777E-02 
2089	 0.025110879447669 
2090	 0.023218414113978 
2091	 2.04633792680119E-02 
2092	 1.25774567799014E-02 
2093	-6.57862087091208E-04 
2094	-4.68624390017193E-03 
2095	-1.13155124181281E-02 
2096	-1.25088463591265E-02 
2097	-2.20473870568162E-03 
2098	 5.06306532191246E-03 
2099	 1.90753499063592E-02 
2100	 0.014157445733307 
2101	 1.10560056942289E-02 
2102	 1.39887434138381E-02 
2103	 1.32443852527019E-02 
2104	 1.91658042603386E-02 
2105	 2.97127336113983E-02 
2106	 3.57399233281269E-02 
2107	 3.12139725778944E-02 
2108	 1.82267013952411E-02 
2109	 1.05147900714598E-02 
2110	 5.66627870457725E-03 
2111	 2.13433397416505E-03 
2112	-2.518089626916E-04 
2113	-2.61399048371308E-03 
2114	-8.65849122107655E-03 
2115	-1.32302697513781E-02 
2116	-2.02151420928522E-02 
2117	-1.55355701147916E-02 
2118	-7.26729210839647E-03 
2119	-2.20959257457128E-03 
2120	 7.77004529706046E-03 
2121	 2.74644655218321E-02 
2122	 3.01710294821717E-02 
2123	 0.041934754472702 
2124	 6.33251384910456E-02 
2125	 6.36355220464613E-02 
2126	 6.41195918364398E-02 
2127	 6.83182722228101E-02 
2128	 0.067014666352838 
2129	 6.92247539340238E-02 
2130	 7.31793244085925E-02 
2131	 0.069403134265539 
2132	 5.76209178789952E-02 
2133	 5.36010493293614E-02 
2134	 4.19008683858323E-02 
2135	 1.91678266950461E-02 
2136	 7.06254445625544E-03 
2137	-7.23810305465332E-03 
2138	-1.20982531006845E-02 
2139	 8.10910411803581E-04 
2140	 8.93549158832119E-04 
2141	-7.73679178337078E-03 
2142	-3.2884321121141E-03 
2143	 4.49307485294976E-03 
2144	 7.78526718209899E-03 
2145	 2.18103003550983E-02 
2146	 3.56801109235556E-02 
2147	 4.16533445377573E-02 
2148	 3.91566314850645E-02 
2149	 0.038076869921324 
2150	 4.15281200277142E-02 
2151	 3.17695077833533E-02 
2152	 2.40104675899884E-02 
2153	 2.02625403036898E-02 
2154	 3.22525525958704E-02 
2155	 4.73010744425019E-02 
2156	 6.17105596290365E-02 
2157	 0.065890126769194 
2158	 5.91209544205228E-02 
2159	 5.15452072923307E-02 
2160	 3.43146295256057E-02 
2161	 2.73977989445631E-02 
2162	 3.12525633407645E-02 
2163	 2.40142478684525E-02 
2164	 4.52849417241189E-03 
2165	 4.11015047654094E-03 
2166	 9.25410083959372E-03 
2167	 1.37672966404796E-02 
2168	 3.48798357115856E-02 
2169	 4.66532906181398E-02 
2170	 5.98635442426424E-02 
2171	 5.00775333806835E-02 
2172	 3.44614600541398E-02 
2173	 2.81128816405746E-02 
2174	 1.28943758165378E-02 
2175	 1.87416417230407E-02 
2176	 3.52410821973295E-02 
2177	 4.31252185545451E-02 
2178	 3.74696127441014E-02 
2179	 1.40153978817762E-02 
2180	 1.35650293368157E-04 
2181	-6.2190698100038E-03 
2182	-1.09517055602858E-03 
2183	 3.00938698471982E-02 
2184	 5.12946401146872E-02 
2185	 5.06653930749805E-02 
2186	 5.32215895350159E-02 
2187	 4.79471836954639E-02 
2188	 4.00892216468925E-02 
2189	 0.022540687379985 
2190	 2.26247317616364E-02 
2191	 2.88169082529722E-02 
2192	 0.029154361441217 
2193	 4.46075072693791E-02 
2194	 4.44058776843962E-02 
2195	 2.66987136222829E-02 
2196	 0.024227625041013 
2197	 2.13045918203347E-02 
2198	 1.87038868264751E-02 
2199	 2.68320643699707E-02 
2200	 1.80211731227678E-02 
2201	 3.24989021604061E-02 
2202	 5.42369900710404E-02 
2203	 6.17145038105934E-02 
2204	 6.96945730536749E-02 
2205	 5.75832608967834E-02 
2206	 4.25091986687986E-02 
2207	 3.08392051026756E-02 
2208	 2.24080095499829E-02 
2209	 1.26948442770931E-02 
2210	 3.50163237741975E-03 
2211	 1.22200086065542E-02 
2212	 1.81222754732701E-02 
2213	 1.00759937639632E-02 
2214	 5.3700333782046E-03 
2215	 1.55424790262388E-03 
2216	 3.82109220856538E-03 
2217	 1.12360937271974E-02 
2218	 3.47515782379303E-02 
2219	 4.17795582331873E-02 
2220	 4.74218767461518E-02 
2221	 5.01855589642136E-02 
2222	 4.51794943919218E-02 
2223	 4.21172432871779E-02 
2224	 0.035890241104878 
2225	 3.48921021128356E-02 
2226	 0.026952343335722 
2227	 3.98495732078426E-02 
2228	 7.50657525894588E-02 
2229	 8.00194949367145E-02 
2230	 9.24689696706358E-02 
2231	 9.19428142952553E-02 
2232	 5.99820660364975E-02 
2233	 4.95466370812247E-02 
2234	 4.71738454541494E-02 
2235	 3.44583642476689E-02 
2236	 3.78606288738917E-02 
2237	 2.75494865315842E-02 
2238	 1.44842467567134E-02 
2239	 1.46282085252652E-02 
2240	 3.02975367328262E-02 
2241	 3.88300641400882E-02 
2242	 0.052130739668442 
2243	 5.65394887020412E-02 
2244	 0.031678622863757 
2245	 2.36892284172881E-02 
2246	 3.37348571317307E-02 
2247	 4.63774572860032E-02 
2248	 5.31105439189656E-02 
2249	 5.48226775229598E-02 
2250	 5.11839305428537E-02 
2251	 4.42955481709275E-02 
2252	 4.54280452517799E-02 
2253	 4.18440161511482E-02 
2254	 4.47139649313488E-02 
2255	 4.36861494039842E-02 
2256	 3.81620246696651E-02 
2257	 5.92092634795878E-02 
2258	 7.55238540698665E-02 
2259	 8.56095864545969E-02 
2260	 9.84968671206532E-02 
2261	 0.127315151215993 
2262	 0.125167755407078 
2263	 9.30732798414134E-02 
2264	 8.99087911118649E-02 
2265	 9.12590186103308E-02 
2266	 8.71968829518861E-02 
2267	 0.112991108763533 
2268	 0.103407183063679 
2269	 4.76089576278405E-02 
2270	 2.13712657735534E-02 
2271	-4.81061289002057E-03 
2272	-1.90048074167269E-02 
2273	-9.13676807404731E-03 
2274	-4.25943215250585E-03 
2275	 8.94962316047968E-03 
2276	 4.27282094359047E-03 
2277	-2.27335166693098E-02 
2278	-3.20421760258713E-02 
2279	-0.048036698048167 
2280	-3.87121320626671E-02 
2281	-5.26752347246294E-03 
2282	 4.03355232701469E-02 
2283	 5.70716626554268E-02 
2284	 7.60464629341914E-02 
2285	 0.110351479561619 
2286	 0.119003598927566 
2287	 0.141576846890906 
2288	 0.118799303615572 
2289	 8.73224916351909E-02 
2290	 6.38420108449249E-02 
2291	 4.08974099556577E-02 
2292	 6.58430978333411E-02 
2293	 5.46615759083903E-02 
2294	 3.38133256101344E-02 
2295	 2.76080900490009E-02 
2296	 3.80353498899794E-03 
2297	-2.11775863703407E-02 
2298	-2.38582412615023E-02 
2299	-1.76954867235452E-02 
2300	-1.67756686645449E-02 
2301	 1.28379397240836E-02 
2302	 5.22848939530505E-02 
2303	 9.46299336619491E-02 
2304	 0.133130833488984 
2305	 0.114144084385337 
2306	 6.26705761598422E-02 
2307	 6.49209383773493E-02 
2308	 7.08312049196835E-02 
2309	 9.79902999951706E-02 
2310	 0.18038792202191 
2311	 0.230213964354248 
2312	 0.244147902962016 
2313	 0.33387711484568 
2314	 0.406170047281329 
2315	 0.350593969091733 
2316	 0.289908564977979 
2317	 0.21509577858236 
2318	 0.143578635113106 
2319	 0.123791190437859 
2320	 7.87497247271363E-02 
2321	-3.25601879337694E-03 
2322	-0.12179451320488 
2323	-0.170163424542107 
2324	-0.147826482047473 
2325	-0.172825331595446 
2326	-0.104979877103659 
2327	-5.75330373254321E-02 
2328	-0.09254536775191 
2329	-6.40002695868334E-02 
2330	-1.18421137303214E-02 
2331	 0.002542031025822 
2332	 4.02305632981506E-02 
2333	 0.142248426356836 
2334	 0.113325086644341 
2335	 7.31248826584527E-02 
2336	 0.162592829804165 
2337	 0.133479590469817 
2338	 9.61256455243207E-03 
2339	-9.65096882899441E-02 
2340	-0.27542999391801 
2341	-0.26635232396579 
2342	 0.123120602709618 
2343	 0.472960710259536 
2344	 0.550205552491475 
2345	 0.666823675070336 
2346	 0.599746924239859 
2347	 0.505472257014645 
2348	 0.335364958311056 
2349	 8.12381276706125E-02 
2350	 3.95477877578754E-02 
2351	-0.105968176532723 
2352	-0.172585355678474 
2353	 0.115110679207617 
2354	-6.42901137465867E-02 
2355	 3.73052580883489E-02 
2356	 0.214542044397571 
2357	 3.21879773464367E-02 
2358	 0.157902837045117 
2359	 1.77849523182382E-03 
2360	-0.692141003311371 
2361	-0.558350682608468 
2362	-0.248795651067595 
2363	-0.126808078126846 
2364	-0.164893824857665 
2365	-0.204582409904625 
2366	-0.409170311182579 
2367	-0.852491160775004 
2368	-0.952422149861077 
2369	-0.959214454219406 
2370	-3.60457638874651 
2371	-2.61971324833879 
2372	-3.05471327507323 
2373	 2.80500464837002 
2374	 3.0542095606472 
2375	 2.42339496593223 
2376	 2.13445345474404 
2377	 1.60765830560105 
2378	 0.979510421559139 
2379	-1.53376915449102 
2380	-4.00138654813827 
2381	 6.11986736677951 
2382	 2.1753755536488 
2383	 1.63884897427241 
2384	-4.78824107324068E-02 
2385	 13.4446230831215 
2386	 0.624012943566581 
2387	 0.207987542568712 
2388	 0.320171144027375 
2389	-9.48296531459144E-02 
2390	-0.871794345554631 
2391	-1.29668110004047 
2392	 3.14694568029976 
2393	 2.90778763383599 
2394	 1.22755555898516 
2395	 0.997654109841188 
2396	 0.903697195772395 
2397	 0.72834652962589 
2398	 0.854746303813403 
2399	 1.64463635661434 
2400	 3.98279143271804 
2401	 7.1548667276358 
2402	-0.475005598623903 
2403	-0.490784753024992 
2404	-2.28638657838424 
2405	-3.1359690574368 
2406	-0.10648332261147 
2407	 2.03586543581332 
2408	 2.38609415531115 
2409	-6.80921511279026 
2410	 3.55100310927285 
2411	 1.51759663408911 
2412	 1.79291933869154 
2413	 1.07224367754795 
2414	 1.27836718144226 
2415	 6.44218377388203 
2416	 3.545081132278 
2417	 3.6134484778303 
2418	 0.420227215185066 
2419	 1.08879224539639 
2420	 5.04279905268024 
2421	 1.13235160577617 
2422	 2.7700092551854 
2423	 0.595986543746452 
2424	-1.31738905890104 
2425	 5.23996653206442 
2426	-1.22740582451284 
2427	 9.05646254471986 
2428	 6.840198276238 
2429	 6.79047466654933 
2430	-442.84958996657 
2431	-6.54938913429251 
2432	-1.67986575330756 
2433	-1.18963820209633 
2434	-1.61964764240442 
2435	-2.20857781671011 
2436	-4.86889740223206 
2437	-9.45607176782565 
2438	-20.7890776085173 
2439	 9.06043676256372 
2440	-0.084977216229773 
2441	-0.12072614612157 
2442	-0.198775424679669 
2443	-0.592739324029482 
2444	-0.658945026128673 
2445	-0.888043151691158 
2446	-0.738735660814867 
2447	-0.494434624857051 
2448	-0.34903234413069 
2449	-0.26557313825478 
2450	-4.47361190042664E-02 
2451	 0.371989751383187 
2452	-3.91086246658991E-02 
2453	-0.134391154777769 
2454	-0.536552619682967 
2455	-0.875577448474135 
2456	-0.780084810954021 
2457	-1.14999464712773 
2458	-0.320659255567388 
2459	-8.95920319101937E-02 
2460	-0.653500418953709 
2461	-0.181631659168432 
2462	 3.89550870551232E-03 
2463	-0.380910767678873 
2464	-0.253829354735534 
2465	-0.376201546581476 
2466	-0.738038502088103 
2467	-0.176868885452581 
2468	 0.664449785787042 
2469	 1.35696228146454 
2470	 0.576917680428657 
2471	 7.97745353321678E-02 
2472	-8.83257434642682E-02 
2473	-0.532568725542377 
2474	-0.46873466997978 
2475	-3.38777623149153E-02 
2476	-3.68816030595579E-02 
2477	 0.116258603120112 
2478	 0.669779141091002 
2479	 0.741437394663686 
2480	-0.740888453467994 
2481	-0.374571819918066 
2482	-0.186602854319385 
2483	-0.681170505804165 
2484	 1.63712030541944 
2485	 1.33216195936744E-02 
2486	-2.98398426660307E-02 
2487	 2.99178624423885 
2488	 0.640340650883488 
2489	-1.74025492788436E-03 
2490	-0.178698127855572 
2491	-0.446647789018377 
2492	-0.400122834754795 
2493	 0.261744417221136 
2494	-0.106174564672091 
2495	-0.441673233574125 
2496	-0.210387952447901 
2497	 0.067466132931117 
2498	 0.411302795593963 
2499	 1.10303666015488 
2500	 2.15734617270618 
