Wavelength	rt0727far00004.asd
350	 6.80110981682527E-02 
351	 6.71970673737509E-02 
352	 6.72582587828346E-02 
353	 6.73139375947141E-02 
354	 6.70730471215168E-02 
355	 6.83824139576314E-02 
356	 6.79064783975673E-02 
357	 6.72022793939298E-02 
358	 6.82270851301789E-02 
359	 6.76257767672115E-02 
360	 6.72949600238458E-02 
361	 6.77269302460709E-02 
362	 6.82728845906289E-02 
363	 6.83295461554015E-02 
364	 0.068422463508435 
365	 6.84993168350664E-02 
366	 0.067371515811234 
367	 6.74524341930973E-02 
368	 6.81342595058088E-02 
369	 6.83619538468132E-02 
370	 6.86031516671441E-02 
371	 6.90621349432271E-02 
372	 6.92942448596785E-02 
373	 6.87248351438022E-02 
374	 6.91396897128296E-02 
375	 6.94722683066874E-02 
376	 6.93511287930085E-02 
377	 6.97518448631631E-02 
378	 6.97746643092941E-02 
379	 6.94986973904522E-02 
380	 6.93071327906847E-02 
381	 6.97078431172961E-02 
382	 7.05542109365274E-02 
383	 7.10046749146631E-02 
384	 7.03111391613576E-02 
385	 7.06198136220941E-02 
386	 7.09762722526876E-02 
387	 7.09564742559046E-02 
388	 7.10368584649959E-02 
389	 7.19037351169876E-02 
390	 7.22969564695843E-02 
391	 0.071633327369709 
392	 7.18295337505538E-02 
393	 7.18277036382174E-02 
394	 7.18517237417561E-02 
395	 7.23992946739444E-02 
396	 7.29239610821765E-02 
397	 0.073128236618294 
398	 7.31031918730279E-02 
399	 0.073221128118438 
400	 7.30835241884912E-02 
401	 7.31356554221553E-02 
402	 7.35053030342246E-02 
403	 7.33305585920926E-02 
404	 7.32709808276101E-02 
405	 7.34979941002735E-02 
406	 7.38977736164453E-02 
407	 0.073874934223621 
408	 7.38750699213999E-02 
409	 7.40640083719017E-02 
410	 7.42708891458197E-02 
411	 7.47089225317218E-02 
412	 0.074918910038936 
413	 7.47583026891472E-02 
414	 7.51060769496652E-02 
415	 7.54468260602545E-02 
416	 7.56236365986225E-02 
417	 7.56766314992259E-02 
418	 7.58962869901023E-02 
419	 7.62051955506709E-02 
420	 7.64681611858977E-02 
421	 7.65360570692124E-02 
422	 7.67732738855334E-02 
423	 7.71360541248003E-02 
424	 7.74722643341866E-02 
425	 7.75803914329457E-02 
426	 7.77014679073904E-02 
427	 7.80301488301646E-02 
428	 7.86351695848842E-02 
429	 7.89595121624816E-02 
430	 7.92888471946103E-02 
431	 7.96923293770954E-02 
432	 0.079894935412526 
433	 8.02180785030285E-02 
434	 0.08058796371178 
435	 8.09106175583254E-02 
436	 8.13214007959449E-02 
437	 8.16159734174505E-02 
438	 8.19188097237107E-02 
439	 8.24786347236343E-02 
440	 8.29615514236109E-02 
441	 8.33530751655971E-02 
442	 8.36918449369861E-02 
443	 8.40372806927849E-02 
444	 8.43978316307237E-02 
445	 8.47222472095049E-02 
446	 0.085009121105705 
447	 8.55311412710849E-02 
448	 8.59956168710584E-02 
449	 8.63471913384761E-02 
450	 8.67110419143216E-02 
451	 8.69971160390282E-02 
452	 8.72485683293904E-02 
453	 0.087486460937275 
454	 8.76328301575435E-02 
455	 8.79164328889407E-02 
456	 8.82905895796429E-02 
457	 8.86040017418743E-02 
458	 8.87717136850471E-02 
459	 8.89711944235661E-02 
460	 8.92608018683397E-02 
461	 8.95589592135887E-02 
462	 8.97566990937803E-02 
463	 8.99500538167211E-02 
464	 9.02093666777645E-02 
465	 0.090417114587571 
466	 9.05329501030995E-02 
467	 9.07915132785071E-02 
468	 0.091429023326796 
469	 0.091619687690687 
470	 9.17897615464342E-02 
471	 9.21618755836539E-02 
472	 9.25260436335481E-02 
473	 9.27611703387007E-02 
474	 9.29776069385756E-02 
475	 9.33195625457176E-02 
476	 9.38232166156225E-02 
477	 9.41345100336193E-02 
478	 9.43170898892159E-02 
479	 9.46919280166647E-02 
480	 9.49309323905681E-02 
481	 9.51492294727545E-02 
482	 9.54644493807189E-02 
483	 9.58926434857983E-02 
484	 9.62006611640822E-02 
485	 9.65902516915798E-02 
486	 9.72603859375441E-02 
487	 0.097479710836675 
488	 9.77071253742419E-02 
489	 9.81488512164715E-02 
490	 9.86873770883953E-02 
491	 9.89341263383401E-02 
492	 9.92642846525561E-02 
493	 9.99265719755624E-02 
494	 0.100409221456201 
495	 0.100935161852893 
496	 0.101516853569108 
497	 0.102062956553541 
498	 0.102490603380767 
499	 0.103106200950361 
500	 0.103896206483582 
501	 0.10429500792884 
502	 0.104914588721291 
503	 0.105645689087462 
504	 0.106249336682672 
505	 0.106848607156524 
506	 0.107515240597394 
507	 0.108172638830645 
508	 0.108658369101446 
509	 0.109381744400069 
510	 0.110061353738297 
511	 0.110571974249933 
512	 0.111440475099557 
513	 0.112197658053595 
514	 0.112791283836407 
515	 0.11337275408536 
516	 0.114159354023398 
517	 0.115071589961686 
518	 0.115977597187589 
519	 0.116733493861827 
520	 0.117593366132361 
521	 0.118385408254593 
522	 0.118990109217182 
523	 0.119766729301282 
524	 0.120693483522214 
525	 0.121651086512395 
526	 0.122483789591172 
527	 0.123479716273757 
528	 0.124362985790551 
529	 0.125022141947947 
530	 0.125802439678955 
531	 0.126724599343774 
532	 0.127657507097092 
533	 0.128466856864263 
534	 0.129460617738494 
535	 0.13054400763423 
536	 0.131561808690099 
537	 0.132321127578959 
538	 0.133227620942917 
539	 0.134202801128708 
540	 0.135139974140658 
541	 0.136295737657263 
542	 0.137219076595221 
543	 0.138039726693309 
544	 0.139200148390264 
545	 0.140270742157951 
546	 0.141232288556183 
547	 0.142146998000376 
548	 0.143130972126336 
549	 0.144100191671407 
550	 0.145066942191739 
551	 0.14606629137788 
552	 0.147060302798047 
553	 0.148047383411012 
554	 0.149055127811967 
555	 0.150130803798643 
556	 0.151068003979971 
557	 0.1519935378282 
558	 0.153004709705853 
559	 0.153861227710661 
560	 0.154671820052145 
561	 0.15553343908034 
562	 0.156505906754472 
563	 0.157276479412802 
564	 0.158056225187008 
565	 0.158867154762755 
566	 0.159194945493733 
567	 0.159674412772808 
568	 0.160314239705398 
569	 0.16088324491744 
570	 0.161279999367702 
571	 0.161623994599109 
572	 0.16197069048357 
573	 0.162284848771457 
574	 0.162559826802392 
575	 0.162711164119828 
576	 0.162734514184046 
577	 0.162953492077674 
578	 0.162975842446449 
579	 0.162764882273308 
580	 0.162521438142683 
581	 0.162393257476172 
582	 0.162166547477102 
583	 0.161744045435655 
584	 0.161315180022644 
585	 0.160965236904817 
586	 0.160668364356814 
587	 0.160350654963403 
588	 0.160056684545205 
589	 0.159476209945343 
590	 0.158657936641918 
591	 0.157983064602126 
592	 0.157371971298794 
593	 0.156774825513379 
594	 0.156084898743039 
595	 0.154975629912814 
596	 0.153769591331833 
597	 0.152405214129783 
598	 0.150710126835637 
599	 0.149492823351164 
600	 0.148386041797092 
601	 0.147217831242213 
602	 0.146387603253233 
603	 0.145722870256428 
604	 0.145336133652019 
605	 0.145295438849115 
606	 0.145013151773286 
607	 0.144729730646267 
608	 0.144495900197966 
609	 0.14414256112139 
610	 0.144095745815362 
611	 0.143974672959934 
612	 0.143552550481637 
613	 0.143577081133557 
614	 0.143598055937001 
615	 0.143394452271998 
616	 0.142946236649085 
617	 0.142758803731417 
618	 0.142648367034909 
619	 0.142496471671255 
620	 0.14243643216819 
621	 0.142208878968933 
622	 0.141985899171398 
623	 0.141967320530769 
624	 0.14175299428739 
625	 0.141462857367881 
626	 0.141277428982443 
627	 0.141386183134654 
628	 0.1412315770492 
629	 0.140970626820406 
630	 0.140797957561999 
631	 0.140618629934438 
632	 0.140435750764585 
633	 0.140263786044151 
634	 0.140127885317012 
635	 0.140111318238807 
636	 0.139911664409302 
637	 0.139576620943876 
638	 0.139698535452399 
639	 0.139677169755545 
640	 0.139516032945168 
641	 0.13939292733343 
642	 0.139410183535332 
643	 0.13953200252043 
644	 0.139517289136151 
645	 0.139000887337401 
646	 0.138759877438948 
647	 0.138627039879936 
648	 0.138367882031978 
649	 0.138067792484236 
650	 0.13754347582385 
651	 0.136779079011276 
652	 0.13590103049872 
653	 0.135185866042239 
654	 0.134246961470427 
655	 0.132802887541726 
656	 0.131024915208937 
657	 0.12985224409453 
658	 0.128777283682641 
659	 0.127362979248681 
660	 0.126428666769974 
661	 0.125310113456411 
662	 0.124042846318726 
663	 0.123085344538198 
664	 0.1221458629139 
665	 0.121361931785521 
666	 0.120713075034135 
667	 0.119811737171802 
668	 0.119195300620874 
669	 0.118858756679158 
670	 0.118618648544048 
671	 0.118382306800375 
672	 0.118249346261104 
673	 0.118250139819983 
674	 0.118344279160902 
675	 0.11858356220615 
676	 0.118840143178188 
677	 0.119034153989992 
678	 0.11925677684 
679	 0.119708407818123 
680	 0.120392092232417 
681	 0.121173246332293 
682	 0.121759761503401 
683	 0.12243764428578 
684	 0.123233814466769 
685	 0.123829686395366 
686	 0.125014037984267 
687	 0.126092510197727 
688	 0.12631776190578 
689	 0.12672404504061 
690	 0.127165988051919 
691	 0.127525146976713 
692	 0.127668542572382 
693	 0.127499528987878 
694	 0.127282389284905 
695	 0.127054719906914 
696	 0.126358955236724 
697	 0.125669451969687 
698	 0.124822949445033 
699	 0.123710034570277 
700	 0.123102081964859 
701	 0.121970632738635 
702	 0.120442928160582 
703	 0.119426686663342 
704	 0.118062741113938 
705	 0.116503675749391 
706	 0.114944801382208 
707	 0.113152964909804 
708	 0.111250655246793 
709	 0.109227219946187 
710	 0.107058185788615 
711	 0.104782887487182 
712	 0.102497853452122 
713	 0.10024358533981 
714	 9.79443668882284E-02 
715	 9.59148802627684E-02 
716	 9.36844891151277E-02 
717	 9.09681885837217E-02 
718	 8.82164739622151E-02 
719	 8.55575204261664E-02 
720	 8.33395526182986E-02 
721	 8.11956275167683E-02 
722	 7.93237504133493E-02 
723	 7.72611763421408E-02 
724	 7.51341216137048E-02 
725	 7.29361943826148E-02 
726	 7.00929036529402E-02 
727	 6.75154434498391E-02 
728	 6.57006762844373E-02 
729	 6.29928622519855E-02 
730	 6.04237615948238E-02 
731	 5.81805570942148E-02 
732	 5.59196708878541E-02 
733	 0.05439085611457 
734	 5.32799078700157E-02 
735	 5.22611211807209E-02 
736	 5.09800699526817E-02 
737	 5.03872489119183E-02 
738	 0.050073661826958 
739	 4.95897524165417E-02 
740	 4.92734945101069E-02 
741	 4.90932775200545E-02 
742	 4.88910317061468E-02 
743	 4.85316459865183E-02 
744	 4.86351571063801E-02 
745	 4.87011620199777E-02 
746	 4.84945820149126E-02 
747	 4.82773016778771E-02 
748	 4.82494420384979E-02 
749	 4.83255840909194E-02 
750	 0.04833983405887 
751	 4.81461521781999E-02 
752	 4.80669306090685E-02 
753	 4.81689589659928E-02 
754	 4.83330600009644E-02 
755	 4.82750291285002E-02 
756	 4.81753673526995E-02 
757	 4.81970570881978E-02 
758	 4.85009810499797E-02 
759	 4.89777242842836E-02 
760	 4.95126852986161E-02 
761	 4.96658206643181E-02 
762	 4.96837311701164E-02 
763	 4.94644520027308E-02 
764	 4.90187829638287E-02 
765	 4.85126942628475E-02 
766	 4.86107035955383E-02 
767	 4.86942673483026E-02 
768	 4.86244861843644E-02 
769	 4.86680512740697E-02 
770	 0.048744357122294 
771	 4.88855910478494E-02 
772	 4.90776828042809E-02 
773	 4.91076294748016E-02 
774	 4.94082688698961E-02 
775	 4.97450564787728E-02 
776	 4.97124682794858E-02 
777	 4.97758085910954E-02 
778	 4.99287885984572E-02 
779	 5.01995266359309E-02 
780	 5.06587285321839E-02 
781	 5.10017602832024E-02 
782	 5.11032508190547E-02 
783	 5.10415789464696E-02 
784	 5.12267498562455E-02 
785	 5.18382801550439E-02 
786	 0.052496746183256 
787	 5.27146098445201E-02 
788	 5.28098730439653E-02 
789	 5.32932827303994E-02 
790	 0.054010581445697 
791	 5.43026954116665E-02 
792	 5.43025590143825E-02 
793	 5.43345343735425E-02 
794	 5.46163604595941E-02 
795	 5.51522559895784E-02 
796	 5.57016563543346E-02 
797	 5.61025750207536E-02 
798	 5.63441768614028E-02 
799	 5.67054503230562E-02 
800	 5.67258069281676E-02 
801	 5.66041365914674E-02 
802	 5.68767657620721E-02 
803	 5.74109137442942E-02 
804	 5.76187125801703E-02 
805	 0.057456941787644 
806	 5.74657973814847E-02 
807	 5.76509085937136E-02 
808	 5.77684309292289E-02 
809	 5.76499589130384E-02 
810	 5.74965903718696E-02 
811	 5.74942616067935E-02 
812	 5.75355584856042E-02 
813	 5.73414554291922E-02 
814	 5.67547253617704E-02 
815	 5.65232025684704E-02 
816	 5.62934493797234E-02 
817	 5.50813575108894E-02 
818	 0.055017678101415 
819	 5.50285939908552E-02 
820	 5.43146422119077E-02 
821	 5.26213128031529E-02 
822	 0.051535106322743 
823	 5.08758692839685E-02 
824	 5.00792307644924E-02 
825	 4.90145423563018E-02 
826	 4.81511169636113E-02 
827	 4.71924587753242E-02 
828	 4.57753403619669E-02 
829	 4.44684749796104E-02 
830	 4.37303914872817E-02 
831	 4.33608831199444E-02 
832	 4.28208612762671E-02 
833	 4.27291159250127E-02 
834	 4.23836562288346E-02 
835	 4.17226956769591E-02 
836	 0.041606486034211 
837	 4.10367511581889E-02 
838	 4.07183826361556E-02 
839	 4.10866139613132E-02 
840	 4.11007048121099E-02 
841	 4.05922687714439E-02 
842	 0.040135021812256 
843	 4.02886294043357E-02 
844	 4.01094002964215E-02 
845	 3.97985523743627E-02 
846	 3.95978061222265E-02 
847	 3.96742681060174E-02 
848	 3.94496541748256E-02 
849	 3.95915488499592E-02 
850	 3.99583869787516E-02 
851	 3.93114966124502E-02 
852	 3.90980824125862E-02 
853	 3.92819935200467E-02 
854	 3.93969349186165E-02 
855	 3.87795301392553E-02 
856	 3.89092927469298E-02 
857	 3.92849837381219E-02 
858	 3.91267854006097E-02 
859	 0.03874390117149 
860	 3.83441513448391E-02 
861	 3.83813375501672E-02 
862	 3.90618578976203E-02 
863	 3.85386493865015E-02 
864	 3.82769290071492E-02 
865	 3.85477435266809E-02 
866	 3.83654654285462E-02 
867	 3.78803205327188E-02 
868	 3.76360131019395E-02 
869	 0.037871931709498 
870	 3.83420311731767E-02 
871	 3.80519053988136E-02 
872	 3.78291673093254E-02 
873	 3.82126573096682E-02 
874	 0.038178985044866 
875	 3.78557958913157E-02 
876	 3.74289590382452E-02 
877	 3.72046700702762E-02 
878	 3.77682591612849E-02 
879	 3.80689744566494E-02 
880	 3.76716803739079E-02 
881	 3.68009011624533E-02 
882	 0.037073629547596 
883	 3.72855970344773E-02 
884	 3.71918698739667E-02 
885	 3.73669991841213E-02 
886	 3.77371822795796E-02 
887	 3.75193640544444E-02 
888	 3.68164686396201E-02 
889	 3.67613047642397E-02 
890	 3.69019116559338E-02 
891	 3.68935506215854E-02 
892	 0.036552019838807 
893	 3.60246948163599E-02 
894	 0.036997875909698 
895	 3.83242355373215E-02 
896	 3.83561751641748E-02 
897	 3.77741684114979E-02 
898	 3.69031660379245E-02 
899	 3.69948567443044E-02 
900	 3.82220190855816E-02 
901	 3.68931447141479E-02 
902	 3.64089591702739E-02 
903	 3.70406822669477E-02 
904	 3.77950719431507E-02 
905	 3.79988142489256E-02 
906	 3.71128580400675E-02 
907	 0.036071362790226 
908	 3.67258917155033E-02 
909	 3.76172559922544E-02 
910	 3.70621301116093E-02 
911	 3.63596248913767E-02 
912	 3.86504123414183E-02 
913	 3.77511969271738E-02 
914	 3.62496280405019E-02 
915	 3.56938625941081E-02 
916	 3.50155010776223E-02 
917	 3.46595759811967E-02 
918	 3.49732860218144E-02 
919	 3.56399061270408E-02 
920	 3.56525185004378E-02 
921	 3.57102748895317E-02 
922	 3.63338025986486E-02 
923	 3.72140131334355E-02 
924	 3.62551402633106E-02 
925	 3.56000065445174E-02 
926	 3.54765035378413E-02 
927	 3.55081421456866E-02 
928	 3.55901193515632E-02 
929	 0.035624096649974 
930	 3.67617229126799E-02 
931	 0.038990790426846 
932	 2.63500769538156E-02 
933	 0.024162538252131 
934	 0.038160316317379 
935	 4.90615727726922E-02 
936	 3.52984865081511E-02 
937	 3.94297580124558E-02 
938	 4.83559290727958E-02 
939	 4.17110307166855E-02 
940	 3.81153232253089E-02 
941	 3.14199711300958E-02 
942	 2.85362425781836E-02 
943	 3.91395606085266E-02 
944	 4.30534797141061E-02 
945	 3.37960361962529E-02 
946	 2.84644246828188E-02 
947	 4.51379424822451E-02 
948	 3.93501365682641E-02 
949	 3.74590108060378E-02 
950	 3.77920497580322E-02 
951	 2.58086959631537E-02 
952	 3.05460332577415E-02 
953	 3.77560526734619E-02 
954	 3.85875178432916E-02 
955	 0.033878976976439 
956	 3.99733308642756E-02 
957	 0.040725544620835 
958	 3.70123206929149E-02 
959	 3.92562114871862E-02 
960	 3.64186783539576E-02 
961	 3.93843466618558E-02 
962	 4.21966891265003E-02 
963	 3.29941273342601E-02 
964	 3.27072378947683E-02 
965	 3.66983223421862E-02 
966	 0.038572725559062 
967	 3.46262231285664E-02 
968	 3.70734421339231E-02 
969	 3.67777620163303E-02 
970	 3.27841403083591E-02 
971	 3.16648702132207E-02 
972	 3.10677771727708E-02 
973	 3.52415346852814E-02 
974	 0.041773834670616 
975	 4.19930603258436E-02 
976	 3.50725269307369E-02 
977	 2.94875763868507E-02 
978	 2.99745711708243E-02 
979	 3.48776737686067E-02 
980	 3.30525692343827E-02 
981	 3.19757075690916E-02 
982	 3.39060783705009E-02 
983	 3.52070304436623E-02 
984	 3.13283583181132E-02 
985	 3.00136373215281E-02 
986	 3.23250707962018E-02 
987	 3.32669385314261E-02 
988	 2.98607440597816E-02 
989	 2.99543886530643E-02 
990	 0.032842583693311 
991	 0.032362909969092 
992	 0.036413327135325 
993	 3.32319516688946E-02 
994	 2.69618192491487E-02 
995	 3.02724049521857E-02 
996	 3.11553598322368E-02 
997	 0.033095086723976 
998	 3.34259723605452E-02 
999	 2.86890653220347E-02 
1000	 3.51373444295688E-02 
1001	 3.56627969758914E-02 
1002	 3.42246365484393E-02 
1003	 3.42711535986917E-02 
1004	 3.43668415387263E-02 
1005	 3.44633450262718E-02 
1006	 0.035398231134004 
1007	 3.59309167742282E-02 
1008	 3.75926579883667E-02 
1009	 3.76865004131252E-02 
1010	 3.62890022416013E-02 
1011	 3.51554031884884E-02 
1012	 3.35574254062221E-02 
1013	 3.24278973104194E-02 
1014	 3.19950554073462E-02 
1015	 3.38046847484563E-02 
1016	 3.41574867340719E-02 
1017	 3.38703853865913E-02 
1018	 3.36187673313935E-02 
1019	 3.33617946638549E-02 
1020	 3.31563384844416E-02 
1021	 3.29905611263345E-02 
1022	 3.21352610073257E-02 
1023	 3.12320411613906E-02 
1024	 0.031328566572509 
1025	 3.21325936445513E-02 
1026	 0.032584571204806 
1027	 3.27545551933254E-02 
1028	 3.33597896594128E-02 
1029	 3.35035131523302E-02 
1030	 3.26725058849361E-02 
1031	 0.032773693173107 
1032	 3.39302334255248E-02 
1033	 0.033681209492481 
1034	 3.24818444362929E-02 
1035	 3.20732615985833E-02 
1036	 3.14516324280233E-02 
1037	 3.10686799596181E-02 
1038	 3.08570205124548E-02 
1039	 3.13896575119812E-02 
1040	 3.27240062666905E-02 
1041	 3.21578550397527E-02 
1042	 3.26588784492581E-02 
1043	 3.44654688836102E-02 
1044	 3.42898270774933E-02 
1045	 3.25429437188168E-02 
1046	 3.23558162933003E-02 
1047	 3.17829201253432E-02 
1048	 0.031943251167833 
1049	 3.41596070027331E-02 
1050	 3.43944035895264E-02 
1051	 3.28157434660942E-02 
1052	 3.28967059136944E-02 
1053	 3.36922114275819E-02 
1054	 3.35209774190182E-02 
1055	 3.39237072496229E-02 
1056	 0.034072486257427 
1057	 3.37534710078818E-02 
1058	 3.15444502944494E-02 
1059	 3.17506355513059E-02 
1060	 3.33991448489109E-02 
1061	 3.40363417048167E-02 
1062	 3.56490492591537E-02 
1063	 3.56078505737088E-02 
1064	 3.37618633946715E-02 
1065	 3.34596958724471E-02 
1066	 3.30861213501617E-02 
1067	 3.29635140404292E-02 
1068	 3.42382219066057E-02 
1069	 3.44498143360171E-02 
1070	 0.033591687384057 
1071	 3.33852092041217E-02 
1072	 3.24067519754042E-02 
1073	 0.033230010481257 
1074	 3.31856177372135E-02 
1075	 3.32174880304607E-02 
1076	 3.34962751436277E-02 
1077	 3.38756280844832E-02 
1078	 3.41171643438857E-02 
1079	 3.52882345187633E-02 
1080	 3.50539745203813E-02 
1081	 3.32072039340746E-02 
1082	 3.25503316473041E-02 
1083	 3.13339285035016E-02 
1084	 3.13471611519116E-02 
1085	 3.35345661025977E-02 
1086	 3.41627127255417E-02 
1087	 3.43757059613689E-02 
1088	 3.44392173272431E-02 
1089	 3.27408536665744E-02 
1090	 3.28700951280026E-02 
1091	 3.28310976112824E-02 
1092	 3.34078322660023E-02 
1093	 3.40829955017476E-02 
1094	 3.52666038351409E-02 
1095	 3.56423068844403E-02 
1096	 3.59465538881916E-02 
1097	 3.59196598706315E-02 
1098	 3.51671276495074E-02 
1099	 3.49705528748996E-02 
1100	 3.47124441006278E-02 
1101	 3.51814308696254E-02 
1102	 3.67775750443381E-02 
1103	 3.67316288455709E-02 
1104	 3.63558864343636E-02 
1105	 3.58886389807937E-02 
1106	 3.18528082431425E-02 
1107	 3.07574783070266E-02 
1108	 3.20993477039377E-02 
1109	 3.20493703271329E-02 
1110	 3.34125013619515E-02 
1111	 3.95273443753647E-02 
1112	 3.90430035316491E-02 
1113	 3.26530407921191E-02 
1114	 2.99117690482151E-02 
1115	 2.18290447801345E-02 
1116	 1.74023294457788E-02 
1117	 2.16733934475254E-02 
1118	 2.48069161633052E-02 
1119	 3.33343442265047E-02 
1120	 3.15564367331304E-02 
1121	 1.27494429662964E-02 
1122	 1.36258721796524E-02 
1123	 2.07136234902043E-03 
1124	-9.53879659711735E-03 
1125	 4.06714708095631E-02 
1126	 3.32284694232375E-02 
1127	-4.72477812908335E-02 
1128	-0.033980997966422 
1129	-1.33714867211305E-02 
1130	 1.64584159486937E-02 
1131	 2.64099378664072E-02 
1132	 6.09413110240143E-02 
1133	 6.08553712921553E-02 
1134	 2.58327966442129E-02 
1135	 2.66721525187095E-02 
1136	 4.02400142087355E-02 
1137	 4.75029264443645E-02 
1138	 6.94870069779602E-02 
1139	 0.06960339724347 
1140	 0.041265501491224 
1141	 2.16968550794845E-02 
1142	 1.05598864637185E-02 
1143	 2.69786927554604E-03 
1144	 1.24570907431297E-02 
1145	 3.28804729704984E-02 
1146	 2.88267658614128E-02 
1147	 2.25536444690059E-02 
1148	 4.88766819414461E-02 
1149	 5.90583816928435E-02 
1150	 5.53066301149978E-02 
1151	 0.049802688483768 
1152	 4.84385198183855E-02 
1153	 3.38200904615965E-02 
1154	 3.24170230928254E-02 
1155	 4.22538676538791E-02 
1156	 3.95755858520601E-02 
1157	 0.034184675668455 
1158	 0.034151308752285 
1159	 3.20604595142573E-02 
1160	 3.07274971588892E-02 
1161	 0.03081413553276 
1162	 3.11276968824429E-02 
1163	 3.19574673206503E-02 
1164	 3.29370821849166E-02 
1165	 0.034467961169054 
1166	 3.41458521822437E-02 
1167	 3.32854117514968E-02 
1168	 3.41832315707568E-02 
1169	 3.40766146312654E-02 
1170	 3.36405629772577E-02 
1171	 3.32858554486492E-02 
1172	 3.17303365100043E-02 
1173	 3.13346002278652E-02 
1174	 3.14347084554347E-02 
1175	 3.23995419888793E-02 
1176	 3.27550208960905E-02 
1177	 3.32929659669194E-02 
1178	 3.39408016670945E-02 
1179	 3.31917616484856E-02 
1180	 3.21005513530421E-02 
1181	 3.18666779623571E-02 
1182	 3.11657354549177E-02 
1183	 0.031505557670141 
1184	 0.033548683402752 
1185	 3.36286389561035E-02 
1186	 3.26533439791025E-02 
1187	 3.19475586077796E-02 
1188	 3.09765145956875E-02 
1189	 0.03178746002902 
1190	 3.29767408219601E-02 
1191	 3.23602611470664E-02 
1192	 3.21430595254442E-02 
1193	 3.12218910095921E-02 
1194	 3.11498938441446E-02 
1195	 3.15461534281505E-02 
1196	 3.19851812214102E-02 
1197	 3.31784654366436E-02 
1198	 3.42151138724779E-02 
1199	 0.034016589708027 
1200	 3.38208240643313E-02 
1201	 3.41259575002272E-02 
1202	 3.34342692428736E-02 
1203	 3.21487363917499E-02 
1204	 3.30305242955336E-02 
1205	 3.51122620158889E-02 
1206	 3.46677584988301E-02 
1207	 3.31381233194386E-02 
1208	 0.032426236831995 
1209	 3.09137607248496E-02 
1210	 3.04884352072983E-02 
1211	 3.24175058399693E-02 
1212	 3.37890125552056E-02 
1213	 3.40408941851285E-02 
1214	 3.39249525901761E-02 
1215	 3.29442552100314E-02 
1216	 3.18960100615308E-02 
1217	 3.24970106667049E-02 
1218	 0.033414487729641 
1219	 3.34655724994328E-02 
1220	 3.34988743389442E-02 
1221	 3.33497398369386E-02 
1222	 3.24565404008202E-02 
1223	 3.24473020643742E-02 
1224	 3.32599044639087E-02 
1225	 3.33036084344546E-02 
1226	 3.36439662500191E-02 
1227	 3.36910603617689E-02 
1228	 3.31287848883376E-02 
1229	 3.31927090881563E-02 
1230	 0.032531928063684 
1231	 3.15180449790075E-02 
1232	 3.19285690249398E-02 
1233	 3.23100103421662E-02 
1234	 3.16054034900176E-02 
1235	 3.14948516775623E-02 
1236	 3.22272287984765E-02 
1237	 3.25995811677069E-02 
1238	 0.0328088660256 
1239	 3.28976599590119E-02 
1240	 3.19407647030578E-02 
1241	 3.15985128802958E-02 
1242	 3.15010935197662E-02 
1243	 3.12913946432465E-02 
1244	 3.24273693737161E-02 
1245	 3.30837739643859E-02 
1246	 3.22701596412057E-02 
1247	 3.19392292224807E-02 
1248	 3.21568658125532E-02 
1249	 3.18500890100628E-02 
1250	 3.19595061141758E-02 
1251	 3.26529118751099E-02 
1252	 0.032996365899767 
1253	 3.25345627879308E-02 
1254	 3.14880381129445E-02 
1255	 3.12046725562289E-02 
1256	 3.13332133199759E-02 
1257	 3.22628266491761E-02 
1258	 3.25465818726411E-02 
1259	 3.28171069431668E-02 
1260	 3.29725309004169E-02 
1261	 3.30554364529265E-02 
1262	 3.28620667681953E-02 
1263	 3.25665141155186E-02 
1264	 3.25780151021937E-02 
1265	 3.24593832386233E-02 
1266	 3.22621637449421E-02 
1267	 3.27483393496803E-02 
1268	 3.29831667198914E-02 
1269	 3.28150825562562E-02 
1270	 3.23596054920517E-02 
1271	 3.25981203591404E-02 
1272	 3.32688045994939E-02 
1273	 3.29050752189365E-02 
1274	 3.27942789144578E-02 
1275	 3.26360815081176E-02 
1276	 3.27652997893625E-02 
1277	 3.34349642223546E-02 
1278	 0.032696880404607 
1279	 3.17768982290408E-02 
1280	 0.031613033153939 
1281	 3.17558164347754E-02 
1282	 3.24059150105668E-02 
1283	 3.28310735887741E-02 
1284	 3.42833769616682E-02 
1285	 3.42258303532943E-02 
1286	 3.22555037896592E-02 
1287	 3.21012110093689E-02 
1288	 0.032642686136464 
1289	 3.26255637339368E-02 
1290	 3.29907657850722E-02 
1291	 3.39884593380555E-02 
1292	 3.34651755998076E-02 
1293	 3.15731201744922E-02 
1294	 3.11891144685991E-02 
1295	 3.15701297742925E-02 
1296	 0.03145879718526 
1297	 3.19503820089515E-02 
1298	 3.18730134640178E-02 
1299	 3.10825571570404E-02 
1300	 3.12333365979598E-02 
1301	 3.07591489662489E-02 
1302	 3.04075088126048E-02 
1303	 3.07171713043784E-02 
1304	 3.10392456871222E-02 
1305	 3.25982119803591E-02 
1306	 3.31167687672032E-02 
1307	 0.032750865078056 
1308	 3.32504090470397E-02 
1309	 3.39671302297006E-02 
1310	 3.42946802158816E-02 
1311	 3.52024954146917E-02 
1312	 3.47180180332562E-02 
1313	 3.30801785757402E-02 
1314	 3.17637836145906E-02 
1315	 2.84714386004087E-02 
1316	 2.83802487949308E-02 
1317	 3.06984035581841E-02 
1318	 3.17154525097314E-02 
1319	 3.48538527078267E-02 
1320	 3.59656980782345E-02 
1321	 3.46402929514791E-02 
1322	 3.54068055899086E-02 
1323	 3.35538682012689E-02 
1324	 3.10166850595011E-02 
1325	 0.033181116005579 
1326	 3.33447060908556E-02 
1327	 2.96437623005437E-02 
1328	 2.95782798233736E-02 
1329	 3.20780513590233E-02 
1330	 0.03093632273911 
1331	 2.78762106024889E-02 
1332	 2.69755311374935E-02 
1333	 2.97886849341253E-02 
1334	 3.23767634086227E-02 
1335	 3.26323795570808E-02 
1336	 4.32073484893846E-02 
1337	 4.25038442879726E-02 
1338	 2.45588558260354E-02 
1339	 1.94377893867792E-02 
1340	 1.54546474899518E-02 
1341	 1.76559553081466E-02 
1342	 3.82469739406905E-02 
1343	 3.83463561697388E-02 
1344	 2.37924540405066E-02 
1345	 2.51144992753717E-02 
1346	 0.020447282679994 
1347	 1.26614146879996E-02 
1348	 2.75506177272871E-02 
1349	 4.02724776402062E-02 
1350	 3.28699620367386E-02 
1351	 1.35782880932601E-02 
1352	-1.66703648805603E-02 
1353	-2.99104103412827E-03 
1354	 5.74548832615958E-02 
1355	-5.40021288519526E-03 
1356	 5.24656724475054E-02 
1357	 0.288616793192346 
1358	 0.299139439110163 
1359	 0.178013819197165 
1360	 1.10075292582951 
1361	 0.765152240931423 
1362	-0.140784393053219 
1363	 0.074963795065713 
1364	 1.74244008980436 
1365	 0.998204414911737 
1366	-0.671107077451079 
1367	 3.10030844557729 
1368	-10.8817653580629 
1369	-0.693264514831356 
1370	-0.201655213663655 
1371	 1.05878211436936 
1372	 0.821101582158116 
1373	-0.406263573182834 
1374	-0.222637786793803 
1375	-0.174040811939467 
1376	-0.232625203469076 
1377	 1.36342687876389 
1378	 0.868027633140094 
1379	 2.66998666329667E-02 
1380	-0.121560488948086 
1381	-0.166483977607365 
1382	-0.134969605066113 
1383	 0.10818405082267 
1384	 0.545498110609489 
1385	 0.421069853458512 
1386	 0.265399208511701 
1387	-0.253203861449116 
1388	-1.00844644456424 
1389	-2.40974761194073 
1390	-2.43231504759587 
1391	-1.35706395847991 
1392	-0.846649572835921 
1393	-0.392522684183978 
1394	 3.13769736738258E-02 
1395	-0.826086052906595 
1396	-1.37973484325611 
1397	-0.316170512328383 
1398	-0.586035670663459 
1399	-7.52451228448594E-03 
1400	 0.105691139503493 
1401	-0.249827097589663 
1402	-0.112406380252069 
1403	-7.58229820826749E-02 
1404	-0.102698450874668 
1405	-0.164497685600363 
1406	-0.487887225559206 
1407	-0.634826024068964 
1408	-0.788727682050425 
1409	-1.18050692313997 
1410	-1.58806299857437 
1411	-1.31014004373051 
1412	-1.03763334454557 
1413	-0.846491977248934 
1414	-0.247154054741157 
1415	-0.171918438562841 
1416	-1.11147809240096 
1417	-0.640403087844813 
1418	 15.7459717396797 
1419	 5.80921411947952 
1420	 0.320725637526042 
1421	 0.359863507068249 
1422	 0.159877746383747 
1423	-0.149777042609237 
1424	-0.246251347170753 
1425	-0.110195771714271 
1426	-0.205998673761757 
1427	-0.245144524073644 
1428	 0.265220920040829 
1429	 0.276879681082766 
1430	-0.474806901387162 
1431	-0.673830234784232 
1432	-0.564243823046231 
1433	-0.585045243564355 
1434	-0.261186457239344 
1435	-0.149167738822232 
1436	-0.213221073301208 
1437	-0.369504871881848 
1438	-0.389370327799605 
1439	-0.343322949518279 
1440	-0.179860333589033 
1441	-3.22566088903686E-02 
1442	-9.31485368755067E-02 
1443	-7.72889006777146E-02 
1444	 7.39000364551417E-02 
1445	 3.07213322620249E-02 
1446	 3.4076253114429E-03 
1447	 0.080782747131986 
1448	 0.101047293738566 
1449	 0.116901102025694 
1450	 0.122312418975896 
1451	 0.105580970160354 
1452	 0.131538607035626 
1453	 0.129710672718004 
1454	 0.112936548498412 
1455	 0.106839065295088 
1456	 0.108826967499589 
1457	 9.68787670176602E-02 
1458	 6.49287655468189E-02 
1459	 3.26887637279175E-02 
1460	 2.15882337581523E-02 
1461	-1.57796479974545E-02 
1462	-2.23650034932149E-02 
1463	 2.21879947713391E-02 
1464	 2.99778784265522E-02 
1465	 8.9175420355271E-03 
1466	 1.30352677265004E-02 
1467	 3.17359836228329E-02 
1468	 3.96114023103555E-02 
1469	 5.95293691522547E-02 
1470	 4.81049840901465E-02 
1471	-7.4770645912063E-03 
1472	 3.76469222104648E-03 
1473	 5.56256465084626E-02 
1474	 5.05783407494028E-02 
1475	 3.31364290522627E-02 
1476	 4.20026086497535E-02 
1477	 4.26239280804666E-02 
1478	 0.030906585317391 
1479	 3.28163772184692E-02 
1480	 0.048683263656894 
1481	 5.08016250690508E-02 
1482	 4.34977200381117E-02 
1483	 5.22243684220786E-02 
1484	 5.58017772067206E-02 
1485	 0.046379807106856 
1486	 0.03593397538816 
1487	 3.40160707006296E-02 
1488	 2.95380913638973E-02 
1489	 7.19918621887003E-03 
1490	 6.80775780470454E-03 
1491	 2.22411271483989E-02 
1492	 2.73020293792187E-02 
1493	 3.56242897674633E-02 
1494	 3.90123128471662E-02 
1495	 3.47309338733906E-02 
1496	 3.46231784097717E-02 
1497	 3.74900741964326E-02 
1498	 3.69097178244663E-02 
1499	 3.60250265276913E-02 
1500	 3.48499183055482E-02 
1501	 3.05111902415348E-02 
1502	 2.93864028609198E-02 
1503	 3.16884027026653E-02 
1504	 0.0304700406634 
1505	 2.75768973142133E-02 
1506	 2.56963082725998E-02 
1507	 2.67948009824162E-02 
1508	 2.89606743341804E-02 
1509	 2.97429091249718E-02 
1510	 3.19272736581131E-02 
1511	 3.22673315167994E-02 
1512	 3.00130933790807E-02 
1513	 3.07458635576375E-02 
1514	 3.25586272120616E-02 
1515	 3.41767200488074E-02 
1516	 3.22218225407958E-02 
1517	 2.75584793903748E-02 
1518	 2.81152440548069E-02 
1519	 2.93636708330031E-02 
1520	 2.89180563696896E-02 
1521	 3.09273426638159E-02 
1522	 3.15026064665161E-02 
1523	 3.05762440463679E-02 
1524	 2.89812680706801E-02 
1525	 2.63502360285008E-02 
1526	 2.63542589774177E-02 
1527	 2.80404449451387E-02 
1528	 2.93762912165182E-02 
1529	 2.95431654803212E-02 
1530	 2.83057984252848E-02 
1531	 2.68032392936679E-02 
1532	 2.59765494974003E-02 
1533	 2.81228573491931E-02 
1534	 3.08569021081486E-02 
1535	 2.92989184406763E-02 
1536	 2.78447972412836E-02 
1537	 2.93481065026233E-02 
1538	 0.029115825515894 
1539	 2.73504879143592E-02 
1540	 2.64673490360405E-02 
1541	 2.76719575968395E-02 
1542	 2.89242071519258E-02 
1543	 0.028624245938581 
1544	 2.99656686647125E-02 
1545	 2.98702224314476E-02 
1546	 2.75476866626251E-02 
1547	 0.029721879867804 
1548	 3.25882555059127E-02 
1549	 3.14126113504057E-02 
1550	 3.18420097619583E-02 
1551	 3.20200657552904E-02 
1552	 2.96696861474814E-02 
1553	 2.91851739696537E-02 
1554	 2.87110441880698E-02 
1555	 2.78115282966418E-02 
1556	 2.84658529729755E-02 
1557	 2.88510962700319E-02 
1558	 2.84563124650949E-02 
1559	 2.80501338455561E-02 
1560	 2.87829090054976E-02 
1561	 2.96807051093023E-02 
1562	 2.87703359116467E-02 
1563	 2.94541753639067E-02 
1564	 3.00544247680343E-02 
1565	 2.74326881416222E-02 
1566	 2.72108866060715E-02 
1567	 2.83960704379936E-02 
1568	 2.72654944905168E-02 
1569	 2.83484190356622E-02 
1570	 3.09550807279841E-02 
1571	 3.06316126727207E-02 
1572	 0.030312563623673 
1573	 3.09314506553395E-02 
1574	 3.05452107246576E-02 
1575	 3.04940273028451E-02 
1576	 3.02480874505974E-02 
1577	 0.029552978415399 
1578	 2.99397919389981E-02 
1579	 2.98974221357411E-02 
1580	 2.87431549847429E-02 
1581	 2.84483736390207E-02 
1582	 2.85992602592201E-02 
1583	 2.91030406547933E-02 
1584	 3.00831203661639E-02 
1585	 3.00520174020465E-02 
1586	 2.93968254152131E-02 
1587	 2.86550941005377E-02 
1588	 0.029550796694324 
1589	 3.19946523851629E-02 
1590	 3.21731687023647E-02 
1591	 3.05071286064819E-02 
1592	 3.02396027268627E-02 
1593	 3.07243566104638E-02 
1594	 3.03055840185629E-02 
1595	 3.04481847257051E-02 
1596	 0.030432648297213 
1597	 2.93424246588058E-02 
1598	 2.98008197698848E-02 
1599	 3.14896541321388E-02 
1600	 3.11905914450552E-02 
1601	 2.99368597061111E-02 
1602	 2.95832374304858E-02 
1603	 2.87663825459176E-02 
1604	 0.028453132767395 
1605	 0.030054264013281 
1606	 3.16136633716398E-02 
1607	 3.10966999448983E-02 
1608	 2.98930732106863E-02 
1609	 3.01711535601907E-02 
1610	 0.030950099210572 
1611	 3.02066367426162E-02 
1612	 2.99583997532912E-02 
1613	 2.96986857000011E-02 
1614	 2.77803445081734E-02 
1615	 2.80024548481222E-02 
1616	 2.95655110599998E-02 
1617	 3.00566756818398E-02 
1618	 2.96194671001569E-02 
1619	 2.86213518625031E-02 
1620	 2.89350062382787E-02 
1621	 2.98721268536692E-02 
1622	 2.92657672749507E-02 
1623	 2.84925150711168E-02 
1624	 2.88350173228705E-02 
1625	 2.85311784846047E-02 
1626	 2.82002446941721E-02 
1627	 2.89468877259863E-02 
1628	 2.90265381284443E-02 
1629	 2.88059344429057E-02 
1630	 2.93101747009564E-02 
1631	 0.029451856111112 
1632	 0.029803904494206 
1633	 3.05287358356142E-02 
1634	 3.01979195474143E-02 
1635	 3.01892196415619E-02 
1636	 2.98409167188249E-02 
1637	 2.91304309337644E-02 
1638	 3.01056668323107E-02 
1639	 3.01403118168836E-02 
1640	 0.029751110857859 
1641	 3.05610460036228E-02 
1642	 3.03643584728137E-02 
1643	 2.99344165503639E-02 
1644	 3.08123812660442E-02 
1645	 3.15734104704952E-02 
1646	 3.10106446967244E-02 
1647	 3.00862370622841E-02 
1648	 0.030392119403669 
1649	 3.01521127185555E-02 
1650	 2.90821834601109E-02 
1651	 2.96422376822667E-02 
1652	 3.03016818994071E-02 
1653	 3.18808371614028E-02 
1654	 3.27120814598275E-02 
1655	 3.27187839761418E-02 
1656	 3.22858536192762E-02 
1657	 3.12858435379354E-02 
1658	 3.07109017656413E-02 
1659	 3.01314657196724E-02 
1660	 2.97987339657607E-02 
1661	 2.96088402486266E-02 
1662	 2.97904110113363E-02 
1663	 2.96598895147578E-02 
1664	 2.94334665840004E-02 
1665	 3.04992018757662E-02 
1666	 3.07229269183911E-02 
1667	 2.95689767928212E-02 
1668	 3.06217301263336E-02 
1669	 3.19273455347069E-02 
1670	 3.17368876725355E-02 
1671	 3.05903818389907E-02 
1672	 3.14981250743466E-02 
1673	 3.23099070790865E-02 
1674	 3.03560982241153E-02 
1675	 2.94835272033712E-02 
1676	 3.08557107564208E-02 
1677	 3.05376305158962E-02 
1678	 3.04400324768618E-02 
1679	 3.15158767879851E-02 
1680	 3.00640056394529E-02 
1681	 2.83314254948435E-02 
1682	 2.89388183485836E-02 
1683	 3.01554215061114E-02 
1684	 3.06145061071923E-02 
1685	 3.07437840354755E-02 
1686	 0.031082436059467 
1687	 3.02896359039528E-02 
1688	 2.96703860886115E-02 
1689	 0.031111583726601 
1690	 3.27883003691867E-02 
1691	 3.30207362354133E-02 
1692	 3.32337964894434E-02 
1693	 3.34129143589565E-02 
1694	 3.09277164900769E-02 
1695	 3.06123448469744E-02 
1696	 3.31901607927665E-02 
1697	 3.16874703911101E-02 
1698	 2.85697125673893E-02 
1699	 2.88109632538001E-02 
1700	 2.94903826983147E-02 
1701	 2.92006000537729E-02 
1702	 0.031242957209786 
1703	 3.26917300777728E-02 
1704	 3.05564068741401E-02 
1705	 0.02893211532323 
1706	 3.03956103437489E-02 
1707	 3.00818821353057E-02 
1708	 2.81971868365271E-02 
1709	 2.96095868706693E-02 
1710	 2.94325917202072E-02 
1711	 2.82538430966263E-02 
1712	 0.030328956862543 
1713	 3.31556294275887E-02 
1714	 3.30293178788941E-02 
1715	 3.24928406314351E-02 
1716	 3.33846586119314E-02 
1717	 3.17788490234764E-02 
1718	 3.24421928122056E-02 
1719	 3.17862464493816E-02 
1720	 2.93907166444409E-02 
1721	 2.89501059143618E-02 
1722	 2.96118690345345E-02 
1723	 3.23007176651789E-02 
1724	 3.28556150336771E-02 
1725	 2.92995183594711E-02 
1726	 2.94566189761017E-02 
1727	 2.91270422888169E-02 
1728	 2.43141202508484E-02 
1729	 2.69576929302496E-02 
1730	 3.23585366853456E-02 
1731	 2.87539257856969E-02 
1732	 2.70732429884204E-02 
1733	 3.04977230526125E-02 
1734	 3.06654740000295E-02 
1735	 3.04750816377879E-02 
1736	 3.19490487500836E-02 
1737	 3.21172712711864E-02 
1738	 2.80603230497093E-02 
1739	 2.65528833457729E-02 
1740	 3.03607463463013E-02 
1741	 2.87364576196142E-02 
1742	 2.53881538206036E-02 
1743	 0.027993699575461 
1744	 0.032414524661016 
1745	 0.034058332408416 
1746	 3.10868167406284E-02 
1747	 2.97159972032042E-02 
1748	 2.45588717302992E-02 
1749	 0.024124736245823 
1750	 3.01692023113232E-02 
1751	 3.05613469210994E-02 
1752	 2.80838983751815E-02 
1753	 2.78842615040168E-02 
1754	 2.50417385795471E-02 
1755	 2.52587589840427E-02 
1756	 3.08539408143164E-02 
1757	 3.18471203807853E-02 
1758	 3.39702167409642E-02 
1759	 3.34036563601511E-02 
1760	 2.90943590278371E-02 
1761	 3.00958538721769E-02 
1762	 3.19228707717859E-02 
1763	 3.35431742549719E-02 
1764	 3.69117018912655E-02 
1765	 3.39522486587558E-02 
1766	 2.97061422356939E-02 
1767	 3.37756059959701E-02 
1768	 3.61136761427244E-02 
1769	 3.46937054963429E-02 
1770	 3.95447616114877E-02 
1771	 3.91151447647921E-02 
1772	 0.030561874167274 
1773	 0.0330616236082 
1774	 3.35601576392665E-02 
1775	 3.41582203058121E-02 
1776	 3.65281841477427E-02 
1777	 3.83212181119811E-02 
1778	 0.035829375713997 
1779	 0.027193852441739 
1780	 2.22793630593834E-02 
1781	 1.67534535629909E-02 
1782	 1.38524710800674E-02 
1783	 1.61885733157722E-02 
1784	 2.50081983933397E-02 
1785	 3.87264963217295E-02 
1786	 4.38956451661644E-02 
1787	 5.71379086294303E-02 
1788	 5.51888453766372E-02 
1789	 2.85159034509653E-02 
1790	 2.30219454694602E-03 
1791	 7.34609108507034E-03 
1792	 2.78176087297722E-02 
1793	 4.70361834316975E-02 
1794	 4.68720625518621E-02 
1795	 1.29393818147018E-02 
1796	-4.50167534323953E-03 
1797	-0.034476224496358 
1798	-4.39151168717208E-02 
1799	 3.22576723658069E-02 
1800	-4.54022137264094E-02 
1801	-0.128641981651687 
1802	-0.34584331481549 
1803	-0.393577396781454 
1804	-0.247267645448502 
1805	-0.127523145948434 
1806	 1.24808133622586 
1807	 2.25840262510403 
1808	 0.336680660285609 
1809	 7.99682509185362E-02 
1810	-0.137548078049858 
1811	-0.230934854851886 
1812	-0.112664125100441 
1813	-0.1019662041872 
1814	-0.385681725167861 
1815	 4.75599675875115E-02 
1816	-5.00949446560657 
1817	 1.22642319290615 
1818	-0.378705490763766 
1819	-1.24446613562499 
1820	-0.675434441912305 
1821	-1.50172321947798 
1822	-1.29764999456755 
1823	-0.602261947862424 
1824	-0.275667613841782 
1825	-4.19540746046029 
1826	-2.36262912265421 
1827	-0.158048410451192 
1828	-8.28932059070173E-02 
1829	 0.351366973270406 
1830	 0.582763095995893 
1831	 6.22262951263478 
1832	 5.55001444004128 
1833	 2.50814148962502 
1834	 1.84409551819065 
1835	 0.79034649479644 
1836	 0.557547006472633 
1837	 0.835357030496087 
1838	 1.27910749272348 
1839	-12.4047896762937 
1840	-1.97889911315654 
1841	-1.12345856182716 
1842	-0.675249702260806 
1843	-0.999055917662825 
1844	 2.60080996923384 
1845	 1.4327296753191 
1846	 0.853720361428236 
1847	 0.396625273703842 
1848	-0.467549164574396 
1849	-1.33128778082874 
1850	-0.37412629196818 
1851	-1.91529657086378E-02 
1852	 0.056124664656545 
1853	 0.360751626201155 
1854	 0.470858282649056 
1855	 0.110969930531139 
1856	 6.05086492160661E-02 
1857	-0.792092451493085 
1858	-0.775710599837338 
1859	 0.966352525708123 
1860	 1.44277720189715 
1861	 2.36687180757682 
1862	 0.936156209613863 
1863	 0.790425653286069 
1864	 1.53260280222933 
1865	 1.84482408863451 
1866	 1.47822651035716 
1867	 2.33037977107929 
1868	-6.86599394323695 
1869	-4.23116438812511 
1870	-3.15820297473693 
1871	 3.97651812947008 
1872	 1.37417363401456 
1873	 0.474566988638482 
1874	 0.564968080282798 
1875	 1.07048867760197 
1876	 1.55575120808018 
1877	-3.40520874674662 
1878	-3.06250747713095 
1879	 3.59037197577571 
1880	 2.92474197526369 
1881	 3.43750133014244 
1882	 2.08750338381922 
1883	 1.92432563674881 
1884	 1.29864212712671 
1885	 0.679541947277351 
1886	 1.00553250970748 
1887	 1.12107521672273 
1888	 1.30169511753882 
1889	 2.26217594570844 
1890	 5.03173086940321 
1891	 5.61594328727113 
1892	 4.02868026748055 
1893	 70.2296767372294 
1894	-30.9920436607365 
1895	 19.9898332135994 
1896	-0.850857778932762 
1897	-2.06442841085002 
1898	-1.64885019797016 
1899	-1.5486918015473 
1900	-2.81050204169662 
1901	 2.84904587173578 
1902	 0.829288018016888 
1903	 0.287675988001208 
1904	 3.38027183145985E-04 
1905	-0.383673496480093 
1906	-0.259138382401997 
1907	-0.393791147615976 
1908	 0.320480425343316 
1909	 0.860900230495671 
1910	 0.671810159313394 
1911	 1.62143277989956 
1912	-37.6948564385775 
1913	-2.27767058753929 
1914	-1.08589696015302 
1915	-1.0432625344946 
1916	-1.76380423806411 
1917	-8.57515688488912 
1918	-4.42665001672234 
1919	 1.65317092798042 
1920	 0.241187381670872 
1921	 0.1763341781743 
1922	 0.18916778632172 
1923	 0.360242042541395 
1924	 1.57835525017118 
1925	 12.197890136836 
1926	-24.5518656281654 
1927	 6.27558360316511 
1928	 10.7569922850089 
1929	 4.89143068989345 
1930	 1.80332151744324 
1931	-1.61510874169375 
1932	-3.36399793446901 
1933	 4.00191330657708 
1934	-42.7687676645686 
1935	 7.09977839444073 
1936	 1.71011122891251 
1937	 1.32549490561128 
1938	-42.4474567210991 
1939	-3.34762626810965 
1940	 3.17699183353034 
1941	 1.19824359173471 
1942	 0.309799713281836 
1943	 0.58618572186616 
1944	 0.130634216962904 
1945	-0.202450238840086 
1946	-4.04556918696171 
1947	 2.83829665227416 
1948	 7.8345993389109 
1949	 5.61850116254103 
1950	 34.8694357515997 
1951	-22497.5119694933 
1952	 190.164223447912 
1953	 3.59495715287265 
1954	 0.910706476087642 
1955	 0.340414846428469 
1956	 139.746540579252 
1957	 9.04808037774048 
1958	-5.98229799986172E-02 
1959	 0.159922490767479 
1960	 1.1553434212729 
1961	 1.66300057726194 
1962	 0.382547029139888 
1963	 0.235832830979261 
1964	 0.344107747580576 
1965	 0.128534183726818 
1966	 6.80029707784218E-02 
1967	 0.157336212469382 
1968	 0.296212308469051 
1969	 0.187457178898523 
1970	 0.162711256731159 
1971	 0.250651713815564 
1972	 0.229598321964886 
1973	 0.10478400394591 
1974	 1.89644903707189E-02 
1975	 1.15202685497044E-02 
1976	 3.3468800773452E-03 
1977	 3.14450230741376E-02 
1978	 0.10024013453734 
1979	 0.134562212864642 
1980	 0.127060525743783 
1981	 0.129289654034987 
1982	 0.158487995237574 
1983	 0.209409941643969 
1984	 0.258292929085861 
1985	 0.218699368247596 
1986	 0.168527221730692 
1987	 0.124856189630476 
1988	 6.38870048679027E-02 
1989	 3.64083880756374E-02 
1990	 4.33037204653868E-02 
1991	 4.80205377637047E-02 
1992	 3.68022204227343E-02 
1993	 4.76430344672413E-02 
1994	 5.58571264747888E-02 
1995	 5.95673046715153E-02 
1996	 8.31063302441585E-02 
1997	 0.118421610610986 
1998	 0.113080553219903 
1999	 0.1711698880657 
2000	 0.245481463642674 
2001	 0.278131813380368 
2002	 0.298359490758534 
2003	 0.226493390081153 
2004	 9.67985601184066E-02 
2005	 0.117295014979141 
2006	 0.159349739803803 
2007	 8.08361796485151E-02 
2008	 0.12471752544941 
2009	 0.167768441346079 
2010	 0.139717989041526 
2011	 0.120934666179088 
2012	 0.19053239552298 
2013	 0.171330084539049 
2014	 7.80850347906964E-02 
2015	-2.05551393224021E-03 
2016	-7.49036794591025E-03 
2017	 3.51870822653771E-02 
2018	 4.13484775968707E-02 
2019	 1.04869574552457E-02 
2020	 1.95831021068037E-02 
2021	 2.35790155787042E-02 
2022	 4.48429687506467E-02 
2023	 7.70237415475105E-02 
2024	 7.54713168643005E-02 
2025	 0.045813507330254 
2026	 4.31301582148757E-02 
2027	 3.56324112881656E-02 
2028	 3.38152435824791E-02 
2029	 5.39224164843833E-02 
2030	 6.05782604555673E-02 
2031	 4.37740836915915E-02 
2032	 3.83798033042148E-02 
2033	 4.09098527405564E-02 
2034	 3.73778542360381E-02 
2035	 4.80085433247091E-02 
2036	 5.20575177116409E-02 
2037	 2.86167587302485E-02 
2038	 0.010551764378549 
2039	 3.73237219446138E-03 
2040	-5.83529748747906E-03 
2041	-6.67571853028929E-03 
2042	 1.74879855301655E-02 
2043	 2.14204803222275E-02 
2044	 0.017323997762703 
2045	 9.10364886274562E-03 
2046	-1.40190580679922E-03 
2047	-4.28062841160152E-03 
2048	 2.32924830236214E-03 
2049	 8.89959050994919E-03 
2050	 3.55532931127814E-02 
2051	 4.49197915140533E-02 
2052	 0.03491963036965 
2053	 0.044934328353564 
2054	 4.19750946064953E-02 
2055	 3.73919439126033E-02 
2056	 3.59741241737967E-02 
2057	 4.39509407901935E-02 
2058	 0.043477652626031 
2059	 0.03787024016496 
2060	 0.032429438025926 
2061	 2.57430328687812E-02 
2062	 2.37155983925659E-02 
2063	 1.81119567368448E-02 
2064	-2.8405180068655E-03 
2065	 9.60018389384492E-03 
2066	 1.87984738923426E-02 
2067	 1.74501850921329E-02 
2068	 3.41298809195192E-02 
2069	 3.69260651879663E-02 
2070	 4.46294304893654E-02 
2071	 4.22474498177458E-02 
2072	 5.00503308433774E-02 
2073	 5.09922167474288E-02 
2074	 3.23468271734995E-02 
2075	 3.01780839648632E-02 
2076	 4.15019292132772E-02 
2077	 4.37269653004758E-02 
2078	 5.00956614056583E-02 
2079	 0.055486695995939 
2080	 5.84916394806044E-02 
2081	 5.78576036044878E-02 
2082	 5.49825572500926E-02 
2083	 4.21682980418227E-02 
2084	 4.12194335586479E-02 
2085	 3.23313620354475E-02 
2086	 2.41770731028183E-02 
2087	 0.024214927775693 
2088	 1.27895802279207E-02 
2089	 1.76539107214174E-02 
2090	 2.48264881730602E-02 
2091	 0.01816697574934 
2092	 1.64895558660163E-02 
2093	 9.37181318112627E-03 
2094	 1.01914058103826E-02 
2095	 1.93465545629319E-02 
2096	 2.53977284819853E-02 
2097	 3.54164116483131E-02 
2098	 0.039510195353152 
2099	 3.68502288210624E-02 
2100	 3.67565993972116E-02 
2101	 4.36859915339951E-02 
2102	 4.13677903118956E-02 
2103	 3.58002386568475E-02 
2104	 3.75051850358955E-02 
2105	 3.99313062001909E-02 
2106	 5.07236439096917E-02 
2107	 6.18992879719018E-02 
2108	 6.68464187964163E-02 
2109	 0.059936274509588 
2110	 0.044750384673116 
2111	 4.15498740099607E-02 
2112	 0.035704282796929 
2113	 3.28689345885795E-02 
2114	 4.32384903048847E-02 
2115	 4.14519079328134E-02 
2116	 3.02619990230165E-02 
2117	 2.56447252972062E-02 
2118	 1.26245304271281E-02 
2119	 1.00361980531147E-02 
2120	 1.99088744428609E-02 
2121	 2.07738375325233E-02 
2122	 0.015793851113175 
2123	 2.81068358301733E-02 
2124	 2.73132787589572E-02 
2125	 3.08521963832914E-02 
2126	 3.95149016858762E-02 
2127	 3.09977116157958E-02 
2128	 3.12015519996435E-02 
2129	 3.68203520806824E-02 
2130	 3.79219916993497E-02 
2131	 3.76553104740448E-02 
2132	 4.94836915981912E-02 
2133	 5.85272612298457E-02 
2134	 5.56387855999092E-02 
2135	 5.43568861492463E-02 
2136	 5.22814316872157E-02 
2137	 0.030399723237885 
2138	 2.38239301272393E-02 
2139	 2.94096648313067E-02 
2140	 0.028249896636398 
2141	 0.027096530998919 
2142	 2.56341776773644E-02 
2143	 0.021134736967698 
2144	 2.44921590657084E-02 
2145	 2.82239638441074E-02 
2146	 2.49583691480319E-02 
2147	 2.60264217328892E-02 
2148	 2.77542816449192E-02 
2149	 2.43977999229982E-02 
2150	 2.20693745325019E-02 
2151	 2.58673382240799E-02 
2152	 2.39428947592498E-02 
2153	 2.40459158079568E-02 
2154	 3.32298044200434E-02 
2155	 3.22365416831812E-02 
2156	 3.84379113716544E-02 
2157	 4.33040792392401E-02 
2158	 4.70089239045956E-02 
2159	 5.11836913001607E-02 
2160	 5.90480881446955E-02 
2161	 5.93825027473348E-02 
2162	 0.059859585068265 
2163	 5.60212426694146E-02 
2164	 4.30686932719286E-02 
2165	 3.61629739299613E-02 
2166	 2.75106804492647E-02 
2167	 2.25360723316522E-02 
2168	 2.28313270025417E-02 
2169	 2.07293925927914E-02 
2170	 2.00357723256741E-02 
2171	 1.51773537270713E-02 
2172	 1.65820148911915E-02 
2173	 1.78528349418471E-02 
2174	 1.25923949990058E-02 
2175	 1.97307495498243E-02 
2176	 2.17066630125379E-02 
2177	 1.29380212559057E-02 
2178	 1.14374046559904E-02 
2179	 7.4280517250009E-03 
2180	 4.60264555748146E-03 
2181	 1.25798707453322E-02 
2182	 2.21403018125385E-02 
2183	 3.13800040519273E-02 
2184	 4.47431934817219E-02 
2185	 0.054227228556409 
2186	 5.71478628545602E-02 
2187	 5.55252549108716E-02 
2188	 5.12418756226267E-02 
2189	 3.48488092124742E-02 
2190	 3.31049980279834E-02 
2191	 4.15461700917359E-02 
2192	 4.26805392858493E-02 
2193	 5.01993438337749E-02 
2194	 4.55349911738106E-02 
2195	 2.10495632612081E-02 
2196	 1.88712800004284E-02 
2197	 2.14826901512611E-02 
2198	 2.12101413857868E-02 
2199	 3.46658438286709E-02 
2200	 0.044401332308055 
2201	 3.54914870555329E-02 
2202	 3.43754162181753E-02 
2203	 2.42298426336343E-02 
2204	 0.02357375193318 
2205	 3.45486613205904E-02 
2206	 0.03129681338001 
2207	 3.78665347234894E-02 
2208	 0.038694566890276 
2209	 0.032468968111191 
2210	 4.56583149063715E-02 
2211	 4.66521560679746E-02 
2212	 4.16910364396485E-02 
2213	 4.52492423786091E-02 
2214	 4.96635278668181E-02 
2215	 6.04662784386666E-02 
2216	 0.059797087488527 
2217	 5.13757822518728E-02 
2218	 1.58708952971946E-02 
2219	 1.29444829413769E-02 
2220	 2.27687625707216E-02 
2221	 3.00445581584283E-02 
2222	 5.53669953378482E-02 
2223	 0.066915453586566 
2224	 7.14797201643985E-02 
2225	 7.26792919358582E-02 
2226	 6.76602721406703E-02 
2227	 6.23263453028285E-02 
2228	 4.92194950028333E-02 
2229	 4.32195567706988E-02 
2230	 4.17450676197846E-02 
2231	 4.16248431358653E-02 
2232	 4.68919880236765E-02 
2233	 4.62984314454655E-02 
2234	 4.55359028084424E-02 
2235	 3.70537587097793E-02 
2236	 3.73028714807604E-02 
2237	 3.76892916310157E-02 
2238	 4.85895383979846E-02 
2239	 7.91052486269031E-02 
2240	 9.76298464551257E-02 
2241	 0.112229558930993 
2242	 0.109537408612592 
2243	 8.86163600394966E-02 
2244	 6.88544529658437E-02 
2245	 3.87095885110178E-02 
2246	 3.12304699638534E-02 
2247	 3.49133122484717E-02 
2248	 1.33854565374447E-02 
2249	 0.018494269582451 
2250	 3.78493809765395E-02 
2251	 4.64408196807702E-02 
2252	 0.070493526872214 
2253	 8.23933544883861E-02 
2254	 9.83894996893568E-02 
2255	 0.121586173577039 
2256	 0.126417212171666 
2257	 0.115856339994028 
2258	 9.70876403231481E-02 
2259	 7.61747844977359E-02 
2260	 6.26739263967965E-02 
2261	 6.97423261544416E-02 
2262	 7.80022536627172E-02 
2263	 9.48523555404036E-02 
2264	 7.91414434058259E-02 
2265	 4.03533663224864E-02 
2266	 3.84190009004015E-02 
2267	 3.48459740200672E-02 
2268	 2.98640041870307E-02 
2269	 6.22997727129511E-02 
2270	 6.55246961700038E-02 
2271	 2.66259743703237E-02 
2272	 1.59763152462644E-02 
2273	 3.03565020513763E-02 
2274	 3.13511118824512E-02 
2275	 2.77221256575168E-02 
2276	 2.38047689044407E-02 
2277	 5.46099355586894E-03 
2278	 1.19048072694031E-03 
2279	 1.07278316454575E-02 
2280	 2.11087415183262E-02 
2281	 4.33513868889279E-02 
2282	 5.95711605201181E-02 
2283	 4.38443004649397E-02 
2284	 2.11217259061687E-02 
2285	 2.17781487999675E-03 
2286	 5.23834027961133E-03 
2287	 4.87971148494705E-02 
2288	 8.03100864027772E-02 
2289	 8.96500473055985E-02 
2290	 7.84770323569171E-02 
2291	 5.29763215864875E-02 
2292	 3.23686623380788E-02 
2293	 3.63229173059791E-02 
2294	 5.38684836486281E-02 
2295	 3.90325783803825E-02 
2296	 3.01858154020527E-02 
2297	 2.34774015384709E-02 
2298	-2.17556975857517E-02 
2299	-0.040657698859242 
2300	-2.34585443445519E-02 
2301	-1.19924040362114E-03 
2302	 1.83297753552832E-02 
2303	 5.61479517643286E-02 
2304	 0.109151527711922 
2305	 7.92140434864203E-02 
2306	 0.026764554350853 
2307	 1.61837385576874E-02 
2308	-3.36688201467686E-02 
2309	-6.90579582065807E-02 
2310	-0.01774816353192 
2311	 3.48500013443112E-02 
2312	 1.97371945301013E-02 
2313	 1.48260794466096E-02 
2314	 1.02588665253739E-02 
2315	-4.09293164086298E-02 
2316	-4.16253806810199E-02 
2317	 4.00960950742404E-04 
2318	 2.58381729406215E-02 
2319	 0.110517298940333 
2320	 0.169389126342854 
2321	 0.109304733080633 
2322	 9.63047086285237E-02 
2323	 0.136661153397152 
2324	 9.02562146202909E-02 
2325	 7.37502605234088E-02 
2326	 0.102110025021658 
2327	 8.12585464256113E-02 
2328	 5.53286677338657E-02 
2329	 9.32797329567031E-02 
2330	 0.086981201622703 
2331	 1.44962045909842E-02 
2332	-1.47684027583588E-02 
2333	 3.45362169325807E-02 
2334	 0.127159031014323 
2335	 0.196543833941333 
2336	 0.238942940809586 
2337	 0.114648009719222 
2338	-7.74298904621888E-02 
2339	-0.208106777952218 
2340	-0.269530740405429 
2341	-0.128387117475763 
2342	 1.47245504249803E-02 
2343	 0.216401942448653 
2344	 0.297260022708772 
2345	 0.245864782232394 
2346	 0.290591467917121 
2347	 0.17189744883235 
2348	 8.93384512062127E-02 
2349	 7.62214491649779E-02 
2350	-0.144322852506147 
2351	-0.165532151434176 
2352	-1.09847566045793E-02 
2353	-0.117502420631007 
2354	-5.31667050483048E-02 
2355	-2.01513586670023E-03 
2356	-0.230293514321413 
2357	-0.361455179384347 
2358	-0.307145603369114 
2359	-0.301785037868546 
2360	-0.242559661105014 
2361	 1.15875987899909E-03 
2362	 7.89943565686287E-02 
2363	 3.91943807514311E-02 
2364	 1.86817342853876E-02 
2365	-0.103266250813895 
2366	-0.289309468554336 
2367	-0.384934772791994 
2368	-0.383964664629875 
2369	-0.23949418670217 
2370	 9.09485111122049E-02 
2371	 0.153724274205105 
2372	-3.31762520845659E-02 
2373	-0.139532126958216 
2374	-0.539759700977431 
2375	-0.798491743428541 
2376	-0.270276196785006 
2377	 1.40989346571885 
2378	 2.35063787041477 
2379	 1.56291934622057 
2380	 1.48266576366364 
2381	 2.51195044153423 
2382	 2.33430699352814 
2383	 1.97310306682672 
2384	 1.38860710553439 
2385	 0.629297899628267 
2386	 0.187566785310526 
2387	-0.141815045303248 
2388	-0.203307318324246 
2389	-0.376775164589686 
2390	-0.42250552164778 
2391	-0.335375990713487 
2392	-0.221658938696849 
2393	-6.75875833099145E-02 
2394	 7.27895916643474E-02 
2395	 0.20021142984135 
2396	 0.388230823697462 
2397	 0.19390436904837 
2398	 0.230179478174017 
2399	-0.211921359797835 
2400	-0.713758933777934 
2401	-0.136225403745812 
2402	 0.185085951604995 
2403	 1.63973067364484 
2404	 2.07021410181784 
2405	 0.395104872289216 
2406	 3.20139885508296E-02 
2407	 9.84680290973142E-02 
2408	 8.48928382244786E-02 
2409	 4.33005159496244 
2410	 0.626510986058142 
2411	 0.759586230469884 
2412	 1.27615473075628 
2413	-1.09318190087124 
2414	-0.710141108745907 
2415	-0.941434454649007 
2416	-0.329584595444921 
2417	 9.18612665065417E-02 
2418	 0.754625532453782 
2419	 1.68405320966236 
2420	 0.184943511455575 
2421	 3.1788686074232 
2422	-7.24444666986665 
2423	-1.42916805431525 
2424	-1.39830284532637 
2425	-2.57316084532178 
2426	 0.393463028437695 
2427	 0.621173322892013 
2428	 0.470694046703487 
2429	 0.07216554907129 
2430	 0.777038619115601 
2431	 0.899775315422242 
2432	 0.200608434144254 
2433	 0.422971781612619 
2434	 4.06225381273623E-02 
2435	 0.204815432206317 
2436	 0.33407529183907 
2437	 0.461445840614426 
2438	 1.29902320987719 
2439	 1.61107145623935 
2440	 0.263685795853754 
2441	-0.329587717012589 
2442	-0.807841569489082 
2443	-0.876469720526574 
2444	-0.379048585746507 
2445	-9.51697598816697E-02 
2446	 0.098244427750876 
2447	-0.880096095173836 
2448	-0.768574124876412 
2449	-0.259748211653369 
2450	 0.135877143501726 
2451	 0.893756210070725 
2452	 1.89301229475449 
2453	 4.25099816334251 
2454	 3.00532663336151 
2455	 1.92229437361079 
2456	-0.318691134338953 
2457	-1.72105617383886 
2458	 1.8426936932663 
2459	 1.2674078022661 
2460	 0.652412794362693 
2461	 5.8194704443199 
2462	 1.40178068031481 
2463	 0.477338252623756 
2464	 0.354586038981779 
2465	 8.52146265227274E-02 
2466	-0.117944167808547 
2467	 0.199135778309242 
2468	 0.45618021188534 
2469	 0.498436883403026 
2470	 0.452234323472913 
2471	 0.596338327018391 
2472	 0.86774323582947 
2473	 0.939728470284023 
2474	 0.780466189667222 
2475	 0.510415700261741 
2476	 0.76221757326415 
2477	 0.267610118326196 
2478	-0.326182877724352 
2479	-0.841294046554553 
2480	-0.954900387991529 
2481	-1.21577733496254 
2482	-1.46605568817762 
2483	-1.79699482648011 
2484	-5.35261055218076 
2485	 2.81071559010906 
2486	 1.27821508062996 
2487	 0.583674716617711 
2488	 0.444024277635425 
2489	 0.415182282983756 
2490	 1.25149353867933 
2491	 1.82902832678403 
2492	 1.57793874488837 
2493	 2.59538237495836 
2494	 7.12975683564755 
2495	-1.74645353698955 
2496	-1.81350306183138 
2497	-9.51891190055711 
2498	-4.20073141082281 
2499	 3.60239301518587 
2500	 1.30278346911665 
