Wavelength	rt0727far200000.asd
350	 5.04436439783616E-02 
351	 5.02898275091591E-02 
352	 5.01231826197848E-02 
353	 4.99362697081379E-02 
354	 4.98572785519818E-02 
355	 5.03940729120843E-02 
356	 5.04295284874367E-02 
357	 5.01623605479376E-02 
358	 5.01308441528946E-02 
359	 5.03607485210193E-02 
360	 5.03296074169207E-02 
361	 0.050256937297372 
362	 5.07490689272943E-02 
363	 5.07223726306594E-02 
364	 5.10198515567096E-02 
365	 0.05168000605363 
366	 5.11909254371864E-02 
367	 5.08197799161826E-02 
368	 5.07074680725302E-02 
369	 5.07434760337865E-02 
370	 5.11122115468279E-02 
371	 5.10613454547916E-02 
372	 5.06409997088187E-02 
373	 5.04556941736233E-02 
374	 5.12132719403732E-02 
375	 5.17168053043816E-02 
376	 5.15352106829015E-02 
377	 0.051560617894816 
378	 0.051909274973827 
379	 5.23584050247066E-02 
380	 0.052627085168224 
381	 5.25716464641198E-02 
382	 5.27996752567489E-02 
383	 5.30148201681353E-02 
384	 5.26122759564527E-02 
385	 5.21287856224185E-02 
386	 5.22497035278594E-02 
387	 5.28360310036242E-02 
388	 5.28924428594033E-02 
389	 5.34547566607565E-02 
390	 5.39212856802341E-02 
391	 5.38227633408387E-02 
392	 5.37341594146936E-02 
393	 5.36613803601663E-02 
394	 5.37919441274502E-02 
395	 5.41949870324532E-02 
396	 5.41450698061907E-02 
397	 0.054012596374319 
398	 5.40924360088402E-02 
399	 5.45094482760829E-02 
400	 5.46161380250778E-02 
401	 5.46562182965437E-02 
402	 5.48457106321527E-02 
403	 5.50416656532178E-02 
404	 5.49519651214763E-02 
405	 0.054881309000949 
406	 5.51916025279495E-02 
407	 5.51645167231629E-02 
408	 5.51465320141759E-02 
409	 5.53059590832601E-02 
410	 5.55554315553523E-02 
411	 5.55315096117627E-02 
412	 0.055538826923987 
413	 5.57655139638935E-02 
414	 5.58144527926198E-02 
415	 5.59049612773073E-02 
416	 5.61832708292109E-02 
417	 5.66448427749895E-02 
418	 0.056586330347195 
419	 5.65481938651069E-02 
420	 5.67149353538922E-02 
421	 5.67994034598576E-02 
422	 5.70458877507584E-02 
423	 0.057322570165972 
424	 0.05749764813457 
425	 5.76366692594415E-02 
426	 0.057926432236606 
427	 5.82535459187486E-02 
428	 5.84078649054055E-02 
429	 5.86691513193617E-02 
430	 5.89000781641749E-02 
431	 5.90725439598035E-02 
432	 5.93285523407157E-02 
433	 5.96550415327965E-02 
434	 5.99354321267153E-02 
435	 6.01219242312888E-02 
436	 6.04363787233512E-02 
437	 6.07619960771581E-02 
438	 6.10722971078088E-02 
439	 6.13865808056207E-02 
440	 6.16726716124355E-02 
441	 6.19300026529963E-02 
442	 6.22268727620475E-02 
443	 6.27382957714419E-02 
444	 6.29285599879839E-02 
445	 6.30821231125245E-02 
446	 6.35149407027029E-02 
447	 6.37075763912654E-02 
448	 6.40727265576159E-02 
449	 6.43913265795667E-02 
450	 6.40891297823022E-02 
451	 6.44092690834075E-02 
452	 0.064833706433367 
453	 6.50064932814728E-02 
454	 0.065473688956481 
455	 6.56092151076123E-02 
456	 6.55926430506259E-02 
457	 6.58160110755077E-02 
458	 6.61078672339318E-02 
459	 6.63058697831494E-02 
460	 6.64276194771466E-02 
461	 6.66580362914645E-02 
462	 6.67261910298333E-02 
463	 6.68021688927963E-02 
464	 6.70314496926619E-02 
465	 6.72502562690711E-02 
466	 6.74829291207561E-02 
467	 6.76882710977838E-02 
468	 6.78273096589238E-02 
469	 6.80810286265423E-02 
470	 6.83278260817859E-02 
471	 6.85495854557029E-02 
472	 6.89039322495728E-02 
473	 6.91155138904148E-02 
474	 6.92938194628961E-02 
475	 6.95528474986753E-02 
476	 6.96068951032623E-02 
477	 6.98555419014363E-02 
478	 7.02585315077495E-02 
479	 7.04875925652888E-02 
480	 0.070668788591956 
481	 7.09060761448634E-02 
482	 7.12057795454666E-02 
483	 7.13670971793589E-02 
484	 7.16633838003013E-02 
485	 7.19973725701597E-02 
486	 7.22006905188515E-02 
487	 7.25108114425875E-02 
488	 0.072912034619814 
489	 7.32915974896031E-02 
490	 7.34813350205195E-02 
491	 7.38605221439145E-02 
492	 7.42303992641603E-02 
493	 7.44567158235624E-02 
494	 7.49183702749054E-02 
495	 7.52917856289608E-02 
496	 7.56622845614639E-02 
497	 7.62611649369646E-02 
498	 7.66792342749747E-02 
499	 0.077007735639408 
500	 7.74041507359357E-02 
501	 7.80419974089583E-02 
502	 7.87224532288864E-02 
503	 7.92768702654008E-02 
504	 7.96406442094399E-02 
505	 8.00903468555849E-02 
506	 8.04965089593303E-02 
507	 8.09385469777565E-02 
508	 0.081623166324646 
509	 8.19851076831524E-02 
510	 8.23758163368582E-02 
511	 8.30424028807431E-02 
512	 8.36712271514182E-02 
513	 8.42057249538767E-02 
514	 8.47246998015527E-02 
515	 8.53584550673922E-02 
516	 8.60685244721915E-02 
517	 8.66858841944789E-02 
518	 8.72022578710145E-02 
519	 8.78176918343884E-02 
520	 8.85443823573367E-02 
521	 0.089255199702973 
522	 8.98658843659633E-02 
523	 9.05413895108038E-02 
524	 9.12029554013829E-02 
525	 0.091874772711128 
526	 0.092643742791744 
527	 0.093410160718813 
528	 9.41510789317261E-02 
529	 9.48483798088885E-02 
530	 9.54631210251808E-02 
531	 9.60845464906127E-02 
532	 9.67915597602938E-02 
533	 0.097621706821348 
534	 9.84382847986658E-02 
535	 9.91596100010781E-02 
536	 9.98588872874121E-02 
537	 0.100764991534339 
538	 0.101469396295611 
539	 0.102198668790645 
540	 0.103168081630302 
541	 0.104043744673047 
542	 0.104904792949312 
543	 0.105721597792996 
544	 0.106431711976433 
545	 0.107310017838426 
546	 0.108205562966457 
547	 0.109019265694063 
548	 0.109864989992407 
549	 0.110664931500169 
550	 0.111433237166226 
551	 0.112218060711103 
552	 0.11304643524956 
553	 0.11393973266699 
554	 0.114861726076827 
555	 0.115708775398879 
556	 0.116403197393095 
557	 0.11721835031187 
558	 0.118284261046343 
559	 0.119010723697959 
560	 0.119776786267942 
561	 0.120563539740397 
562	 0.12114221700631 
563	 0.121837140390903 
564	 0.122423945602684 
565	 0.122857155665956 
566	 0.123599433411583 
567	 0.124133827553519 
568	 0.124544616079657 
569	 0.12507316146563 
570	 0.125483684801982 
571	 0.125820720855238 
572	 0.126164111524702 
573	 0.126601606858378 
574	 0.126815948583589 
575	 0.126898646539413 
576	 0.12701983665368 
577	 0.127278859164493 
578	 0.127448352878174 
579	 0.127501723066097 
580	 0.127529619561083 
581	 0.127413222132294 
582	 0.127234041219225 
583	 0.127093270571249 
584	 0.127101342595375 
585	 0.126999338890212 
586	 0.126841411711189 
587	 0.126748492634544 
588	 0.126462648915205 
589	 0.126190426496017 
590	 0.126022442111414 
591	 0.125845411545894 
592	 0.125467194407327 
593	 0.124905605945604 
594	 0.124284395370118 
595	 0.123914125571643 
596	 0.123016858359541 
597	 0.121845995390287 
598	 0.121142958597317 
599	 0.12030995061236 
600	 0.11937571075121 
601	 0.118535657956426 
602	 0.118150879904083 
603	 0.117846093089682 
604	 0.11758269787516 
605	 0.117397631458159 
606	 0.117102736940721 
607	 0.117039122588074 
608	 0.117078780936676 
609	 0.116629317548006 
610	 0.116661432116614 
611	 0.116740736528151 
612	 0.116439468408359 
613	 0.116233362642394 
614	 0.11617582976381 
615	 0.116136196267431 
616	 0.115904139730864 
617	 0.115683242713202 
618	 0.115569796839543 
619	 0.115539791799078 
620	 0.115405722888121 
621	 0.115239756953849 
622	 0.115156522612689 
623	 0.115221248096422 
624	 0.115180957420623 
625	 0.11514196721021 
626	 0.115078231193415 
627	 0.114845726550502 
628	 0.114843869943274 
629	 0.114939112343911 
630	 0.114896073678026 
631	 0.114459694332385 
632	 0.114273769300303 
633	 0.114329279556628 
634	 0.11430468765185 
635	 0.114242657122933 
636	 0.114047545007918 
637	 0.113809715350055 
638	 0.113890140492333 
639	 0.114029562918673 
640	 0.114013332451861 
641	 0.113774460542267 
642	 0.113767378956966 
643	 0.113790707645418 
644	 0.113767148839087 
645	 0.113736945057152 
646	 0.113812060972271 
647	 0.113743828344733 
648	 0.113410344283548 
649	 0.113149525054631 
650	 0.112613853250814 
651	 0.112052671893906 
652	 0.111790451819735 
653	 0.11085189246574 
654	 0.109935232596869 
655	 0.109168020388605 
656	 0.10786133199286 
657	 0.106789745154048 
658	 0.105782659218967 
659	 0.104654605809951 
660	 0.103904709714526 
661	 0.103116534496551 
662	 0.102183728092415 
663	 0.101246022784195 
664	 0.100624865370238 
665	 0.100151025727058 
666	 0.099654527119802 
667	 0.099104398381458 
668	 9.84683523091763E-02 
669	 9.80057563874267E-02 
670	 9.79394813542094E-02 
671	 9.77924643071183E-02 
672	 9.77592977188502E-02 
673	 9.78534625731883E-02 
674	 0.097907301292349 
675	 9.81100752203913E-02 
676	 9.84432450747607E-02 
677	 9.88404100290713E-02 
678	 9.92314012219893E-02 
679	 9.95122597848711E-02 
680	 9.98493810092553E-02 
681	 0.100485378800868 
682	 0.101208268755595 
683	 0.101977642623802 
684	 0.102784017041459 
685	 0.103732660354041 
686	 0.10470678456842 
687	 0.105598607412334 
688	 0.106308668875354 
689	 0.106875392870867 
690	 0.107384943033237 
691	 0.107965640136613 
692	 0.108723373358132 
693	 0.109153158306955 
694	 0.109055001315315 
695	 0.108569382637252 
696	 0.108041513837468 
697	 0.107875590731305 
698	 0.10771255088529 
699	 0.107106167312252 
700	 0.106622937473108 
701	 0.105796584175794 
702	 0.1046777699516 
703	 0.103658113142909 
704	 0.102618372441581 
705	 0.101527214509996 
706	 0.100372517569795 
707	 9.90202202861789E-02 
708	 9.76167901489946E-02 
709	 9.61565655715822E-02 
710	 9.45890914881157E-02 
711	 9.28542333873116E-02 
712	 9.10429825418962E-02 
713	 8.91941644450019E-02 
714	 8.72487101202093E-02 
715	 8.59507283473412E-02 
716	 8.49081647312607E-02 
717	 8.34212906025669E-02 
718	 8.07236631412123E-02 
719	 7.78597071245278E-02 
720	 7.56215953773644E-02 
721	 7.35800078638716E-02 
722	 0.071895469061076 
723	 7.00354096669027E-02 
724	 6.81632977290759E-02 
725	 6.65192884145981E-02 
726	 6.44381371631945E-02 
727	 6.21357432889844E-02 
728	 5.98174428075688E-02 
729	 5.70563082850193E-02 
730	 5.41199922941644E-02 
731	 5.17070146200326E-02 
732	 5.00536330747286E-02 
733	 4.85734985702643E-02 
734	 4.71903811080343E-02 
735	 4.59610962383796E-02 
736	 4.50262222896048E-02 
737	 4.42927570005684E-02 
738	 4.36683993724454E-02 
739	 4.31320824527634E-02 
740	 4.28276835352249E-02 
741	 4.24882346636783E-02 
742	 4.23042863119623E-02 
743	 0.042529760873735 
744	 4.19834254828368E-02 
745	 4.18138881916961E-02 
746	 4.22815436393845E-02 
747	 4.21815713050174E-02 
748	 4.21329838980502E-02 
749	 4.20169017835403E-02 
750	 4.17193598221214E-02 
751	 4.16747041792229E-02 
752	 4.18207952099886E-02 
753	 4.19810263600097E-02 
754	 4.19480974611821E-02 
755	 4.18277145101109E-02 
756	 4.18426355354608E-02 
757	 4.20165980633531E-02 
758	 4.20880077329313E-02 
759	 4.28556940630257E-02 
760	 4.39696117107866E-02 
761	 4.37370246023319E-02 
762	 4.36339140977334E-02 
763	 4.34578914881852E-02 
764	 4.31813820108121E-02 
765	 4.28519006898068E-02 
766	 4.26374232805666E-02 
767	 4.25980266703397E-02 
768	 4.26437360902525E-02 
769	 4.25623797294657E-02 
770	 4.27989488336674E-02 
771	 4.30349520375224E-02 
772	 4.30285232817536E-02 
773	 4.31544041022152E-02 
774	 0.043327555775507 
775	 4.35759000747228E-02 
776	 4.39093952583533E-02 
777	 4.39660956653669E-02 
778	 4.41371252454226E-02 
779	 0.044531981387405 
780	 4.49207735637093E-02 
781	 4.53045708122899E-02 
782	 4.54207852909667E-02 
783	 4.53016853975581E-02 
784	 4.57284669197636E-02 
785	 4.63606742490923E-02 
786	 4.68284867694608E-02 
787	 4.69125500222415E-02 
788	 4.73935153414857E-02 
789	 4.78781472090326E-02 
790	 4.82226290622442E-02 
791	 4.85475498986653E-02 
792	 4.87215942508094E-02 
793	 4.91712500790289E-02 
794	 4.99032432534765E-02 
795	 5.00964593926337E-02 
796	 5.03799631797337E-02 
797	 0.05064042424869 
798	 5.07817230410077E-02 
799	 5.14935201651835E-02 
800	 5.17068502164368E-02 
801	 5.17081141807754E-02 
802	 5.23568057528554E-02 
803	 5.22504599276484E-02 
804	 5.22939411084733E-02 
805	 5.26522849084882E-02 
806	 5.25452510806001E-02 
807	 5.24063181413659E-02 
808	 5.24753168971119E-02 
809	 5.27800353469027E-02 
810	 0.052874038422885 
811	 5.26149881533362E-02 
812	 0.052391218923317 
813	 5.26990662624335E-02 
814	 5.24662740340019E-02 
815	 5.19524341405627E-02 
816	 5.15541531368502E-02 
817	 5.14497673613609E-02 
818	 5.03484804351409E-02 
819	 4.97077786020281E-02 
820	 4.95253984144096E-02 
821	 4.79395048656413E-02 
822	 4.72419322587419E-02 
823	 0.046592072326209 
824	 4.52185714229134E-02 
825	 4.43242963697481E-02 
826	 4.31638539890816E-02 
827	 4.16806089647132E-02 
828	 4.02326484747397E-02 
829	 3.90864357295664E-02 
830	 3.81746056588609E-02 
831	 0.03741103245494 
832	 3.67648128156038E-02 
833	 3.62900440031511E-02 
834	 3.55318734920832E-02 
835	 3.48452808692914E-02 
836	 3.55712732983829E-02 
837	 3.54105760807557E-02 
838	 3.48410187335076E-02 
839	 3.44887005141562E-02 
840	 3.36978874924417E-02 
841	 3.36800537703115E-02 
842	 3.38636085546133E-02 
843	 3.33693488783398E-02 
844	 3.31363458482525E-02 
845	 3.28097071091414E-02 
846	 3.26902345674673E-02 
847	 3.33178484019673E-02 
848	 3.30388568701696E-02 
849	 3.26552842141218E-02 
850	 3.26545517151657E-02 
851	 3.27194153610864E-02 
852	 3.24554254921089E-02 
853	 3.23450963352706E-02 
854	 3.25367783386298E-02 
855	 3.20725365934274E-02 
856	 3.19830628219045E-02 
857	 3.23558115153039E-02 
858	 3.27784842982725E-02 
859	 3.21060262337871E-02 
860	 3.14682994710675E-02 
861	 3.13149426507185E-02 
862	 3.15598468150072E-02 
863	 3.14084869205823E-02 
864	 3.16161910681676E-02 
865	 3.18052729588074E-02 
866	 3.07707053766263E-02 
867	 0.030603473656506 
868	 3.09549432406437E-02 
869	 3.11591085892015E-02 
870	 3.06789936849372E-02 
871	 3.07007092481414E-02 
872	 3.09648221084136E-02 
873	 3.10148816631833E-02 
874	 3.06836467690341E-02 
875	 0.03079093731756 
876	 3.07611023277177E-02 
877	 3.01006339887397E-02 
878	 3.02913925956392E-02 
879	 3.02925665044756E-02 
880	 3.01469864780149E-02 
881	 3.03227988915679E-02 
882	 3.04893591901642E-02 
883	 3.01544993887473E-02 
884	 2.96415621746634E-02 
885	 2.97690038518175E-02 
886	 2.99317237546452E-02 
887	 3.00175457805261E-02 
888	 2.99267962068785E-02 
889	 2.95511473557585E-02 
890	 2.91759669345076E-02 
891	 2.95127229932994E-02 
892	 3.02840171305881E-02 
893	 2.90447942592426E-02 
894	 2.93416211345179E-02 
895	 2.99790114260161E-02 
896	 2.94102899657891E-02 
897	 3.08411277952358E-02 
898	 3.28302809016923E-02 
899	 3.29148353433035E-02 
900	 3.03583929154361E-02 
901	 3.00747601496191E-02 
902	 3.06889159723331E-02 
903	 3.15242890759622E-02 
904	 3.19273289590367E-02 
905	 2.97452106215151E-02 
906	 2.84215686868361E-02 
907	 2.89489057647425E-02 
908	 0.029966677439698 
909	 2.97114648659816E-02 
910	 2.95144535505398E-02 
911	 3.05083023078833E-02 
912	 0.032792847717934 
913	 3.28793687812146E-02 
914	 3.11669743017414E-02 
915	 2.95380283170003E-02 
916	 3.01341888951056E-02 
917	 2.87891177354871E-02 
918	 2.84775515682586E-02 
919	 2.99310770400455E-02 
920	 3.01510401496521E-02 
921	 3.00417196423776E-02 
922	 2.88445895060768E-02 
923	 2.68258835721725E-02 
924	 2.71821355610664E-02 
925	 0.029439991528725 
926	 3.14056755863413E-02 
927	 3.05586922420024E-02 
928	 2.65004833292462E-02 
929	 3.06605045906353E-02 
930	 0.037872200704002 
931	 3.00637236416889E-02 
932	 1.92655724300025E-02 
933	 2.15504341599867E-02 
934	 3.25967292775934E-02 
935	 3.48057243392587E-02 
936	 3.75878951294623E-02 
937	 4.00873127564095E-02 
938	 3.74407211352633E-02 
939	 2.81074520996196E-02 
940	 2.73919822092299E-02 
941	 2.50355493379775E-02 
942	 2.66741714268235E-02 
943	 4.01826063056039E-02 
944	 3.26376648310242E-02 
945	 3.56729774676623E-02 
946	 4.27008773493395E-02 
947	 3.04051272563799E-02 
948	 3.04470566295924E-02 
949	 2.82972709151158E-02 
950	 2.69147516609129E-02 
951	 3.54425118295616E-02 
952	 2.93998862949291E-02 
953	 2.57150369032977E-02 
954	 0.029662225832321 
955	 3.44295452955728E-02 
956	 2.63492144584588E-02 
957	 1.99371315333693E-02 
958	 2.10877544152871E-02 
959	 2.76240829844761E-02 
960	 0.037270667749583 
961	 3.58222492435684E-02 
962	 3.01458527890417E-02 
963	 3.50533022959584E-02 
964	 3.27995385020361E-02 
965	 0.030301594018139 
966	 2.90599554011742E-02 
967	 2.65545781816663E-02 
968	 0.026519869316055 
969	 2.70233759444062E-02 
970	 2.68220250170268E-02 
971	 2.64567502335506E-02 
972	 3.38519154812674E-02 
973	 3.46178765022654E-02 
974	 2.95073324283375E-02 
975	 3.37446698974146E-02 
976	 3.26717070553221E-02 
977	 3.11195476621764E-02 
978	 3.07926180833628E-02 
979	 0.029249706890412 
980	 2.88169288218358E-02 
981	 2.68314144184014E-02 
982	 2.50404617226844E-02 
983	 2.74567309834717E-02 
984	 2.86369928395911E-02 
985	 2.81624857979853E-02 
986	 2.66576334055404E-02 
987	 2.56802708377196E-02 
988	 3.03631252894594E-02 
989	 3.21387307162487E-02 
990	 0.029389878172653 
991	 2.67127182105851E-02 
992	 0.026979471287022 
993	 2.64916980095573E-02 
994	 2.59466162875585E-02 
995	 0.028335016303568 
996	 2.90575157105042E-02 
997	 2.76563707099424E-02 
998	 2.51972172039233E-02 
999	 2.37336611527383E-02 
1000	 2.55660240752878E-02 
1001	 2.96205355515891E-02 
1002	 2.92051485621246E-02 
1003	 2.87563522262632E-02 
1004	 2.79787145864709E-02 
1005	 2.79359792959107E-02 
1006	 0.02812847610262 
1007	 0.028389634590931 
1008	 0.028276176292542 
1009	 2.90346256277381E-02 
1010	 3.01747308230369E-02 
1011	 0.029814482662353 
1012	 2.97410057430515E-02 
1013	 0.029574578922933 
1014	 2.92892094696542E-02 
1015	 2.80987893421046E-02 
1016	 2.79895477455259E-02 
1017	 0.02880671526891 
1018	 2.88821405308752E-02 
1019	 2.86085513936864E-02 
1020	 2.84403689420628E-02 
1021	 2.79935578068979E-02 
1022	 2.79448716778014E-02 
1023	 2.75987404496814E-02 
1024	 2.83163117797309E-02 
1025	 2.82918291191648E-02 
1026	 2.83810430323309E-02 
1027	 2.85947539804243E-02 
1028	 2.88892759486126E-02 
1029	 2.89874794106846E-02 
1030	 2.93180920648905E-02 
1031	 2.90265766016835E-02 
1032	 2.80248204056022E-02 
1033	 2.78586574090903E-02 
1034	 2.76236606362561E-02 
1035	 2.78062104297811E-02 
1036	 2.92110004457943E-02 
1037	 2.94659942503875E-02 
1038	 2.93799537915369E-02 
1039	 2.88363962518634E-02 
1040	 2.83529390217919E-02 
1041	 2.79532263241566E-02 
1042	 2.79607672722088E-02 
1043	 2.86804591545971E-02 
1044	 2.89174233036922E-02 
1045	 2.91002984077709E-02 
1046	 2.90304863063773E-02 
1047	 0.028912043990262 
1048	 2.85970524926522E-02 
1049	 2.74709868004599E-02 
1050	 0.027463819532333 
1051	 2.82437351014161E-02 
1052	 2.83728332088141E-02 
1053	 2.93694007828292E-02 
1054	 2.93459407022087E-02 
1055	 0.026996193337073 
1056	 2.65884550594049E-02 
1057	 2.68365035009625E-02 
1058	 2.75950168921088E-02 
1059	 2.81885540234729E-02 
1060	 3.05710342527407E-02 
1061	 3.07562212465607E-02 
1062	 2.93814200592014E-02 
1063	 2.88149150809613E-02 
1064	 2.74324546526731E-02 
1065	 0.027169008559354 
1066	 2.77951013945423E-02 
1067	 2.79606245361044E-02 
1068	 2.86577012398604E-02 
1069	 2.89156398600985E-02 
1070	 2.85999077780931E-02 
1071	 2.85477017604588E-02 
1072	 2.94199091725045E-02 
1073	 0.028418126261659 
1074	 2.83662228723606E-02 
1075	 2.83660186342474E-02 
1076	 2.84438014363697E-02 
1077	 2.86788206759094E-02 
1078	 2.87592440627839E-02 
1079	 2.86721607062393E-02 
1080	 2.89244829710232E-02 
1081	 2.92132882669839E-02 
1082	 2.95399823400898E-02 
1083	 3.04510716324799E-02 
1084	 3.08233342970331E-02 
1085	 3.08517479374652E-02 
1086	 3.09030772299598E-02 
1087	 3.06713887208691E-02 
1088	 3.04981995140648E-02 
1089	 3.01704729276434E-02 
1090	 3.00371169065385E-02 
1091	 3.01257054461678E-02 
1092	 3.04503956687258E-02 
1093	 3.07132766464795E-02 
1094	 3.14712520798263E-02 
1095	 3.12992265360053E-02 
1096	 3.04132727341316E-02 
1097	 0.030100474843351 
1098	 2.94243710302755E-02 
1099	 0.029146876635299 
1100	 2.88088347392694E-02 
1101	 2.92190756380849E-02 
1102	 3.19386343216846E-02 
1103	 3.21211213951701E-02 
1104	 3.06684153391677E-02 
1105	 3.06036280827552E-02 
1106	 3.02637417251822E-02 
1107	 2.62270195254527E-02 
1108	 2.75749205376219E-02 
1109	 3.15547894068825E-02 
1110	 3.28660228776002E-02 
1111	 3.39344763324764E-02 
1112	 3.46645901010542E-02 
1113	 3.27479060680704E-02 
1114	 3.21165595035861E-02 
1115	 3.10644133078877E-02 
1116	 0.032136539144053 
1117	 3.70899184727096E-02 
1118	 0.041148248867822 
1119	 4.72409696933243E-02 
1120	 5.65671483076819E-02 
1121	 7.74166193109418E-02 
1122	 7.76814659741133E-02 
1123	 0.06306865280653 
1124	 6.15854260029953E-02 
1125	 6.02032611239067E-02 
1126	 7.32860023149239E-02 
1127	 0.102337652289977 
1128	 0.105176649755527 
1129	 8.55553487467851E-02 
1130	 0.013297397297869 
1131	 1.56325945392942E-02 
1132	 5.62645865992011E-02 
1133	 5.47106357597518E-02 
1134	 0.049920577123982 
1135	 0.052255563063531 
1136	 3.68306393132977E-02 
1137	 3.37952249933676E-02 
1138	 4.25314869408974E-02 
1139	 6.05369794261913E-02 
1140	 6.13127798610797E-02 
1141	 5.52149655744706E-02 
1142	 5.34231422373338E-02 
1143	 3.71707164008833E-02 
1144	 2.41711349674127E-02 
1145	 2.87979161810225E-02 
1146	 2.15370247018581E-02 
1147	 0.021844313400602 
1148	 0.034220475817854 
1149	 3.44411677817919E-02 
1150	 3.19461631826108E-02 
1151	 2.42424527510505E-02 
1152	 2.80048463503742E-02 
1153	 3.57930192864694E-02 
1154	 3.60647008634632E-02 
1155	 3.66460428184647E-02 
1156	 3.95459854387719E-02 
1157	 3.91591689097091E-02 
1158	 3.28986526191402E-02 
1159	 3.01167218421198E-02 
1160	 3.42977669658062E-02 
1161	 3.33363272313923E-02 
1162	 2.92549397248563E-02 
1163	 3.07947519233157E-02 
1164	 3.28663327217305E-02 
1165	 3.34461075150213E-02 
1166	 3.42760449117745E-02 
1167	 3.36618845459095E-02 
1168	 3.18965043460414E-02 
1169	 2.98882867157769E-02 
1170	 3.03292427859529E-02 
1171	 3.05437850442724E-02 
1172	 3.02861737326045E-02 
1173	 3.01407919206651E-02 
1174	 3.05291042981352E-02 
1175	 0.031451405321763 
1176	 3.05949014096352E-02 
1177	 3.16139123895823E-02 
1178	 3.27323649992556E-02 
1179	 3.16024704556144E-02 
1180	 3.16596424700396E-02 
1181	 3.30228409615748E-02 
1182	 3.25409581744451E-02 
1183	 3.20222829431111E-02 
1184	 3.34868963605307E-02 
1185	 3.43435838264017E-02 
1186	 3.29277454993613E-02 
1187	 3.13520013667967E-02 
1188	 3.15489365962808E-02 
1189	 3.05805707024333E-02 
1190	 2.95380120994468E-02 
1191	 3.06823529856863E-02 
1192	 3.08640503683421E-02 
1193	 2.96594521208026E-02 
1194	 2.86928463011783E-02 
1195	 3.03678074611026E-02 
1196	 3.05725014163601E-02 
1197	 2.94436880850727E-02 
1198	 2.87933238124658E-02 
1199	 2.85766313667001E-02 
1200	 2.90913032479542E-02 
1201	 0.029401318849185 
1202	 2.92188682359461E-02 
1203	 2.89994553045553E-02 
1204	 3.00512534887274E-02 
1205	 3.18163493352542E-02 
1206	 3.18708410797052E-02 
1207	 3.17597009262724E-02 
1208	 3.17951332719662E-02 
1209	 0.03051365764864 
1210	 3.02206699992076E-02 
1211	 3.05010654953249E-02 
1212	 2.93376169068511E-02 
1213	 2.92967506142108E-02 
1214	 2.90856604385904E-02 
1215	 2.98960597653625E-02 
1216	 2.89494074633826E-02 
1217	 0.028129082503934 
1218	 2.80168657222719E-02 
1219	 2.83306798823736E-02 
1220	 2.89539522153839E-02 
1221	 2.95987321047557E-02 
1222	 2.96491908061106E-02 
1223	 0.028660679079938 
1224	 2.87130507383475E-02 
1225	 2.89109881088762E-02 
1226	 2.80636720273122E-02 
1227	 2.77319401358835E-02 
1228	 2.76562023242047E-02 
1229	 2.77382382003421E-02 
1230	 2.82107153650998E-02 
1231	 2.88852415143944E-02 
1232	 2.90324706962253E-02 
1233	 2.89176664988637E-02 
1234	 2.90715750015716E-02 
1235	 2.90388810944336E-02 
1236	 2.90431702217835E-02 
1237	 2.88664222704382E-02 
1238	 2.84396104902642E-02 
1239	 2.81959295207357E-02 
1240	 0.02845241596426 
1241	 2.81432257827248E-02 
1242	 2.79377022725821E-02 
1243	 2.84680079836629E-02 
1244	 2.92555958932164E-02 
1245	 0.029192220366363 
1246	 2.90296514637869E-02 
1247	 0.02920515921008 
1248	 2.89250268934577E-02 
1249	 2.90825713285924E-02 
1250	 0.029332845396758 
1251	 2.90389425196571E-02 
1252	 2.86133109077911E-02 
1253	 2.80008035985128E-02 
1254	 2.83991380031413E-02 
1255	 2.91086641625359E-02 
1256	 2.90616772938726E-02 
1257	 2.79463605136681E-02 
1258	 2.81786580969318E-02 
1259	 2.90273253543629E-02 
1260	 2.88057101859249E-02 
1261	 2.85145617782496E-02 
1262	 2.89247726617498E-02 
1263	 2.91443934316421E-02 
1264	 2.88489250853391E-02 
1265	 2.94865969555443E-02 
1266	 2.98443857222034E-02 
1267	 2.86585526708067E-02 
1268	 2.87645944695339E-02 
1269	 2.96218046490876E-02 
1270	 2.90593281170502E-02 
1271	 2.91958592480195E-02 
1272	 2.95398140745696E-02 
1273	 2.96005098314859E-02 
1274	 2.94155329430943E-02 
1275	 2.86447497244145E-02 
1276	 2.86316869363266E-02 
1277	 2.81241224704558E-02 
1278	 2.82045772764955E-02 
1279	 2.92846895362322E-02 
1280	 2.87014231674397E-02 
1281	 2.85087522914442E-02 
1282	 2.87615361420461E-02 
1283	 2.87789643141434E-02 
1284	 2.81776135426303E-02 
1285	 2.78376933424084E-02 
1286	 2.71756487614277E-02 
1287	 2.74296543836311E-02 
1288	 2.86845292708803E-02 
1289	 2.94785412818583E-02 
1290	 3.10212256598665E-02 
1291	 3.16244100030331E-02 
1292	 3.14881190900556E-02 
1293	 3.03890068521324E-02 
1294	 2.98333720368163E-02 
1295	 3.08391949451773E-02 
1296	 3.12898900691981E-02 
1297	 3.06768354309728E-02 
1298	 3.08299905714893E-02 
1299	 3.07163689944075E-02 
1300	 2.96972748292026E-02 
1301	 2.91541707406617E-02 
1302	 2.83277265957766E-02 
1303	 2.85335198901691E-02 
1304	 3.07950044363014E-02 
1305	 3.14239550419493E-02 
1306	 3.20281131598083E-02 
1307	 3.30726349902108E-02 
1308	 3.35083929869759E-02 
1309	 3.26473907624787E-02 
1310	 3.20965297759852E-02 
1311	 3.05444334376734E-02 
1312	 3.06429940290217E-02 
1313	 3.18983758640778E-02 
1314	 3.21898847825555E-02 
1315	 3.42803012812518E-02 
1316	 3.51389380174122E-02 
1317	 3.26234332155444E-02 
1318	 3.23561163962054E-02 
1319	 3.50805804043848E-02 
1320	 3.51590812607799E-02 
1321	 3.26991134740773E-02 
1322	 3.33027112539942E-02 
1323	 3.21933551109804E-02 
1324	 2.96981201546176E-02 
1325	 2.88659561680821E-02 
1326	 2.68776252004515E-02 
1327	 2.91298765877872E-02 
1328	 3.32557407355804E-02 
1329	 0.034834635971686 
1330	 3.54952570580159E-02 
1331	 3.17108515402241E-02 
1332	 2.90579102777864E-02 
1333	 3.59763533116403E-02 
1334	 4.54396487249339E-02 
1335	 4.69510727692052E-02 
1336	 4.45265569208117E-02 
1337	 4.66400848729308E-02 
1338	 4.44580187733357E-02 
1339	 4.41503827151571E-02 
1340	 4.82284244166308E-02 
1341	 5.18842896971691E-02 
1342	 0.056278483369051 
1343	 5.28131767454266E-02 
1344	 3.96528895447365E-02 
1345	 4.81685384373148E-02 
1346	 8.05614139116904E-02 
1347	 7.67915417293348E-02 
1348	 5.68304280564082E-02 
1349	 0.066225119130405 
1350	 0.027259210805525 
1351	-3.84760738443225E-02 
1352	-3.59265119633232E-02 
1353	 1.01329809553895E-02 
1354	 0.184290861725868 
1355	-0.112834929518507 
1356	-9.63066881106435E-02 
1357	 0.195853671281894 
1358	 6.57691515845228E-02 
1359	 5.64234942606836E-03 
1360	 0.182221779773363 
1361	 0.463907463688889 
1362	 1.74980983543203 
1363	 1.92774247660053 
1364	 0.858662701567514 
1365	 4.39298226492528 
1366	 2.28327082643343 
1367	 0.122759519853462 
1368	-0.152899046882527 
1369	 0.184564686278756 
1370	 0.381044220320057 
1371	 0.464615049633607 
1372	 0.296254763190339 
1373	 0.252066879509822 
1374	 0.343559744460077 
1375	-2.82004527392101E-02 
1376	-0.222535069947428 
1377	-0.168449384644768 
1378	 3.26643600160376E-02 
1379	 0.465303604191548 
1380	 0.460022433459861 
1381	 1.29881970868798 
1382	 2.3174616277449 
1383	 0.181845701760432 
1384	-2.22309291150976E-02 
1385	 1.19887255633158 
1386	 1.71330703828193 
1387	 1.88998813585452 
1388	 1.66158424171949 
1389	 0.579309462905696 
1390	 0.583445031697066 
1391	 0.922069916358354 
1392	 0.804381986702533 
1393	 0.678354564039281 
1394	 0.77266675688878 
1395	 0.675301207251414 
1396	 0.475825891788126 
1397	 0.599295995269803 
1398	 0.186817366627241 
1399	-0.485250052867235 
1400	-0.388523961398351 
1401	-1.99189468199826E-02 
1402	 0.178796839703307 
1403	 0.518366814657289 
1404	 1.17816185566038 
1405	 1.3055302783939 
1406	 0.296363008407939 
1407	-0.332664733321638 
1408	-0.738000903188229 
1409	-0.606740189047984 
1410	-0.540834182413369 
1411	-0.431248261841439 
1412	 0.28037615787377 
1413	 0.587158847496707 
1414	 0.73458993771808 
1415	 0.78460216473114 
1416	 0.741237717851913 
1417	 0.36868392732875 
1418	-0.648051806988801 
1419	-0.795902209359303 
1420	 0.250877371304669 
1421	 9.31394079932012E-02 
1422	-1.21697023320925 
1423	-1.39141124258851 
1424	-1.14006839735766 
1425	-0.802944398332338 
1426	-2.99487180829585E-03 
1427	 0.203330163020226 
1428	 0.110086713158843 
1429	 0.160706614493446 
1430	 0.229848417559038 
1431	 0.191959367357438 
1432	 1.69042262037749E-02 
1433	-5.60802187523955E-03 
1434	 7.16982400728133E-02 
1435	-2.84450468312272E-02 
1436	-4.10513218063524E-02 
1437	-9.44498551426241E-02 
1438	 0.166517692510133 
1439	-7.63454971355198E-02 
1440	-0.188322672703186 
1441	-5.66248450882202E-02 
1442	 0.204930295473599 
1443	 0.37084334544124 
1444	 0.46015203942421 
1445	 0.437933246629758 
1446	 0.227635765536939 
1447	 6.46426401294743E-02 
1448	 5.20057128844644E-02 
1449	 0.125375164087151 
1450	 0.201583922833316 
1451	 0.135237101255133 
1452	 0.165031859797765 
1453	 0.242057211313203 
1454	 0.20795318525835 
1455	 0.141047081185138 
1456	 0.104782612010524 
1457	 2.20004676098459E-02 
1458	 1.36668745276256E-02 
1459	 0.062154024293346 
1460	 7.42787574293825E-02 
1461	 0.101077517724353 
1462	 6.79650965140347E-02 
1463	-3.96668179058096E-02 
1464	-4.97270175920394E-02 
1465	-4.28836269351515E-02 
1466	-5.24731224146437E-02 
1467	 9.00483139334252E-03 
1468	 2.82675768868875E-02 
1469	-2.21068020933389E-02 
1470	-2.53089161590982E-02 
1471	 4.41965770470799E-02 
1472	 4.24626847567119E-02 
1473	-3.50910114114286E-02 
1474	-2.27836986251884E-02 
1475	 2.24294784993793E-02 
1476	 3.66745122546827E-02 
1477	 9.52845046740619E-02 
1478	 0.100491570165948 
1479	 4.00384065331691E-02 
1480	 3.22463356146349E-02 
1481	 3.34821895391936E-02 
1482	 3.76870775372091E-02 
1483	 7.46133337016937E-02 
1484	 7.11526298353451E-02 
1485	 4.95866857413481E-02 
1486	 4.16412234275858E-02 
1487	 0.019111254979588 
1488	 1.70563624452917E-02 
1489	 3.01043479345315E-02 
1490	 3.55748685998148E-02 
1491	 5.00466967808433E-02 
1492	 4.68104881821576E-02 
1493	 0.027525026258911 
1494	 2.56644154260436E-02 
1495	 0.029686654569727 
1496	 2.65820507791768E-02 
1497	 2.35390750907585E-02 
1498	 2.52152677390438E-02 
1499	 2.42512877778396E-02 
1500	 2.25290927600556E-02 
1501	 2.72836225267393E-02 
1502	 3.03352083512156E-02 
1503	 2.81727412612454E-02 
1504	 2.69771099760176E-02 
1505	 2.73537238470324E-02 
1506	 2.92896736376079E-02 
1507	 0.02690185189254 
1508	 2.74979932345143E-02 
1509	 3.03864192503918E-02 
1510	 3.05954341442775E-02 
1511	 3.09743744290197E-02 
1512	 0.031142503531108 
1513	 3.06917620121689E-02 
1514	 3.07745829877864E-02 
1515	 3.13517620664219E-02 
1516	 2.99201694366976E-02 
1517	 2.93287683286503E-02 
1518	 3.03637948091615E-02 
1519	 2.59212191966515E-02 
1520	 2.38688944969091E-02 
1521	 2.74658069612817E-02 
1522	 2.82397869906647E-02 
1523	 0.029317480282447 
1524	 3.15883253191935E-02 
1525	 3.06574279025312E-02 
1526	 2.90071126000561E-02 
1527	 3.00010016111031E-02 
1528	 3.21295699444135E-02 
1529	 0.033060779423681 
1530	 3.21733379431332E-02 
1531	 3.08911038876957E-02 
1532	 3.05527687997435E-02 
1533	 3.11411140214329E-02 
1534	 3.14237191140612E-02 
1535	 3.08428877576448E-02 
1536	 3.11305453211025E-02 
1537	 3.14741240676987E-02 
1538	 3.12288781537307E-02 
1539	 3.09179001773318E-02 
1540	 2.90239947628791E-02 
1541	 2.79366656909007E-02 
1542	 2.89576521190682E-02 
1543	 2.90333717906521E-02 
1544	 0.029336625708167 
1545	 2.96467763470123E-02 
1546	 2.84988369296532E-02 
1547	 2.74436497489507E-02 
1548	 2.75534923825044E-02 
1549	 2.82074784373646E-02 
1550	 2.75089610799625E-02 
1551	 2.55550762993117E-02 
1552	 0.024487234091478 
1553	 2.56176391239826E-02 
1554	 0.026716642258633 
1555	 2.70731624362532E-02 
1556	 2.93135576597831E-02 
1557	 3.16011287606801E-02 
1558	 3.02146010397107E-02 
1559	 2.86486275185574E-02 
1560	 2.94546909636675E-02 
1561	 2.91292611064592E-02 
1562	 2.76436975426825E-02 
1563	 2.81853948316154E-02 
1564	 2.88133243203784E-02 
1565	 2.67327821644296E-02 
1566	 2.63975631647683E-02 
1567	 2.81951128705595E-02 
1568	 2.93520763795264E-02 
1569	 2.94115025388724E-02 
1570	 2.82038985304609E-02 
1571	 2.72605169610065E-02 
1572	 2.65161393774276E-02 
1573	 2.70314820540028E-02 
1574	 2.82698082492503E-02 
1575	 2.77689364286239E-02 
1576	 2.69589586240295E-02 
1577	 2.72782004107893E-02 
1578	 2.77317730987506E-02 
1579	 2.88613187230609E-02 
1580	 3.05816905777728E-02 
1581	 3.17606927971126E-02 
1582	 3.21929247733154E-02 
1583	 3.12524787577205E-02 
1584	 3.05327275198506E-02 
1585	 2.97900083549428E-02 
1586	 2.80114126399975E-02 
1587	 2.78135829991413E-02 
1588	 2.75842385628357E-02 
1589	 2.66067727868193E-02 
1590	 2.74461958014393E-02 
1591	 2.67111151004621E-02 
1592	 2.50291447201015E-02 
1593	 2.55155792144219E-02 
1594	 2.57318885869586E-02 
1595	 2.73382352142362E-02 
1596	 2.90374438658258E-02 
1597	 2.83790936651085E-02 
1598	 2.84211792891527E-02 
1599	 2.77159498990947E-02 
1600	 2.71735696426891E-02 
1601	 2.77410632752314E-02 
1602	 2.72248909334696E-02 
1603	 2.78504084188292E-02 
1604	 2.92091936230583E-02 
1605	 2.86068181532689E-02 
1606	 2.77261237922266E-02 
1607	 0.027515229744326 
1608	 2.64133489767618E-02 
1609	 2.54915209607869E-02 
1610	 2.60717046620327E-02 
1611	 2.74833817597274E-02 
1612	 2.73974590123492E-02 
1613	 2.64845652159715E-02 
1614	 2.79746470090982E-02 
1615	 2.90006811780456E-02 
1616	 2.80380066127771E-02 
1617	 2.85846255937152E-02 
1618	 2.86762986692896E-02 
1619	 2.73280604179504E-02 
1620	 2.71133594292127E-02 
1621	 2.62890324516637E-02 
1622	 2.51472002028427E-02 
1623	 2.59349424001352E-02 
1624	 2.70944131056594E-02 
1625	 2.79577092459206E-02 
1626	 0.029189797903722 
1627	 2.86426279810523E-02 
1628	 2.66354644026852E-02 
1629	 2.69504121845465E-02 
1630	 2.83896665647099E-02 
1631	 2.77726615106382E-02 
1632	 2.78038712437546E-02 
1633	 2.84217829897455E-02 
1634	 0.02745759438319 
1635	 2.73087428711668E-02 
1636	 2.76058311176565E-02 
1637	 2.80344437529749E-02 
1638	 2.84030670988372E-02 
1639	 2.75604099632938E-02 
1640	 2.74322794297416E-02 
1641	 2.75073425690206E-02 
1642	 2.64262029093661E-02 
1643	 2.72260092207657E-02 
1644	 2.84882009011298E-02 
1645	 2.71609635438137E-02 
1646	 2.77319291936946E-02 
1647	 2.96139986229486E-02 
1648	 2.93437088398966E-02 
1649	 2.93295565021463E-02 
1650	 2.91693492506284E-02 
1651	 0.028214624250875 
1652	 2.73806449417834E-02 
1653	 2.78431275787122E-02 
1654	 2.76381940468578E-02 
1655	 2.62506634586973E-02 
1656	 2.64068415154039E-02 
1657	 2.76895851781741E-02 
1658	 2.74186256336814E-02 
1659	 2.62758337606311E-02 
1660	 2.67006790948032E-02 
1661	 2.81555489590831E-02 
1662	 2.78142546943653E-02 
1663	 2.72557695380544E-02 
1664	 2.75071651313103E-02 
1665	 2.67436631901138E-02 
1666	 2.64630204687631E-02 
1667	 2.74820698481693E-02 
1668	 2.59249045608314E-02 
1669	 2.59557125664546E-02 
1670	 2.70283304941412E-02 
1671	 2.77643527187309E-02 
1672	 2.92903472868248E-02 
1673	 2.86542052232743E-02 
1674	 2.73566816228576E-02 
1675	 2.85648372227388E-02 
1676	 2.92234588602081E-02 
1677	 3.05583984155205E-02 
1678	 3.15566040602997E-02 
1679	 3.05135755831268E-02 
1680	 2.92455545581311E-02 
1681	 2.76520801072574E-02 
1682	 2.70572481060499E-02 
1683	 2.71397620881878E-02 
1684	 2.69748332698055E-02 
1685	 2.89357914984597E-02 
1686	 3.05651053089323E-02 
1687	 3.00514379647787E-02 
1688	 3.04931138020653E-02 
1689	 0.030385618561546 
1690	 2.84850791661094E-02 
1691	 2.69550332049861E-02 
1692	 2.66569316135599E-02 
1693	 2.57266990219935E-02 
1694	 2.25354109303248E-02 
1695	 2.20934183978717E-02 
1696	 2.60830011132342E-02 
1697	 2.82204012423136E-02 
1698	 2.83384538239478E-02 
1699	 2.87659779918302E-02 
1700	 0.026992910034868 
1701	 2.54683169102552E-02 
1702	 2.89996742461059E-02 
1703	 0.032642761577082 
1704	 3.21471000711213E-02 
1705	 2.94331576297471E-02 
1706	 2.76470279487386E-02 
1707	 2.73788155871119E-02 
1708	 2.72414935250091E-02 
1709	 2.83229578513027E-02 
1710	 2.85754549548288E-02 
1711	 2.83219967958714E-02 
1712	 2.83020719950167E-02 
1713	 3.00078901872774E-02 
1714	 0.029716793713812 
1715	 2.41743045280482E-02 
1716	 2.45266500838921E-02 
1717	 2.62845461710145E-02 
1718	 2.53534081708246E-02 
1719	 2.82844763095589E-02 
1720	 2.96054731770458E-02 
1721	 2.54817666234164E-02 
1722	 2.56491316627514E-02 
1723	 2.84295925468803E-02 
1724	 2.94490157135969E-02 
1725	 3.13406593356956E-02 
1726	 3.03458735031691E-02 
1727	 2.79316485954212E-02 
1728	 2.80178032596463E-02 
1729	 2.77371766920393E-02 
1730	 2.80125702356824E-02 
1731	 0.028888035444718 
1732	 2.83624414778619E-02 
1733	 2.81891085683144E-02 
1734	 2.89741575991276E-02 
1735	 2.79561235646651E-02 
1736	 2.54086245046393E-02 
1737	 0.025819753910464 
1738	 2.89612676338104E-02 
1739	 2.99662249430327E-02 
1740	 3.04361211890548E-02 
1741	 2.97906491544397E-02 
1742	 2.74358347500329E-02 
1743	 2.72733957739682E-02 
1744	 2.55069796586723E-02 
1745	 2.61218872055453E-02 
1746	 2.80662176328347E-02 
1747	 2.77256513435807E-02 
1748	 3.02705978007737E-02 
1749	 3.11202010268718E-02 
1750	 2.81478501587183E-02 
1751	 2.86402429901223E-02 
1752	 2.99514261240779E-02 
1753	 0.030219353766439 
1754	 3.37441472707423E-02 
1755	 3.46140893248369E-02 
1756	 3.50207200809391E-02 
1757	 3.75549842242568E-02 
1758	 0.025952612602189 
1759	 0.021313366521486 
1760	 2.81464001912423E-02 
1761	 3.28453097594411E-02 
1762	 3.78387226134966E-02 
1763	 3.37119452355961E-02 
1764	 2.45161908369483E-02 
1765	 2.77881743926802E-02 
1766	 3.03189111884878E-02 
1767	 2.69799204910351E-02 
1768	 3.04374852465728E-02 
1769	 2.72752897658079E-02 
1770	 2.47510251696168E-02 
1771	 3.90049485851556E-02 
1772	 0.042320134516556 
1773	 3.32094997113285E-02 
1774	 2.97567181419833E-02 
1775	 3.34844892842694E-02 
1776	 3.65360057583242E-02 
1777	 4.87094510690251E-02 
1778	 5.18950917352694E-02 
1779	 4.25034580479679E-02 
1780	 3.87114325983603E-02 
1781	 3.54042632157651E-02 
1782	 3.55406117004836E-02 
1783	 3.78205413851227E-02 
1784	 3.94851903019033E-02 
1785	 4.21589050568648E-02 
1786	 4.24883099972864E-02 
1787	 4.13355960681456E-02 
1788	 5.28262323079018E-02 
1789	 8.04705160060734E-02 
1790	 6.30573965648694E-02 
1791	 7.29697889777999E-02 
1792	 5.44897513188913E-02 
1793	 3.06998538170515E-02 
1794	 5.51753317445577E-02 
1795	 2.70027177267585E-02 
1796	 0.07557108004101 
1797	 0.167130331812488 
1798	 0.101677652942093 
1799	 0.103856420944363 
1800	-0.21729024578361 
1801	-0.325564646316826 
1802	 9.12982309240025E-02 
1803	 0.204834926325182 
1804	 0.270527882633804 
1805	 0.376706773337413 
1806	-0.131421680589455 
1807	-0.713296776044493 
1808	-1.31587722920164 
1809	 3.82651706134869 
1810	 4.54562555048195 
1811	 9.84224808998419E-02 
1812	-1.07786154144845 
1813	-1.1093505471846 
1814	-1.66711514237703 
1815	-1.15242437207393 
1816	 2.71767390475539 
1817	 3.08360259676773 
1818	 2.12991175682756 
1819	 5.49555103359756 
1820	-1.49217117608096 
1821	-1.49774426973398 
1822	-1.21910137082115 
1823	 0.121635681709661 
1824	 0.350224589594848 
1825	 1.26090918344077 
1826	 2.11924141813797 
1827	-14.228800131644 
1828	 0.95086885378553 
1829	-0.747185088115094 
1830	-0.602650524793838 
1831	-0.290998683061238 
1832	-0.300135892300535 
1833	-0.388429539166436 
1834	-0.226725489475858 
1835	 8.78866168958096E-02 
1836	 0.174644575124622 
1837	 0.459298158983179 
1838	 0.494723793310221 
1839	-0.053368292793743 
1840	-1.40520391910128 
1841	-2.21459667978319 
1842	-1.92217933314978 
1843	-1.79714594400736 
1844	 2.55294547840268 
1845	 6.99816173540942 
1846	-9.45561018208746 
1847	-6.17601187289344 
1848	 33.5805843199334 
1849	-2.08800656510012 
1850	-1.3934323526814 
1851	-0.473420213790566 
1852	 0.011447156579036 
1853	-0.225226369608631 
1854	-0.369745041444709 
1855	-1.26361630905652 
1856	-6.56581291306383 
1857	 195.487202580994 
1858	 6.06114166921093 
1859	 6.98087633895533 
1860	 3.18426832553143 
1861	 1.25064386495543 
1862	 0.631459160184493 
1863	 0.60818706641385 
1864	 0.946762362148835 
1865	 0.997307959223315 
1866	 1.29258414320637 
1867	 1.75504945295347 
1868	 1.60801946694615 
1869	 1.52452211185068 
1870	 3.47115000310641 
1871	-19.6454191795785 
1872	 10.8159291771999 
1873	 9.37637467506582 
1874	-26.2906711326902 
1875	-4.54147111553748 
1876	-4.24366875951264 
1877	-6.79744502978349 
1878	-19.5252790059857 
1879	 1.13667119077427 
1880	-0.045855420608156 
1881	-0.930268363781211 
1882	-0.362506208907456 
1883	 0.483283980335923 
1884	 0.597353897573203 
1885	 0.770734345528672 
1886	 0.891345680275528 
1887	 1.59564264976401 
1888	 3.44601975940656 
1889	 2.92951729551315 
1890	 1.20211511610991 
1891	 0.832219948255416 
1892	 0.202520512190114 
1893	-7.01878765959002E-02 
1894	 3.95655951801037E-02 
1895	 0.642669846126627 
1896	 0.673037074068433 
1897	 0.223021713851226 
1898	 0.108072942494305 
1899	-1.74015166399573E-02 
1900	 1.70114672470359E-02 
1901	 0.43252078994118 
1902	 0.494239276989101 
1903	 0.69222005045649 
1904	 0.161381325761021 
1905	-0.388012391511532 
1906	-0.235604355956914 
1907	 9.83594965151044E-02 
1908	 0.343318908968238 
1909	 1.0579612723339 
1910	 1.59282361468541 
1911	 1.15647865063134 
1912	 1.33072828926508 
1913	 2.22295844465917 
1914	 31.3473328959628 
1915	-4.33758783249422 
1916	-1.29416893102016 
1917	-1.43588774627034 
1918	-1.8143370565932 
1919	-8.96634130017691 
1920	-11.151010740858 
1921	-1.2966284645319 
1922	-5.30283122917224 
1923	-3.42677574305497 
1924	-8.16581855776955 
1925	 2.60499778176225 
1926	 1.4474130937554 
1927	 0.533246828865843 
1928	 0.377639680899201 
1929	 0.657343894010702 
1930	 1.55739433025368 
1931	 3.98541646757951 
1932	 28.8645230994653 
1933	 7.83088604503281 
1934	 1.81960193388791 
1935	 2.05764419196225 
1936	 2.72163509209378 
1937	 3.09268840703144 
1938	 2.04059859921265 
1939	 1.00122357011973 
1940	 0.250205534782911 
1941	 0.133185926890777 
1942	 0.148544174640717 
1943	 0.376130799053055 
1944	 0.315911288829827 
1945	 1.69118273519457 
1946	 0.509393847624188 
1947	 0.381637213986712 
1948	 0.352161350031496 
1949	 0.163411131732855 
1950	 0.255714069936518 
1951	 0.892286008891778 
1952	 2.31718450054901 
1953	-2.11722682099886 
1954	-2.78039056652982 
1955	 16.0713342723301 
1956	 9.87705804630531 
1957	 15.0392876350524 
1958	 1.73463765716187 
1959	 0.104502568849147 
1960	-0.24030859193031 
1961	-0.22726722353235 
1962	-8.97441058321404E-02 
1963	 0.115242929234038 
1964	 0.415312877697615 
1965	 0.458673995825808 
1966	 0.400680001389126 
1967	 0.183489664073924 
1968	 9.93755231787287E-02 
1969	-0.023361097864169 
1970	-0.192916075502953 
1971	-0.14789218093001 
1972	-5.21987799927696E-02 
1973	 4.21277200843416E-02 
1974	 0.110504911952597 
1975	 0.139060150331349 
1976	 0.202630538529515 
1977	 0.23472079476342 
1978	 0.283806002103634 
1979	 0.273878123578055 
1980	 0.244630977166647 
1981	 0.122410526409861 
1982	 3.86308644080505E-02 
1983	 1.05210240304672E-02 
1984	 7.25044412082294E-02 
1985	 0.145290768475033 
1986	 0.115723976198918 
1987	 0.040703281788213 
1988	 6.53082391640058E-03 
1989	-2.04869518164678E-02 
1990	-4.68287203739652E-02 
1991	 0.049893548552601 
1992	 0.123408188545293 
1993	 0.119369522434999 
1994	 0.15173260312343 
1995	 0.253205229953277 
1996	 0.308705225251976 
1997	 0.261952491424318 
1998	 0.222252993668914 
1999	 0.257661813857445 
2000	 0.225441788433604 
2001	 0.210055357719176 
2002	 0.312787581544945 
2003	 0.29201473945404 
2004	 0.287137677097152 
2005	 0.320746798316649 
2006	 0.30688038274899 
2007	 0.349449776244809 
2008	 0.342903763501168 
2009	 0.322365659507763 
2010	 0.365663083782224 
2011	 0.326524135212766 
2012	 0.191144732006319 
2013	 3.12319511690662E-02 
2014	 1.13231100482745E-02 
2015	 1.00145322338364E-02 
2016	 0.104937005212335 
2017	 0.209504941788699 
2018	 0.232974519788396 
2019	 0.190786669007641 
2020	 0.175482551416634 
2021	 0.184404409208464 
2022	 0.155744208079776 
2023	 0.160895213807819 
2024	 0.138705241650715 
2025	 7.29741606774004E-02 
2026	 3.75711694595483E-02 
2027	 6.84038556298322E-03 
2028	-5.73525358021937E-03 
2029	 2.32486422306654E-03 
2030	 1.89760477390759E-02 
2031	 4.20364332218374E-02 
2032	 0.069051002903821 
2033	 7.36495710380229E-02 
2034	 5.15695697319709E-02 
2035	 5.75066602164075E-02 
2036	 5.86790746521981E-02 
2037	 4.82313048813323E-02 
2038	 7.01798091795578E-02 
2039	 7.04945539451131E-02 
2040	 5.29673799299089E-02 
2041	 0.047507844039805 
2042	 0.038759804063905 
2043	 2.89086868332738E-02 
2044	 2.39621896444211E-02 
2045	 1.87498329903264E-02 
2046	 1.44580483120821E-02 
2047	 2.46233600360619E-02 
2048	 1.13090181304807E-02 
2049	 1.56038587792762E-02 
2050	 3.04646056028671E-02 
2051	 2.31452108803412E-02 
2052	 5.28774260777007E-02 
2053	 7.65807103595523E-02 
2054	 7.73334502270221E-02 
2055	 8.58760608640338E-02 
2056	 8.37666999428823E-02 
2057	 7.05185215188308E-02 
2058	 5.90703531951286E-02 
2059	 3.61515317881531E-02 
2060	 2.57135269080788E-02 
2061	 1.16517110038004E-02 
2062	 2.38577399000531E-02 
2063	 3.64589335868679E-02 
2064	 4.58041042269655E-02 
2065	 4.58851289428602E-02 
2066	 3.10043440429777E-02 
2067	 1.82517619782786E-02 
2068	 0.012803752812006 
2069	 1.49098828023332E-02 
2070	 6.97152651279682E-03 
2071	 3.78834015557658E-03 
2072	 2.01321247906931E-02 
2073	 3.04808399454469E-02 
2074	 5.65703692102453E-02 
2075	 6.32167523064199E-02 
2076	 5.09718679303132E-02 
2077	 4.82943714048243E-02 
2078	 0.045649920439841 
2079	 4.77499746115001E-02 
2080	 5.48011880753544E-02 
2081	 6.42542524882525E-02 
2082	 7.54590866497051E-02 
2083	 6.68684813475909E-02 
2084	 4.90685514119088E-02 
2085	 4.78736732758192E-02 
2086	 5.56013881732215E-02 
2087	 5.68990638643226E-02 
2088	 6.36036682432384E-02 
2089	 6.61882575004039E-02 
2090	 4.96640616300691E-02 
2091	 2.98470406789965E-02 
2092	 2.36517787740672E-02 
2093	 2.45670115779984E-02 
2094	 2.88064003728416E-02 
2095	 4.37115174870373E-02 
2096	 5.47813561984992E-02 
2097	 7.07406376874618E-02 
2098	 7.30885364235706E-02 
2099	 6.64192048445442E-02 
2100	 6.90101989264354E-02 
2101	 6.37193047482373E-02 
2102	 5.66138614396302E-02 
2103	 6.43198992633358E-02 
2104	 6.43776231358074E-02 
2105	 6.12847714962369E-02 
2106	 5.34490328461233E-02 
2107	 4.05885204581756E-02 
2108	 3.99839575805343E-02 
2109	 3.94863759237979E-02 
2110	 4.14972508220865E-02 
2111	 4.24473558481232E-02 
2112	 2.99984917683761E-02 
2113	 2.71096774810283E-02 
2114	 2.47177167482618E-02 
2115	 2.28158464044182E-02 
2116	 3.44618965024042E-02 
2117	 2.94757825536272E-02 
2118	-1.9717908088681E-03 
2119	-7.70184363400777E-03 
2120	-7.29836038669547E-03 
2121	-2.58111244228559E-03 
2122	 1.05341754564287E-02 
2123	 4.25595042690247E-02 
2124	 5.69508695069102E-02 
2125	 0.043767791463728 
2126	 3.23153114745763E-02 
2127	 0.017952603302092 
2128	-1.58582660860932E-03 
2129	-1.98533984594516E-03 
2130	 1.02889555664533E-02 
2131	 1.64902107052036E-02 
2132	 2.80281121464663E-02 
2133	 4.40492151245773E-02 
2134	 4.91863525012749E-02 
2135	 4.94618148302513E-02 
2136	 4.75265996649766E-02 
2137	 3.57925594976559E-02 
2138	 2.56788016960968E-02 
2139	 9.63242757989561E-03 
2140	 2.53560260316391E-03 
2141	-1.07708967922208E-03 
2142	-1.13931171001169E-03 
2143	 4.06183380975248E-03 
2144	 1.35615352887881E-02 
2145	 1.93611361764785E-02 
2146	 3.16120137614289E-02 
2147	 4.05144504253045E-02 
2148	 3.54451600944115E-02 
2149	 3.92707570474671E-02 
2150	 3.91548428975999E-02 
2151	 3.81401221764317E-02 
2152	 5.35731322946039E-02 
2153	 0.069818703131278 
2154	 7.38035506800258E-02 
2155	 0.069063423853647 
2156	 6.91344843671838E-02 
2157	 6.30510931355693E-02 
2158	 0.042950222998738 
2159	 3.20137034474824E-02 
2160	 2.28821280442957E-02 
2161	 1.93276032770316E-02 
2162	 1.96585239402292E-02 
2163	 1.95160230325124E-02 
2164	 2.52619216395743E-02 
2165	 2.63530375537465E-02 
2166	 2.53275972401094E-02 
2167	 2.42882930385814E-02 
2168	 2.11123925552391E-02 
2169	 2.12042375621366E-02 
2170	 2.29093018257849E-02 
2171	 2.35452978101737E-02 
2172	 1.37377101635396E-02 
2173	 7.97536687550455E-03 
2174	 5.03360255409011E-03 
2175	 5.16621278281668E-03 
2176	 1.54856636975282E-02 
2177	 2.64411751030912E-02 
2178	 0.029261179309719 
2179	 2.89047915960422E-02 
2180	 0.044202919595135 
2181	 0.04562997026115 
2182	 3.26198373744097E-02 
2183	 2.58641868163855E-02 
2184	 2.72067762022978E-02 
2185	 4.58063900212184E-02 
2186	 6.31377709282872E-02 
2187	 0.118550346075472 
2188	 0.127719691059145 
2189	 0.104109924720481 
2190	 9.15465446355432E-02 
2191	 5.82674599493751E-02 
2192	 4.20498898196812E-02 
2193	 0.040257336589014 
2194	 3.22376007874722E-02 
2195	 1.74683640927114E-02 
2196	 1.28529991623557E-02 
2197	 1.40411504765904E-02 
2198	 1.78757776162797E-02 
2199	 2.48843484826614E-02 
2200	 5.08781274216161E-02 
2201	 7.15493997289347E-02 
2202	 7.44763479102275E-02 
2203	 7.22368926992238E-02 
2204	 8.03324804144913E-02 
2205	 6.53609527915162E-02 
2206	 4.62539023277045E-02 
2207	 0.053250111505489 
2208	 3.26294967926652E-02 
2209	 3.43958523319956E-02 
2210	 5.74198740948088E-02 
2211	 4.96111790359968E-02 
2212	 5.50298461582012E-02 
2213	 7.30553675349597E-02 
2214	 7.10402097284633E-02 
2215	 6.98340177982956E-02 
2216	 8.16189872137404E-02 
2217	 8.70612035081431E-02 
2218	 8.79219262906766E-02 
2219	 8.31315644076422E-02 
2220	 7.19318346098089E-02 
2221	 6.70941391575045E-02 
2222	 5.71543984569792E-02 
2223	 4.95202533288234E-02 
2224	 5.57103706011478E-02 
2225	 5.31723959461848E-02 
2226	 3.87818048981374E-02 
2227	 3.33114724510306E-02 
2228	 2.91652120668102E-02 
2229	 2.71755620143172E-02 
2230	 2.55098245025987E-02 
2231	 2.60515561702966E-02 
2232	 3.82230678553277E-02 
2233	 3.94507177391622E-02 
2234	 2.93883930814323E-02 
2235	 3.59577845757763E-02 
2236	 5.93317728007957E-02 
2237	 6.03414364162512E-02 
2238	 7.04639744994844E-02 
2239	 8.44115615851629E-02 
2240	 5.15243605017619E-02 
2241	 3.55375674383402E-02 
2242	 4.35064161694659E-02 
2243	 2.58690863603233E-02 
2244	 2.20037546532584E-02 
2245	 2.78486986055703E-02 
2246	 1.32178111608011E-02 
2247	 3.5478722196463E-03 
2248	 1.90932780963073E-02 
2249	 2.78726393733308E-02 
2250	 0.045501439818347 
2251	 7.09333868216685E-02 
2252	 7.62559725312995E-02 
2253	 0.109643084428117 
2254	 0.125986836729118 
2255	 0.117444131072015 
2256	 0.115025487744163 
2257	 9.16884617811504E-02 
2258	 8.71120467561773E-02 
2259	 9.03741518816463E-02 
2260	 9.32940325165189E-02 
2261	 0.110227250072818 
2262	 0.108454696282519 
2263	 9.47744791457831E-02 
2264	 0.100080865107375 
2265	 0.108748953614384 
2266	 9.95442555483229E-02 
2267	 8.01654104229994E-02 
2268	 0.073050762794022 
2269	 6.16913582863027E-02 
2270	 0.053004502532245 
2271	 8.11530525968171E-02 
2272	 0.0639026758483 
2273	-0.01403521685087 
2274	-2.97653551743976E-02 
2275	-5.26790511745836E-02 
2276	-4.13467304865441E-02 
2277	 7.00601847537354E-02 
2278	 8.88727375550155E-02 
2279	 4.97713141816625E-02 
2280	 5.74606070934282E-02 
2281	 6.21583844208791E-02 
2282	 3.98676172889956E-02 
2283	 4.35736046859544E-02 
2284	 6.94699899929823E-02 
2285	 2.45209464096661E-02 
2286	 6.81593832749027E-03 
2287	 7.88270317662279E-02 
2288	 7.57102420409503E-02 
2289	 7.48805831633383E-02 
2290	 8.72343707596262E-02 
2291	 4.01793890948976E-02 
2292	 5.40771697068684E-02 
2293	 7.94115003685469E-02 
2294	 4.39249363474093E-02 
2295	 5.02469282440139E-02 
2296	 5.30366404456261E-02 
2297	 0.051512800310473 
2298	 7.20318805913883E-02 
2299	 7.69547180763083E-02 
2300	 0.092981366104491 
2301	 0.118083426185303 
2302	 0.131713716141876 
2303	 0.145855023066261 
2304	 0.14366063167831 
2305	 0.126920220867047 
2306	 0.107411548340837 
2307	 9.21998701133064E-02 
2308	 0.048672993280618 
2309	-1.22048519184701E-02 
2310	-3.63566710271153E-02 
2311	-4.95709961670104E-02 
2312	-0.109554496144554 
2313	-0.164636409249168 
2314	-9.07587442510961E-02 
2315	-2.91679635115333E-02 
2316	-2.03413741462791E-02 
2317	-2.83185176274122E-02 
2318	-0.11509765970289 
2319	-0.214303282455669 
2320	-0.292156745705875 
2321	-0.253588829504229 
2322	-0.159983108422509 
2323	-0.117075196985418 
2324	-0.029264213098551 
2325	 0.017781563138964 
2326	-5.14729497920987E-02 
2327	-8.39397963936975E-02 
2328	-0.028337206497162 
2329	-3.38782423789485E-02 
2330	-2.47253097057042E-02 
2331	 6.09974135296922E-02 
2332	 0.033656095934575 
2333	-0.073417691302685 
2334	-0.158552225478395 
2335	-0.20252840617409 
2336	-0.237658818897309 
2337	-0.212719747015786 
2338	-4.04079344654564E-02 
2339	 7.23467393191818E-03 
2340	 8.22467312230198E-02 
2341	 0.417185166116631 
2342	 0.566593265663882 
2343	 0.361982900521252 
2344	 0.195227079332535 
2345	 0.123637095351266 
2346	 3.59610462114842E-02 
2347	-0.182186924370234 
2348	-0.41005320332027 
2349	-0.460594384283377 
2350	-0.408843092784452 
2351	-0.346162316532731 
2352	-0.355756599454923 
2353	-0.272023414136048 
2354	-0.308686108286431 
2355	-0.396505353367271 
2356	-0.240989509026168 
2357	-0.227262492826579 
2358	-0.26801188763299 
2359	-0.15227893631212 
2360	-1.97681600388441E-02 
2361	 3.57049531353584E-02 
2362	-0.184445439738531 
2363	-0.18379391413283 
2364	-8.23940498473352E-02 
2365	-0.21324444431353 
2366	-0.144681946911436 
2367	-7.14525093864216E-02 
2368	-0.645881488907427 
2369	-0.995662623686359 
2370	-3.13841090061646 
2371	-2.41720067147544 
2372	-1.83145320695587 
2373	-0.911876927137638 
2374	-2.51069608732095 
2375	-1.12234297765668 
2376	-0.844823526658691 
2377	-0.838260721090072 
2378	-0.552734975397494 
2379	-0.60702262570161 
2380	 1.11097829872168 
2381	-3.85333891607698 
2382	-1.23489108558127 
2383	-0.808753090381771 
2384	 0.262359333064205 
2385	-12.6577155718093 
2386	-0.904611818297155 
2387	-0.678533992395008 
2388	-0.528117657730184 
2389	-0.415775980175435 
2390	-0.144509810537435 
2391	 1.37651404467011 
2392	-1.09712662716209 
2393	 0.370479976855497 
2394	 0.615605132880756 
2395	 0.344716399728493 
2396	 0.515671780992481 
2397	 0.392137220700313 
2398	 0.053074604886001 
2399	-0.802810148605829 
2400	-4.29756544993421 
2401	-24.2822437056206 
2402	-8.26219103313814 
2403	-1.24884061223289 
2404	 0.456952670643197 
2405	 1.33081352949687 
2406	 10.6470605774507 
2407	-3.11952857587318 
2408	-3.36063513164676 
2409	 6.43664623909406 
2410	-2.08347485056719 
2411	-0.887341627282146 
2412	 0.219454882712267 
2413	 0.009192127137154 
2414	 0.347288980057334 
2415	 0.232359402250765 
2416	-2.60462962881493 
2417	-2.94349389265464 
2418	-1.3920337435372 
2419	-1.20877783997854 
2420	-1.79231043741066 
2421	-2.25032240407003 
2422	-6.49191253615196 
2423	-149.5600681488 
2424	-5.00016305617774 
2425	 20.489970304869 
2426	 2.63630600299948 
2427	-6.18772381030664 
2428	-5.31587152922582 
2429	-7.73086576925104 
2430	 746.538730813011 
2431	 5.56676679153501 
2432	 0.226851128964686 
2433	 0.243333037034713 
2434	 0.411464536312485 
2435	 0.663099994825949 
2436	 0.978193541845613 
2437	 0.321795180933399 
2438	-5.72110985638007 
2439	 8.33513189982729 
2440	 8.70320849001766 
2441	 2.48987641746411 
2442	 1.46611004638512 
2443	 0.734746645849707 
2444	 0.290847774905728 
2445	-6.17426252784914E-02 
2446	-0.277344579196118 
2447	-0.383539314533393 
2448	-0.713642529385444 
2449	-1.18548271828245 
2450	-0.934890477530078 
2451	-0.345501229530731 
2452	-0.19663739025575 
2453	-0.103182454083598 
2454	-0.264622319396375 
2455	-0.824248349133464 
2456	-0.897308310310108 
2457	-0.962768749331426 
2458	-0.711649695559437 
2459	 0.224311292750611 
2460	 1.06780181074558 
2461	 1.4175075485145 
2462	 1.65189395516967 
2463	 1.19415189301683 
2464	 0.57257102652333 
2465	 0.296170123966574 
2466	 0.31876096860504 
2467	 0.285627145630925 
2468	 0.39816320265162 
2469	 0.371259791794743 
2470	-0.258772352833784 
2471	-0.031916546450428 
2472	 0.681954223857757 
2473	 0.800118609795764 
2474	 0.663485249113835 
2475	 0.532966003714124 
2476	 0.387115218934889 
2477	 0.555158410165836 
2478	 1.20096692435692 
2479	 2.28650994472879 
2480	 1.36954703559401 
2481	 0.521401181152104 
2482	 1.12570213512159 
2483	 2.03140581045962 
2484	-20.6728862957073 
2485	-1.31991978808974 
2486	 8.12555208958765E-02 
2487	-2.15648752542505 
2488	-1.51902776736855 
2489	-0.736775646118634 
2490	-0.352732980329087 
2491	-0.405247809808522 
2492	-0.307402731730872 
2493	-0.223571151071942 
2494	-0.387364146140313 
2495	-0.370311956968917 
2496	-0.442259924123287 
2497	-0.542363584259336 
2498	-0.803725034988036 
2499	-1.19308249574518 
2500	-1.79526562595626 
