Wavelength	rt0715close00008.asd
350	 4.25681041257183E-02 
351	 4.24466028241241E-02 
352	 4.18606527842966E-02 
353	 4.14916414092936E-02 
354	 4.15669875968712E-02 
355	 4.10549506186603E-02 
356	 4.09311627495279E-02 
357	 4.08893210580529E-02 
358	 4.04848968694625E-02 
359	 4.04181781403519E-02 
360	 4.04271653145733E-02 
361	 4.03065295665188E-02 
362	 0.039965105580112 
363	 3.98132111517158E-02 
364	 3.94555778390025E-02 
365	 3.89687269376421E-02 
366	 3.92742974395504E-02 
367	 3.94323752553928E-02 
368	 3.94072028371017E-02 
369	 3.93591166994898E-02 
370	 3.92488814901176E-02 
371	 0.039015867985087 
372	 3.87624994149158E-02 
373	 3.86671461518514E-02 
374	 3.87189602979826E-02 
375	 3.84807605526137E-02 
376	 3.80567023817822E-02 
377	 3.83012318857871E-02 
378	 3.85010682465887E-02 
379	 3.82504096766044E-02 
380	 3.76569001129653E-02 
381	 3.81734213544191E-02 
382	 0.037969212485426 
383	 3.73747960312749E-02 
384	 3.75920193831357E-02 
385	 3.79166067999551E-02 
386	 3.78536121925403E-02 
387	 3.75053966805464E-02 
388	 3.75808725425057E-02 
389	 3.78820137355958E-02 
390	 3.80966183961904E-02 
391	 3.80296452523571E-02 
392	 3.78115560143301E-02 
393	 3.74198777274954E-02 
394	 0.037260554434972 
395	 0.037625047991206 
396	 3.75443962079122E-02 
397	 3.73352347696601E-02 
398	 3.71792508944627E-02 
399	 3.70711540204848E-02 
400	 3.71665930404018E-02 
401	 3.73593854709489E-02 
402	 3.74753527207823E-02 
403	 0.037239292241048 
404	 3.71602812480175E-02 
405	 3.72607482653269E-02 
406	 0.037367593432021 
407	 3.73739676794916E-02 
408	 3.73653768512209E-02 
409	 3.73845713985449E-02 
410	 3.74185268128553E-02 
411	 0.037508720793671 
412	 3.75233130772273E-02 
413	 3.74244325606848E-02 
414	 3.74643793139722E-02 
415	 0.037471846651009 
416	 3.74889606582154E-02 
417	 3.76102990651717E-02 
418	 0.037706789335528 
419	 3.78228788025174E-02 
420	 3.79167184842422E-02 
421	 0.03785534320055 
422	 3.80541825009192E-02 
423	 3.82714744811833E-02 
424	 3.83053352731643E-02 
425	 3.84596864653352E-02 
426	 3.85844917600797E-02 
427	 3.87062428524379E-02 
428	 3.88983684413365E-02 
429	 3.89466939240941E-02 
430	 3.90127654128492E-02 
431	 3.91652839695003E-02 
432	 3.93235144468176E-02 
433	 3.95791696990798E-02 
434	 3.97929632781692E-02 
435	 3.98901109345705E-02 
436	 4.01328096649606E-02 
437	 4.03335653777254E-02 
438	 4.04760668668432E-02 
439	 4.06369739395825E-02 
440	 4.08310105207274E-02 
441	 0.040941387555072 
442	 4.09920208881813E-02 
443	 4.12320242568716E-02 
444	 4.14229477176298E-02 
445	 4.15715911496284E-02 
446	 4.17403713191823E-02 
447	 4.19425437366225E-02 
448	 0.042081634139063 
449	 4.21567016580546E-02 
450	 0.042240705602092 
451	 0.042353739786306 
452	 4.24619343062295E-02 
453	 4.25466822646945E-02 
454	 4.26343524112228E-02 
455	 4.27812718620574E-02 
456	 4.28580168279768E-02 
457	 4.27573945837067E-02 
458	 4.28540096909412E-02 
459	 4.29839071931434E-02 
460	 4.30555278361228E-02 
461	 4.30828564179545E-02 
462	 4.31665653207915E-02 
463	 4.32714558307601E-02 
464	 4.33374728728208E-02 
465	 4.33035023707417E-02 
466	 4.33574777854861E-02 
467	 4.35225404740352E-02 
468	 4.37024375401367E-02 
469	 4.36292041862168E-02 
470	 4.36231304506369E-02 
471	 4.37738816105627E-02 
472	 4.37946644775942E-02 
473	 4.37846085399231E-02 
474	 4.38320229355397E-02 
475	 4.39739641218423E-02 
476	 4.40704196323337E-02 
477	 0.044155695186427 
478	 4.42696749063363E-02 
479	 0.04444208300403 
480	 0.044541538544158 
481	 4.46708654716246E-02 
482	 4.48907200169412E-02 
483	 0.045117241432845 
484	 4.53243201955298E-02 
485	 4.54315818661271E-02 
486	 4.54082970795342E-02 
487	 4.55133665721121E-02 
488	 4.57806673671936E-02 
489	 0.046092961368849 
490	 4.62248529046808E-02 
491	 4.64367069165519E-02 
492	 4.66404550725616E-02 
493	 4.67803720813577E-02 
494	 4.70830298568645E-02 
495	 4.73786406325965E-02 
496	 4.76309083924828E-02 
497	 4.78775883377507E-02 
498	 0.04817012970371 
499	 0.048421540227306 
500	 4.86139100104023E-02 
501	 4.88520065858743E-02 
502	 4.91987787751638E-02 
503	 4.95276673797075E-02 
504	 4.97339062203875E-02 
505	 5.00267482369417E-02 
506	 5.03503477635985E-02 
507	 5.06771985237305E-02 
508	 5.10045402864855E-02 
509	 5.12819292340798E-02 
510	 0.051567990699358 
511	 5.19109114427757E-02 
512	 5.23044510924464E-02 
513	 5.26745160209026E-02 
514	 5.30190453899161E-02 
515	 5.33673181069339E-02 
516	 5.37237425479164E-02 
517	 5.40849423405812E-02 
518	 5.44514986578961E-02 
519	 5.48315214492625E-02 
520	 5.51874803167277E-02 
521	 5.55867863220952E-02 
522	 0.056064127332821 
523	 5.64510820465283E-02 
524	 5.68507015339402E-02 
525	 5.72889682342451E-02 
526	 5.77332711136349E-02 
527	 5.81373387737942E-02 
528	 0.058550747018729 
529	 5.89996328076188E-02 
530	 5.94373130652563E-02 
531	 5.99004188126741E-02 
532	 6.03870180017398E-02 
533	 6.08771551098629E-02 
534	 6.13374340396666E-02 
535	 6.18830431826652E-02 
536	 6.24946978909644E-02 
537	 6.29929470560308E-02 
538	 6.34937093328813E-02 
539	 0.064007710412594 
540	 6.45218339442366E-02 
541	 6.50290453992953E-02 
542	 6.55020628941981E-02 
543	 0.065929173055167 
544	 6.63183720594006E-02 
545	 6.67507946862236E-02 
546	 6.71745095987137E-02 
547	 6.75494780541236E-02 
548	 6.78903707815115E-02 
549	 6.82464551460591E-02 
550	 0.068602483856585 
551	 6.89259793304799E-02 
552	 6.92165293448252E-02 
553	 6.96188727362935E-02 
554	 7.01454083459028E-02 
555	 7.06529840543356E-02 
556	 7.12929883036508E-02 
557	 7.19402556095759E-02 
558	 7.24770268637954E-02 
559	 7.30451099412846E-02 
560	 7.36469220935672E-02 
561	 7.42237380425464E-02 
562	 7.46978844307625E-02 
563	 7.52007307733952E-02 
564	 0.075686058119696 
565	 7.61234341573136E-02 
566	 7.65585676553435E-02 
567	 7.70120242817504E-02 
568	 7.74538966970543E-02 
569	 7.78346458326109E-02 
570	 7.81393461325141E-02 
571	 7.83793198846615E-02 
572	 7.86010344248417E-02 
573	 7.88815805101522E-02 
574	 7.91678708983448E-02 
575	 7.94075202820847E-02 
576	 7.95686180026177E-02 
577	 7.96818409696923E-02 
578	 7.98193766092908E-02 
579	 7.99633311827671E-02 
580	 8.00513289436771E-02 
581	 8.01996118870791E-02 
582	 8.03443623132286E-02 
583	 0.080439416774777 
584	 8.05100073826572E-02 
585	 8.05498102721042E-02 
586	 8.05570318029928E-02 
587	 8.05439874748925E-02 
588	 8.06054132655793E-02 
589	 8.05463812555727E-02 
590	 8.03974781710438E-02 
591	 8.04231841316158E-02 
592	 8.04693508236903E-02 
593	 0.080466398560416 
594	 8.03828068182458E-02 
595	 8.02579258528494E-02 
596	 8.00460224853603E-02 
597	 7.97809194575608E-02 
598	 7.95373933187937E-02 
599	 0.07927083462646 
600	 7.90797464705963E-02 
601	 7.90037000223126E-02 
602	 0.078959237195746 
603	 7.88527129920835E-02 
604	 7.87728002982682E-02 
605	 7.88288605228442E-02 
606	 7.88792884595262E-02 
607	 7.89718851753852E-02 
608	 7.90607641711712E-02 
609	 7.90073675162576E-02 
610	 7.90731145306804E-02 
611	 7.91520624960982E-02 
612	 7.91610351244013E-02 
613	 7.93421094389465E-02 
614	 7.93889579758996E-02 
615	 7.93271439787116E-02 
616	 7.93597577978755E-02 
617	 7.94201987433335E-02 
618	 0.07945778989045 
619	 0.079487321067526 
620	 7.96338014507672E-02 
621	 7.96714193986428E-02 
622	 7.96381879254162E-02 
623	 7.96279430938743E-02 
624	 7.95216647939139E-02 
625	 7.95667040607144E-02 
626	 7.97240210124972E-02 
627	 7.96897634701094E-02 
628	 7.96748075228856E-02 
629	 7.97088325160126E-02 
630	 7.97638457822568E-02 
631	 7.97461742820003E-02 
632	 7.97811127091587E-02 
633	 7.98741107993516E-02 
634	 7.99616998855495E-02 
635	 7.99504263041993E-02 
636	 7.99179932531899E-02 
637	 7.99156976996477E-02 
638	 7.99321962913277E-02 
639	 7.99190586203313E-02 
640	 7.99072474053243E-02 
641	 7.99367153172997E-02 
642	 7.99911080925127E-02 
643	 7.99633716386786E-02 
644	 7.98522887524609E-02 
645	 7.97501553650789E-02 
646	 7.97586230638347E-02 
647	 7.97589784132987E-02 
648	 7.96857156310267E-02 
649	 7.97049477739457E-02 
650	 7.96445749948395E-02 
651	 7.95263281478624E-02 
652	 7.94338126209525E-02 
653	 7.93112622784996E-02 
654	 7.91435605018085E-02 
655	 7.89097176650435E-02 
656	 0.078616522363095 
657	 7.83995377056253E-02 
658	 7.82503260529642E-02 
659	 7.81361136567353E-02 
660	 7.80905675805596E-02 
661	 7.79377546521601E-02 
662	 0.077761548301805 
663	 7.77813246391056E-02 
664	 7.77458733328454E-02 
665	 7.76818720254963E-02 
666	 7.76243937712701E-02 
667	 7.75608453113182E-02 
668	 7.74515415698973E-02 
669	 7.73999814782401E-02 
670	 0.077486363009697 
671	 7.74147786958825E-02 
672	 7.74602327983409E-02 
673	 7.76024093360524E-02 
674	 7.75436737890128E-02 
675	 7.75756317672461E-02 
676	 7.76307828734738E-02 
677	 7.76311948490565E-02 
678	 7.76290951601179E-02 
679	 7.77599637426832E-02 
680	 7.79497863056839E-02 
681	 0.078047758277024 
682	 7.81462917661613E-02 
683	 7.82534713667716E-02 
684	 7.83593385199274E-02 
685	 7.84469955794222E-02 
686	 0.078406330542747 
687	 7.83071582379536E-02 
688	 7.82850860678651E-02 
689	 7.83975483537554E-02 
690	 7.85347004967048E-02 
691	 0.078560725886781 
692	 0.078363016006702 
693	 0.078258000473503 
694	 7.82247652112763E-02 
695	 7.81529999048344E-02 
696	 7.78655950500936E-02 
697	 7.76210399056157E-02 
698	 7.73920545827269E-02 
699	 7.70863793370254E-02 
700	 7.66997972470533E-02 
701	 7.63055604600469E-02 
702	 7.59364420627254E-02 
703	 7.55712118017818E-02 
704	 7.51302461985163E-02 
705	 7.46646168840464E-02 
706	 0.074187517653304 
707	 7.35475041361638E-02 
708	 7.29386085761811E-02 
709	 7.23190028835612E-02 
710	 7.15668175071202E-02 
711	 7.06684983692101E-02 
712	 6.97725394990455E-02 
713	 6.88687960912694E-02 
714	 6.77585585167991E-02 
715	 0.066813626485572 
716	 6.57863227427986E-02 
717	 0.064456390078225 
718	 6.31326454351906E-02 
719	 6.18485426854942E-02 
720	 6.07263792211223E-02 
721	 5.96696116100778E-02 
722	 5.85545337319242E-02 
723	 5.73129805254509E-02 
724	 5.59892725147209E-02 
725	 5.44823903240643E-02 
726	 5.30689675006272E-02 
727	 5.16084124947352E-02 
728	 4.99375096967304E-02 
729	 4.80151252225102E-02 
730	 4.61438999307168E-02 
731	 4.44309652273587E-02 
732	 4.28315184829339E-02 
733	 4.15166279157639E-02 
734	 4.03798747383326E-02 
735	 3.93713142581025E-02 
736	 3.85228028622691E-02 
737	 3.78949659645171E-02 
738	 3.73770851315988E-02 
739	 3.69302385043017E-02 
740	 0.036869673285436 
741	 3.67090936870844E-02 
742	 0.036457295047831 
743	 3.63752032334201E-02 
744	 3.63738101914464E-02 
745	 3.63886115933865E-02 
746	 3.63567021689303E-02 
747	 0.03621801208146 
748	 3.62533560906032E-02 
749	 3.63188297229568E-02 
750	 3.62641344209747E-02 
751	 3.63132097352806E-02 
752	 3.62995022341595E-02 
753	 3.62327192490555E-02 
754	 3.62178374301624E-02 
755	 0.036259928830056 
756	 3.63294625882508E-02 
757	 3.63839449119597E-02 
758	 3.63532776806387E-02 
759	 3.63088870824673E-02 
760	 3.61147154402935E-02 
761	 3.58250770461807E-02 
762	 3.58414999187072E-02 
763	 3.60859868167405E-02 
764	 3.63372012378486E-02 
765	 3.64444709155839E-02 
766	 3.66078981158574E-02 
767	 3.68432580723451E-02 
768	 3.70893061495742E-02 
769	 3.72093860347922E-02 
770	 3.73260145564695E-02 
771	 3.74918175186687E-02 
772	 3.77126527787579E-02 
773	 3.79131568806716E-02 
774	 3.81196191814826E-02 
775	 3.83181144251494E-02 
776	 3.85008860245881E-02 
777	 3.87794827113189E-02 
778	 3.90503406313493E-02 
779	 3.92696764602607E-02 
780	 3.94820779104927E-02 
781	 3.99151107217907E-02 
782	 4.02107036028344E-02 
783	 4.02544115916172E-02 
784	 4.07365948359356E-02 
785	 4.10122284141141E-02 
786	 4.12436019702256E-02 
787	 0.041734478828487 
788	 4.19693056564614E-02 
789	 4.22863350602108E-02 
790	 4.27383387556583E-02 
791	 4.31257246061466E-02 
792	 4.34656705281424E-02 
793	 4.37658953695394E-02 
794	 0.044073362176779 
795	 4.44916130109026E-02 
796	 4.48334314010214E-02 
797	 4.51540757795838E-02 
798	 4.55262084198169E-02 
799	 4.58112483837553E-02 
800	 4.60467945974043E-02 
801	 4.62774688159769E-02 
802	 4.65321383550967E-02 
803	 4.66679729214351E-02 
804	 0.046863199244332 
805	 4.70860860791185E-02 
806	 4.70633451758605E-02 
807	 4.70714456942257E-02 
808	 4.71280742088103E-02 
809	 4.71545134430729E-02 
810	 4.69598156565519E-02 
811	 4.67751650568478E-02 
812	 4.65738677336537E-02 
813	 4.62601443607402E-02 
814	 4.59858739846713E-02 
815	 4.56097387129572E-02 
816	 4.51695716190313E-02 
817	 4.48210558026118E-02 
818	 4.43714608395226E-02 
819	 4.38972239341846E-02 
820	 4.33892344506397E-02 
821	 4.27162682012596E-02 
822	 4.15630495338113E-02 
823	 4.03667378122171E-02 
824	 3.94508002879578E-02 
825	 3.83383826641366E-02 
826	 3.69204265135345E-02 
827	 3.53362919853403E-02 
828	 3.38944484722593E-02 
829	 3.25773268068425E-02 
830	 3.11630634514797E-02 
831	 2.98794338355911E-02 
832	 2.92069835742675E-02 
833	 2.83204546537256E-02 
834	 2.75741077149704E-02 
835	 2.71023989925215E-02 
836	 2.65730267806603E-02 
837	 2.62693986121131E-02 
838	 2.60720902003385E-02 
839	 2.58049171973453E-02 
840	 2.53567664163312E-02 
841	 2.50522743937524E-02 
842	 2.49197168534786E-02 
843	 2.48305710956846E-02 
844	 0.024573361218751 
845	 2.41739718297521E-02 
846	 2.37736512015809E-02 
847	 2.35561189202647E-02 
848	 2.34021969703397E-02 
849	 2.32416760154385E-02 
850	 2.30177907985727E-02 
851	 2.26981153433016E-02 
852	 2.25393560370058E-02 
853	 2.24171564290314E-02 
854	 0.022220804158347 
855	 2.20550759420509E-02 
856	 2.17942470485059E-02 
857	 2.14617107725272E-02 
858	 2.11843879889482E-02 
859	 2.13480026551932E-02 
860	 0.021099269148443 
861	 2.06988586238836E-02 
862	 2.07929773564374E-02 
863	 2.05032690917901E-02 
864	 2.04437041745577E-02 
865	 2.05206091944281E-02 
866	 2.00191952348853E-02 
867	 1.96625516709701E-02 
868	 1.94572512569102E-02 
869	 1.93137929159732E-02 
870	 1.91591610144038E-02 
871	 1.88439926134116E-02 
872	 1.86399458584903E-02 
873	 1.86148639913204E-02 
874	 1.81714419627084E-02 
875	 1.78605458316609E-02 
876	 1.76561795614202E-02 
877	 1.74058833265883E-02 
878	 1.72107237924656E-02 
879	 0.016910107603525 
880	 1.66267639854982E-02 
881	 1.65234447745464E-02 
882	 1.61906364761925E-02 
883	 1.58472698353322E-02 
884	 0.015592290046684 
885	 1.53937836489548E-02 
886	 1.51719666935752E-02 
887	 1.49861948078141E-02 
888	 1.48097671987006E-02 
889	 1.45250460180452E-02 
890	 0.014379814762611 
891	 1.44457959227932E-02 
892	 1.45415068589541E-02 
893	 1.41063039457897E-02 
894	 0.013619256725471 
895	 1.31824667552399E-02 
896	 0.012877586209821 
897	 1.30227886058798E-02 
898	 1.29384499029189E-02 
899	 1.27230431786165E-02 
900	 1.25976994672186E-02 
901	 1.20650874429173E-02 
902	 1.21432453508871E-02 
903	 1.22537691031565E-02 
904	 1.15993755017048E-02 
905	 1.15767599892486E-02 
906	 1.17124062308285E-02 
907	 1.17860890640544E-02 
908	 0.011717075051711 
909	 0.010819095259511 
910	 1.07232185556142E-02 
911	 1.13129255451924E-02 
912	 1.08825342220926E-02 
913	 9.80243076738557E-03 
914	 9.23786520700808E-03 
915	 9.39445796626788E-03 
916	 9.29652186404412E-03 
917	 9.23810959187943E-03 
918	 8.85975380783395E-03 
919	 8.36921812330857E-03 
920	 8.74578699244597E-03 
921	 8.53200280274694E-03 
922	 7.7659105952642E-03 
923	 7.04127764907862E-03 
924	 7.42419754586333E-03 
925	 7.57407713546529E-03 
926	 6.9711473842873E-03 
927	 6.09701503252754E-03 
928	 8.12678877923869E-03 
929	 7.30731166220963E-03 
930	 5.36042700372177E-03 
931	 6.99959378848955E-03 
932	 7.70101584180677E-03 
933	 6.97063948944531E-03 
934	 6.26844612269426E-03 
935	 6.84994971926119E-03 
936	 4.79203700267842E-03 
937	 5.13662843614391E-03 
938	 6.1313085312372E-03 
939	 4.94059622176657E-03 
940	 3.43893439481794E-03 
941	 3.98804717066648E-03 
942	 4.85360674382697E-03 
943	 3.31755045783209E-03 
944	 4.31224620453741E-03 
945	 5.63881400566974E-03 
946	 5.15456870198539E-03 
947	 2.39393219444473E-03 
948	 2.69101387593925E-03 
949	 4.91610833828902E-03 
950	 6.3161626609328E-03 
951	 4.61607092673903E-03 
952	 4.29198563846372E-03 
953	 5.33916209730447E-03 
954	 6.36862118541558E-03 
955	 5.69863887460632E-03 
956	 4.34335734233994E-03 
957	 4.31140072837032E-03 
958	 4.71605831778447E-03 
959	 3.37548421200659E-03 
960	 4.68985884170171E-03 
961	 5.81496674978193E-03 
962	 5.49251854246386E-03 
963	 4.46813304317031E-03 
964	 4.04511012108244E-03 
965	 5.13486661610625E-03 
966	 0.005852322062973 
967	 3.40051672649478E-03 
968	 3.7518855975542E-03 
969	 4.12796054838447E-03 
970	 3.98505563215445E-03 
971	 5.03222114354368E-03 
972	 4.05850574603445E-03 
973	 3.84829365883693E-03 
974	 4.82355315749829E-03 
975	 4.66788579626241E-03 
976	 0.00409903016952 
977	 4.97035122610164E-03 
978	 6.06816034757855E-03 
979	 4.27840580349394E-03 
980	 3.73650479085261E-03 
981	 4.24819966353316E-03 
982	 4.84858862926026E-03 
983	 4.55428917104732E-03 
984	 3.93475343189602E-03 
985	 3.87365226610643E-03 
986	 4.56670032697587E-03 
987	 5.42777077216444E-03 
988	 5.00202655701357E-03 
989	 4.54040624449693E-03 
990	 4.42135974596955E-03 
991	 4.20315941046013E-03 
992	 4.31991963633533E-03 
993	 4.56619573771784E-03 
994	 4.14460244277982E-03 
995	 2.69920675868077E-03 
996	 4.53418450596536E-03 
997	 4.98551679279999E-03 
998	 4.37901816681247E-03 
999	 5.60765616284517E-03 
1000	 4.72480481956203E-03 
1001	 1.44581849730402E-03 
1002	 1.21761280683556E-03 
1003	 1.03886825257763E-03 
1004	 6.27516561400126E-04 
1005	 4.87609018868293E-04 
1006	 4.44463801242065E-04 
1007	 6.38384146289108E-04 
1008	 9.31839792674071E-04 
1009	 1.30611064637104E-03 
1010	 1.31496044045422E-03 
1011	 1.29738545276203E-03 
1012	 1.35288977013761E-03 
1013	 1.16058611268624E-03 
1014	 1.12260319068283E-03 
1015	 1.22634248344114E-03 
1016	 1.33870941969205E-03 
1017	 1.47322014047523E-03 
1018	 1.55584856261781E-03 
1019	 1.76922412680195E-03 
1020	 1.77665035877053E-03 
1021	 1.56312383144648E-03 
1022	 1.45817396071804E-03 
1023	 1.22651344747202E-03 
1024	 1.14835729458519E-03 
1025	 1.1737018966489E-03 
1026	 8.74505757502717E-04 
1027	 8.65650109655637E-04 
1028	 9.26210004157563E-04 
1029	 1.12929017780587E-03 
1030	 1.56319554498657E-03 
1031	 1.77885792579291E-03 
1032	 2.16050700440939E-03 
1033	 2.19998857514665E-03 
1034	 1.91053989712152E-03 
1035	 1.80500051942959E-03 
1036	 1.51925279160021E-03 
1037	 1.34435055349536E-03 
1038	 1.29157511803287E-03 
1039	 1.26772508757002E-03 
1040	 9.04286605536336E-04 
1041	 9.88989610030581E-04 
1042	 1.06917605676096E-03 
1043	 1.21865834335115E-03 
1044	 1.30651651062746E-03 
1045	 1.57597221730035E-03 
1046	 1.67730701223449E-03 
1047	 1.53644865393176E-03 
1048	 1.6422709778314E-03 
1049	 2.05072465635955E-03 
1050	 2.09210556246171E-03 
1051	 2.02764045255971E-03 
1052	 1.95312374303211E-03 
1053	 1.5311365492932E-03 
1054	 1.31934816680292E-03 
1055	 1.24666665819854E-03 
1056	 1.18357126298965E-03 
1057	 1.16228536066826E-03 
1058	 1.13777962936471E-03 
1059	 1.29952184965062E-03 
1060	 1.62470293065366E-03 
1061	 1.82939861874083E-03 
1062	 2.27653674391666E-03 
1063	 2.30952574306978E-03 
1064	 1.83213139000876E-03 
1065	 1.90045056346438E-03 
1066	 2.20746702863382E-03 
1067	 2.23947153157806E-03 
1068	 2.54943446609511E-03 
1069	 2.5815133596383E-03 
1070	 1.8412112960059E-03 
1071	 1.71074602373812E-03 
1072	 1.81082891854601E-03 
1073	 2.24380042380921E-03 
1074	 2.32910646753497E-03 
1075	 2.66554683725573E-03 
1076	 2.60185631905309E-03 
1077	 1.98140690575597E-03 
1078	 1.95426816431436E-03 
1079	 2.15274185276066E-03 
1080	 2.23696890980206E-03 
1081	 2.57318844698366E-03 
1082	 2.66009626144291E-03 
1083	 2.52359243238257E-03 
1084	 2.48838052847232E-03 
1085	 2.51119634938168E-03 
1086	 2.42203511516009E-03 
1087	 2.14722459928426E-03 
1088	 0.002044682315188 
1089	 2.00879765361939E-03 
1090	 0.001936204876403 
1091	 1.84350582649214E-03 
1092	 1.87319042855388E-03 
1093	 1.8900687823064E-03 
1094	 1.72733219297528E-03 
1095	 1.80708922262277E-03 
1096	 2.23688223369791E-03 
1097	 2.23962345377035E-03 
1098	 2.09246398475244E-03 
1099	 2.0169681306009E-03 
1100	 1.63286463139595E-03 
1101	 1.56862219231813E-03 
1102	 1.75884348544526E-03 
1103	 1.81745594591599E-03 
1104	 1.95795485777246E-03 
1105	 2.16049910482578E-03 
1106	 1.78547395609068E-03 
1107	 1.73376725518022E-03 
1108	 1.7888023805473E-03 
1109	 1.45625652672518E-03 
1110	 1.58187169470812E-03 
1111	 2.28810600629315E-03 
1112	 2.59748138538993E-03 
1113	 3.10213625618091E-03 
1114	 3.10705313857071E-03 
1115	 2.24131048959557E-03 
1116	 2.04641749725039E-03 
1117	 1.87114624986225E-03 
1118	 1.80932114986632E-03 
1119	 2.63042178701352E-03 
1120	 2.91630443470099E-03 
1121	 2.47134543899486E-03 
1122	 2.60943964536262E-03 
1123	 2.50555797106076E-03 
1124	 2.4634107722308E-03 
1125	 4.27303867549858E-03 
1126	 4.09553727535056E-03 
1127	 2.64717043737059E-03 
1128	 3.70469951497765E-03 
1129	 3.54716474356941E-03 
1130	 1.92962085564206E-03 
1131	 2.02418521193939E-03 
1132	 3.41029329512237E-03 
1133	 3.2059445256548E-03 
1134	 2.84595452064756E-03 
1135	 2.76083532835519E-03 
1136	 1.73060269264787E-03 
1137	 1.49107105174479E-03 
1138	 1.90213423913298E-03 
1139	 2.37723913215029E-03 
1140	 2.05547642566847E-03 
1141	 1.57150484192488E-03 
1142	 1.16819461492093E-03 
1143	 1.11518861061831E-03 
1144	 1.35448287852911E-03 
1145	 2.27180923557939E-03 
1146	 3.03909442511942E-03 
1147	 2.31187052199886E-03 
1148	 1.20655684269703E-03 
1149	 1.08013569584745E-03 
1150	 1.04325445572996E-03 
1151	 1.27803011141102E-03 
1152	 1.26532700034705E-03 
1153	 1.36495718974704E-03 
1154	 1.32754738527481E-03 
1155	 1.00486622392773E-03 
1156	 1.21170035438449E-03 
1157	 1.13630391611626E-03 
1158	 1.02177260094264E-03 
1159	 1.28461549226431E-03 
1160	 1.18246078394675E-03 
1161	 9.96074610788505E-04 
1162	 1.31528911425795E-03 
1163	 0.001408450148863 
1164	 1.00997662966407E-03 
1165	 1.02109126198909E-03 
1166	 1.16434347606912E-03 
1167	 9.09002223746648E-04 
1168	 1.03140729683551E-03 
1169	 1.1605997951812E-03 
1170	 8.52300832424597E-04 
1171	 8.07025982468819E-04 
1172	 9.15042421138086E-04 
1173	 8.67378802990479E-04 
1174	 7.80114250340502E-04 
1175	 8.44123335576482E-04 
1176	 7.74978364046722E-04 
1177	 8.0455739435548E-04 
1178	 1.07547505659189E-03 
1179	 1.23031407550295E-03 
1180	 1.21321876671439E-03 
1181	 1.10606557014852E-03 
1182	 9.6764377525565E-04 
1183	 1.02572636857121E-03 
1184	 1.20324794479956E-03 
1185	 1.14368998898891E-03 
1186	 9.95573114742094E-04 
1187	 9.12953724196357E-04 
1188	 8.22234648955202E-04 
1189	 7.84591941924416E-04 
1190	 8.09375764492157E-04 
1191	 8.02726359453718E-04 
1192	 8.31995272736337E-04 
1193	 8.32851121985251E-04 
1194	 1.04062083240689E-03 
1195	 1.19983745380717E-03 
1196	 1.10600974067299E-03 
1197	 9.26904082815951E-04 
1198	 8.34186693687303E-04 
1199	 8.9661256131517E-04 
1200	 9.37077479514847E-04 
1201	 9.37047508906473E-04 
1202	 1.00713064072479E-03 
1203	 1.03782872364109E-03 
1204	 1.03528580763034E-03 
1205	 1.14929831918214E-03 
1206	 1.10183812827268E-03 
1207	 8.91934648722215E-04 
1208	 8.40002105091359E-04 
1209	 8.20158726557922E-04 
1210	 7.28123801655483E-04 
1211	 7.01799751787237E-04 
1212	 7.65360679219035E-04 
1213	 7.32372327170255E-04 
1214	 7.30433839191546E-04 
1215	 8.03594009755401E-04 
1216	 9.44358749921859E-04 
1217	 8.12498846295104E-04 
1218	 5.66908300269809E-04 
1219	 6.44012510484851E-04 
1220	 7.67517149416105E-04 
1221	 6.91181095481654E-04 
1222	 8.46531129509589E-04 
1223	 1.02876783275742E-03 
1224	 8.42686528297994E-04 
1225	 8.80010153213979E-04 
1226	 1.16347060045172E-03 
1227	 1.12952527959083E-03 
1228	 9.39072237260076E-04 
1229	 8.79427541020126E-04 
1230	 7.90448149090273E-04 
1231	 5.39185153379673E-04 
1232	 6.21284007895369E-04 
1233	 9.42060202598365E-04 
1234	 9.35587129113122E-04 
1235	 9.0119937893011E-04 
1236	 9.38601953592315E-04 
1237	 9.85142702802363E-04 
1238	 8.84361464176334E-04 
1239	 7.25947803567328E-04 
1240	 7.83446653161621E-04 
1241	 9.4741472769446E-04 
1242	 8.58448130467269E-04 
1243	 8.65677859911132E-04 
1244	 1.01668354265562E-03 
1245	 9.40167814086496E-04 
1246	 8.1764181640885E-04 
1247	 9.30164328267573E-04 
1248	 1.10645586359729E-03 
1249	 1.05065508604427E-03 
1250	 1.00897424486715E-03 
1251	 1.03978219872126E-03 
1252	 9.80468822033866E-04 
1253	 9.34505336344804E-04 
1254	 9.25357935665798E-04 
1255	 9.38684896457129E-04 
1256	 9.3365311582982E-04 
1257	 1.02587633640676E-03 
1258	 9.57624153068602E-04 
1259	 5.89020422389836E-04 
1260	 5.87289805349986E-04 
1261	 9.08655985972033E-04 
1262	 8.81352847550301E-04 
1263	 8.30346057008571E-04 
1264	 8.39153935008525E-04 
1265	 9.14558274141998E-04 
1266	 8.56766069200164E-04 
1267	 1.01591782369847E-03 
1268	 1.33799392649375E-03 
1269	 1.3448311549812E-03 
1270	 1.12274457272779E-03 
1271	 9.99999063139969E-04 
1272	 1.03142069121533E-03 
1273	 8.68380364584996E-04 
1274	 6.30149243693392E-04 
1275	 8.6793183624664E-04 
1276	 1.11185581396034E-03 
1277	 8.91324006876947E-04 
1278	 8.98253314496473E-04 
1279	 1.09821095649317E-03 
1280	 9.18522813580514E-04 
1281	 8.30072369091181E-04 
1282	 1.02766453525333E-03 
1283	 1.08321175079375E-03 
1284	 7.97219665103656E-04 
1285	 7.16647079271815E-04 
1286	 9.03381546488913E-04 
1287	 9.67782539968815E-04 
1288	 9.30575264675052E-04 
1289	 9.21500884565621E-04 
1290	 9.95100389511416E-04 
1291	 9.62242525847384E-04 
1292	 8.96708838168478E-04 
1293	 9.50641991759483E-04 
1294	 1.03425226345061E-03 
1295	 1.03560026846601E-03 
1296	 9.90068779809107E-04 
1297	 9.4561477375197E-04 
1298	 1.03344430340198E-03 
1299	 1.0419329741781E-03 
1300	 8.03186119098359E-04 
1301	 8.01570603990237E-04 
1302	 1.03664519889529E-03 
1303	 9.81382597854143E-04 
1304	 9.99392626497177E-04 
1305	 1.21712296919606E-03 
1306	 1.19280720107984E-03 
1307	 8.94762264024575E-04 
1308	 9.2005586466779E-04 
1309	 1.12523367514445E-03 
1310	 1.0464115563023E-03 
1311	 9.12574482501122E-04 
1312	 9.54103535925976E-04 
1313	 7.6680708793626E-04 
1314	 7.01052548510911E-04 
1315	 1.14954618481616E-03 
1316	 1.24410247188138E-03 
1317	 8.54711464997894E-04 
1318	 9.26855401093211E-04 
1319	 1.28951961799536E-03 
1320	 1.3348766062944E-03 
1321	 1.4687432689655E-03 
1322	 1.56877731773542E-03 
1323	 1.16346099479247E-03 
1324	 8.09143157495906E-04 
1325	 7.06857753544312E-04 
1326	 8.90366597067148E-04 
1327	 1.07672750446776E-03 
1328	 1.19955437071704E-03 
1329	 1.31615361254375E-03 
1330	 8.7204103955557E-04 
1331	 8.79416269703395E-04 
1332	 1.33836119494118E-03 
1333	 9.44776805268639E-04 
1334	 1.01914073015785E-03 
1335	 1.17435433104074E-03 
1336	 1.20700570339347E-03 
1337	 1.01174634642666E-03 
1338	 9.32678933427713E-04 
1339	 1.05826548680768E-03 
1340	 9.98311567332785E-04 
1341	 9.46567832727089E-04 
1342	 1.35232657071114E-03 
1343	 1.67846048419363E-03 
1344	 1.86296313600302E-03 
1345	 1.67013850642572E-03 
1346	 1.11371118917728E-03 
1347	 1.19528432868978E-03 
1348	 9.08166159852494E-04 
1349	 5.96563188946316E-04 
1350	 2.57894945849317E-03 
1351	 4.07259639543424E-03 
1352	 2.01086243441529E-03 
1353	 2.0272857128347E-03 
1354	 4.75995874808436E-03 
1355	 1.25449101835524E-02 
1356	 0.02397659057378 
1357	 4.55451530858891E-02 
1358	 4.45455209947447E-02 
1359	 3.99483795893173E-02 
1360	 7.37966418268077E-02 
1361	 5.73734633083078E-02 
1362	 2.52823164622383E-02 
1363	 4.40279788889055E-02 
1364	 2.40479873639671E-02 
1365	 3.19612772714687E-02 
1366	 0.11418117835394 
1367	 0.194148495979879 
1368	 0.164953776533579 
1369	-0.132313894512648 
1370	-0.11775675093351 
1371	 0.170000297298854 
1372	 0.154933321140531 
1373	 0.166549038684772 
1374	 0.202849965995607 
1375	-0.162266118486076 
1376	-0.224781374423126 
1377	 0.119187611838199 
1378	 0.217495483328806 
1379	 0.223849055725643 
1380	 0.250135993946496 
1381	 0.311313392819683 
1382	 0.33661802014499 
1383	 0.23772317691232 
1384	 0.243699337759971 
1385	 0.361700056135239 
1386	 0.363041364558824 
1387	 0.190368171044823 
1388	 0.201588925654689 
1389	 0.489247787106857 
1390	 0.437113636251313 
1391	 0.361777158047491 
1392	 0.246266153895709 
1393	 0.138511140990194 
1394	-0.069274920749812 
1395	-0.126333633910262 
1396	 8.42565847149757E-02 
1397	 0.163841218412009 
1398	 5.50146563972205E-02 
1399	 0.191813597131243 
1400	 0.335240475936875 
1401	 0.153374578102256 
1402	 2.88589030027062E-02 
1403	 6.77978147043405E-02 
1404	 0.077294215987154 
1405	 5.42349027028063E-02 
1406	 0.127865587978026 
1407	 0.112666391787355 
1408	 6.08022366491038E-03 
1409	-1.86335483207308E-03 
1410	 0.03910705767143 
1411	 3.36381565122995E-02 
1412	 1.54021541243204E-02 
1413	 1.23714000980264E-02 
1414	 4.73903980036803E-03 
1415	 1.02319551618113E-02 
1416	 3.13235206636616E-02 
1417	 3.00286716846358E-02 
1418	 2.07759109385016E-02 
1419	 1.72447115361443E-02 
1420	 1.10248248889059E-02 
1421	 6.44000512936565E-03 
1422	 3.9141162818116E-03 
1423	 4.63384524403194E-03 
1424	 4.58280126923459E-03 
1425	 4.6777744152199E-03 
1426	 9.35193347209078E-03 
1427	 9.57167035456382E-03 
1428	 6.33690141207336E-03 
1429	 4.92523671818882E-03 
1430	 9.94023876451179E-04 
1431	 1.31369796403012E-03 
1432	 6.11073136192447E-03 
1433	 7.55570048654487E-03 
1434	 1.09177991800739E-02 
1435	 1.15670546962686E-02 
1436	 9.91629423602986E-03 
1437	 4.7144494788353E-03 
1438	 9.89868042357031E-04 
1439	 1.40507277819016E-03 
1440	 2.11109327997512E-03 
1441	 4.18412847883505E-03 
1442	 7.31418995487604E-03 
1443	 7.19611930710202E-03 
1444	 4.66463038681081E-03 
1445	 2.96267304660789E-03 
1446	 1.87455157435825E-03 
1447	 1.85361240843945E-03 
1448	 3.41135327870675E-03 
1449	 3.56084361815403E-03 
1450	 2.33586402860581E-03 
1451	 1.3341302123989E-03 
1452	 3.42513418983808E-04 
1453	 2.8310893891718E-04 
1454	 1.10301271925722E-04 
1455	 4.16908725203325E-04 
1456	 4.77171076637805E-04 
1457	 3.7762892748002E-04 
1458	 6.90913649551153E-04 
1459	 1.51922450700391E-03 
1460	 1.23600776876444E-03 
1461	 4.08723310662538E-04 
1462	 4.88988203608461E-04 
1463	 3.83554636727819E-04 
1464	 2.97948772193332E-04 
1465	 1.14132600433532E-03 
1466	 1.18636706828225E-03 
1467	 1.01457030128645E-04 
1468	-1.02304641067584E-04 
1469	 3.89468532717188E-04 
1470	 2.95522280687873E-04 
1471	-2.09366298027326E-04 
1472	-2.65093323385416E-05 
1473	 5.50784775248064E-04 
1474	 6.4687911761952E-04 
1475	 4.93489514185529E-04 
1476	 8.49725888684069E-04 
1477	 1.82672345038548E-03 
1478	 1.70633221157458E-03 
1479	 1.19987761855259E-03 
1480	 1.00051509437491E-03 
1481	-3.1577445094192E-05 
1482	-2.62540059197633E-04 
1483	 5.97040682209791E-04 
1484	 5.84464240830145E-04 
1485	 8.44321882122466E-05 
1486	 5.73664599835364E-05 
1487	-6.37998737597988E-05 
1488	-5.12955586321706E-05 
1489	 3.31158494515331E-04 
1490	 4.19289641997691E-04 
1491	 2.68751235962068E-04 
1492	 2.88548631941833E-04 
1493	 5.64948400172524E-04 
1494	 5.51259715347874E-04 
1495	 1.35107931973912E-04 
1496	 1.73200809765813E-04 
1497	 5.51678479764129E-04 
1498	 4.79400009628928E-04 
1499	 3.12953732743084E-04 
1500	 3.95272477576562E-04 
1501	 4.0438400014065E-04 
1502	 2.25424085538721E-04 
1503	 3.17545110916208E-05 
1504	 6.27377922169998E-05 
1505	 4.80350277072913E-05 
1506	-4.21509669672004E-05 
1507	 5.91679874218443E-05 
1508	 3.26824635702305E-04 
1509	 1.60828311398462E-04 
1510	-5.15571165438183E-05 
1511	 1.68736692867715E-04 
1512	 3.04229757988023E-04 
1513	 3.1830664735583E-04 
1514	 5.28146596398271E-04 
1515	 4.76839763721049E-04 
1516	 2.73754929162474E-04 
1517	 3.86642392119077E-04 
1518	 3.95345160454005E-04 
1519	 1.79060057802735E-04 
1520	 7.31729602510258E-05 
1521	 1.59191110667411E-04 
1522	 2.81097922625792E-04 
1523	 4.1372444607335E-04 
1524	 5.22658902181969E-04 
1525	 5.13116471717728E-04 
1526	 3.60673321665434E-04 
1527	 1.05260368711181E-04 
1528	 1.14034668907751E-04 
1529	 3.17284491375365E-04 
1530	 4.28669211567697E-04 
1531	 4.42925929543972E-04 
1532	 4.57227390371468E-04 
1533	 4.38858519695569E-04 
1534	 2.0675504479668E-04 
1535	 1.21805847887623E-04 
1536	 2.65578171079308E-04 
1537	 2.07803968532398E-04 
1538	 1.78608178922467E-04 
1539	 3.39522125499053E-04 
1540	 3.81461260922479E-04 
1541	 2.90203870204062E-04 
1542	 1.45285803794084E-04 
1543	 1.2131064304449E-04 
1544	 2.39725035472789E-04 
1545	 3.48417833093701E-04 
1546	 4.32044695539267E-04 
1547	 3.51874171477703E-04 
1548	 1.48720211160042E-04 
1549	 9.52826154613659E-05 
1550	 2.04590536353732E-04 
1551	 2.38913870304057E-04 
1552	 2.23053851362137E-04 
1553	 1.36622359766485E-04 
1554	 3.97262404255305E-05 
1555	 1.42957962457296E-04 
1556	 1.50757725977562E-04 
1557	 5.60988060894393E-05 
1558	 1.58499837408104E-04 
1559	 2.99332054339593E-04 
1560	 3.13056392288393E-04 
1561	 2.59217618479493E-04 
1562	 1.3726405481403E-04 
1563	 9.04863164008947E-05 
1564	 1.69314286965201E-04 
1565	 3.34235982827018E-04 
1566	 4.63663761936697E-04 
1567	 2.91638314281287E-04 
1568	 1.04995689117857E-04 
1569	 1.54229351990498E-04 
1570	 3.1925853042838E-04 
1571	 3.31005817356257E-04 
1572	 1.85479203394379E-04 
1573	 2.46959490362796E-04 
1574	 2.66471811551067E-04 
1575	 1.0761066542317E-04 
1576	 1.37399889412526E-04 
1577	 2.42013153805321E-04 
1578	 2.72897090088236E-04 
1579	 4.20476773006008E-04 
1580	 5.20299684621283E-04 
1581	 3.21909423891435E-04 
1582	 1.14154737938894E-04 
1583	 2.33376718104216E-04 
1584	 3.88186954654024E-04 
1585	 3.70662727553699E-04 
1586	 3.6011467273694E-04 
1587	 2.10892123422447E-04 
1588	 2.05228880961636E-04 
1589	 5.12271399665903E-04 
1590	 5.31556741803552E-04 
1591	 3.05228873203316E-04 
1592	 2.98211663402374E-04 
1593	 4.32233129051439E-04 
1594	 4.34434941470615E-04 
1595	 4.92399944540793E-04 
1596	 6.00078094219771E-04 
1597	 4.39495784120884E-04 
1598	 4.1218927800387E-04 
1599	 6.91652775828068E-04 
1600	 7.0293152644421E-04 
1601	 5.96017173655776E-04 
1602	 6.23316734575701E-04 
1603	 5.53307663456211E-04 
1604	 5.73421169863783E-04 
1605	 6.51012077774606E-04 
1606	 6.73661875663628E-04 
1607	 6.60942449162363E-04 
1608	 5.62289199953204E-04 
1609	 5.92004405149774E-04 
1610	 6.57413463253744E-04 
1611	 6.51265831501064E-04 
1612	 6.25120903095942E-04 
1613	 6.14416459933784E-04 
1614	 5.50449490815806E-04 
1615	 3.35138283175888E-04 
1616	 3.28810674343635E-04 
1617	 3.96613097908275E-04 
1618	 2.87107601440632E-04 
1619	 3.17051533848352E-04 
1620	 4.51241651093494E-04 
1621	 3.97054594180587E-04 
1622	 1.79812247189036E-04 
1623	 2.10493392403777E-04 
1624	 4.27412959657071E-04 
1625	 5.11011944006104E-04 
1626	 5.26516977719569E-04 
1627	 3.90224415450337E-04 
1628	 2.47711889497318E-04 
1629	 2.46085285206841E-04 
1630	 2.91656924697014E-04 
1631	 3.66390042015368E-04 
1632	 3.87070192457312E-04 
1633	 4.48417559035296E-04 
1634	 4.80908951304768E-04 
1635	 3.73126669669712E-04 
1636	 2.76725390456807E-04 
1637	 1.58614653270758E-04 
1638	 1.47634051839028E-04 
1639	 4.78055299187975E-04 
1640	 6.58403439803935E-04 
1641	 4.88762811362035E-04 
1642	 5.13660381788158E-04 
1643	 6.23370038595106E-04 
1644	 6.14531602690314E-04 
1645	 6.49439668710812E-04 
1646	 5.92410040808485E-04 
1647	 5.68867352789204E-04 
1648	 6.57128261599444E-04 
1649	 5.90485900459343E-04 
1650	 4.7651705830576E-04 
1651	 3.85702050700844E-04 
1652	 2.54488499640613E-04 
1653	 3.77852818315531E-04 
1654	 4.82261053176179E-04 
1655	 4.74723627402197E-04 
1656	 4.44004600337639E-04 
1657	 4.80960453013108E-04 
1658	 5.74099168153376E-04 
1659	 6.8414366789117E-04 
1660	 6.00834013342325E-04 
1661	 5.15334053899797E-04 
1662	 4.55592550921798E-04 
1663	 1.86488710500336E-04 
1664	 1.89557522773233E-04 
1665	 3.77065712041368E-04 
1666	 2.50034745199255E-04 
1667	 1.42623451109844E-04 
1668	 4.42730724244536E-04 
1669	 2.38617051615132E-04 
1670	 4.25605619655202E-04 
1671	 6.54173835424309E-04 
1672	 2.40324148269196E-04 
1673	 8.49720077012977E-05 
1674	 4.83079096880945E-04 
1675	 3.42832579565287E-04 
1676	 3.01106852257482E-04 
1677	 7.47940923755161E-04 
1678	 7.41060255584489E-04 
1679	 6.03104625966089E-04 
1680	 5.49156849578551E-04 
1681	 4.53426460524856E-04 
1682	 5.82409348692585E-04 
1683	 7.36694043968083E-04 
1684	 6.11130680751456E-04 
1685	 5.1590920679774E-04 
1686	 6.05434637166102E-04 
1687	 5.25415002045754E-04 
1688	 5.00611278941661E-04 
1689	 7.09585713783094E-04 
1690	 5.57995579694338E-04 
1691	 3.65666727624985E-04 
1692	 7.16253382752407E-04 
1693	 8.86073160472095E-04 
1694	 7.90305356334063E-04 
1695	 7.5401700637288E-04 
1696	 3.46678195548603E-04 
1697	-1.24062377724129E-04 
1698	-1.07412665419281E-04 
1699	 1.84740117557373E-04 
1700	 4.37286250428526E-04 
1701	 5.82437116235678E-04 
1702	 6.03490123325242E-04 
1703	 4.35985504238983E-04 
1704	 2.7552762413693E-04 
1705	 4.78748246031617E-04 
1706	 7.22693725693524E-04 
1707	 5.7739721554092E-04 
1708	 4.3284953291995E-04 
1709	 3.19539063768055E-04 
1710	-1.16657791203804E-05 
1711	 1.81254052083383E-05 
1712	 3.59482329875518E-04 
1713	 3.84077222558074E-04 
1714	 4.28145430806979E-04 
1715	 2.7815044601516E-04 
1716	 2.85877606111944E-04 
1717	 2.52470778707529E-04 
1718	 2.4729653029665E-04 
1719	 6.98262476646695E-04 
1720	 7.1380450401422E-04 
1721	 3.95175661378046E-04 
1722	 2.94712638430649E-04 
1723	-1.42102975947618E-04 
1724	-5.27583958111462E-05 
1725	 8.06852092821424E-04 
1726	 1.10047177733976E-03 
1727	 1.09484995353176E-03 
1728	 1.03913724600932E-03 
1729	 5.47059768564093E-04 
1730	 5.41401742619544E-04 
1731	 9.02162927583982E-04 
1732	 7.39123561075035E-04 
1733	 4.68450717180782E-04 
1734	 5.03938580534485E-04 
1735	 6.79998439082744E-04 
1736	 6.64998534897403E-04 
1737	 6.3098983834595E-04 
1738	 4.45331239835461E-04 
1739	 1.05845423254667E-04 
1740	 2.26552115702062E-04 
1741	 5.25323999615248E-04 
1742	 8.99272120374797E-04 
1743	 1.03464218722006E-03 
1744	 7.64656221158268E-04 
1745	 9.95700951232199E-04 
1746	 1.0683054265043E-03 
1747	 9.89765819434354E-04 
1748	 8.02829243974068E-04 
1749	 6.88842568997234E-04 
1750	 6.0487502338245E-04 
1751	 6.98412316572311E-04 
1752	 1.14779530088549E-03 
1753	 1.25368124330717E-03 
1754	 1.06284725810959E-03 
1755	 7.66678542722786E-04 
1756	 2.49074385567971E-04 
1757	 4.1089600751739E-04 
1758	 3.79930392616716E-04 
1759	 2.03535411554992E-05 
1760	-3.92896633364157E-04 
1761	-2.83021951816656E-04 
1762	 4.36380332590764E-04 
1763	 8.21026236921605E-04 
1764	 1.11135995428402E-03 
1765	 7.92692491567545E-04 
1766	-4.00693918685263E-04 
1767	-5.26149907197989E-04 
1768	-1.06496393746867E-04 
1769	 3.57745260966628E-04 
1770	 1.24660484991652E-03 
1771	 1.50307845606759E-03 
1772	 1.15134806869168E-03 
1773	 2.72205874270099E-04 
1774	-3.754063474189E-04 
1775	 8.06694517631144E-04 
1776	 1.1929771100568E-03 
1777	 2.43327529547796E-03 
1778	 2.75494613246372E-03 
1779	 1.00177459501231E-03 
1780	 7.22749166612673E-04 
1781	 1.60769955874844E-03 
1782	 1.53300307707003E-03 
1783	 0.001457909687438 
1784	 1.54212081581984E-03 
1785	 6.44105201392653E-04 
1786	 4.45395258440563E-04 
1787	 1.29108869369134E-03 
1788	 1.93426914952688E-03 
1789	 3.01716084332075E-03 
1790	 3.52870661464894E-03 
1791	 1.83778621362102E-03 
1792	-3.00525380171036E-04 
1793	-5.58992276806063E-04 
1794	 1.98155841330493E-04 
1795	 1.7400312103761E-03 
1796	 3.02326225973728E-03 
1797	 3.34714507921516E-03 
1798	 5.60110320588983E-03 
1799	 7.87918523173228E-03 
1800	 9.05187741384907E-03 
1801	 9.84318956622644E-03 
1802	 6.39320319369138E-03 
1803	 4.52205745895305E-03 
1804	 4.40187226503046E-03 
1805	 2.86871976511516E-03 
1806	-1.09475486273687E-03 
1807	-7.38166307310699E-04 
1808	 3.2940001255485E-03 
1809	 5.68116942482839E-03 
1810	 1.37529699431812E-02 
1811	 2.16537636789514E-02 
1812	 0.028530536956342 
1813	 3.39234216354166E-02 
1814	 3.83463725320123E-02 
1815	 5.56800646144194E-02 
1816	 0.069437843096648 
1817	 0.160347139259463 
1818	 0.220571635413307 
1819	 0.233172886992999 
1820	 0.158808590743184 
1821	-7.0587486784528E-03 
1822	-4.26071795178507E-02 
1823	 0.132170965152942 
1824	 0.251092357555049 
1825	 0.653431313337574 
1826	 0.966521067740362 
1827	 0.700541220347798 
1828	 0.675823578100493 
1829	 0.617514838837205 
1830	 0.530706867311741 
1831	 2.24013144344186 
1832	 2.16230721285815 
1833	-0.370938259934607 
1834	-0.74694141136472 
1835	-0.129206457127428 
1836	-0.115581291608809 
1837	-0.177283008925105 
1838	-0.198211216074208 
1839	-0.11710656875149 
1840	-0.2276765080316 
1841	-0.711405325877056 
1842	 8.74564187315252 
1843	 0.800246927215103 
1844	 0.217676831799615 
1845	-4.43808789586573E-02 
1846	-1.41093627347486 
1847	-2.74989092402927 
1848	 23.1340827048701 
1849	 1.63099952966521 
1850	-0.542587216071876 
1851	-1.12388869719626 
1852	-0.703575736851258 
1853	-0.185772724075938 
1854	 8.82557374909952E-03 
1855	 0.337802210336718 
1856	 0.620820558195383 
1857	 98.1715731210197 
1858	-2.00179195887432 
1859	-0.771293736498268 
1860	-0.519349673120713 
1861	-0.101745998016034 
1862	-1.3153718741383 
1863	 1.45372265287565 
1864	-0.500032409691224 
1865	-0.737646763477052 
1866	 2.66675751710241 
1867	 2.70981779870796 
1868	-0.44386343985865 
1869	 2.88811677086463 
1870	-2.02364023282382E-02 
1871	 0.139550991121038 
1872	-6.89748305192778E-02 
1873	-0.132902272952366 
1874	 0.104441836686169 
1875	-0.232658947928921 
1876	-0.413030498539764 
1877	-0.398402790836038 
1878	-0.4153183597808 
1879	-0.782203364554357 
1880	-1.48711301961629 
1881	-1.44657389304865 
1882	-0.327603680933914 
1883	 0.310770046816675 
1884	 1.1280299134753 
1885	-0.577352732165194 
1886	-2.50767105889203 
1887	 0.740628445782221 
1888	 0.463534268710071 
1889	 0.23478294696344 
1890	-1.1010721727587 
1891	-0.892806227548884 
1892	 0.247802827712331 
1893	 0.536184210516071 
1894	 0.698444982314781 
1895	 2.08657043255025 
1896	-26.643501902596 
1897	-5.39563918222161 
1898	-20.4782109060685 
1899	 5.92526756440734 
1900	 1.68712098733844 
1901	 0.407466135276058 
1902	 0.188009527753128 
1903	-0.170187586230711 
1904	-0.782738745939582 
1905	 4.6725243754623 
1906	 1.27061062996107 
1907	 0.765094766305286 
1908	 0.621535466437101 
1909	 0.831148279493522 
1910	 1.02898938398477 
1911	 0.651289333304684 
1912	 0.207895912351826 
1913	-4.43038798947483E-02 
1914	-3.3400411876861 
1915	-2.8324746929201 
1916	-1.05131909978824E-02 
1917	 0.534833483942626 
1918	 0.26517078833096 
1919	 0.70508324870676 
1920	 1.16131162746911 
1921	 1.11243325288607 
1922	 1.43490101148496 
1923	 0.694607073942816 
1924	 0.307959274866771 
1925	 0.465564690565549 
1926	 0.391074962293191 
1927	 0.340698611189496 
1928	 0.254860724924532 
1929	 0.15564105869114 
1930	-4.56995412833138E-03 
1931	-6.13262646322475E-02 
1932	-0.025138173232957 
1933	-6.73019194147254E-02 
1934	-3.10155746993422E-02 
1935	 0.080460239692223 
1936	 8.83722412559524E-02 
1937	 5.45382999670025E-02 
1938	 4.09300315923741E-02 
1939	 2.69149009909866E-02 
1940	-4.10062633704395E-03 
1941	-2.69448898945006E-02 
1942	-1.07948976332757E-02 
1943	 6.67600728552974E-03 
1944	 9.68589467826813E-03 
1945	 1.12969642144798E-02 
1946	 1.15379847437345E-02 
1947	 9.08740635166501E-03 
1948	-2.05129358765999E-03 
1949	-2.48514329161754E-03 
1950	 2.01178989024394E-03 
1951	-8.02242486410055E-04 
1952	-3.21172129571676E-04 
1953	 7.23790497915191E-03 
1954	 5.99251503422566E-03 
1955	-1.04123269301095E-03 
1956	-3.11475347901776E-03 
1957	-1.19669074318288E-02 
1958	-1.40422945944902E-02 
1959	-1.14562578373259E-02 
1960	-1.10049429524276E-02 
1961	-6.42286834025804E-03 
1962	-4.2561114604096E-03 
1963	-4.27755335708327E-03 
1964	-2.29357932808228E-03 
1965	 3.17086132294048E-04 
1966	 5.13984363970758E-04 
1967	 2.71883550933075E-04 
1968	 1.27036961373781E-04 
1969	 3.89212362544437E-04 
1970	-7.04674996050509E-04 
1971	-7.70362451228554E-04 
1972	-5.33384974762495E-05 
1973	-2.22688237419906E-04 
1974	 4.177500696715E-04 
1975	 1.06343963072347E-03 
1976	 1.01833033903439E-03 
1977	 1.5975991706211E-03 
1978	 1.7546750187288E-03 
1979	 1.45882307827225E-03 
1980	 8.94019184305146E-04 
1981	 8.3085747747447E-04 
1982	 3.58060627448682E-04 
1983	-7.29273643536636E-05 
1984	 1.2886035468749E-04 
1985	 4.63528065615127E-04 
1986	 9.02408670647695E-04 
1987	 8.61455605212301E-04 
1988	 3.97259235073284E-04 
1989	 8.96802054878232E-04 
1990	 1.18394827050253E-03 
1991	 5.47170776719912E-04 
1992	 3.88840464108495E-04 
1993	 4.07859655929433E-04 
1994	 2.91802600400161E-04 
1995	-1.17527617968161E-04 
1996	 5.01578784116355E-04 
1997	 1.20758054776426E-03 
1998	 9.44859717451893E-04 
1999	 5.43259517367097E-04 
2000	-1.0389631618328E-03 
2001	-2.37584031515732E-03 
2002	-1.44287428597703E-03 
2003	-2.53460532096583E-04 
2004	 1.38861913337199E-04 
2005	-1.23867001564532E-03 
2006	-2.4331545854637E-03 
2007	-2.30549155022538E-03 
2008	-2.6569753129003E-03 
2009	-2.72844555326696E-03 
2010	-2.38827301471433E-03 
2011	-1.3408470701823E-03 
2012	-1.00125564270238E-03 
2013	 1.46596171460599E-03 
2014	 3.86758888020205E-03 
2015	 5.62641992472251E-03 
2016	 5.32749914634074E-03 
2017	 3.48314302787329E-03 
2018	 2.45415360808823E-03 
2019	-2.81591022142284E-04 
2020	-9.36146616976128E-04 
2021	 7.39827707419555E-04 
2022	 8.71141437247324E-04 
2023	 1.15349082804942E-03 
2024	 8.26887677762031E-04 
2025	-1.30175498121113E-03 
2026	-1.80465499144467E-03 
2027	-1.71396339923195E-03 
2028	-1.5080252421314E-03 
2029	-1.2288480012208E-03 
2030	-1.38621729685749E-03 
2031	-1.56654278189126E-03 
2032	-9.10342747608347E-04 
2033	-3.75883825706492E-04 
2034	 1.48399416180745E-05 
2035	 3.36377705963458E-04 
2036	-3.81365286006008E-06 
2037	-4.88973048733108E-04 
2038	-3.17337026472218E-04 
2039	-1.83493948975678E-04 
2040	 1.05060671989759E-05 
2041	 6.95022531819654E-05 
2042	 5.0157159603148E-04 
2043	 3.72421741926277E-04 
2044	-3.4621420860388E-04 
2045	-7.35875491559579E-04 
2046	-6.90498290137906E-04 
2047	-9.36462670938461E-04 
2048	-6.97266472041913E-04 
2049	 6.93576251312492E-05 
2050	 2.60259079913971E-04 
2051	 3.32075097862394E-04 
2052	 4.69663191074301E-04 
2053	 7.79221464757607E-04 
2054	 1.60101462857322E-03 
2055	 2.00995135944259E-03 
2056	 1.92182498444446E-03 
2057	 1.12061395191937E-03 
2058	 1.11407583758553E-03 
2059	 9.76225926477011E-04 
2060	 9.98078876690284E-04 
2061	 1.74925988626456E-03 
2062	 2.11130060815617E-03 
2063	 1.52149618531921E-03 
2064	 1.12439110735017E-03 
2065	 1.21106642462911E-03 
2066	 7.48169108346334E-04 
2067	 9.21004104308931E-04 
2068	 9.70242961079589E-04 
2069	 2.8592274371155E-04 
2070	 5.34255827458465E-04 
2071	 7.75717228278334E-04 
2072	 1.42783213899744E-03 
2073	 1.5819437173454E-03 
2074	 1.51638365235541E-03 
2075	 1.56716745627527E-03 
2076	 1.67707248850986E-03 
2077	 1.27358778810383E-03 
2078	 7.01139821920703E-04 
2079	 6.43260724025049E-04 
2080	 4.89865673007497E-04 
2081	-3.94091400344016E-05 
2082	 3.81159435339141E-04 
2083	 8.93764114555606E-04 
2084	 7.41792387872807E-04 
2085	 6.47122518697837E-04 
2086	 5.89425724262649E-04 
2087	 4.13611204437683E-04 
2088	 9.34273393476772E-04 
2089	 1.48943327699764E-03 
2090	 1.4596479780749E-03 
2091	 1.75029474639022E-03 
2092	 1.60659903351575E-03 
2093	 6.79144496315465E-04 
2094	 3.10558740886072E-04 
2095	-2.19733911075224E-05 
2096	-2.07843366902571E-04 
2097	 1.29926138619805E-04 
2098	-8.51554102136696E-06 
2099	-6.68948381689836E-04 
2100	-4.924549511005E-04 
2101	 3.87436568894684E-04 
2102	 5.86860153659557E-04 
2103	 1.06364653460693E-03 
2104	 1.34688790770588E-03 
2105	 5.46639204698917E-04 
2106	-1.48238806258161E-04 
2107	-2.66851671373342E-04 
2108	-3.21991679331988E-04 
2109	-8.53688238136117E-04 
2110	-7.94996445066558E-04 
2111	-2.12629129776696E-04 
2112	-2.08596732428815E-04 
2113	-1.74842294087406E-04 
2114	 1.08792978386703E-05 
2115	-2.19050403337866E-05 
2116	-5.54399569908082E-04 
2117	-4.72344768710565E-04 
2118	-7.41563620771549E-05 
2119	 1.74954167190755E-04 
2120	 5.73407640927482E-04 
2121	 1.12826450291508E-03 
2122	 7.54954994365777E-04 
2123	 5.75287907455917E-04 
2124	 9.11610515409742E-04 
2125	 8.35409086008596E-04 
2126	 3.37731417882044E-04 
2127	 2.49300525335941E-04 
2128	 5.25118259051709E-04 
2129	-3.38321463635701E-04 
2130	-4.24056114110028E-04 
2131	 6.76273033817063E-04 
2132	 2.87276525518851E-04 
2133	 3.88086879461774E-04 
2134	 6.18687885603884E-04 
2135	 1.08560108504683E-03 
2136	 8.16378643689596E-04 
2137	 4.09827187675733E-04 
2138	-1.39965665874217E-04 
2139	-1.60381360138091E-03 
2140	-1.89996503480969E-03 
2141	-1.43984093458147E-03 
2142	-1.17202151081525E-03 
2143	-3.54612179291962E-04 
2144	-5.22779515004062E-05 
2145	-5.97035885396258E-05 
2146	 8.44421328431266E-05 
2147	 3.60902273369363E-04 
2148	 7.41974085034584E-04 
2149	 1.23939352051887E-03 
2150	 1.05174904182754E-03 
2151	 9.20120545715811E-04 
2152	 1.27813031665784E-03 
2153	 8.32517220089977E-04 
2154	 1.51696313109502E-05 
2155	-2.28295100567623E-04 
2156	-4.58159682054065E-04 
2157	-5.65684294568721E-04 
2158	 1.18637286017257E-04 
2159	 2.71280078983398E-04 
2160	-2.37086353452603E-04 
2161	-3.53175319690747E-06 
2162	 9.63411916312476E-04 
2163	 9.21940041826363E-04 
2164	 3.92898256299713E-04 
2165	 4.18409404896303E-04 
2166	 5.33777735383818E-05 
2167	 3.50798583238864E-05 
2168	 9.69252629213301E-04 
2169	 1.18552521739197E-03 
2170	 8.61229496394678E-04 
2171	 6.98996424141108E-04 
2172	 2.48248713998169E-04 
2173	 1.10795755459322E-04 
2174	 6.13088068810342E-05 
2175	-2.91123088451032E-04 
2176	 1.38028310749239E-04 
2177	 1.40272549223548E-03 
2178	 2.21392117334021E-03 
2179	 2.14719188929637E-03 
2180	 2.26078631921864E-03 
2181	 1.97453082893404E-03 
2182	 7.13949228582775E-04 
2183	 8.2671655178912E-04 
2184	 1.20885836799798E-03 
2185	 6.45894707792693E-04 
2186	 5.16717602953513E-04 
2187	 9.48358028684259E-04 
2188	 1.37085169445044E-03 
2189	 1.85554255840599E-03 
2190	 1.86689142536397E-03 
2191	 2.0603783418635E-03 
2192	 2.23440192209336E-03 
2193	 1.67635632080021E-03 
2194	 1.55074644028221E-03 
2195	 2.3553062983683E-03 
2196	 2.16908805792133E-03 
2197	 6.53531939601336E-04 
2198	 2.2477107769842E-04 
2199	 9.9644522872855E-05 
2200	 1.31998433871394E-04 
2201	 4.15839739405844E-04 
2202	 7.67146855183933E-04 
2203	-3.99057268799984E-04 
2204	-5.59921046709718E-04 
2205	 8.02234912355831E-04 
2206	 2.39371862242666E-03 
2207	 3.40658973990753E-03 
2208	 2.54791063536399E-03 
2209	 2.07699492990209E-03 
2210	 1.66108345166001E-03 
2211	 6.81116870136842E-04 
2212	 1.48544316020502E-03 
2213	 1.18946527311396E-03 
2214	-9.83163596171819E-04 
2215	-1.59212450321837E-03 
2216	-8.9299343759473E-04 
2217	-8.17837675459294E-04 
2218	-3.62536324483536E-04 
2219	-5.12062279033502E-04 
2220	-1.80628851891267E-03 
2221	-2.13267649517538E-03 
2222	-2.13316890208088E-03 
2223	-1.90800869542782E-03 
2224	-1.97102968165362E-04 
2225	 5.09778690367968E-04 
2226	 3.22321071015305E-04 
2227	 1.12804970600214E-04 
2228	-3.14094633306798E-04 
2229	-9.04753207905013E-04 
2230	-2.32107729011015E-03 
2231	-2.3690095457743E-03 
2232	-1.20614535098019E-03 
2233	-1.40487446259044E-03 
2234	-1.70543801204153E-03 
2235	-1.86830315963724E-03 
2236	-2.39320936035804E-03 
2237	-2.96253623824495E-03 
2238	-2.55291013319812E-03 
2239	-7.96704597279214E-04 
2240	 9.33170649682112E-04 
2241	 1.67567927351788E-03 
2242	 3.55074755091529E-04 
2243	-1.91999296084186E-04 
2244	 1.17962107394936E-03 
2245	 1.97611789356868E-04 
2246	 1.41834167648306E-03 
2247	 3.70449174103221E-03 
2248	 0.001557274908911 
2249	 1.01513219089116E-03 
2250	 1.44917764573122E-03 
2251	 1.38805458993639E-03 
2252	 1.88890776790643E-03 
2253	 1.73857204838451E-03 
2254	 1.34160106325132E-03 
2255	 3.60165465553642E-04 
2256	 3.29105368858378E-04 
2257	 7.8124264544783E-04 
2258	-9.08371150395971E-05 
2259	 1.52930317449366E-05 
2260	 1.1531034369465E-03 
2261	 3.52659491693582E-03 
2262	 3.56377408214297E-03 
2263	 3.90788202696883E-03 
2264	 3.85653896513204E-03 
2265	 1.96603547334568E-03 
2266	 9.97621914610992E-04 
2267	 5.92939742203963E-04 
2268	 4.05557318223068E-05 
2269	-2.06834715923093E-03 
2270	-2.14053804027382E-03 
2271	 7.94833619160884E-04 
2272	 2.01282901376586E-03 
2273	 2.82863494998297E-03 
2274	 2.50862092514213E-03 
2275	 8.70414134844806E-04 
2276	 1.65000137229069E-04 
2277	-1.39614467076775E-03 
2278	-7.52582973369797E-04 
2279	 2.3141120528405E-03 
2280	 2.78954923856357E-03 
2281	 2.31038878390169E-03 
2282	 3.85634853918615E-03 
2283	 2.23233746543156E-03 
2284	 1.15195292528262E-04 
2285	 6.29392632967235E-04 
2286	-1.69604525397699E-04 
2287	-7.46942570161634E-04 
2288	-1.48004427032269E-03 
2289	-2.71432970421582E-03 
2290	-2.47625326602177E-03 
2291	-1.58245372356623E-03 
2292	-6.56343142416703E-04 
2293	 4.3071107048895E-04 
2294	 1.87471405249377E-03 
2295	 1.26895729999772E-03 
2296	-9.8134004338764E-05 
2297	-1.31671087032695E-03 
2298	-3.77733082338552E-03 
2299	-4.95659091377202E-03 
2300	-0.004594187146395 
2301	-2.15749817064586E-03 
2302	 1.20415351066757E-04 
2303	 1.0080575201311E-03 
2304	 1.98843967712479E-03 
2305	 1.64774854164726E-04 
2306	-3.55920837295256E-04 
2307	 1.01675268570502E-03 
2308	 7.93218107690179E-04 
2309	 1.56293405392903E-03 
2310	-1.62112998391471E-04 
2311	-4.12673652060261E-03 
2312	-2.38241343084668E-03 
2313	-3.64419505412729E-04 
2314	-1.61907550558751E-03 
2315	 1.12035457494317E-03 
2316	 8.72357987242887E-04 
2317	-1.74415979154109E-03 
2318	 7.0228477633835E-04 
2319	-7.12767868836568E-05 
2320	-3.08407376247722E-03 
2321	-2.43957016470957E-03 
2322	-2.22134974746083E-03 
2323	-9.54701718843146E-04 
2324	 4.27300276183541E-03 
2325	 4.8693313579014E-03 
2326	 3.50618870421693E-03 
2327	 5.9786477863423E-03 
2328	 2.77608038626385E-03 
2329	-1.00117617150232E-03 
2330	 1.68437192493999E-03 
2331	 8.98962413389573E-04 
2332	-3.41062836290956E-04 
2333	 1.04839658577686E-03 
2334	-4.73021536205614E-04 
2335	-1.19729839102155E-03 
2336	-6.63149559112237E-04 
2337	 2.38415787112092E-03 
2338	 4.58267931025992E-03 
2339	 1.18927246377589E-03 
2340	-1.8803395658555E-03 
2341	-2.67911059958482E-03 
2342	-2.70611756778013E-03 
2343	-2.37050594246606E-03 
2344	-8.26660647433957E-04 
2345	 3.37684549518331E-04 
2346	-1.16079290606019E-03 
2347	-4.26746116842991E-03 
2348	-3.87429386538532E-03 
2349	-3.30694421106237E-03 
2350	-8.14730887771144E-03 
2351	-8.74504606378568E-03 
2352	-5.59534656732862E-03 
2353	-1.78120721694385E-03 
2354	 4.31270504631823E-03 
2355	 6.42341663202567E-03 
2356	 7.31353701276705E-03 
2357	 6.20507086480336E-03 
2358	 0.001080526697327 
2359	 4.1112861950634E-03 
2360	 1.20179760140708E-02 
2361	 1.22731680215615E-02 
2362	 1.05336902917159E-02 
2363	 1.05729775674792E-02 
2364	 5.65337182237417E-03 
2365	 1.5274498847949E-03 
2366	 5.93051111197328E-03 
2367	 1.40709839893275E-03 
2368	-8.37698823669698E-03 
2369	-3.54494548383782E-03 
2370	-6.67307511904679E-04 
2371	 3.3747239280411E-03 
2372	 7.61082090372057E-03 
2373	-1.29922182565203E-03 
2374	-5.17946602199864E-03 
2375	-4.93154250917199E-03 
2376	-2.24069105839262E-03 
2377	 1.26538294354987E-03 
2378	 2.34627713647494E-03 
2379	 8.53704314656841E-03 
2380	 1.01897918621922E-02 
2381	 9.8778744259286E-03 
2382	 1.04305130663082E-02 
2383	-1.53396378944739E-03 
2384	-1.13155641921793E-02 
2385	 5.54992928750453E-03 
2386	 2.84614086063637E-02 
2387	 1.76929068326899E-02 
2388	 1.44712683012017E-02 
2389	 3.70075106298268E-02 
2390	 1.78808468424022E-02 
2391	 7.24958960380814E-04 
2392	 2.10923279483806E-02 
2393	 5.10535845027641E-03 
2394	-0.033041037238984 
2395	-1.87530301843996E-02 
2396	 1.54218786877313E-02 
2397	 3.08840677298849E-02 
2398	 4.62861750082868E-02 
2399	 4.88811194895006E-02 
2400	 2.24128604550353E-02 
2401	-2.87440167898602E-02 
2402	-4.18402774796228E-02 
2403	-3.18898511352054E-02 
2404	-4.72267916055343E-02 
2405	-3.17511128333457E-02 
2406	-5.60010516971996E-03 
2407	-1.68662924680308E-02 
2408	-1.70587968176964E-02 
2409	-1.83534086385886E-02 
2410	-4.72208437752074E-02 
2411	-4.76819341111531E-02 
2412	-2.31472793437455E-02 
2413	-8.44823497486773E-03 
2414	 1.65687060501304E-02 
2415	 3.60176738072602E-02 
2416	 1.58261976286355E-02 
2417	 9.99348035997468E-03 
2418	 0.017238657825468 
2419	 2.51744102634586E-02 
2420	 3.62998482489362E-02 
2421	 8.79910730886285E-03 
2422	 8.15529274355936E-03 
2423	 0.02693582481376 
2424	 3.58860638829221E-02 
2425	 3.53922177073271E-02 
2426	 8.87931718279995E-03 
2427	-1.61951788906207E-02 
2428	-4.15574646077742E-02 
2429	-4.37570860429016E-02 
2430	-5.15959101270155E-02 
2431	-8.21242332479223E-02 
2432	-8.70196937277282E-02 
2433	-8.04017612630708E-02 
2434	-4.91317775274432E-02 
2435	-1.34805213652037E-02 
2436	-6.87298426325472E-03 
2437	-2.40147502831845E-02 
2438	-5.20825907476509E-02 
2439	-6.39289719058603E-02 
2440	-7.36060618210791E-02 
2441	-7.87275505259043E-02 
2442	-8.79723462576782E-02 
2443	-0.063819368717782 
2444	 9.05973693262513E-03 
2445	 2.51052530630523E-02 
2446	 7.31144983096088E-02 
2447	 8.47476040040602E-02 
2448	 9.29338882687417E-02 
2449	 0.254457799766703 
2450	 0.321107279343655 
2451	 0.2973219144731 
2452	 0.23883778596132 
2453	 3.52818395854948E-02 
2454	 6.75877204729232E-02 
2455	 7.21056210187577E-02 
2456	 2.90060276538984E-02 
2457	-1.74303008207362E-02 
2458	-7.88934031741229E-02 
2459	-9.65758552940487E-02 
2460	-0.122884698571343 
2461	-6.24582992337955E-02 
2462	-4.26910365711493E-02 
2463	-0.110116168857257 
2464	-1.05995440727455E-02 
2465	-2.72377845134441E-03 
2466	-1.34835824178745E-02 
2467	 0.120048201919736 
2468	 0.108134082238416 
2469	 5.00181193924311E-02 
2470	 0.148776711636669 
2471	 8.36699363633866E-02 
2472	-0.171730026439807 
2473	-4.26822230825116E-02 
2474	-0.102545409674425 
2475	-0.430559629008522 
2476	-0.38545099175133 
2477	-0.678662546084286 
2478	-0.88584490182685 
2479	-0.25383402045912 
2480	 4.00833076088305E-02 
2481	-1.49991672196812E-02 
2482	 9.45636706253188E-02 
2483	-0.154716213928859 
2484	-0.714270794286784 
2485	-0.676780854937242 
2486	 4.03851455123889 
2487	-6.38081280448807 
2488	 1.11121933250479 
2489	 1.47606776141967 
2490	-0.614390487055938 
2491	 1.80797484621198 
2492	-0.708063938081053 
2493	-0.288091171948251 
2494	-1.14530676150925 
2495	-0.623269672537973 
2496	 1.54575343801217E-04 
2497	 0.221614706031279 
2498	 9.37055817267524E-02 
2499	 24.0703711313094 
2500	-2.45423712208053 
