Wavelength	rt0715close00005.asd
350	 4.46043686542522E-02 
351	 4.47701496536263E-02 
352	 4.40170704191537E-02 
353	 4.37039375012827E-02 
354	 0.044325673259817 
355	 4.36515102904336E-02 
356	 4.35113698984282E-02 
357	 4.35014530309861E-02 
358	 4.29228176914505E-02 
359	 4.28169348916857E-02 
360	 4.28273336840646E-02 
361	 4.26649611184208E-02 
362	 4.22004472393434E-02 
363	 4.20680180552402E-02 
364	 4.17984088436015E-02 
365	 4.13911879162499E-02 
366	 4.17561825966847E-02 
367	 4.16541319135549E-02 
368	 4.13492423230805E-02 
369	 4.13129826380021E-02 
370	 4.12721443301243E-02 
371	 4.11440838517594E-02 
372	 4.09664012230786E-02 
373	 4.08293469547134E-02 
374	 4.05781257662778E-02 
375	 4.03850496130433E-02 
376	 4.03376037019987E-02 
377	 4.03614920651036E-02 
378	 4.03753314551129E-02 
379	 4.01570989294543E-02 
380	 3.97593996370353E-02 
381	 4.02041027608503E-02 
382	 3.99097960812406E-02 
383	 3.93280463459435E-02 
384	 3.96261200016125E-02 
385	 3.94259385163586E-02 
386	 3.94056059651829E-02 
387	 3.97009974844824E-02 
388	 3.96979427730955E-02 
389	 0.039727755264174 
390	 3.98099799455433E-02 
391	 3.98772078994699E-02 
392	 3.98057979895036E-02 
393	 3.96054691637832E-02 
394	 0.039527574331506 
395	 3.97546845834003E-02 
396	 3.97124239382895E-02 
397	 3.95914083038684E-02 
398	 3.95203292032453E-02 
399	 3.95216991453737E-02 
400	 3.94702583819027E-02 
401	 3.93829046484583E-02 
402	 3.92734796200542E-02 
403	 3.90532417152386E-02 
404	 3.91652317719396E-02 
405	 3.92945130017954E-02 
406	 3.90248291303896E-02 
407	 3.91042639117357E-02 
408	 3.92066948157059E-02 
409	 3.92189919872312E-02 
410	 3.92948407956554E-02 
411	 3.93463734466525E-02 
412	 3.92484941700474E-02 
413	 3.90333609401811E-02 
414	 3.91210022329598E-02 
415	 3.91504449677194E-02 
416	 3.91524885299358E-02 
417	 3.92752498550271E-02 
418	 3.93608825950437E-02 
419	 3.94266434857915E-02 
420	 3.94568801361093E-02 
421	 3.93949963284965E-02 
422	 3.94783910323055E-02 
423	 3.96176955463635E-02 
424	 3.97151844207467E-02 
425	 3.98618072911409E-02 
426	 3.99457626268025E-02 
427	 4.00337262012309E-02 
428	 4.02316227776824E-02 
429	 0.040246889024301 
430	 4.04111027453535E-02 
431	 4.07422551720568E-02 
432	 4.08391495354926E-02 
433	 4.09873233656423E-02 
434	 4.10919301068221E-02 
435	 4.10972685786287E-02 
436	 4.13156545645361E-02 
437	 4.14564959388393E-02 
438	 0.041527366916748 
439	 4.16804391184862E-02 
440	 4.17825375148978E-02 
441	 4.18756805999021E-02 
442	 4.20046787766901E-02 
443	 4.21928780263392E-02 
444	 4.23510011574236E-02 
445	 4.25173657168222E-02 
446	 4.27262867971454E-02 
447	 4.28597466691033E-02 
448	 4.29513758207707E-02 
449	 4.30070837192859E-02 
450	 4.30199626091611E-02 
451	 4.30950529872454E-02 
452	 4.32058561915915E-02 
453	 4.32890080226422E-02 
454	 4.32324969575964E-02 
455	 4.33371581279313E-02 
456	 4.34612704255883E-02 
457	 4.33904683829722E-02 
458	 4.34570298708058E-02 
459	 4.35229192632069E-02 
460	 4.35501619734765E-02 
461	 0.043621174511993 
462	 4.37044038892768E-02 
463	 4.37832760792353E-02 
464	 0.043829573110853 
465	 4.37558884995826E-02 
466	 4.38104822293356E-02 
467	 4.39709319312047E-02 
468	 4.40741377963709E-02 
469	 4.40502776666197E-02 
470	 4.40628330169592E-02 
471	 4.41636439674266E-02 
472	 4.42278504014823E-02 
473	 4.42087225922533E-02 
474	 0.044203134302898 
475	 4.42944809186363E-02 
476	 4.43659628473614E-02 
477	 4.44718328399883E-02 
478	 4.46074263666467E-02 
479	 0.044725015413049 
480	 4.47709288613656E-02 
481	 4.48481181613278E-02 
482	 4.50178504664228E-02 
483	 4.52223608259249E-02 
484	 4.53796870134696E-02 
485	 4.54840215284837E-02 
486	 4.55825317049904E-02 
487	 0.045789397496323 
488	 4.60045677307319E-02 
489	 4.61803458729941E-02 
490	 4.63363127234839E-02 
491	 4.65402340463296E-02 
492	 4.67118908322684E-02 
493	 4.68228414058451E-02 
494	 4.70676321917133E-02 
495	 4.73472818202661E-02 
496	 0.047576547296712 
497	 4.77083887643995E-02 
498	 4.79554174825359E-02 
499	 4.82267686996744E-02 
500	 0.048472660185767 
501	 4.87568742549643E-02 
502	 4.90315320343358E-02 
503	 4.93162920543908E-02 
504	 4.96256471298018E-02 
505	 4.98572056745389E-02 
506	 5.02051645107703E-02 
507	 5.06238098206862E-02 
508	 5.08877490163627E-02 
509	 5.11675672941355E-02 
510	 5.14470005176296E-02 
511	 0.051723292402679 
512	 5.21015855652374E-02 
513	 5.25041963354838E-02 
514	 5.28934339546077E-02 
515	 5.32601814971325E-02 
516	 5.36983562022363E-02 
517	 5.41425203450715E-02 
518	 5.45755182105555E-02 
519	 5.50591492238623E-02 
520	 5.54261940868958E-02 
521	 5.57567508229058E-02 
522	 5.61607612260358E-02 
523	 5.66427660530258E-02 
524	 5.70876507098585E-02 
525	 5.74831562188707E-02 
526	 5.78992046190267E-02 
527	 5.84120034579625E-02 
528	 5.88720944860378E-02 
529	 5.92146511280154E-02 
530	 0.059591663747953 
531	 6.00374143075694E-02 
532	 6.05118155857809E-02 
533	 6.09513869253059E-02 
534	 6.13986276234295E-02 
535	 6.18300729827465E-02 
536	 6.22550771714433E-02 
537	 6.27200968608577E-02 
538	 6.31997051913206E-02 
539	 6.36744950985081E-02 
540	 6.41365203211745E-02 
541	 6.46205253142906E-02 
542	 6.50158886517905E-02 
543	 6.53769097211238E-02 
544	 0.065844373771232 
545	 6.62880892787603E-02 
546	 6.67049707393042E-02 
547	 6.71144660985013E-02 
548	 6.75492395106217E-02 
549	 6.79706736362747E-02 
550	 6.83796040877293E-02 
551	 6.87853289296203E-02 
552	 6.91414950773937E-02 
553	 6.95737010146491E-02 
554	 7.00754905750247E-02 
555	 7.04839118552852E-02 
556	 7.09720399854133E-02 
557	 7.14963516302752E-02 
558	 0.071975071992301 
559	 7.23928346031001E-02 
560	 7.28313312012608E-02 
561	 7.32804566182406E-02 
562	 7.36782673638241E-02 
563	 7.40479292674317E-02 
564	 7.44276955991014E-02 
565	 7.48420285433513E-02 
566	 7.52925019757501E-02 
567	 7.57098652007521E-02 
568	 7.61054138434459E-02 
569	 7.64942362511186E-02 
570	 7.67355452494441E-02 
571	 7.69368889814376E-02 
572	 7.71455093887518E-02 
573	 7.73266697569883E-02 
574	 7.75295443172125E-02 
575	 7.77181724510829E-02 
576	 7.78321693964983E-02 
577	 7.77994037851086E-02 
578	 7.77523981328933E-02 
579	 7.76840380604882E-02 
580	 7.75177763237298E-02 
581	 7.74181185504497E-02 
582	 7.73191852948683E-02 
583	 7.71852934232659E-02 
584	 7.70854885158054E-02 
585	 7.70738866553068E-02 
586	 7.71131197214731E-02 
587	 7.71534171307317E-02 
588	 7.73066000045551E-02 
589	 0.077441817002635 
590	 7.74947167958747E-02 
591	 7.74994448324364E-02 
592	 7.74948691926742E-02 
593	 7.74283563962837E-02 
594	 7.72685266905947E-02 
595	 7.71161314422511E-02 
596	 7.68584445160643E-02 
597	 7.65312822215771E-02 
598	 0.076254026665783 
599	 7.60129742296436E-02 
600	 7.58414759347748E-02 
601	 7.57635238132802E-02 
602	 7.57871518370221E-02 
603	 7.57873430558059E-02 
604	 7.57735921078741E-02 
605	 0.07579033196662 
606	 7.57920657978502E-02 
607	 7.58396717817875E-02 
608	 7.58927900715595E-02 
609	 7.58146358415592E-02 
610	 0.075899678674197 
611	 7.59655090559481E-02 
612	 7.58744264170269E-02 
613	 7.59248170255154E-02 
614	 7.59699991868652E-02 
615	 7.59957960547254E-02 
616	 7.60477356454876E-02 
617	 7.60309939355699E-02 
618	 7.60130673936605E-02 
619	 7.60354956867492E-02 
620	 7.60746326811842E-02 
621	 7.60496869414514E-02 
622	 7.60016828222401E-02 
623	 7.59949414450008E-02 
624	 7.59781611299822E-02 
625	 7.59905384851713E-02 
626	 7.60136005427709E-02 
627	 7.59773935232542E-02 
628	 7.59475752991723E-02 
629	 0.075973747046244 
630	 7.60420166903891E-02 
631	 7.59789181705429E-02 
632	 7.59661548519238E-02 
633	 7.59944099563191E-02 
634	 7.59740608830666E-02 
635	 0.075975880036556 
636	 7.59049707371764E-02 
637	 7.57684187962151E-02 
638	 7.57367448052143E-02 
639	 7.56645938961582E-02 
640	 7.55979550255884E-02 
641	 7.55879992249906E-02 
642	 0.075469566198631 
643	 0.075428111939334 
644	 7.53947429097909E-02 
645	 7.51210996785614E-02 
646	 7.50170033478126E-02 
647	 7.49882309593679E-02 
648	 7.49318940252584E-02 
649	 7.49668359595966E-02 
650	 7.47997435779081E-02 
651	 7.45910454975373E-02 
652	 7.45978110597982E-02 
653	 7.44134490526833E-02 
654	 7.41723999369009E-02 
655	 7.39962463899096E-02 
656	 7.39507267519039E-02 
657	 7.37383643148423E-02 
658	 7.34759640256489E-02 
659	 7.33093885116228E-02 
660	 7.32385246275089E-02 
661	 7.31118629451775E-02 
662	 7.29527974653951E-02 
663	 7.28877767204246E-02 
664	 7.28373999960245E-02 
665	 7.27477208545253E-02 
666	 7.26240998425732E-02 
667	 7.25757663630093E-02 
668	 7.24670837005087E-02 
669	 7.24311721581696E-02 
670	 7.25846876837918E-02 
671	 7.25025718467111E-02 
672	 7.24651054579607E-02 
673	 7.25511264927375E-02 
674	 0.072620283053607 
675	 7.26265289245682E-02 
676	 7.26348786872204E-02 
677	 7.27034138092899E-02 
678	 7.28205107269225E-02 
679	 7.28780061193393E-02 
680	 7.29595326948482E-02 
681	 0.073184778920549 
682	 7.32411440663947E-02 
683	 7.33401882087581E-02 
684	 0.073536435741856 
685	 7.36291709814193E-02 
686	 7.38271540328478E-02 
687	 7.40935584159882E-02 
688	 7.43183831173359E-02 
689	 7.45223096762312E-02 
690	 7.47441797634249E-02 
691	 7.49386976819776E-02 
692	 7.50396738212983E-02 
693	 0.07530554114533 
694	 7.55147528833423E-02 
695	 0.075552947336213 
696	 7.55931540626563E-02 
697	 7.55554295605472E-02 
698	 7.55395379855449E-02 
699	 7.56179447694436E-02 
700	 7.54682948668888E-02 
701	 7.53443272454502E-02 
702	 7.52587520671045E-02 
703	 7.50200678354039E-02 
704	 7.47701086154437E-02 
705	 0.074504971695417 
706	 0.074201389822829 
707	 0.073834017817387 
708	 7.33816434802438E-02 
709	 7.28668908563409E-02 
710	 7.22981220339642E-02 
711	 7.15037345281966E-02 
712	 7.07074923211132E-02 
713	 6.99072134406023E-02 
714	 6.88311052345002E-02 
715	 6.78346550007696E-02 
716	 0.066824024405797 
717	 6.57256692373572E-02 
718	 6.47094748866032E-02 
719	 6.36918894172884E-02 
720	 0.062625315301259 
721	 6.13834801004991E-02 
722	 0.060258412436066 
723	 5.90793807781999E-02 
724	 5.78237364001635E-02 
725	 5.64170849691436E-02 
726	 5.49237026134568E-02 
727	 5.34305693359577E-02 
728	 5.19331856329039E-02 
729	 5.00554535798735E-02 
730	 4.82163294803455E-02 
731	 4.65143095568711E-02 
732	 4.48602175178002E-02 
733	 4.35156320975341E-02 
734	 4.23322874096587E-02 
735	 4.12770935720691E-02 
736	 4.04864259286454E-02 
737	 3.98446227161225E-02 
738	 3.93529445375234E-02 
739	 3.90327317851469E-02 
740	 3.88662454137615E-02 
741	 3.86592228852393E-02 
742	 3.84591633385996E-02 
743	 3.84153798234017E-02 
744	 3.83517688958014E-02 
745	 3.82954593924167E-02 
746	 3.82602752726236E-02 
747	 3.82138841739603E-02 
748	 3.82352280419338E-02 
749	 3.82283247778583E-02 
750	 3.81365071727084E-02 
751	 3.81859712228878E-02 
752	 3.81834434851239E-02 
753	 3.81249024844462E-02 
754	 3.81053426004837E-02 
755	 3.81018395894133E-02 
756	 3.79900945836351E-02 
757	 3.77393715761271E-02 
758	 3.73972478698619E-02 
759	 3.74991219855507E-02 
760	 3.79029290490147E-02 
761	 3.78509639068291E-02 
762	 3.80727236574434E-02 
763	 3.83700158364817E-02 
764	 3.85604290079026E-02 
765	 3.85878700395598E-02 
766	 3.86925180763995E-02 
767	 3.88540100465993E-02 
768	 3.90076719644853E-02 
769	 3.90505117684121E-02 
770	 3.91723582297706E-02 
771	 3.93128903015401E-02 
772	 0.039426854657667 
773	 3.96591943393706E-02 
774	 3.98782534686918E-02 
775	 0.040090291295669 
776	 4.03543195967367E-02 
777	 0.040651461973696 
778	 4.08453508256342E-02 
779	 4.09962985034111E-02 
780	 4.13509875514936E-02 
781	 4.16778854274335E-02 
782	 4.19190245776424E-02 
783	 4.21260921323153E-02 
784	 4.25358697759204E-02 
785	 4.27699992752629E-02 
786	 4.29936741661652E-02 
787	 0.043466312159693 
788	 4.38712019956222E-02 
789	 4.42226453596575E-02 
790	 4.45529614919524E-02 
791	 4.49045564572153E-02 
792	 4.53180099949846E-02 
793	 4.56556573751312E-02 
794	 4.59131071326617E-02 
795	 4.63408671538764E-02 
796	 4.65485839179947E-02 
797	 4.68073026088777E-02 
798	 4.73476779576987E-02 
799	 4.76006505983328E-02 
800	 4.78435011106617E-02 
801	 4.81090875073244E-02 
802	 4.83050698165033E-02 
803	 0.04848690426768 
804	 4.86450189075041E-02 
805	 4.87779359664464E-02 
806	 4.88969446519129E-02 
807	 0.048916170873985 
808	 4.89125934930439E-02 
809	 4.89059008000478E-02 
810	 4.86825187207315E-02 
811	 4.84328870732191E-02 
812	 4.82246001312636E-02 
813	 4.80450870258793E-02 
814	 0.047700615320462 
815	 4.73904010652305E-02 
816	 4.71000851131441E-02 
817	 4.66482859882986E-02 
818	 4.61894985947092E-02 
819	 4.56127532722832E-02 
820	 0.044915123130171 
821	 4.42910115317009E-02 
822	 4.33998153188048E-02 
823	 4.23370398989781E-02 
824	 4.12615919056961E-02 
825	 4.00879062928174E-02 
826	 3.87577540129898E-02 
827	 3.72612953541435E-02 
828	 3.57071137350845E-02 
829	 3.41825959953688E-02 
830	 3.28886619348714E-02 
831	 3.18682230834465E-02 
832	 3.10390419654991E-02 
833	 3.01443615678625E-02 
834	 2.94405431418842E-02 
835	 2.89619685132722E-02 
836	 0.028386663066985 
837	 2.81628597692686E-02 
838	 2.79453474742391E-02 
839	 2.74661938906747E-02 
840	 2.70947135143234E-02 
841	 0.026856868986287 
842	 2.66779823497656E-02 
843	 2.64686809296901E-02 
844	 0.026357733842378 
845	 2.60348369155812E-02 
846	 2.55667631130638E-02 
847	 2.52812688616482E-02 
848	 2.52272883938415E-02 
849	 2.50649497989556E-02 
850	 2.46812644003748E-02 
851	 2.43193501589553E-02 
852	 2.43371977951198E-02 
853	 2.42907970658371E-02 
854	 2.39339992272947E-02 
855	 2.38093104569026E-02 
856	 2.38252787278038E-02 
857	 0.023617766449583 
858	 2.30688376051893E-02 
859	 2.32516790125367E-02 
860	 2.29512637329026E-02 
861	 2.24264861898841E-02 
862	 2.24923613962467E-02 
863	 2.22658047213783E-02 
864	 2.21798222043278E-02 
865	 2.22069834858746E-02 
866	 2.18910456483667E-02 
867	 2.16727500819841E-02 
868	 2.14285550848215E-02 
869	 2.11285502729965E-02 
870	 2.09530004348447E-02 
871	 2.05855698171375E-02 
872	 2.02941468227706E-02 
873	 2.02325632275949E-02 
874	 2.00194051030676E-02 
875	 1.98270300477536E-02 
876	 1.96377807787208E-02 
877	 1.93965195832786E-02 
878	 1.91285927443893E-02 
879	 1.87184906028794E-02 
880	 1.82895354721079E-02 
881	 0.018028178421139 
882	 1.77562749472581E-02 
883	 1.76816535784463E-02 
884	 1.76430471784211E-02 
885	 1.72852523355381E-02 
886	 1.71923130494226E-02 
887	 1.68980944105348E-02 
888	 1.64063957683272E-02 
889	 1.63245360677624E-02 
890	 1.62149952081568E-02 
891	 1.60314429681364E-02 
892	 1.57946592406906E-02 
893	 1.55293875249366E-02 
894	 1.52816740420886E-02 
895	 1.50979392259716E-02 
896	 1.50432390397093E-02 
897	 1.52698109292747E-02 
898	 1.49380309579736E-02 
899	 1.44855487006237E-02 
900	 1.45365361584609E-02 
901	 1.46842227552272E-02 
902	 0.014378566881491 
903	 1.38603731272421E-02 
904	 1.36293180497822E-02 
905	 1.37683824857509E-02 
906	 1.35462917607146E-02 
907	 1.31774026107063E-02 
908	 1.33241660247845E-02 
909	 1.23866802495565E-02 
910	 1.21415712418413E-02 
911	 1.25622380393464E-02 
912	 1.19626410423486E-02 
913	 1.13375123315849E-02 
914	 0.011323175362545 
915	 1.16298221652971E-02 
916	 1.11292835580523E-02 
917	 0.010817329886352 
918	 0.010641659005074 
919	 1.05175785287303E-02 
920	 1.05258147150538E-02 
921	 1.02707724156559E-02 
922	 9.59135337959661E-03 
923	 8.83583280588971E-03 
924	 9.26457263856283E-03 
925	 8.69241198844644E-03 
926	 7.87125599963014E-03 
927	 8.22484410379636E-03 
928	 1.03966077113521E-02 
929	 8.64451202926535E-03 
930	 6.04127982735791E-03 
931	 8.68339647961377E-03 
932	 7.53802993638971E-03 
933	 7.79008170481504E-03 
934	 8.62669897258181E-03 
935	 7.49061322710894E-03 
936	 8.33049199534094E-03 
937	 7.20912533780114E-03 
938	 6.02388397563857E-03 
939	 6.98552067597348E-03 
940	 5.77180088029143E-03 
941	 6.30625722508478E-03 
942	 6.99213171826626E-03 
943	 4.73157745613781E-03 
944	 5.41701528675874E-03 
945	 7.66427802162787E-03 
946	 7.7552888043839E-03 
947	 3.49836174677734E-03 
948	 6.10929235289824E-03 
949	 6.01700307486984E-03 
950	 4.1171631721947E-03 
951	 6.95806667931242E-03 
952	 7.15078454616229E-03 
953	 6.32088548201194E-03 
954	 5.69911881238218E-03 
955	 5.61321413872819E-03 
956	 5.97566740213366E-03 
957	 5.57885075002382E-03 
958	 4.5331034075696E-03 
959	 4.23476546089735E-03 
960	 7.75249814320004E-03 
961	 8.34651730077914E-03 
962	 6.39343445004372E-03 
963	 7.17830198365303E-03 
964	 6.09945917722184E-03 
965	 5.66152706548753E-03 
966	 5.96743637412772E-03 
967	 5.23642748607107E-03 
968	 5.76047696736783E-03 
969	 5.95069217494655E-03 
970	 5.58014319883909E-03 
971	 5.83932277552092E-03 
972	 6.86254019984953E-03 
973	 5.68293702431156E-03 
974	 3.76414290988156E-03 
975	 6.05192386837848E-03 
976	 6.60729119579358E-03 
977	 7.31551920045621E-03 
978	 7.53117722298824E-03 
979	 4.70945074749269E-03 
980	 5.19361806870265E-03 
981	 6.35810833537839E-03 
982	 6.7139410020488E-03 
983	 6.55554994451337E-03 
984	 5.02219300306973E-03 
985	 5.49993525870223E-03 
986	 7.23834970770414E-03 
987	 6.59587339880815E-03 
988	 6.80652808027882E-03 
989	 6.94864145692599E-03 
990	 6.54978879976906E-03 
991	 5.89279335329577E-03 
992	 5.75533284626525E-03 
993	 5.55096989727726E-03 
994	 5.25939431513776E-03 
995	 5.31987243778585E-03 
996	 5.86654196405515E-03 
997	 5.96375493236704E-03 
998	 6.07830274313584E-03 
999	 6.9762847026994E-03 
1000	 5.75664591160688E-03 
1001	 6.94994298409221E-04 
1002	 7.44808802447939E-04 
1003	 7.83913285941817E-04 
1004	 9.11121211596897E-04 
1005	 9.61853219512425E-04 
1006	 9.78572458159613E-04 
1007	 9.92714248188405E-04 
1008	 1.11328157193158E-03 
1009	 1.12244366621199E-03 
1010	 9.9964244944476E-04 
1011	 1.17338561715069E-03 
1012	 1.42837828186802E-03 
1013	 1.43698087544675E-03 
1014	 1.46490423835618E-03 
1015	 1.53625233151143E-03 
1016	 1.58443886464231E-03 
1017	 1.53651017622124E-03 
1018	 1.50734919000236E-03 
1019	 1.67590051230062E-03 
1020	 1.53738070322521E-03 
1021	 1.01167130134234E-03 
1022	 8.06378864969848E-04 
1023	 6.44132712283249E-04 
1024	 6.38968470703172E-04 
1025	 8.52551114649863E-04 
1026	 1.01058063284389E-03 
1027	 1.18957487905385E-03 
1028	 1.3669683863048E-03 
1029	 1.42468445053009E-03 
1030	 1.52382324475997E-03 
1031	 1.51270896470288E-03 
1032	 1.3583298980218E-03 
1033	 1.19176770891468E-03 
1034	 8.83747782523127E-04 
1035	 7.66666778778699E-04 
1036	 5.09279138604075E-04 
1037	 5.38576511856055E-04 
1038	 7.83431952021044E-04 
1039	 1.29633605243123E-03 
1040	 1.88959258976188E-03 
1041	 1.88725749021244E-03 
1042	 1.87706346443849E-03 
1043	 1.59590783717319E-03 
1044	 1.56625413470249E-03 
1045	 1.41791103575296E-03 
1046	 1.46866085552795E-03 
1047	 1.82447799231901E-03 
1048	 1.85178290994594E-03 
1049	 1.78083036285732E-03 
1050	 1.68175051315986E-03 
1051	 1.26157839649397E-03 
1052	 1.20241843750728E-03 
1053	 1.40599587723851E-03 
1054	 1.47754746946933E-03 
1055	 1.76267296712567E-03 
1056	 1.85946646243815E-03 
1057	 1.84203692703035E-03 
1058	 1.54877999461462E-03 
1059	 1.54785882641002E-03 
1060	 1.58603520959749E-03 
1061	 1.64549551470164E-03 
1062	 1.87272374956396E-03 
1063	 1.94220962708512E-03 
1064	 1.9308622274898E-03 
1065	 1.93965860898878E-03 
1066	 1.85950308323709E-03 
1067	 1.88718752099944E-03 
1068	 2.04877385184118E-03 
1069	 2.06451089817697E-03 
1070	 2.02544462461129E-03 
1071	 2.0307610945135E-03 
1072	 1.97968901164447E-03 
1073	 1.85327927983476E-03 
1074	 1.92702020481462E-03 
1075	 2.2206670612314E-03 
1076	 2.23820293246896E-03 
1077	 2.24933914725574E-03 
1078	 2.15233484233663E-03 
1079	 1.80841931651517E-03 
1080	 1.6626839172396E-03 
1081	 1.43857638453586E-03 
1082	 1.4894188363525E-03 
1083	 1.87230077338315E-03 
1084	 1.98779441547869E-03 
1085	 2.23560032609246E-03 
1086	 2.3066267222022E-03 
1087	 2.02622283168386E-03 
1088	 1.88566111672773E-03 
1089	 1.59927473945423E-03 
1090	 1.71180830330027E-03 
1091	 1.67638887589786E-03 
1092	 1.64338591299696E-03 
1093	 1.62379543649795E-03 
1094	 1.61891213894257E-03 
1095	 1.61876322558825E-03 
1096	 1.77829023536591E-03 
1097	 1.74859730581445E-03 
1098	 1.56005133302706E-03 
1099	 1.41573610625443E-03 
1100	 9.56994849391525E-04 
1101	 8.89003444611207E-04 
1102	 1.45859310551194E-03 
1103	 1.51822209842723E-03 
1104	 1.52701384428019E-03 
1105	 1.19778790063897E-03 
1106	 1.22452125262122E-03 
1107	 1.09385600559315E-03 
1108	 1.33726476073484E-03 
1109	 1.64066151243128E-03 
1110	 1.63534658072581E-03 
1111	 9.72889822085109E-04 
1112	 1.11778149919903E-03 
1113	 1.84080446136295E-03 
1114	 2.02665421530524E-03 
1115	 2.38863735904959E-03 
1116	 2.30007229258837E-03 
1117	 1.21870096597494E-03 
1118	 1.01941671146346E-03 
1119	 1.04628252786086E-03 
1120	 1.11288059265663E-03 
1121	 2.22511776421602E-03 
1122	 2.23114401666413E-03 
1123	 1.10496894161309E-03 
1124	 2.43762943600415E-03 
1125	 2.1721758702549E-03 
1126	-3.56618278418159E-04 
1127	 3.62174320738961E-04 
1128	 1.84398221937896E-03 
1129	 1.43800099527656E-03 
1130	 8.96365267085805E-04 
1131	 1.39891239140257E-03 
1132	 1.10885350588973E-03 
1133	 8.77973547394603E-04 
1134	 2.03319588582087E-03 
1135	 1.96200338685129E-03 
1136	 1.02017471198468E-04 
1137	-1.54762411734783E-04 
1138	 1.44426559086265E-04 
1139	 7.65552907884434E-04 
1140	 1.59547294120279E-03 
1141	 2.21393515690962E-03 
1142	 1.8981770352254E-03 
1143	 9.54078997928686E-04 
1144	 3.63211405258793E-04 
1145	-1.29444615844165E-04 
1146	-2.87699442400168E-04 
1147	 7.9769325478878E-04 
1148	 1.49440920674312E-03 
1149	 6.24236604814237E-04 
1150	 3.85408041515827E-04 
1151	 5.94748971056812E-05 
1152	 6.95837712375039E-05 
1153	 7.22498637175078E-05 
1154	 2.82116182382566E-04 
1155	 8.58260817852785E-04 
1156	 8.55468892689687E-04 
1157	 6.16070804416342E-04 
1158	 1.09629897409721E-03 
1159	 9.10930128826253E-04 
1160	 4.17412934146317E-04 
1161	 7.15784716076875E-04 
1162	 8.00155909914571E-04 
1163	 8.57552307729423E-04 
1164	 1.23649073789198E-03 
1165	 9.36685780581938E-04 
1166	 4.70451394308227E-04 
1167	 5.67721598074883E-04 
1168	 5.50048844147403E-04 
1169	 5.67557102591714E-04 
1170	 8.14263773226517E-04 
1171	 8.65920277365808E-04 
1172	 6.91307809974953E-04 
1173	 6.65214406783557E-04 
1174	 6.16692367252432E-04 
1175	 7.34713512519929E-04 
1176	 8.8011590026588E-04 
1177	 9.5557421300633E-04 
1178	 8.92769368205025E-04 
1179	 6.72138511015706E-04 
1180	 6.07132083156143E-04 
1181	 7.11142384447889E-04 
1182	 8.1225653906356E-04 
1183	 8.39078381814744E-04 
1184	 7.56634651404929E-04 
1185	 7.56746484006225E-04 
1186	 6.82174506253614E-04 
1187	 6.17505736603102E-04 
1188	 7.3946716089668E-04 
1189	 7.38862983978271E-04 
1190	 8.23794842874513E-04 
1191	 9.17836853797666E-04 
1192	 9.02698465222393E-04 
1193	 7.24064002589718E-04 
1194	 7.00593558188168E-04 
1195	 7.24160006058741E-04 
1196	 6.72904087702883E-04 
1197	 7.35458190496986E-04 
1198	 7.45847327409812E-04 
1199	 6.31929671930878E-04 
1200	 6.15752445452929E-04 
1201	 7.77544860367674E-04 
1202	 8.40232278355347E-04 
1203	 7.58398776654885E-04 
1204	 8.85080600693417E-04 
1205	 1.00096878824095E-03 
1206	 8.61024882960256E-04 
1207	 7.5497155572278E-04 
1208	 6.11018483647485E-04 
1209	 4.89603392682884E-04 
1210	 7.69717537044494E-04 
1211	 1.11035174602514E-03 
1212	 1.00762257135443E-03 
1213	 8.49633496375822E-04 
1214	 8.10170516613434E-04 
1215	 6.11686663277157E-04 
1216	 3.29686274703858E-04 
1217	 5.73704698884436E-04 
1218	 9.56672562930296E-04 
1219	 9.19506457444888E-04 
1220	 8.43971052810908E-04 
1221	 7.80480003416869E-04 
1222	 6.23254534459131E-04 
1223	 6.87570079682348E-04 
1224	 8.37360174714378E-04 
1225	 6.61378259917796E-04 
1226	 5.44836260484047E-04 
1227	 6.07772109079301E-04 
1228	 5.34224166189115E-04 
1229	 5.41985436446062E-04 
1230	 6.02878669827026E-04 
1231	 6.04724113114064E-04 
1232	 6.72499046948915E-04 
1233	 7.31497656551547E-04 
1234	 7.81009811594519E-04 
1235	 8.30020309522551E-04 
1236	 6.30307977469387E-04 
1237	 6.39175988562152E-04 
1238	 8.35590722334215E-04 
1239	 1.02495257928291E-03 
1240	 9.04134041458193E-04 
1241	 8.39735473694095E-04 
1242	 8.42012234206591E-04 
1243	 6.83456334757004E-04 
1244	 5.81882180297847E-04 
1245	 6.59492874374573E-04 
1246	 5.59796410590602E-04 
1247	 4.60382765367098E-04 
1248	 6.24343105637899E-04 
1249	 7.03347391210231E-04 
1250	 7.23443783368936E-04 
1251	 7.80443568136251E-04 
1252	 7.65919805546529E-04 
1253	 7.72891301646677E-04 
1254	 8.48145762830277E-04 
1255	 8.98409994420759E-04 
1256	 8.69238889260153E-04 
1257	 7.41654250432562E-04 
1258	 7.76303865452269E-04 
1259	 8.70341975359871E-04 
1260	 8.31906390776782E-04 
1261	 8.11204569166872E-04 
1262	 8.33040035516434E-04 
1263	 7.39632911961115E-04 
1264	 7.15942899733472E-04 
1265	 7.49173780602855E-04 
1266	 7.89369126073507E-04 
1267	 7.01510823534286E-04 
1268	 5.30477197379319E-04 
1269	 6.22942317740856E-04 
1270	 7.59302001726878E-04 
1271	 7.44750577633205E-04 
1272	 6.48065566410987E-04 
1273	 5.58383650985868E-04 
1274	 7.05327528766283E-04 
1275	 7.99809948647468E-04 
1276	 6.71718101691711E-04 
1277	 7.63952288719968E-04 
1278	 9.00911026096934E-04 
1279	 8.08762318584915E-04 
1280	 8.3075995250218E-04 
1281	 8.44507519632678E-04 
1282	 6.89801085034727E-04 
1283	 5.93222878555123E-04 
1284	 6.0677052073348E-04 
1285	 6.46851994917767E-04 
1286	 7.1763882584439E-04 
1287	 7.06721780006873E-04 
1288	 6.1254443327366E-04 
1289	 6.13143666979202E-04 
1290	 6.39602220238754E-04 
1291	 6.53933173657802E-04 
1292	 4.26536425489244E-04 
1293	 5.81631974534958E-04 
1294	 8.58755199655428E-04 
1295	 6.62351833617031E-04 
1296	 6.48987519954102E-04 
1297	 8.60522092622506E-04 
1298	 7.95684273129345E-04 
1299	 7.25649536994108E-04 
1300	 8.46827142404328E-04 
1301	 8.19403402860846E-04 
1302	 7.51880542068057E-04 
1303	 8.64782899333753E-04 
1304	 7.28784785136088E-04 
1305	 6.65128092623637E-04 
1306	 7.108551642857E-04 
1307	 8.3636284160873E-04 
1308	 6.8383194163174E-04 
1309	 3.22486424957207E-04 
1310	 3.3692666175805E-04 
1311	 5.22032118282539E-04 
1312	 4.97396392471164E-04 
1313	 6.74226700128014E-04 
1314	 7.63455452640373E-04 
1315	 2.62882420396586E-04 
1316	 2.45666095419462E-04 
1317	 1.00897372187696E-03 
1318	 1.1541559073023E-03 
1319	 8.8220491554908E-04 
1320	 9.89811045576227E-04 
1321	 1.13576001262589E-03 
1322	 9.76896001762665E-04 
1323	 9.34124239745124E-04 
1324	 1.06453286362265E-03 
1325	 5.82723167540657E-04 
1326	 1.1255530188016E-04 
1327	 5.88848923321235E-04 
1328	 9.88838473695997E-04 
1329	 6.43592158719833E-04 
1330	 3.990391644539E-04 
1331	 4.90062506438791E-04 
1332	 4.61083697009244E-04 
1333	 4.70672690375724E-04 
1334	 7.51566629404868E-04 
1335	 7.26295644821623E-04 
1336	 2.02152423915416E-05 
1337	-4.80705597634668E-05 
1338	 3.6669179441478E-04 
1339	 3.87730202312632E-04 
1340	 3.86073086228836E-04 
1341	 3.82103114753257E-04 
1342	 1.20043074305964E-04 
1343	 7.48064950314931E-05 
1344	 4.01060716204694E-04 
1345	 4.48209061436511E-04 
1346	 2.77741818537518E-04 
1347	-8.63934439896318E-05 
1348	-9.28378673350329E-04 
1349	-1.5689656705474E-03 
1350	-3.75607050201867E-03 
1351	-4.74707806962522E-03 
1352	 2.30866947489703E-04 
1353	 2.03218467268328E-03 
1354	 1.59234630353224E-03 
1355	 2.52836557052504E-03 
1356	-9.97008462186461E-04 
1357	-2.99362668334752E-02 
1358	-2.71319412747523E-02 
1359	 1.47421395000836E-02 
1360	 1.89734043909371E-02 
1361	 3.33962659969679E-02 
1362	 8.15845036353909E-02 
1363	 8.71513818233886E-02 
1364	 6.24618550709237E-02 
1365	 1.24742352196175E-02 
1366	-0.072395064695293 
1367	-0.108495619229106 
1368	-0.146089406917934 
1369	-9.96065477903805E-02 
1370	-4.14913417651169E-02 
1371	 2.86761355271245E-02 
1372	 5.90948789297881E-03 
1373	 0.035458397661986 
1374	 8.60980640460258E-02 
1375	-2.83979443321828E-02 
1376	-4.55214911863585E-02 
1377	 0.145468141199044 
1378	 0.135462454539777 
1379	-9.57587264192783E-02 
1380	-0.108232443176388 
1381	-5.65296473124645E-04 
1382	 1.07032999174853E-02 
1383	 0.131892639261152 
1384	 0.194294230981695 
1385	 7.23104524704098E-02 
1386	 3.79749385178731E-02 
1387	 7.81554675599519E-02 
1388	 6.15729858074065E-02 
1389	-0.150384740717433 
1390	-0.159183039872528 
1391	 0.249175257711709 
1392	 0.103149872423189 
1393	 2.31637394591614E-02 
1394	 0.113519409883121 
1395	 0.228981751360818 
1396	 0.109036124998816 
1397	-2.68036569312962E-02 
1398	 0.022672706806363 
1399	 8.23363459175896E-02 
1400	 1.83957847291208E-02 
1401	-6.37068350409848E-02 
1402	-0.022849824583951 
1403	 3.22637581875658E-02 
1404	 5.42536340415109E-02 
1405	 0.044435558575598 
1406	 0.102396030329779 
1407	 8.60077539157703E-02 
1408	 3.05813667940944E-03 
1409	-1.98536578437456E-02 
1410	-3.20210622369996E-02 
1411	-1.86575580462633E-02 
1412	 1.05768086096866E-02 
1413	 3.48777574828273E-03 
1414	-9.52920437350966E-03 
1415	-3.18207545952725E-03 
1416	-2.68731767277119E-03 
1417	-4.56743961963465E-03 
1418	 6.85836435430684E-03 
1419	 1.08630445158837E-02 
1420	 3.92416907539046E-03 
1421	 1.25521086794957E-03 
1422	 3.53919334369514E-03 
1423	 3.54207628470026E-03 
1424	 4.11544435807951E-04 
1425	-1.4494077373298E-03 
1426	-3.0286220648641E-03 
1427	-1.21274159162638E-03 
1428	 3.47129023760173E-03 
1429	 2.70151798559938E-03 
1430	 3.40965935278819E-04 
1431	 8.71280274393059E-04 
1432	-1.56729560852233E-04 
1433	-9.67381524932528E-04 
1434	 8.86503728075097E-05 
1435	 1.37128998889134E-03 
1436	 1.90757450636478E-03 
1437	 2.89732687990922E-03 
1438	 5.37698962506793E-05 
1439	-6.26183597444276E-04 
1440	 3.0149253124727E-03 
1441	 2.26008676280754E-03 
1442	-1.0866056890076E-03 
1443	-2.68611885833627E-04 
1444	 1.1752256508408E-03 
1445	 4.0059481506323E-04 
1446	 1.32114951804682E-03 
1447	 4.0790000881257E-03 
1448	 2.18885386690161E-03 
1449	-9.39289191489501E-04 
1450	-1.36443382646551E-04 
1451	 4.87315096100586E-04 
1452	 4.71197010215636E-05 
1453	-6.82299115696326E-05 
1454	 5.75642878024774E-05 
1455	 2.24082220622322E-04 
1456	-3.23385659409368E-05 
1457	-2.84444194233149E-04 
1458	-2.63589057803401E-04 
1459	-5.77228570620441E-04 
1460	-6.41854096891441E-04 
1461	-1.94809056515527E-04 
1462	 1.03669743154183E-04 
1463	 3.1357078869017E-04 
1464	 2.69234193633312E-04 
1465	 2.138753301794E-05 
1466	 4.53660445693703E-04 
1467	 1.10480386787248E-03 
1468	 1.22553860368696E-03 
1469	 1.93360505901079E-03 
1470	 2.12615067611789E-03 
1471	 1.43864562128176E-03 
1472	 8.29152194168611E-04 
1473	 2.83658176769287E-04 
1474	 1.84065553050473E-05 
1475	-8.70501535097183E-04 
1476	-9.51073481574265E-04 
1477	 1.05167148627227E-04 
1478	 4.33058374561206E-05 
1479	-6.68980422784373E-04 
1480	-4.00692291286547E-04 
1481	 4.96345096223007E-05 
1482	 2.22325698402545E-04 
1483	 9.12973043035969E-04 
1484	 1.07232159927198E-03 
1485	 7.55458128112187E-04 
1486	 4.72588261675229E-04 
1487	 1.40215652147634E-04 
1488	-1.92641165324356E-05 
1489	-4.26710435866127E-04 
1490	-4.6705231532286E-04 
1491	-1.01019798059875E-04 
1492	 2.13332154902463E-05 
1493	 1.71238578769941E-04 
1494	 2.30763193138471E-04 
1495	 1.49829994496672E-04 
1496	 1.03318215776232E-04 
1497	 1.73709657770993E-05 
1498	 2.4808546289262E-05 
1499	 1.31021915764956E-04 
1500	 1.50980589240026E-04 
1501	 1.63535945495535E-04 
1502	 1.41941911761601E-04 
1503	 1.39191012372342E-04 
1504	 6.50343002086951E-05 
1505	-3.41957507680726E-05 
1506	-3.13092154620469E-04 
1507	-1.85548491208936E-04 
1508	-8.08310580504636E-05 
1509	-3.02662544876949E-05 
1510	 2.8343067304316E-04 
1511	 2.94939967459996E-04 
1512	 3.60004662979377E-05 
1513	-3.74716056375738E-05 
1514	 6.37216598364827E-05 
1515	 2.06160149933669E-04 
1516	 7.50909711662062E-05 
1517	 1.25768487531E-05 
1518	 2.164279964415E-04 
1519	 2.59523654530294E-04 
1520	 1.87541495566208E-04 
1521	 1.36423844529552E-04 
1522	 1.35817576229845E-04 
1523	 1.57119524293506E-04 
1524	 2.47479740260649E-04 
1525	 2.66788655463377E-04 
1526	 7.57831666755356E-05 
1527	 3.57528000324275E-05 
1528	 1.08677092438642E-04 
1529	 1.2313355440068E-04 
1530	 1.41090629900767E-04 
1531	 1.6480622305135E-04 
1532	 1.98226817149492E-04 
1533	 2.34537531353296E-04 
1534	 2.74751148510284E-04 
1535	 1.99374085008263E-04 
1536	 1.11549323144872E-04 
1537	 1.60398157792846E-04 
1538	 8.77712750739917E-05 
1539	-3.01607143670356E-05 
1540	 7.4605205510151E-05 
1541	 8.48183137398326E-05 
1542	-2.07167070714608E-05 
1543	 6.13569846081636E-05 
1544	 1.37699479854483E-04 
1545	 9.28021661564867E-05 
1546	 1.26932380684601E-04 
1547	 1.70373773220424E-04 
1548	 5.22887378587114E-05 
1549	 9.21582421959003E-05 
1550	 3.50057348457667E-04 
1551	 3.36261159093996E-04 
1552	 1.67974318059847E-04 
1553	 1.58283940421355E-04 
1554	 9.92133678634298E-05 
1555	 4.44881571588403E-06 
1556	 6.08423149274562E-05 
1557	 1.62561851551558E-04 
1558	 1.62517841417503E-04 
1559	 1.43118682698657E-04 
1560	 2.33822579190078E-04 
1561	 2.49552222323531E-04 
1562	 1.49600648187152E-04 
1563	 1.53964059959287E-04 
1564	 1.88903719695617E-04 
1565	 1.21236628062842E-04 
1566	 7.2156254859568E-05 
1567	 1.55552364914318E-04 
1568	 3.20378797215359E-04 
1569	 4.42955640216332E-04 
1570	 4.21579935471944E-04 
1571	 3.60751021369415E-04 
1572	 2.69535449004023E-04 
1573	 7.45860639889574E-05 
1574	 4.87436788865183E-05 
1575	 1.7674853769042E-04 
1576	 2.48236645910721E-04 
1577	 2.79940756325926E-04 
1578	 2.05825494092265E-04 
1579	 1.67687639371023E-04 
1580	 2.20475380117495E-04 
1581	 1.42803872486586E-04 
1582	 5.79601761601936E-05 
1583	 1.01320354087319E-04 
1584	 1.65188768367385E-04 
1585	 2.26778525462294E-04 
1586	 2.7575928487942E-04 
1587	 3.49330996216243E-04 
1588	 4.26542250147399E-04 
1589	 3.04077060035427E-04 
1590	 1.8955960462328E-04 
1591	 3.41841981080201E-04 
1592	 4.14187859361036E-04 
1593	 4.13391144840015E-04 
1594	 5.32560536497176E-04 
1595	 4.4846602615206E-04 
1596	 2.15235915231205E-04 
1597	 1.62861803928875E-04 
1598	 2.40214192818122E-04 
1599	 2.51911220432674E-04 
1600	 2.14285840536748E-04 
1601	 1.82432163268293E-04 
1602	 1.82504413082391E-04 
1603	 1.91039556998436E-04 
1604	 3.3637396423558E-05 
1605	 3.64591617391221E-05 
1606	 3.2913843620817E-04 
1607	 4.6795162505922E-04 
1608	 4.08634493889841E-04 
1609	 3.82937925804387E-04 
1610	 3.83103421208317E-04 
1611	 3.87658728461847E-04 
1612	 4.69059521861951E-04 
1613	 2.76469669161455E-04 
1614	 3.65346127571596E-05 
1615	 2.19052192957955E-04 
1616	 2.92390746439531E-04 
1617	 1.55370009152168E-04 
1618	 1.59939310755978E-04 
1619	 2.45484953888457E-04 
1620	 2.81669275226474E-04 
1621	 2.62612711420813E-04 
1622	 2.08975871376133E-04 
1623	 1.72703751942386E-04 
1624	 2.42975760998768E-04 
1625	 3.29205087706798E-04 
1626	 3.55006461156211E-04 
1627	 2.89573061472732E-04 
1628	 1.9782598656544E-04 
1629	 1.32944849515754E-04 
1630	 2.11807638338938E-04 
1631	 3.61471192246351E-04 
1632	 2.07535346285585E-04 
1633	 2.4048748166616E-04 
1634	 6.57507034480737E-04 
1635	 8.14822936162701E-04 
1636	 7.38105047511482E-04 
1637	 5.75597761182923E-04 
1638	 4.67671195667765E-04 
1639	 3.03673053893757E-04 
1640	-1.34832015973882E-05 
1641	 1.93181465583276E-04 
1642	 3.82214617353353E-04 
1643	 2.00205146471876E-05 
1644	 1.28827467000627E-05 
1645	 1.13188180782446E-04 
1646	-2.70877121277029E-05 
1647	 9.15399678610669E-05 
1648	 1.8046252800498E-04 
1649	 1.02417655207116E-04 
1650	 1.0607713114551E-04 
1651	 1.53982263520376E-04 
1652	 2.26358229486956E-04 
1653	-7.49160529763312E-05 
1654	-1.27389724765476E-04 
1655	 3.42841587451903E-05 
1656	 1.75732459303578E-04 
1657	 5.08583161950493E-04 
1658	 5.24883858878998E-04 
1659	 3.22557976269284E-04 
1660	 3.78249380731166E-04 
1661	 4.66414243199477E-04 
1662	 3.99292418899264E-04 
1663	 2.91702764451084E-04 
1664	 2.16853596718287E-04 
1665	 1.25975753711379E-05 
1666	 9.67569972185571E-05 
1667	 4.84766660653786E-04 
1668	 2.95553906937489E-04 
1669	 1.9287588329399E-04 
1670	 6.95881937115935E-05 
1671	 3.09891948357387E-04 
1672	 6.02661498565188E-04 
1673	 5.13543099013798E-04 
1674	 2.0570916978995E-04 
1675	 6.19097723620406E-05 
1676	 3.17539235158123E-04 
1677	 4.75932898570583E-04 
1678	 2.85634567527841E-04 
1679	 2.27497177516094E-04 
1680	 3.70503106941613E-04 
1681	 5.07370131011623E-04 
1682	 4.72105248888913E-04 
1683	 1.89373171079496E-04 
1684	-1.2023353079513E-04 
1685	-2.00404677444449E-04 
1686	 3.68244173968266E-06 
1687	 2.57854481173272E-04 
1688	 3.464377365686E-04 
1689	 2.15629948823304E-04 
1690	 9.34927971058211E-05 
1691	 1.62394472528264E-04 
1692	 2.49950733087254E-04 
1693	 2.07296153407468E-04 
1694	 1.24350600372652E-04 
1695	 1.91715628305097E-04 
1696	 1.54029180236733E-04 
1697	 1.93217175568632E-04 
1698	 5.93735344202654E-04 
1699	 6.60210409573632E-04 
1700	 5.58156524692726E-04 
1701	 3.59019093540073E-04 
1702	-4.20263798127994E-05 
1703	 1.42938927556708E-04 
1704	 2.86756599818118E-04 
1705	 8.4686370973065E-05 
1706	 3.30996653656884E-04 
1707	 4.58232732673795E-04 
1708	 1.9350156656981E-04 
1709	 3.84317012834902E-04 
1710	 5.43265245320562E-04 
1711	 8.91311690673747E-05 
1712	 2.36899899047161E-05 
1713	 1.63724617674098E-04 
1714	 1.19488866860329E-04 
1715	 3.05583558079796E-05 
1716	 3.10189480598381E-04 
1717	 3.10850526328791E-04 
1718	 3.43024090838228E-04 
1719	 3.95280543682678E-04 
1720	 2.60021576463317E-04 
1721	 1.19613233829496E-04 
1722	-9.84884745832823E-05 
1723	 5.20337765193811E-05 
1724	 3.09492617429832E-04 
1725	 2.04692374549582E-04 
1726	 1.79276901487525E-04 
1727	 2.62651620165943E-04 
1728	 2.24312691948687E-04 
1729	 4.96923362265207E-04 
1730	 1.09552456760106E-03 
1731	 9.5160364689041E-04 
1732	 1.65591212548837E-04 
1733	-1.8382524438986E-04 
1734	-3.90985302591701E-05 
1735	 1.17465910698475E-05 
1736	 4.25078390935884E-04 
1737	 1.08372568347186E-03 
1738	 1.0226539017988E-03 
1739	 9.62630353942498E-04 
1740	 9.4126740762659E-04 
1741	 4.32539202111712E-04 
1742	 3.41201645147544E-05 
1743	 1.74127735153243E-04 
1744	 6.06505894222109E-04 
1745	 7.18586854323859E-04 
1746	 6.55306494007108E-04 
1747	 5.66706877262783E-04 
1748	 3.17972207335492E-04 
1749	 2.39349044438947E-04 
1750	 1.60946519510345E-04 
1751	 9.84184117304275E-05 
1752	 3.2220532372051E-06 
1753	 1.79057110471729E-05 
1754	 2.49873691961946E-04 
1755	 1.58059720799431E-04 
1756	 2.08581865607426E-06 
1757	 4.14465138252817E-04 
1758	 1.81931596249309E-04 
1759	 4.25881104081225E-04 
1760	 4.72601615334993E-04 
1761	-6.64436724822568E-05 
1762	 4.22138384920202E-04 
1763	 1.26512045074033E-03 
1764	 1.00874077538171E-03 
1765	 3.29766598216037E-04 
1766	-2.13333714963341E-04 
1767	-6.15698850116612E-04 
1768	-6.01146637208721E-04 
1769	-2.40828406063771E-04 
1770	 2.04028861065558E-05 
1771	-4.04494068402422E-04 
1772	-6.9456610852386E-04 
1773	 6.23844790457268E-04 
1774	 1.44501555081737E-03 
1775	 1.48680723794795E-03 
1776	 1.77295969908009E-03 
1777	 5.26594396160955E-04 
1778	 2.93590188562012E-05 
1779	 8.7983198807908E-04 
1780	 7.41008095082687E-04 
1781	-3.74537288505313E-05 
1782	-3.15447679200649E-05 
1783	 1.81505913836371E-04 
1784	-2.64492069084519E-04 
1785	-1.00754133872357E-03 
1786	-1.24664320996258E-03 
1787	-2.16810161374521E-03 
1788	-1.34834284861343E-03 
1789	 2.20904011687818E-03 
1790	 1.78799564935359E-03 
1791	 1.63298835077341E-03 
1792	 1.73505871474866E-03 
1793	-9.26869502191626E-04 
1794	-6.35634249825226E-04 
1795	 9.11928622862872E-04 
1796	-1.5957213330179E-03 
1797	-1.54276767329209E-03 
1798	 1.22292154365226E-03 
1799	 1.50430798383069E-03 
1800	 4.21607447549578E-03 
1801	 5.29983762200495E-03 
1802	 2.57152816505439E-03 
1803	 1.02841605133576E-03 
1804	-2.84247856320691E-03 
1805	-4.55802863464437E-03 
1806	-1.54784676419819E-03 
1807	-3.63130466189201E-03 
1808	-7.0955564512633E-03 
1809	-9.39307314929144E-03 
1810	-2.03007841723332E-02 
1811	-2.58047025486194E-02 
1812	-0.024434540751383 
1813	-0.018102884162357 
1814	 1.80416714571037E-03 
1815	 2.41643044099442E-02 
1816	 7.81153618035213E-02 
1817	 0.11000861533161 
1818	 5.62826021825159E-02 
1819	-1.82463582351835E-02 
1820	-0.149457912256101 
1821	-0.163011668039717 
1822	-0.173635675372745 
1823	-5.40435514942967E-02 
1824	-5.37884954913696E-03 
1825	-8.74481189806566E-02 
1826	-3.89270984311791E-02 
1827	 0.153112085911189 
1828	 0.124714874018643 
1829	 5.79172180568007E-02 
1830	 5.43789442209026E-02 
1831	 1.69172398529346 
1832	 1.99987664976738 
1833	-7.53910078105784E-02 
1834	-0.378025209731317 
1835	-0.19529137265283 
1836	-0.240646026400534 
1837	-0.225221180816468 
1838	-0.233285864586464 
1839	-0.266642196702676 
1840	-0.29581504145884 
1841	-0.429571780694556 
1842	 0.335371332813361 
1843	-0.274638746103919 
1844	-0.396361355399347 
1845	-0.449956688408367 
1846	-0.769555967523335 
1847	-1.01819860723759 
1848	 0.800179085450537 
1849	-0.752648526892243 
1850	 2.65212982010083 
1851	 0.288636096620603 
1852	 0.221146600009293 
1853	 0.309956943805944 
1854	 0.212652085598827 
1855	-0.284937921019238 
1856	-0.379591483620278 
1857	-13.816259120363 
1858	 8.15245624846216E-02 
1859	-9.50948014542585E-02 
1860	-0.536475120393592 
1861	-1.24171406597566 
1862	-1.7067458332111 
1863	 2.46275011236467 
1864	 1.28399218561292 
1865	 1.38654136001292 
1866	-6.15438035671077 
1867	-6.34892341897895 
1868	-3.98208669573313 
1869	 15.5269836634674 
1870	 1.25891573957455 
1871	 0.342429286191816 
1872	 0.208639668671473 
1873	 0.150143541723023 
1874	-2.33049895398737E-02 
1875	-0.164373208398836 
1876	-0.216907609640658 
1877	-0.133475332179125 
1878	-0.285565227977953 
1879	-1.46342323845046 
1880	-5.79028745993184 
1881	 3.32120100940329 
1882	 0.688666241948658 
1883	 0.69293460071819 
1884	 1.76266054362359 
1885	-4.78159637375716E-02 
1886	-0.659155079450965 
1887	 0.483921743515878 
1888	 1.56373698519948 
1889	 1.33340285065565 
1890	-8.00073796859332E-02 
1891	-0.236447902298672 
1892	-0.425365969810126 
1893	-0.522506460514644 
1894	 0.264837930143957 
1895	 1.27927889097705 
1896	-16.487342232048 
1897	-0.825034483756438 
1898	 1.9798733585348 
1899	-1.36560558908051 
1900	-0.13602395737769 
1901	 0.633552364220325 
1902	 0.864170124243321 
1903	 1.17393237112107 
1904	 2.31028270304483 
1905	-9.38177148120824 
1906	-3.18919583910952 
1907	-2.5817769930751 
1908	 1.48967368340185 
1909	 0.307866022792217 
1910	 0.264548340823506 
1911	 0.720477834362485 
1912	 1.587821506653 
1913	 2.20459175222787 
1914	 6.34915086085028 
1915	 4.68105942396607 
1916	 1.52308846584184 
1917	 0.49505321893404 
1918	 0.204657420317263 
1919	 7.07614272139541E-02 
1920	-0.18596007230762 
1921	-0.92497014034246 
1922	-0.392380270031139 
1923	 0.36199267125428 
1924	 0.42161131752935 
1925	 0.201284087560722 
1926	 0.164307567846013 
1927	 0.145044017851737 
1928	-6.98477271866357E-02 
1929	-1.46485051609363E-02 
1930	 8.00350566147618E-02 
1931	 1.52739026894283E-02 
1932	 9.83603471784319E-02 
1933	 9.55956056807905E-02 
1934	 4.95263404300294E-02 
1935	 9.50353465454461E-02 
1936	 8.83586489674677E-02 
1937	 8.77015216918536E-02 
1938	 0.101557436711115 
1939	 8.68564613379566E-02 
1940	 6.34467047521679E-02 
1941	 3.30316689545094E-02 
1942	 1.82952907732618E-02 
1943	 1.57002845244558E-02 
1944	 5.57915988173236E-03 
1945	 9.52298011480392E-03 
1946	 1.34221023247895E-02 
1947	 5.20146626783467E-03 
1948	 9.47528121909052E-03 
1949	 1.52782662841895E-02 
1950	 1.92210489476894E-02 
1951	 2.10005463475529E-02 
1952	 1.83018970947876E-02 
1953	 1.32788238260568E-02 
1954	 7.67321575958471E-03 
1955	 7.80523429778528E-04 
1956	-1.40882409669168E-03 
1957	-1.57515337937495E-05 
1958	 3.26731934260717E-04 
1959	-3.63508343337575E-04 
1960	-1.52814753634581E-03 
1961	-1.88789669062682E-03 
1962	-2.8585813186293E-03 
1963	-3.2009833469175E-03 
1964	-2.9576561190958E-03 
1965	-1.23109943809788E-03 
1966	 4.16050054143133E-04 
1967	 3.74011984134065E-03 
1968	 3.91193272029821E-03 
1969	 1.1016335500028E-03 
1970	-1.39515947713172E-03 
1971	-2.87110471361033E-03 
1972	-3.01807542974585E-03 
1973	-1.1507256486785E-03 
1974	 6.77391429330909E-04 
1975	 1.14706933177649E-03 
1976	 1.22919677993983E-03 
1977	 3.89938244856577E-04 
1978	 6.07298176034276E-04 
1979	 1.04537876495703E-03 
1980	 1.56983220188513E-03 
1981	 1.17592884200657E-03 
1982	 1.5346538027023E-03 
1983	 1.36571740328245E-03 
1984	 4.84688001235426E-04 
1985	-3.09039811024965E-04 
1986	-8.30462263215971E-04 
1987	-3.33207267151059E-04 
1988	 2.86999285094822E-04 
1989	 3.11119854531598E-04 
1990	 8.84017623217677E-04 
1991	 1.77404258792973E-03 
1992	 1.22378283245877E-03 
1993	 8.51093432335613E-04 
1994	 8.72118636731033E-04 
1995	 1.48686624452211E-03 
1996	 7.85452509980471E-04 
1997	 4.10146881411884E-04 
1998	 1.8231391594587E-03 
1999	 3.22785528024151E-03 
2000	 2.8643854419903E-03 
2001	 3.78347492439173E-03 
2002	 4.12330462942764E-03 
2003	 2.39949868675059E-03 
2004	 1.42877668968906E-03 
2005	 3.80477676003609E-04 
2006	-1.06874123570935E-03 
2007	-3.47980921341509E-03 
2008	-2.71884653330699E-03 
2009	-1.49715950966826E-03 
2010	 1.17153677865783E-03 
2011	 1.86143198129602E-03 
2012	 3.30649114502538E-03 
2013	 3.44051532394577E-03 
2014	 1.02655978096555E-03 
2015	-1.58115317263455E-03 
2016	-2.39766558917683E-04 
2017	 8.82300110663273E-04 
2018	 2.15327011743788E-04 
2019	 4.87474489535643E-04 
2020	 6.15323111484416E-04 
2021	-8.15233871625396E-05 
2022	-2.69973189447809E-04 
2023	 6.87791186918754E-04 
2024	 8.84333649788645E-04 
2025	 1.22585237492162E-04 
2026	 7.90048972049355E-05 
2027	 3.7137368731328E-04 
2028	 5.28508339219586E-04 
2029	 1.06635189148208E-03 
2030	 1.28069599615593E-03 
2031	 1.18884339642525E-03 
2032	 1.3287940455431E-03 
2033	 9.90884216478879E-04 
2034	 8.13777642621674E-04 
2035	 1.14629548171388E-03 
2036	 6.84766675584365E-04 
2037	-1.36916097499997E-04 
2038	-5.92066041652089E-04 
2039	-6.33521047219744E-04 
2040	-3.02344580913207E-04 
2041	 1.58221910571079E-05 
2042	 1.08066161482846E-03 
2043	 1.14965270887667E-03 
2044	 5.69717009524626E-04 
2045	 5.05671452760589E-05 
2046	-4.08840839302728E-04 
2047	-2.98732258111849E-04 
2048	 4.18351411779529E-04 
2049	 7.04181794768866E-04 
2050	 1.12376814790036E-03 
2051	 1.75232833771845E-03 
2052	 1.83151562219046E-03 
2053	 2.21736421528643E-03 
2054	 1.80604040664869E-03 
2055	 9.16169779580651E-04 
2056	 6.99478034714293E-04 
2057	 6.07967915709463E-04 
2058	 3.95863811830043E-04 
2059	 7.21834544682112E-04 
2060	 1.02073777051099E-03 
2061	 1.10435505684438E-03 
2062	 1.55188873808818E-03 
2063	 1.80631454443605E-03 
2064	 1.82746448357326E-03 
2065	 1.78467718672595E-03 
2066	 1.15340633510931E-03 
2067	 9.09038558948398E-04 
2068	 1.30628298282367E-03 
2069	 1.89163016177492E-03 
2070	 2.70917579939432E-03 
2071	 2.83135656408558E-03 
2072	 2.38509621704836E-03 
2073	 2.38880281479624E-03 
2074	 2.02018621592704E-03 
2075	 1.48853616176122E-03 
2076	 1.38005315627415E-03 
2077	 1.30683559251206E-03 
2078	 4.58024191282303E-04 
2079	 1.38046953359583E-04 
2080	 2.62115782916635E-04 
2081	 8.9646724664471E-04 
2082	 8.34903005007577E-04 
2083	 8.29226194320731E-04 
2084	 1.49740056278419E-03 
2085	 1.4749359261897E-03 
2086	 1.39139116774703E-03 
2087	 1.44537865634181E-03 
2088	 1.41973683720715E-03 
2089	 1.72788773343999E-03 
2090	 1.34677174489895E-03 
2091	 1.32255797858363E-03 
2092	 1.2353057874448E-03 
2093	 6.86178141404328E-04 
2094	 5.7103015025517E-04 
2095	 1.02514242025915E-03 
2096	 9.99024564769642E-04 
2097	 1.00037011382503E-03 
2098	 1.03102132207098E-03 
2099	 8.33438412458703E-04 
2100	 4.91277688394555E-04 
2101	 7.60308141317245E-04 
2102	 1.20660892895267E-03 
2103	 9.08165063730002E-04 
2104	 9.40751552418414E-04 
2105	 1.24090509467885E-03 
2106	 6.35646866773282E-04 
2107	 4.69451331707527E-04 
2108	 8.68709524991932E-04 
2109	 1.08802635293994E-03 
2110	 7.19488324050571E-04 
2111	 5.07863979433418E-04 
2112	 9.50408201911463E-04 
2113	 8.39827816455453E-04 
2114	 2.95032453580829E-04 
2115	 1.03517354515303E-04 
2116	-5.09977123982634E-05 
2117	-4.39740250730306E-04 
2118	-1.00747684086898E-03 
2119	-9.38500095464589E-04 
2120	-4.69480801850349E-04 
2121	-5.26924932763952E-04 
2122	-1.81440463630581E-04 
2123	 7.32275088589923E-05 
2124	-2.09078157195305E-05 
2125	 3.03443326570472E-04 
2126	 8.39317928986042E-04 
2127	 1.06022012018953E-03 
2128	 9.2349529394926E-04 
2129	 2.60700277873234E-04 
2130	-3.8135688392021E-04 
2131	-5.65757030823924E-04 
2132	 3.41609941083816E-05 
2133	 8.33121047364772E-04 
2134	 1.1529822441506E-03 
2135	 1.59703015969336E-03 
2136	 1.79373775792773E-03 
2137	 1.22767575477438E-03 
2138	 1.14723456417599E-03 
2139	 1.55756772609245E-03 
2140	 1.42229267489469E-03 
2141	 1.09772942647151E-03 
2142	 8.68392094659351E-04 
2143	 4.23222048753728E-04 
2144	-1.41374164089398E-04 
2145	-1.60882102127182E-04 
2146	-3.96643386769942E-05 
2147	 5.26956290203852E-04 
2148	 8.65247713207914E-04 
2149	 3.15423482718265E-04 
2150	 7.92756839651339E-05 
2151	 2.32679388805602E-04 
2152	 2.98745902194646E-04 
2153	 6.86806738718083E-04 
2154	 7.47708692862383E-04 
2155	 5.09149565196182E-04 
2156	 2.54776014776342E-04 
2157	 2.16642756349694E-04 
2158	 6.54463792321549E-04 
2159	 1.10479823697982E-03 
2160	 1.69068075894296E-03 
2161	 1.60295457616891E-03 
2162	 9.36117224260343E-04 
2163	 1.03275154738715E-03 
2164	 1.25466016413185E-03 
2165	 1.37218754854392E-03 
2166	 2.41381146611562E-03 
2167	 2.60622826685737E-03 
2168	 1.50469948634496E-03 
2169	 1.39189949745882E-03 
2170	 1.97345002653705E-03 
2171	 1.70480640749839E-03 
2172	 1.61466358233404E-03 
2173	 1.42769510534242E-03 
2174	 1.03931002620742E-03 
2175	 1.40228167636979E-03 
2176	 1.97103468840848E-03 
2177	 2.71892148172021E-03 
2178	 2.33890010904626E-03 
2179	 1.44830403385271E-03 
2180	 1.58164755273235E-03 
2181	 1.12669047395782E-03 
2182	 7.53443778683308E-04 
2183	 1.67089446190132E-03 
2184	 1.42843555730743E-03 
2185	 1.54502046199089E-04 
2186	 1.80395091524703E-04 
2187	 6.79984433433701E-04 
2188	 1.30646027616121E-03 
2189	 3.27915788062876E-03 
2190	 4.1497381937039E-03 
2191	 4.81083014644104E-03 
2192	 4.63948959854612E-03 
2193	 3.05375743734257E-03 
2194	 2.57262696747407E-03 
2195	 1.98937414058048E-03 
2196	 1.50220880134332E-03 
2197	 2.19485837573155E-03 
2198	 2.21418534816622E-03 
2199	 1.38375579109505E-03 
2200	 8.32855814185661E-04 
2201	 2.48155769341177E-03 
2202	 2.67575323184765E-03 
2203	 2.92950606710403E-03 
2204	 3.81698315332746E-03 
2205	 3.28699700356543E-03 
2206	 2.65943009269642E-03 
2207	 2.02188735519072E-03 
2208	 2.07800516415407E-03 
2209	 2.30613555070215E-03 
2210	 2.25024178925225E-03 
2211	 2.30603070982452E-03 
2212	 2.43023711315777E-03 
2213	 3.41012588407165E-03 
2214	 2.78774941857726E-03 
2215	 2.14901947392105E-03 
2216	 2.69297802659382E-03 
2217	 2.57432093805413E-03 
2218	 1.84227061831026E-03 
2219	 2.00899039452651E-03 
2220	 2.88561949283475E-03 
2221	 2.54650616634568E-03 
2222	 2.22263926162515E-03 
2223	 1.15851230332303E-03 
2224	-2.22058698073029E-03 
2225	-2.90705542002558E-03 
2226	-2.03587769011777E-03 
2227	-2.43501530587522E-03 
2228	-1.71837001537649E-03 
2229	-1.09035444767639E-03 
2230	-2.36496656645188E-03 
2231	-1.97916910159759E-03 
2232	 8.04131068852638E-04 
2233	 1.82354522631898E-03 
2234	 2.32295823571093E-03 
2235	 2.93243083054996E-03 
2236	 3.16349678534336E-03 
2237	 1.51159292017334E-03 
2238	 4.64985003647498E-04 
2239	 8.89137960347778E-04 
2240	 1.2464346879053E-03 
2241	 7.24274798885451E-04 
2242	-2.45993889456276E-04 
2243	 2.46085812864558E-04 
2244	 9.43011381779908E-04 
2245	 2.08101279194182E-03 
2246	 2.68205883408283E-03 
2247	 1.81297080596847E-03 
2248	 2.38456795882271E-03 
2249	 1.79628265034868E-03 
2250	 2.61087687223913E-03 
2251	 5.45107607034942E-03 
2252	 4.09331036403815E-03 
2253	 3.16586142322174E-03 
2254	 3.91539604341925E-03 
2255	 2.11297363320752E-03 
2256	 7.50029633019051E-04 
2257	 1.79221733751199E-03 
2258	 2.61075039619278E-03 
2259	 2.78652997405448E-03 
2260	 3.3987309549531E-03 
2261	 5.47094308891422E-03 
2262	 5.87055262718641E-03 
2263	 5.01965704113742E-03 
2264	 4.47867836635984E-03 
2265	 3.63780451139364E-03 
2266	 2.63839894331902E-03 
2267	 1.50040640913781E-03 
2268	 6.29932707887541E-04 
2269	-7.93423206778493E-04 
2270	-8.85544790800169E-04 
2271	-4.13437690909048E-04 
2272	-6.58512139908935E-04 
2273	 2.89497923202399E-05 
2274	 6.89620143683585E-04 
2275	 9.38983931575096E-04 
2276	 1.04024112610876E-03 
2277	 1.7970390233992E-03 
2278	 2.0864557039145E-03 
2279	 5.38693580728711E-04 
2280	 2.71524185235195E-04 
2281	 1.46650133186308E-03 
2282	 2.03886485400096E-03 
2283	-8.75871878557945E-05 
2284	 1.622468357537E-05 
2285	 2.30755909558164E-03 
2286	 1.17511453250946E-03 
2287	-8.60593812609703E-04 
2288	-6.1023064192739E-04 
2289	-2.16681081517994E-03 
2290	-4.08955450528814E-03 
2291	-3.68464549407313E-03 
2292	-2.57456055497025E-03 
2293	-3.03286893984818E-04 
2294	-5.34843101721925E-04 
2295	-7.94851262111834E-05 
2296	 2.88520088773928E-03 
2297	 1.16232761457009E-03 
2298	 2.06939180418832E-04 
2299	 1.39639662632772E-03 
2300	-4.72590680186829E-04 
2301	-9.21613423217891E-04 
2302	 2.09748882089895E-03 
2303	 2.65562410288429E-03 
2304	 2.75079456103516E-03 
2305	 5.48573117936402E-03 
2306	 3.8814187967134E-03 
2307	 2.19856742430401E-03 
2308	 3.53104473437246E-03 
2309	 7.7976453347705E-04 
2310	-5.99782091028685E-04 
2311	 1.14865571019271E-03 
2312	-5.61028507669804E-05 
2313	 1.00005743049677E-03 
2314	 3.98793305434448E-03 
2315	 4.61335275390273E-03 
2316	 6.03000829218818E-03 
2317	 1.00333823607164E-02 
2318	 1.35468443706486E-02 
2319	 9.86631194705347E-03 
2320	 6.41194447461217E-03 
2321	 4.84858800267549E-03 
2322	-3.83260011883694E-03 
2323	-7.63139035959793E-03 
2324	-4.37807865273521E-03 
2325	-4.53926533540991E-03 
2326	-1.86800230926081E-03 
2327	 2.93651509332148E-03 
2328	 2.8535161472437E-03 
2329	 1.40551474640209E-03 
2330	 1.62014230629718E-03 
2331	 6.76297909957157E-04 
2332	-1.28576333613387E-03 
2333	-2.63503661296701E-03 
2334	-5.46005832818351E-03 
2335	-7.7776968272841E-03 
2336	-9.35942923673555E-03 
2337	-7.96236266058854E-03 
2338	-7.08124535171121E-03 
2339	-4.43419100557949E-03 
2340	 3.05467437513243E-03 
2341	-2.31173649861772E-04 
2342	-3.18990819450785E-03 
2343	-4.78718691910137E-04 
2344	-4.11044030611667E-03 
2345	-1.71554791490985E-03 
2346	 8.24787078909006E-04 
2347	-5.45395542162629E-03 
2348	-1.8268089675984E-03 
2349	 8.53816329362146E-03 
2350	 9.2609127425199E-03 
2351	 9.64977680657151E-03 
2352	 1.71216457803737E-02 
2353	 1.38344445237903E-02 
2354	 8.68003389793799E-03 
2355	 1.53643937905398E-02 
2356	 5.8733657572289E-03 
2357	-6.0280769810718E-03 
2358	 1.22486123544431E-04 
2359	-3.1018610359093E-04 
2360	-4.25013451938132E-04 
2361	 6.61660407567445E-03 
2362	 1.00169973648823E-02 
2363	 1.23893411115517E-02 
2364	 1.34460099210916E-02 
2365	 1.17885867707533E-02 
2366	 4.77033032562724E-03 
2367	 5.18406466194002E-03 
2368	 1.27050164226075E-02 
2369	 1.44824235103989E-02 
2370	 1.54690957585734E-02 
2371	 1.03455338464029E-02 
2372	 4.00591291520834E-03 
2373	-2.31192099894581E-03 
2374	-8.86782764091155E-03 
2375	-4.90114315192379E-03 
2376	 3.93872740489616E-03 
2377	 5.27313336153663E-03 
2378	 4.0849385267336E-03 
2379	 9.58769019359983E-03 
2380	 1.95401509814877E-03 
2381	-8.56421032279038E-03 
2382	-7.05983463240818E-03 
2383	-8.23740733772066E-03 
2384	-2.37450343252635E-03 
2385	 2.44449823465356E-03 
2386	 2.60952137887937E-03 
2387	 2.49515673954602E-03 
2388	-9.66238764199764E-03 
2389	-3.82457962502308E-03 
2390	 2.27659647564686E-02 
2391	 2.42670557612561E-02 
2392	 4.94841551658587E-03 
2393	-3.69840995358504E-03 
2394	-1.70430436164537E-02 
2395	-2.58614082512922E-02 
2396	-6.49477229885499E-03 
2397	-7.47300952692511E-03 
2398	-1.11747711333375E-02 
2399	 6.36843354437865E-03 
2400	 9.78256276445356E-04 
2401	-5.26003726172442E-03 
2402	-1.32819591746876E-02 
2403	-4.20166642155979E-02 
2404	-3.31091072335839E-02 
2405	-3.95665520888629E-03 
2406	-7.17114301248571E-03 
2407	-3.41372428815817E-03 
2408	-1.08112489772462E-02 
2409	-0.036739601917745 
2410	-1.74705105293596E-02 
2411	 5.66868674689493E-03 
2412	 1.34289080640861E-04 
2413	 2.81051740030214E-02 
2414	 6.79576618899986E-02 
2415	 6.03225476164692E-02 
2416	 3.92256412007561E-02 
2417	-1.70464080409809E-03 
2418	-0.068215654661341 
2419	-6.67497746723342E-02 
2420	-2.83599769792877E-02 
2421	-1.34176916401986E-02 
2422	-1.41410333325851E-02 
2423	-1.70057323433177E-02 
2424	 7.39493263058318E-03 
2425	 1.53379411874977E-02 
2426	 4.21292785108501E-02 
2427	 8.04646901664882E-02 
2428	 5.77348801901973E-02 
2429	 4.92135089891501E-02 
2430	 4.57665308002702E-02 
2431	 1.87972581359897E-02 
2432	-8.31137280685569E-03 
2433	-1.81805420352053E-02 
2434	-0.029971740167797 
2435	-9.45337770360929E-02 
2436	-9.95048847893676E-02 
2437	-0.116437313666507 
2438	-0.119447335208089 
2439	-3.76651688373177E-02 
2440	-0.034605238371314 
2441	-4.81788789261146E-02 
2442	-0.016855923789219 
2443	 8.80278406100822E-04 
2444	 4.91594979543742E-02 
2445	 0.125053381448174 
2446	 0.104184555242573 
2447	 2.35833871277917E-02 
2448	-1.21200384252812E-02 
2449	-1.75103162193787E-04 
2450	 4.08312409442917E-02 
2451	 0.192570023092777 
2452	 0.214864955655258 
2453	 0.118869060568552 
2454	 5.69157376720145E-02 
2455	-6.11650326689344E-02 
2456	-0.150998383980366 
2457	-0.075318826608515 
2458	-4.77294383082809E-02 
2459	-0.133413081270722 
2460	-3.25217173957812E-02 
2461	 0.039282240451387 
2462	 7.70226206726665E-02 
2463	 0.237437388614341 
2464	 0.119427104404905 
2465	 8.66904474524116E-03 
2466	-4.96669892179136E-02 
2467	-0.151139176561533 
2468	 7.15321256690695E-02 
2469	 0.27886391458141 
2470	 9.30638613804866E-02 
2471	-4.53395465735378E-02 
2472	-0.518962824198439 
2473	-0.965229888586969 
2474	-0.905566925995402 
2475	-0.65201541193106 
2476	-0.549226435183982 
2477	-1.32923590016135 
2478	-1.49491484483396 
2479	-0.903576031768489 
2480	-0.860161392213922 
2481	-0.145923415988491 
2482	 4.70778228068375E-02 
2483	-0.20989868907297 
2484	-0.054997567606069 
2485	 0.319471353344504 
2486	-5.04509365348703 
2487	 20.3659510248917 
2488	 1.29472721538004 
2489	 3.86188859848245 
2490	 4.7207913288962 
2491	 0.137687070701441 
2492	 1.16860788668347 
2493	 0.8770562627237 
2494	 0.511326591309736 
2495	 0.133713378857574 
2496	 0.123833209510897 
2497	 0.116457547684926 
2498	-0.332875668692333 
2499	 6.33729694094511 
2500	-1.83421861842925 
