Wavelength	rt0715far00005.asd
350	 1.31856930353682E-02 
351	 1.37810577191207E-02 
352	 1.33897072199926E-02 
353	 1.29152982130938E-02 
354	 1.31215160811168E-02 
355	 1.35506872733927E-02 
356	 1.36618442391699E-02 
357	 1.34799863419923E-02 
358	 1.33445132419761E-02 
359	 0.013996718470253 
360	 1.41910435817753E-02 
361	 1.39551773685548E-02 
362	 1.41378055133446E-02 
363	 1.42085529519056E-02 
364	 1.39306920160798E-02 
365	 1.36046425564172E-02 
366	 1.42692490268918E-02 
367	 1.47112424693418E-02 
368	 1.48524900748673E-02 
369	 1.48632384477101E-02 
370	 1.45759662454276E-02 
371	 0.014687498034005 
372	 1.51534312009837E-02 
373	 1.54878877990256E-02 
374	 1.56705097107479E-02 
375	 1.56206452086117E-02 
376	 1.55878725899125E-02 
377	 1.62225116911893E-02 
378	 0.016188548580952 
379	 1.58922052821181E-02 
380	 1.60077635694308E-02 
381	 0.016736495711525 
382	 0.016808445859201 
383	 0.016562218260527 
384	 1.69526145379906E-02 
385	 1.71268745126507E-02 
386	 1.73879874460397E-02 
387	 1.76829427739772E-02 
388	 1.75222022577734E-02 
389	 1.79349080710486E-02 
390	 0.018490286400498 
391	 1.86234241197966E-02 
392	 1.80662889416705E-02 
393	 0.01810637058372 
394	 1.86976844096969E-02 
395	 1.92218951563925E-02 
396	 1.91814435565357E-02 
397	 1.92102442548577E-02 
398	 1.94797121069961E-02 
399	 1.97103816265338E-02 
400	 1.98542197751815E-02 
401	 1.99548331492952E-02 
402	 2.00515233851491E-02 
403	 0.020123921472812 
404	 2.02442420842736E-02 
405	 2.03453530289783E-02 
406	 0.020373074436893 
407	 2.06585918855141E-02 
408	 2.09259907890294E-02 
409	 2.10651226618097E-02 
410	 0.021170335414953 
411	 2.14016954848286E-02 
412	 2.15500599903821E-02 
413	 2.15197292529789E-02 
414	 2.16342840639831E-02 
415	 0.021770137142412 
416	 2.19661942586565E-02 
417	 2.22775386933554E-02 
418	 2.24865719458905E-02 
419	 0.022698061005371 
420	 2.29386873879289E-02 
421	 2.31304429055328E-02 
422	 2.33221322008419E-02 
423	 2.35493576674257E-02 
424	 2.38193138349903E-02 
425	 2.40723186486429E-02 
426	 2.43367484510558E-02 
427	 0.024607246939328 
428	 2.48672478147981E-02 
429	 2.51352949128276E-02 
430	 2.54801843924923E-02 
431	 2.58357282508524E-02 
432	 0.025984953584037 
433	 2.62441905956595E-02 
434	 2.65561208424217E-02 
435	 2.68346183161943E-02 
436	 2.71815096701305E-02 
437	 2.74648147941469E-02 
438	 2.77159580378904E-02 
439	 2.80392046883323E-02 
440	 2.83322811531429E-02 
441	 2.86186512043225E-02 
442	 0.028905311100882 
443	 2.91535639311713E-02 
444	 2.94463849368819E-02 
445	 2.97405986635004E-02 
446	 0.030000204488741 
447	 3.03852435255544E-02 
448	 3.06050200873732E-02 
449	 3.07117670081195E-02 
450	 3.09945974556955E-02 
451	 3.12563663195491E-02 
452	 3.14670277320362E-02 
453	 3.16589063656767E-02 
454	 0.031950226196777 
455	 3.21384022055317E-02 
456	 3.22564517382103E-02 
457	 3.24162384072163E-02 
458	 3.26440570796715E-02 
459	 0.032818127979649 
460	 3.29306598510021E-02 
461	 0.033093349830951 
462	 3.33211578620722E-02 
463	 3.35060647868082E-02 
464	 0.033592154765662 
465	 3.37256812997154E-02 
466	 3.39104731467237E-02 
467	 3.41457668305475E-02 
468	 3.44012869853496E-02 
469	 3.44999447101545E-02 
470	 3.46484799988482E-02 
471	 3.49010735652776E-02 
472	 3.50640845618199E-02 
473	 3.51961819934765E-02 
474	 3.53599319985745E-02 
475	 3.55874983858888E-02 
476	 3.57931823936103E-02 
477	 3.59867592975391E-02 
478	 3.61849774701852E-02 
479	 3.64048523545075E-02 
480	 3.65980165254796E-02 
481	 3.67948790896612E-02 
482	 0.037024781936899 
483	 3.72914749612954E-02 
484	 3.76080245592958E-02 
485	 3.78642986138639E-02 
486	 3.79781334268671E-02 
487	 0.038240985794242 
488	 3.85648483212473E-02 
489	 3.88612142312516E-02 
490	 3.90768363265218E-02 
491	 3.94591388282054E-02 
492	 3.97629409195603E-02 
493	 3.98610855178685E-02 
494	 4.02135515328622E-02 
495	 4.05789819516645E-02 
496	 4.09002629924294E-02 
497	 4.12150812372589E-02 
498	 4.15491094751739E-02 
499	 4.19058272940154E-02 
500	 4.22663562659547E-02 
501	 0.04258327786545 
502	 4.29220224265019E-02 
503	 0.043255754922261 
504	 0.043549824462268 
505	 4.38301440059449E-02 
506	 4.42062707279955E-02 
507	 4.46331763083559E-02 
508	 4.49515914116366E-02 
509	 4.52510854660564E-02 
510	 4.55776823871571E-02 
511	 4.59439579200794E-02 
512	 4.63083764595339E-02 
513	 4.66616848825471E-02 
514	 4.70203857501778E-02 
515	 4.74115478478456E-02 
516	 4.78521329437136E-02 
517	 4.82851881022082E-02 
518	 4.86886217393634E-02 
519	 4.90933443176085E-02 
520	 4.95396414004799E-02 
521	 4.99448948509049E-02 
522	 5.02808089916961E-02 
523	 5.08104489118955E-02 
524	 5.12322521806883E-02 
525	 5.15670036267772E-02 
526	 5.20511412571223E-02 
527	 5.25210575953116E-02 
528	 5.29663375923123E-02 
529	 0.053400427379758 
530	 0.053841908925109 
531	 5.42701813130892E-02 
532	 5.47250082461577E-02 
533	 5.52355636449276E-02 
534	 0.055638296904101 
535	 5.60975917876343E-02 
536	 0.056623068511089 
537	 5.70280735972788E-02 
538	 5.75206697696069E-02 
539	 5.80231292385451E-02 
540	 5.84545334295882E-02 
541	 5.89537333977364E-02 
542	 5.94409366285469E-02 
543	 5.99086221844336E-02 
544	 6.03924253860926E-02 
545	 6.08512230270427E-02 
546	 6.13109054096089E-02 
547	 6.17877077207903E-02 
548	 6.22654592807386E-02 
549	 0.062743529257526 
550	 6.32144784772253E-02 
551	 6.36701547705184E-02 
552	 6.40958220644992E-02 
553	 6.45554873986776E-02 
554	 6.50505013551282E-02 
555	 0.065506755458755 
556	 0.066032327821345 
557	 6.65212178859214E-02 
558	 6.68951870229842E-02 
559	 6.73503675084836E-02 
560	 6.78010538073475E-02 
561	 6.81928348965907E-02 
562	 6.85144235209223E-02 
563	 6.89622792144059E-02 
564	 6.93971282024537E-02 
565	 6.97302581050302E-02 
566	 7.00566899711966E-02 
567	 7.03823764798232E-02 
568	 7.07136903689746E-02 
569	 7.10325372720181E-02 
570	 7.12148197658626E-02 
571	 7.14135262517593E-02 
572	 7.16712096081152E-02 
573	 7.18944828354276E-02 
574	 7.21120671684667E-02 
575	 7.23050130856533E-02 
576	 7.24499870344242E-02 
577	 7.25336586772398E-02 
578	 7.26621638332325E-02 
579	 7.28195796530271E-02 
580	 7.29189102275726E-02 
581	 7.30112784859727E-02 
582	 7.30648464053002E-02 
583	 7.30735750156628E-02 
584	 7.30934299813495E-02 
585	 0.073120798565016 
586	 7.31134971830262E-02 
587	 7.30280856801885E-02 
588	 7.29118696999211E-02 
589	 7.28190933915325E-02 
590	 7.27370862771937E-02 
591	 7.25815506311535E-02 
592	 7.24141260053176E-02 
593	 7.22087976516014E-02 
594	 7.19379916924764E-02 
595	 0.071621323220814 
596	 7.11819165865326E-02 
597	 0.070623926793699 
598	 7.00179599388172E-02 
599	 6.95089832524795E-02 
600	 6.90976661223295E-02 
601	 6.87792732116777E-02 
602	 6.85802982434419E-02 
603	 6.84167110510238E-02 
604	 6.83085948316607E-02 
605	 6.82929420609835E-02 
606	 6.82924342975682E-02 
607	 6.83344576395212E-02 
608	 6.84018407252692E-02 
609	 6.84306233524623E-02 
610	 6.85128243544237E-02 
611	 6.85672147081082E-02 
612	 6.85543449269371E-02 
613	 6.86749015836968E-02 
614	 6.86998109974604E-02 
615	 6.86797110262988E-02 
616	 6.87918094767081E-02 
617	 6.88145172293899E-02 
618	 6.88072136619879E-02 
619	 6.88359353176811E-02 
620	 6.89337836724289E-02 
621	 6.89285327923801E-02 
622	 6.88905962693762E-02 
623	 0.068931470474255 
624	 0.068930169706788 
625	 6.89474375423833E-02 
626	 6.89766436430613E-02 
627	 6.89491380417463E-02 
628	 6.89910928141217E-02 
629	 6.90316080140529E-02 
630	 6.90036907897513E-02 
631	 6.89410474496878E-02 
632	 6.89456339025769E-02 
633	 6.90018094981003E-02 
634	 6.90314876107811E-02 
635	 6.89875205663877E-02 
636	 6.89875746627554E-02 
637	 6.90293675582048E-02 
638	 0.068915867611421 
639	 6.88505804205087E-02 
640	 6.88306350121586E-02 
641	 6.87972445459474E-02 
642	 6.87260352956498E-02 
643	 6.86680024530601E-02 
644	 6.86206704374302E-02 
645	 6.85382552398079E-02 
646	 6.84195567605191E-02 
647	 6.83315944044835E-02 
648	 6.82945421854129E-02 
649	 0.068202994666091 
650	 6.80093130816595E-02 
651	 6.78121102299153E-02 
652	 6.77129612244316E-02 
653	 0.067393166990336 
654	 6.69587814513613E-02 
655	 6.65079230768033E-02 
656	 6.61443891527332E-02 
657	 6.57403481543753E-02 
658	 6.53651855510468E-02 
659	 6.50805774825961E-02 
660	 6.48478009893446E-02 
661	 6.45798803775524E-02 
662	 6.43443291654688E-02 
663	 6.42815482117173E-02 
664	 6.41445390554823E-02 
665	 6.40208081440404E-02 
666	 6.39498146544653E-02 
667	 6.38097522322749E-02 
668	 6.36444130098279E-02 
669	 6.35884835125364E-02 
670	 6.37078832793158E-02 
671	 6.35643978000073E-02 
672	 6.35122493899876E-02 
673	 0.063592738146637 
674	 6.35349899326818E-02 
675	 6.35143836440103E-02 
676	 6.35216817681683E-02 
677	 6.35270751494285E-02 
678	 6.35359949717452E-02 
679	 0.063524897273159 
680	 6.35715436624043E-02 
681	 6.37470635746586E-02 
682	 0.063738678690604 
683	 6.37571654591886E-02 
684	 6.38741191533663E-02 
685	 6.39245325204256E-02 
686	 0.063831594931592 
687	 6.37377249599493E-02 
688	 6.37726457674487E-02 
689	 6.37188358051426E-02 
690	 6.36263550344236E-02 
691	 6.34556021640542E-02 
692	 6.31309548030903E-02 
693	 0.062826780736839 
694	 0.062540869933723 
695	 6.22171580640019E-02 
696	 6.17285980721166E-02 
697	 6.11964548019755E-02 
698	 6.06773331363435E-02 
699	 6.01878140340521E-02 
700	 0.059527463823852 
701	 5.88404301833458E-02 
702	 5.81675859560329E-02 
703	 5.74362181302394E-02 
704	 5.66414044463969E-02 
705	 5.58181752791532E-02 
706	 0.054987605713202 
707	 5.40884010625251E-02 
708	 5.30862172782666E-02 
709	 5.20290450115265E-02 
710	 5.09546410211837E-02 
711	 4.96681426322945E-02 
712	 4.83563842793495E-02 
713	 4.70731930942363E-02 
714	 4.56808374455782E-02 
715	 0.044350261718069 
716	 4.29363570461854E-02 
717	 4.13588307310712E-02 
718	 3.97587316320357E-02 
719	 3.82416537312055E-02 
720	 3.69000421775711E-02 
721	 0.035565320137408 
722	 3.42243031161835E-02 
723	 3.28371847039289E-02 
724	 3.14359886332552E-02 
725	 2.98003868736952E-02 
726	 2.83356325115365E-02 
727	 2.68713199903806E-02 
728	 2.52226624823996E-02 
729	 2.34491511061468E-02 
730	 2.17840466994325E-02 
731	 2.02821411423999E-02 
732	 1.88786750187811E-02 
733	 1.78155714970223E-02 
734	 1.69101962098522E-02 
735	 1.61047796820786E-02 
736	 1.55233557236079E-02 
737	 1.50203433872042E-02 
738	 1.46162800574919E-02 
739	 1.43653394764273E-02 
740	 1.42884726733088E-02 
741	 0.014160400900092 
742	 1.39751553188875E-02 
743	 1.38514409284719E-02 
744	 1.38316628757717E-02 
745	 1.38467583822078E-02 
746	 1.38330980866612E-02 
747	 1.37538858837393E-02 
748	 1.36907636974729E-02 
749	 1.36641136313517E-02 
750	 1.36728778103105E-02 
751	 1.37171214810977E-02 
752	 1.36907828743775E-02 
753	 1.36105771142178E-02 
754	 1.35653744871953E-02 
755	 1.36004849488003E-02 
756	 1.36163062609828E-02 
757	 0.013581881728908 
758	 1.35844897479996E-02 
759	 1.36445008276063E-02 
760	 1.36378796906288E-02 
761	 1.35104980638257E-02 
762	 1.37130151502767E-02 
763	 1.38347452087688E-02 
764	 1.38427054104009E-02 
765	 1.38524375633063E-02 
766	 1.39092915865398E-02 
767	 1.39870614928151E-02 
768	 1.40661391341713E-02 
769	 1.41306214268932E-02 
770	 1.42428729534809E-02 
771	 1.43267473609563E-02 
772	 1.43546248438545E-02 
773	 1.45050914865098E-02 
774	 1.46775143148268E-02 
775	 1.48337219303981E-02 
776	 1.49725662497989E-02 
777	 1.51387618618535E-02 
778	 1.52905074936432E-02 
779	 1.54379144994131E-02 
780	 1.56453366101958E-02 
781	 1.58726335342139E-02 
782	 1.60162149728545E-02 
783	 0.01609486903008 
784	 1.64400195703791E-02 
785	 1.66072353007726E-02 
786	 1.67636067604553E-02 
787	 1.71733219990146E-02 
788	 1.74120594259881E-02 
789	 1.76329801562457E-02 
790	 1.79256684403364E-02 
791	 1.82891305229438E-02 
792	 1.85390893997866E-02 
793	 1.86810504553159E-02 
794	 1.88294857873714E-02 
795	 1.92209425998397E-02 
796	 1.94996031185926E-02 
797	 1.97465728700366E-02 
798	 2.00848551126678E-02 
799	 0.020319231382096 
800	 2.05198684432431E-02 
801	 2.06958688790961E-02 
802	 2.08387047772946E-02 
803	 2.10533755346762E-02 
804	 0.021193604450005 
805	 2.12277987193498E-02 
806	 2.12744722840553E-02 
807	 2.13329822889245E-02 
808	 2.14157349232214E-02 
809	 2.14752611469956E-02 
810	 0.021314081099294 
811	 2.11343459164592E-02 
812	 2.09362854415917E-02 
813	 2.06708372197782E-02 
814	 2.04824086665246E-02 
815	 2.02469706420494E-02 
816	 1.99600772667423E-02 
817	 1.97040040792285E-02 
818	 1.93373236495066E-02 
819	 1.89179866701934E-02 
820	 0.018486824455258 
821	 1.80569634887298E-02 
822	 0.017130854863265 
823	 1.61795508514959E-02 
824	 1.55801126520549E-02 
825	 1.48416035356015E-02 
826	 1.38908116793388E-02 
827	 0.012953045599449 
828	 1.22919845151325E-02 
829	 1.12538835775977E-02 
830	 1.03853174384073E-02 
831	 9.89139432371888E-03 
832	 9.62791031343285E-03 
833	 9.09760691193738E-03 
834	 8.68438636640484E-03 
835	 8.48688005906681E-03 
836	 8.09590852872275E-03 
837	 7.98399643803273E-03 
838	 7.96289222163685E-03 
839	 7.81838897741076E-03 
840	 7.65228468299635E-03 
841	 7.52080337230718E-03 
842	 7.42850894135429E-03 
843	 7.35825197815409E-03 
844	 7.32681495838629E-03 
845	 7.23839118749104E-03 
846	 7.04136238202433E-03 
847	 6.75664079442578E-03 
848	 6.67802801029018E-03 
849	 6.72156729202898E-03 
850	 6.69142827588849E-03 
851	 6.35637576153455E-03 
852	 6.4473668750423E-03 
853	 6.48553573943628E-03 
854	 6.17869332880632E-03 
855	 6.17984383174015E-03 
856	 6.28118294183244E-03 
857	 6.16202036500799E-03 
858	 5.75645976041545E-03 
859	 6.03908413305613E-03 
860	 5.96736301280361E-03 
861	 5.6905481743746E-03 
862	 5.82447260751723E-03 
863	 5.69503729867028E-03 
864	 5.65764353230321E-03 
865	 5.73072624872485E-03 
866	 5.59958397943626E-03 
867	 5.48691666548223E-03 
868	 5.28097210548346E-03 
869	 5.06995432893389E-03 
870	 5.22693197621222E-03 
871	 5.18944871019438E-03 
872	 4.98938813293544E-03 
873	 4.82968978320201E-03 
874	 4.99293550909386E-03 
875	 0.004951883993286 
876	 4.74010519268109E-03 
877	 4.57590989713364E-03 
878	 4.63161347578798E-03 
879	 4.54034194525921E-03 
880	 4.36401491557938E-03 
881	 4.29200772060922E-03 
882	 3.90465327633987E-03 
883	 3.80698386910297E-03 
884	 3.99252720893094E-03 
885	 4.00494647765962E-03 
886	 4.15362120271621E-03 
887	 4.00255595358189E-03 
888	 3.63203093763353E-03 
889	 3.71489151575101E-03 
890	 3.59871040950178E-03 
891	 3.46043562032539E-03 
892	 3.47672818860094E-03 
893	 3.55897659619636E-03 
894	 3.70614860079819E-03 
895	 3.58383339580099E-03 
896	 3.14294502278994E-03 
897	 3.41960772306314E-03 
898	 3.52290049258977E-03 
899	 3.29606210453005E-03 
900	 2.96844378341619E-03 
901	 2.98563679493292E-03 
902	 2.9917360535311E-03 
903	 2.95548902761014E-03 
904	 0.00299875227605 
905	 3.34567820687115E-03 
906	 3.10353325918767E-03 
907	 2.5557070683737E-03 
908	 2.69756572843737E-03 
909	 2.74159403251456E-03 
910	 2.90120927115332E-03 
911	 3.07354732113656E-03 
912	 2.86741517618298E-03 
913	 2.44806581115024E-03 
914	 2.22259260076676E-03 
915	 2.19522624681551E-03 
916	 1.93732709128082E-03 
917	 1.98556622403054E-03 
918	 2.10385009699611E-03 
919	 2.15881632601399E-03 
920	 2.30510771330051E-03 
921	 2.18103791416749E-03 
922	 1.92618943164661E-03 
923	 1.75184826847322E-03 
924	 1.79471024194832E-03 
925	 2.08106505774827E-03 
926	 2.02776636736749E-03 
927	 1.57817663132815E-03 
928	 3.28522533272781E-03 
929	 2.73123823650717E-03 
930	 1.13677620864418E-03 
931	 1.91860306464885E-03 
932	 1.20852698517955E-03 
933	 6.67228336843359E-04 
934	 1.53861666429546E-03 
935	 3.27436933832355E-03 
936	 1.41996978693665E-03 
937	 1.00329214997797E-03 
938	 1.0330671924873E-03 
939	-3.51358621601411E-04 
940	 1.05036411577827E-04 
941	 5.79688286677354E-04 
942	 3.00156817389328E-04 
943	-5.73443294425106E-04 
944	-1.47433038466308E-04 
945	 1.60902014316136E-04 
946	 4.91571924236765E-04 
947	 1.58666150917129E-03 
948	 1.18226025408109E-03 
949	 6.0357257896489E-04 
950	 6.12416936643715E-04 
951	 1.05309415736717E-03 
952	-4.49812024545972E-04 
953	 3.80272697957607E-04 
954	 1.72035719452066E-03 
955	-1.07501496106105E-03 
956	 6.13102090976163E-04 
957	 1.76923158436671E-03 
958	 8.31172889415058E-04 
959	-3.33577621630869E-05 
960	 2.1583487343613E-03 
961	 2.17230473867307E-03 
962	 1.19524771224957E-04 
963	 8.68950717830904E-05 
964	 8.25824486483216E-05 
965	 1.33616887499017E-03 
966	 2.06293963703341E-03 
967	-7.13699931881391E-04 
968	-8.70889594708109E-05 
969	 6.23837718531535E-04 
970	 2.79646096895903E-04 
971	 4.24157953475161E-04 
972	 6.13057706661378E-04 
973	 6.49684436943158E-04 
974	 8.03184441977667E-04 
975	 1.4899116909756E-03 
976	 5.0617015618104E-04 
977	 7.87166479963039E-04 
978	 2.06525149732933E-03 
979	 1.24286035547202E-03 
980	 7.17228867980627E-05 
981	 3.96677932596494E-04 
982	 0.001521796253967 
983	 1.06626973182325E-03 
984	 5.45141747054342E-04 
985	 3.09149020429509E-04 
986	 7.42845925804056E-04 
987	 1.91647276026315E-03 
988	 1.2716426605554E-03 
989	 8.2186114966747E-04 
990	 6.93458870029315E-04 
991	-1.4956203595832E-04 
992	 2.31066169149087E-03 
993	 2.17532727382179E-03 
994	 9.62460670581321E-05 
995	 7.86828757383324E-04 
996	-1.15125421928991E-04 
997	-5.38307104188482E-04 
998	-1.4246634464232E-04 
999	 1.04926746563074E-04 
1000	 1.53104797810589E-04 
1001	 7.73314880263692E-04 
1002	 7.59668896046353E-04 
1003	 5.49704052836722E-04 
1004	 4.08515664187448E-05 
1005	 3.06338489683469E-05 
1006	 1.62528114689039E-04 
1007	 3.61701332538575E-04 
1008	 8.32044884670906E-04 
1009	 1.39626545498297E-03 
1010	 1.60656586154718E-03 
1011	 1.39479149054943E-03 
1012	 1.27646296647705E-03 
1013	 9.4404901838841E-04 
1014	 7.83093408825577E-04 
1015	 6.90046419856165E-04 
1016	 6.48926429499978E-04 
1017	 7.48438325263543E-04 
1018	 6.52561419684384E-04 
1019	 3.41993787772483E-04 
1020	 3.10637823137843E-04 
1021	 2.04464794397294E-04 
1022	 3.79408040910198E-04 
1023	 8.44697177884638E-04 
1024	 1.17035340607008E-03 
1025	 1.28325360240985E-03 
1026	 1.33900406301143E-03 
1027	 1.37259483470823E-03 
1028	 1.30309426570045E-03 
1029	 1.20825137074005E-03 
1030	 1.12527858482886E-03 
1031	 9.58608073137424E-04 
1032	 4.84232657810199E-04 
1033	 4.29683801469378E-04 
1034	 5.07648094169521E-04 
1035	 6.51976972851875E-04 
1036	 1.21652410875903E-03 
1037	 1.48611406007953E-03 
1038	 1.66093015871749E-03 
1039	 1.84666223585293E-03 
1040	 1.7037803906681E-03 
1041	 1.48660011042932E-03 
1042	 1.40568817500145E-03 
1043	 1.27704155235893E-03 
1044	 1.16741371094006E-03 
1045	 1.08487875848859E-03 
1046	 1.10223114393699E-03 
1047	 1.09975286602928E-03 
1048	 1.18238755983258E-03 
1049	 1.59074031900384E-03 
1050	 1.67315618999242E-03 
1051	 1.5792477189441E-03 
1052	 1.48627971420499E-03 
1053	 1.06861752674529E-03 
1054	 9.86880455059366E-04 
1055	 1.18483896052925E-03 
1056	 1.2473081590603E-03 
1057	 1.32719946675438E-03 
1058	 1.58956253038114E-03 
1059	 1.60256639656522E-03 
1060	 1.34948200808275E-03 
1061	 1.3638762412889E-03 
1062	 1.4527741818699E-03 
1063	 1.5160873570955E-03 
1064	 1.78531967335355E-03 
1065	 1.77060752694573E-03 
1066	 1.53223289996041E-03 
1067	 1.4171317413571E-03 
1068	 1.05144610173851E-03 
1069	 1.01410233793953E-03 
1070	 1.38056307148594E-03 
1071	 1.49725413170301E-03 
1072	 1.76606121525264E-03 
1073	 1.76347376943139E-03 
1074	 1.77450671261528E-03 
1075	 1.5405840930032E-03 
1076	 1.47590392380122E-03 
1077	 1.54892371347388E-03 
1078	 1.46074576146384E-03 
1079	 1.20177519476055E-03 
1080	 1.16006553853994E-03 
1081	 1.13063087137786E-03 
1082	 1.14564149990058E-03 
1083	 1.43933473034258E-03 
1084	 1.48588174629942E-03 
1085	 1.35374853112513E-03 
1086	 1.27405582378342E-03 
1087	 1.0298901500517E-03 
1088	 9.66837984693565E-04 
1089	 1.04778199424812E-03 
1090	 1.13555445964127E-03 
1091	 1.19815830454405E-03 
1092	 1.39674436798509E-03 
1093	 1.39154701497096E-03 
1094	 1.14511137690928E-03 
1095	 1.18985757442833E-03 
1096	 0.001400503793852 
1097	 1.30426886286649E-03 
1098	 1.15984979345482E-03 
1099	 1.18291487843419E-03 
1100	 9.99262632752263E-04 
1101	 9.50274206712964E-04 
1102	 1.35141539065171E-03 
1103	 1.36611140122224E-03 
1104	 8.68043289900495E-04 
1105	 8.42403354202946E-04 
1106	 1.04780991717713E-03 
1107	 9.09406705160574E-04 
1108	 1.20932730759903E-03 
1109	 1.46133861609816E-03 
1110	 1.48322511933196E-03 
1111	 1.30438964897605E-03 
1112	 1.14472848030617E-03 
1113	 6.22142186629457E-04 
1114	 2.91510979867903E-04 
1115	-2.69711123656077E-04 
1116	-2.89419482634853E-04 
1117	 7.78853939862623E-04 
1118	 1.12788952729037E-03 
1119	 1.28393033365912E-03 
1120	 1.60687758053878E-03 
1121	 1.91180680149439E-03 
1122	 6.88541207911445E-04 
1123	 2.84351248863078E-04 
1124	 1.18735430502158E-03 
1125	 6.3604386572614E-04 
1126	 2.02311074028795E-04 
1127	 7.37608540585787E-04 
1128	 7.49411691299349E-04 
1129	 1.11868657529962E-03 
1130	 2.55004503095777E-03 
1131	 1.85502144378291E-03 
1132	-1.33065758814437E-04 
1133	-7.09737654570094E-04 
1134	-2.2056428702239E-03 
1135	-2.25804441289911E-03 
1136	-4.79351787879594E-04 
1137	 3.73513582162362E-05 
1138	 4.16490131987575E-04 
1139	 4.71927583936789E-04 
1140	-5.59551338973401E-05 
1141	 9.22790518302941E-05 
1142	 4.19850734151593E-04 
1143	-1.35562646124164E-04 
1144	-4.92504130808159E-04 
1145	-4.03768867022336E-04 
1146	-6.17626757163401E-04 
1147	-2.47524531765485E-04 
1148	 4.36438173517933E-04 
1149	-1.75962305946368E-04 
1150	 2.71458395423677E-05 
1151	 7.48445294024303E-04 
1152	 9.93066590443873E-04 
1153	 1.19805642146757E-03 
1154	 1.29942623567808E-03 
1155	 1.48285786706068E-03 
1156	 6.38174742063998E-04 
1157	-1.08123022292201E-04 
1158	 4.27770449232875E-04 
1159	 5.24963043659343E-04 
1160	 3.87997612166903E-04 
1161	 7.20898873558962E-04 
1162	 5.35738988589369E-04 
1163	 4.57220390970721E-04 
1164	 5.10034478994254E-04 
1165	 3.14901137544505E-04 
1166	 5.83330512494146E-04 
1167	 7.09776694042169E-04 
1168	 4.1220640956937E-04 
1169	 5.13354364735769E-04 
1170	 5.5268157382078E-04 
1171	 4.5582857817621E-04 
1172	 2.861116985263E-04 
1173	 3.61885577045939E-04 
1174	 5.17737732193214E-04 
1175	 3.16931759524003E-04 
1176	 5.99094574462081E-04 
1177	 8.80836538204421E-04 
1178	 6.69802526311179E-04 
1179	 6.01985808983776E-04 
1180	 6.03099194217551E-04 
1181	 5.049989320747E-04 
1182	 5.95789203838913E-04 
1183	 5.7015252281907E-04 
1184	 4.37575056048788E-04 
1185	 5.00996535051804E-04 
1186	 6.13996260427967E-04 
1187	 6.83664761088188E-04 
1188	 7.20446401037514E-04 
1189	 7.42910383253201E-04 
1190	 5.80611018558874E-04 
1191	 4.00412590702175E-04 
1192	 4.48111380796305E-04 
1193	 7.00024701185457E-04 
1194	 7.91297564920817E-04 
1195	 7.5926876294693E-04 
1196	 8.06646600351895E-04 
1197	 6.33552345703603E-04 
1198	 3.6673581142754E-04 
1199	 3.91274754699926E-04 
1200	 6.30819806270125E-04 
1201	 7.53337227915204E-04 
1202	 6.34322504011865E-04 
1203	 5.41932372456662E-04 
1204	 4.28285041961914E-04 
1205	 5.23923156539288E-04 
1206	 8.47060364448973E-04 
1207	 8.91828377480777E-04 
1208	 7.89028804006808E-04 
1209	 7.19366603099592E-04 
1210	 7.52888784096023E-04 
1211	 7.98289382695602E-04 
1212	 7.63079375922165E-04 
1213	 7.69198262138966E-04 
1214	 7.72497893107304E-04 
1215	 6.32403838042039E-04 
1216	 5.90752238034751E-04 
1217	 7.88414450722302E-04 
1218	 8.83279522317925E-04 
1219	 7.98723514361978E-04 
1220	 7.04485788429741E-04 
1221	 7.38659586880508E-04 
1222	 8.60575245862154E-04 
1223	 9.15540695771315E-04 
1224	 8.36722609041984E-04 
1225	 7.98413801175984E-04 
1226	 7.92789532212652E-04 
1227	 6.90043394348753E-04 
1228	 7.21979367359233E-04 
1229	 6.81856957031107E-04 
1230	 4.35525890548731E-04 
1231	 4.04538476417893E-04 
1232	 5.89310048761724E-04 
1233	 6.60472057620049E-04 
1234	 6.02962758278963E-04 
1235	 6.539921795024E-04 
1236	 7.52577534599946E-04 
1237	 7.67339844180957E-04 
1238	 7.80810217546386E-04 
1239	 8.60242333694058E-04 
1240	 7.8906696438584E-04 
1241	 6.3576184263618E-04 
1242	 5.97652485795339E-04 
1243	 6.66727774649195E-04 
1244	 6.47474125641546E-04 
1245	 5.84600601366512E-04 
1246	 5.7279133049572E-04 
1247	 5.60923037500438E-04 
1248	 5.96472589219196E-04 
1249	 6.74274065473365E-04 
1250	 7.07888056792671E-04 
1251	 6.48616149316807E-04 
1252	 6.72783251293408E-04 
1253	 8.20313505197548E-04 
1254	 8.2166095693711E-04 
1255	 7.3942613867566E-04 
1256	 7.87485379531294E-04 
1257	 9.06555294262166E-04 
1258	 8.43808516945452E-04 
1259	 7.42151795460117E-04 
1260	 7.73708070509521E-04 
1261	 6.99666864646576E-04 
1262	 6.96262089690057E-04 
1263	 8.89812732286377E-04 
1264	 1.00747583767624E-03 
1265	 8.85420820477139E-04 
1266	 7.60603756131741E-04 
1267	 7.78378956537471E-04 
1268	 8.68760110917708E-04 
1269	 9.29770873413002E-04 
1270	 8.85612915292015E-04 
1271	 7.90270577511255E-04 
1272	 7.55774005048817E-04 
1273	 7.32047179136758E-04 
1274	 7.61955508917204E-04 
1275	 6.70618158408913E-04 
1276	 4.58698569934684E-04 
1277	 4.99448311785751E-04 
1278	 6.16888904890453E-04 
1279	 7.82718589596691E-04 
1280	 8.87480501886841E-04 
1281	 8.38005779197901E-04 
1282	 4.88322901642469E-04 
1283	 5.18679806407049E-04 
1284	 7.23785631550683E-04 
1285	 6.80176310996689E-04 
1286	 6.59059172299046E-04 
1287	 7.35254771202365E-04 
1288	 6.04625691109164E-04 
1289	 5.33682636599504E-04 
1290	 6.59493759052518E-04 
1291	 9.16014854281469E-04 
1292	 5.79985827187646E-04 
1293	 4.04810988457171E-04 
1294	 7.76479024210385E-04 
1295	 8.3387938655921E-04 
1296	 7.3233802725281E-04 
1297	 8.41667039415783E-04 
1298	 6.50823616521359E-04 
1299	 3.58437179057701E-04 
1300	 4.80949941873401E-04 
1301	 7.45699424224949E-04 
1302	 8.34906813550827E-04 
1303	 7.72871697582026E-04 
1304	 5.31329434244504E-04 
1305	 2.71958057124029E-04 
1306	 2.30911746897108E-04 
1307	 4.41786620703895E-04 
1308	 4.4378374406887E-04 
1309	 4.62342374097231E-04 
1310	 5.1874471291203E-04 
1311	 4.76615500946163E-04 
1312	 5.04936852442493E-04 
1313	 7.86206519570935E-04 
1314	 7.1250536689132E-04 
1315	 1.52515326809673E-04 
1316	 1.49160145040581E-04 
1317	 5.06512473389615E-04 
1318	 5.48069466392665E-04 
1319	 6.30106552483446E-04 
1320	 7.90824483939834E-04 
1321	 8.69806167630537E-04 
1322	 7.04048388644359E-04 
1323	 3.86038021674963E-04 
1324	 4.44773704011108E-04 
1325	 5.61949107748691E-04 
1326	 5.96790373756067E-04 
1327	 5.00420926168226E-04 
1328	 5.05257316112963E-04 
1329	 7.52662247213201E-04 
1330	 4.54763399061204E-04 
1331	-5.4249177525144E-05 
1332	 2.8991620794279E-04 
1333	 8.13198929480732E-04 
1334	 7.37210287487504E-04 
1335	 6.85522488297549E-04 
1336	 1.25068886088083E-03 
1337	 1.51029832079343E-03 
1338	 1.17911454767325E-03 
1339	 7.28757392589037E-04 
1340	 2.40989305432424E-04 
1341	 3.7410877470524E-04 
1342	 3.87932961933932E-04 
1343	 9.3500129168697E-05 
1344	 5.49425844260964E-04 
1345	 9.85446650867497E-04 
1346	 2.27136975133929E-04 
1347	-3.11698164540694E-05 
1348	 1.98034757412996E-03 
1349	 2.9440067395024E-03 
1350	 2.05315633635318E-03 
1351	 1.53134703407477E-03 
1352	 7.72006182336412E-05 
1353	-1.68878210621355E-03 
1354	-4.89748864755961E-03 
1355	-1.12017496056194E-02 
1356	-1.73393534393496E-02 
1357	-2.21793396350583E-02 
1358	-3.47765253853442E-02 
1359	-3.75275491164731E-02 
1360	-0.011320431036168 
1361	-9.09872605002979E-03 
1362	-6.96279443149743E-02 
1363	-0.102106343984065 
1364	-0.029136821788881 
1365	-2.26187448073237E-05 
1366	-9.61354465056416E-02 
1367	-0.138887257788734 
1368	-8.22370530889663E-02 
1369	-8.70079903930933E-02 
1370	-5.78258628115996E-02 
1371	 0.397659817765511 
1372	 0.444225698734015 
1373	-0.057854947244648 
1374	-0.164880381889241 
1375	-9.59795519331694E-02 
1376	-0.140547952927394 
1377	-0.239257637518761 
1378	-0.18016599118231 
1379	-3.89926855932647E-02 
1380	-1.09079637753863E-02 
1381	 0.156507700619876 
1382	 0.260995769174985 
1383	 0.154618289726044 
1384	 0.100066684562056 
1385	 0.115035689476037 
1386	 0.15751329921183 
1387	 0.34671333522588 
1388	 0.302733819377381 
1389	 8.71289044945413E-02 
1390	-0.194258813676565 
1391	-0.752025781564654 
1392	-0.387579042036181 
1393	-0.125418343162024 
1394	-2.81684301048045E-02 
1395	-1.83265169538862E-03 
1396	-6.06421828124221E-02 
1397	-0.173231293289953 
1398	-0.168872419890574 
1399	-5.58963776643344E-02 
1400	-3.98731159769932E-02 
1401	-0.173543654361878 
1402	-0.153486345947511 
1403	-2.45179127178875E-02 
1404	 1.15859891165768E-02 
1405	-1.29610565927916E-02 
1406	-3.03860656009315E-02 
1407	-1.56416821142345E-02 
1408	-2.91607434192766E-02 
1409	-4.39620433578211E-02 
1410	-2.67137733089333E-02 
1411	-2.59846063379888E-02 
1412	-6.75174045700252E-02 
1413	-5.99805126273789E-02 
1414	-1.83570971115629E-02 
1415	-7.86253534763367E-03 
1416	-5.65553157160312E-03 
1417	-3.80911004559215E-03 
1418	-4.57385457797383E-03 
1419	-5.13004893752475E-03 
1420	-7.97048694386471E-03 
1421	-7.16752498564825E-03 
1422	-4.0920146003026E-03 
1423	-4.3036882136161E-03 
1424	-6.01085717299803E-03 
1425	-4.97331595569708E-03 
1426	-4.15431726796569E-03 
1427	-3.75782125714656E-03 
1428	-4.80993292127483E-04 
1429	 6.69113186816689E-04 
1430	-1.04342585587958E-03 
1431	-1.45195744996463E-03 
1432	-2.84492302281235E-03 
1433	-1.54009859633497E-03 
1434	 5.45196286098919E-03 
1435	 5.5111270598656E-03 
1436	 9.85943490405513E-04 
1437	 3.32500676854531E-04 
1438	-3.98561253475403E-05 
1439	-1.47041934464778E-03 
1440	-8.15570262555603E-04 
1441	-4.36480986503898E-04 
1442	 4.09388331558536E-04 
1443	 8.7000643002102E-04 
1444	 7.3933641370202E-05 
1445	-9.04783440487397E-04 
1446	-2.16820692174326E-03 
1447	-2.64928713356018E-03 
1448	-2.22009086614838E-03 
1449	-1.94247128245726E-04 
1450	 1.49685855188304E-03 
1451	 5.73811746696875E-04 
1452	 6.83849773327809E-04 
1453	 1.31092889360949E-03 
1454	 1.30029474303155E-03 
1455	 3.90628072868839E-04 
1456	 3.26372818268558E-04 
1457	 6.66637455018002E-04 
1458	 8.25520522026364E-04 
1459	 8.68305334193688E-04 
1460	 8.57636331129898E-04 
1461	 0.001145216390426 
1462	 1.05798870022279E-03 
1463	 5.52404257411418E-04 
1464	 3.47833034495825E-04 
1465	-8.96406433844942E-05 
1466	-8.92202153206516E-05 
1467	 4.74952638640729E-04 
1468	 4.99011064452417E-04 
1469	 8.14931153274641E-04 
1470	 5.18259083052744E-04 
1471	-1.13597832780557E-03 
1472	-9.64912417314524E-04 
1473	 4.9497130709698E-04 
1474	 2.35732302020826E-04 
1475	-3.37805739881914E-04 
1476	 1.5889678659165E-05 
1477	 1.27143269031976E-04 
1478	-3.41039134268671E-04 
1479	-6.50517661909691E-04 
1480	-2.67130673662272E-04 
1481	-2.01210668361921E-04 
1482	-2.55477280725419E-04 
1483	 7.53041408060557E-04 
1484	 1.07623198022521E-03 
1485	 2.28566811394717E-04 
1486	 2.72380989604422E-05 
1487	 3.93369690660444E-04 
1488	 4.58218668957663E-04 
1489	 3.34642035073536E-04 
1490	 3.21772179695574E-04 
1491	 4.54271069309508E-04 
1492	 3.93846917920443E-04 
1493	 1.37599696810728E-04 
1494	 9.51305578286378E-05 
1495	 1.98329450524617E-05 
1496	 8.06044857369135E-05 
1497	 4.78721896073125E-04 
1498	 5.24174204230804E-04 
1499	 3.50794395252506E-04 
1500	 3.20994545311185E-04 
1501	 1.65790622683253E-04 
1502	 1.50443886659357E-04 
1503	 4.21122723531269E-04 
1504	 4.67958696110346E-04 
1505	 3.76602404235743E-04 
1506	 2.4693672840999E-04 
1507	 4.36905071090035E-04 
1508	 7.13918658385803E-04 
1509	 6.94528184875822E-04 
1510	 6.16979862783824E-04 
1511	 5.69619487217987E-04 
1512	 4.83898547838195E-04 
1513	 5.65534943672322E-04 
1514	 7.38858404677615E-04 
1515	 6.95291681570955E-04 
1516	 4.70665665795674E-04 
1517	 3.96601854698413E-04 
1518	 4.22877102537111E-04 
1519	 2.19359666368665E-04 
1520	 5.45658797609128E-05 
1521	 2.34988952067756E-04 
1522	 3.48123456148461E-04 
1523	 3.66629362842991E-04 
1524	 5.98294241693799E-04 
1525	 7.18036024346377E-04 
1526	 4.81692165963361E-04 
1527	 3.0377900835794E-04 
1528	 1.85870939785895E-04 
1529	-1.08868444720639E-04 
1530	-3.70072158270289E-05 
1531	 4.0832612496348E-04 
1532	 5.82002941256234E-04 
1533	 5.72557807815066E-04 
1534	 6.96150567544308E-04 
1535	 6.36411140423225E-04 
1536	 4.14120739917537E-04 
1537	 4.06438414199523E-04 
1538	 3.59853166477795E-04 
1539	 3.16701869322309E-04 
1540	 4.84250285259948E-04 
1541	 5.33735394025969E-04 
1542	 4.78411588307079E-04 
1543	 4.18320584689622E-04 
1544	 2.93887446711448E-04 
1545	 2.62222494237178E-04 
1546	 2.75891032416233E-04 
1547	 2.94998585555563E-04 
1548	 4.11177966381687E-04 
1549	 5.36549200215866E-04 
1550	 5.49903281596566E-04 
1551	 4.02068369177952E-04 
1552	 2.64865232377705E-04 
1553	 2.74816873981977E-04 
1554	 3.0477115043185E-04 
1555	 3.63176826813887E-04 
1556	 4.30148110626372E-04 
1557	 3.87090060056053E-04 
1558	 4.25686071212041E-04 
1559	 5.7279030976649E-04 
1560	 4.70087044359391E-04 
1561	 3.35059820451796E-04 
1562	 3.90235408026384E-04 
1563	 3.52968617642699E-04 
1564	 3.75952965850977E-04 
1565	 4.12291949879017E-04 
1566	 2.3475446613306E-04 
1567	 7.97455036860296E-05 
1568	 1.25963776742347E-04 
1569	 2.90287560355081E-04 
1570	 4.08791834426976E-04 
1571	 5.87742013087983E-04 
1572	 7.87333491911374E-04 
1573	 7.36580862526583E-04 
1574	 5.81265743201256E-04 
1575	 5.30764242956361E-04 
1576	 5.98154436916773E-04 
1577	 7.1819773326947E-04 
1578	 8.49461319807385E-04 
1579	 1.02818548371506E-03 
1580	 8.91772643111347E-04 
1581	 5.86445088360529E-04 
1582	 6.80316292877757E-04 
1583	 6.1586874191848E-04 
1584	 4.18868699855852E-04 
1585	 5.91024250433249E-04 
1586	 6.15924845785454E-04 
1587	 6.02687573200829E-04 
1588	 7.20381839747975E-04 
1589	 5.68157674251581E-04 
1590	 4.82183779375307E-04 
1591	 5.99230314837812E-04 
1592	 5.78989889519448E-04 
1593	 4.83578385500954E-04 
1594	 4.39062493900369E-04 
1595	 5.16574352897535E-04 
1596	 5.28360659582931E-04 
1597	 4.09825753997163E-04 
1598	 4.59209843062745E-04 
1599	 4.59381756357309E-04 
1600	 3.34397928453566E-04 
1601	 5.22761662830903E-04 
1602	 7.00728704912941E-04 
1603	 5.76815742827594E-04 
1604	 4.88806536397085E-04 
1605	 6.04629233696961E-04 
1606	 7.86866296093529E-04 
1607	 5.72313130099906E-04 
1608	 3.31994804212564E-04 
1609	 4.04627459126519E-04 
1610	 3.66342665298467E-04 
1611	 3.18111088656859E-04 
1612	 3.05212509476446E-04 
1613	 2.12921568115719E-04 
1614	 2.44355761747229E-04 
1615	 4.28466457141448E-04 
1616	 4.29707857079482E-04 
1617	 2.85828688422211E-04 
1618	 1.87599600365308E-04 
1619	 1.42463073980615E-04 
1620	 4.16849001308812E-04 
1621	 6.88974718142624E-04 
1622	 5.29327893562275E-04 
1623	 3.70420801031586E-04 
1624	 4.77253159384206E-04 
1625	 6.06451210845718E-04 
1626	 4.13361309494525E-04 
1627	 2.21100939430566E-04 
1628	 4.54033842347179E-04 
1629	 6.21663926074812E-04 
1630	 7.00481146963349E-04 
1631	 8.35073912676361E-04 
1632	 6.27492744877064E-04 
1633	 3.27004220391834E-04 
1634	 3.77071877393966E-04 
1635	 5.99337288330929E-04 
1636	 6.71768305157065E-04 
1637	 5.89460158096389E-04 
1638	 5.08044779700629E-04 
1639	 4.36839364921614E-04 
1640	 3.86870588984517E-04 
1641	 4.47593954680789E-04 
1642	 6.13178798086718E-04 
1643	 6.86526873579488E-04 
1644	 6.67415101988715E-04 
1645	 7.17674859604666E-04 
1646	 5.918175044817E-04 
1647	 3.5545408339386E-04 
1648	 3.65374712385273E-04 
1649	 4.71793404280416E-04 
1650	 5.38315196670454E-04 
1651	 6.08753770588661E-04 
1652	 5.07868601095678E-04 
1653	 4.46346364690651E-04 
1654	 4.94577501298619E-04 
1655	 7.5580460359665E-04 
1656	 7.79801011203141E-04 
1657	 5.4124679840495E-04 
1658	 5.07872460929373E-04 
1659	 6.80956370056338E-04 
1660	 6.85824520432727E-04 
1661	 5.6909946532338E-04 
1662	 5.42260981949246E-04 
1663	 4.38395810262787E-04 
1664	 3.5287282727838E-04 
1665	 4.82749824645076E-04 
1666	 5.08563447681381E-04 
1667	 2.93137218440516E-04 
1668	 3.52596660002622E-04 
1669	 3.81684258722273E-04 
1670	 5.09902522861309E-04 
1671	 8.68111858390141E-04 
1672	 7.84778914311266E-04 
1673	 5.33356575349341E-04 
1674	 6.60685654462248E-04 
1675	 7.32113931599647E-04 
1676	 4.53448075773342E-04 
1677	 3.02605199029657E-04 
1678	 3.89288511779379E-04 
1679	 4.30511089878806E-04 
1680	 6.50492289098211E-04 
1681	 7.264104421814E-04 
1682	 4.89850694480253E-04 
1683	 3.8126425115353E-04 
1684	 3.94737106315985E-04 
1685	 4.95627165911649E-04 
1686	 6.17005254613113E-04 
1687	 4.12854653753499E-04 
1688	 1.94900849782087E-04 
1689	 4.35121491640515E-04 
1690	 4.24516080492328E-04 
1691	 2.63407789892796E-04 
1692	 5.02408806645757E-04 
1693	 4.93666857210869E-04 
1694	 3.57151322216115E-04 
1695	 5.47333733000335E-04 
1696	 5.55107002289422E-04 
1697	 5.87485280291853E-04 
1698	 1.00268175204058E-03 
1699	 1.15495586598223E-03 
1700	 9.64085422153816E-04 
1701	 7.48195447724599E-04 
1702	 6.94717514569612E-04 
1703	 7.49842794028794E-04 
1704	 8.16835629201181E-04 
1705	 8.95181976669279E-04 
1706	 5.88055240771227E-04 
1707	 2.2641795155668E-04 
1708	 2.21883339878369E-04 
1709	 1.91470310810363E-04 
1710	 3.70707789412564E-04 
1711	 6.47858318069105E-04 
1712	 4.59534312126008E-04 
1713	 3.69352481099212E-04 
1714	 4.28931636097772E-04 
1715	 5.57756934006953E-04 
1716	 5.72097795570376E-04 
1717	 4.55325754230526E-04 
1718	 2.38761909572943E-04 
1719	 1.36933043375026E-04 
1720	 4.33041455287918E-04 
1721	 5.85709048708437E-04 
1722	 4.70266204643565E-04 
1723	 8.19253433726431E-04 
1724	 8.12328133182317E-04 
1725	 3.68864851430752E-04 
1726	 5.31225930266162E-04 
1727	 5.04447832711727E-04 
1728	 3.93978467863759E-04 
1729	 8.69052856758625E-04 
1730	 6.37945411215431E-04 
1731	-5.8252188437184E-05 
1732	-1.7814012196568E-04 
1733	 4.9330388609375E-05 
1734	 5.84394550983264E-04 
1735	 9.80076400206011E-04 
1736	 7.5109259043962E-04 
1737	 1.82234776180511E-04 
1738	 5.05847300967467E-05 
1739	 3.51469535580489E-04 
1740	 4.09539856294534E-04 
1741	 3.89965662791157E-04 
1742	 5.52371475030234E-04 
1743	 3.7072534729058E-04 
1744	 3.78240599141389E-04 
1745	 1.09515753952282E-03 
1746	 9.65758613311738E-04 
1747	 7.87805739822365E-04 
1748	 9.12867343608841E-05 
1749	-3.07626787841774E-05 
1750	 5.60049696109381E-04 
1751	 6.94764962701366E-04 
1752	 1.18582180224828E-03 
1753	 1.30117660737026E-03 
1754	 2.42850523843172E-04 
1755	-1.20607283727506E-04 
1756	 4.96048092113112E-05 
1757	 7.89717482900688E-04 
1758	 1.47092493459886E-03 
1759	 1.51638836135923E-03 
1760	 7.13913097806381E-04 
1761	-2.19391331676673E-04 
1762	-6.52601433819401E-04 
1763	 4.90646845775411E-05 
1764	 7.2508792663975E-04 
1765	 5.92532036344752E-04 
1766	 5.44023748083237E-04 
1767	 4.32831775920831E-04 
1768	 5.93346893487301E-04 
1769	 1.3052438481159E-03 
1770	 1.44006614444903E-03 
1771	 6.68935665768663E-04 
1772	-1.76213854506884E-05 
1773	-4.09982382936841E-05 
1774	-3.37101631515248E-06 
1775	 4.64459755337325E-04 
1776	 8.66201145323282E-04 
1777	 9.75180791584956E-04 
1778	 8.2005506637528E-04 
1779	 8.28974490169987E-04 
1780	 5.31942156360464E-04 
1781	-6.09261244478514E-04 
1782	-7.39803444648006E-04 
1783	-3.98490902099797E-04 
1784	-4.52646454003692E-04 
1785	-2.25171143320241E-04 
1786	 3.22980872186623E-04 
1787	 1.18467204586306E-03 
1788	 1.16912823352552E-03 
1789	 9.85247035941577E-04 
1790	 6.95426389175885E-05 
1791	-2.64290092016755E-04 
1792	 5.09618876909637E-04 
1793	 1.11247105728618E-03 
1794	 4.4543583543094E-04 
1795	-3.41556300618999E-05 
1796	 6.66782796389877E-04 
1797	 1.36279533031473E-03 
1798	 1.5650932676073E-03 
1799	 2.10428426132376E-04 
1800	-2.97003964397382E-03 
1801	-4.7919091568446E-03 
1802	-3.50805363579105E-03 
1803	-2.73692081265018E-03 
1804	-2.66352754032604E-03 
1805	-8.04062976023196E-04 
1806	 6.13474095572762E-03 
1807	 6.13757871225074E-03 
1808	-3.20543190319809E-03 
1809	 1.00446621351804E-03 
1810	 9.73333478239663E-03 
1811	 1.63075442239922E-02 
1812	 5.56370407911324E-02 
1813	 5.24359239933878E-02 
1814	-2.28704897566029E-02 
1815	-4.25505611788336E-02 
1816	-6.25216757931927E-02 
1817	-1.18364719190698E-02 
1818	 2.37345054097209E-02 
1819	-3.00144068700636E-03 
1820	 4.41755511165657E-02 
1821	-8.23628122047211E-02 
1822	-0.104058893251178 
1823	-0.108927939404405 
1824	-0.073685592388643 
1825	 0.369796022639938 
1826	 0.699214595339312 
1827	 0.700695982953621 
1828	 0.612218924649638 
1829	 0.145270523755077 
1830	-3.97253862627071E-02 
1831	-4.81655947079985 
1832	-5.6116226247015 
1833	-2.92089656405129 
1834	-1.3214841387434 
1835	 1.00466188014691 
1836	 1.15605936499192 
1837	 0.248058084308007 
1838	 0.132044207009035 
1839	-0.148285763302988 
1840	-0.151897734917641 
1841	-0.118015962006283 
1842	-6.47298648406779 
1843	-0.784359330938162 
1844	-0.073082851422031 
1845	-0.100457921356019 
1846	-0.650952948609774 
1847	-1.02206012426739 
1848	 7.58752738326257 
1849	 1.52059297245782 
1850	 2.84236674082911 
1851	 0.130939847042616 
1852	-4.49212857786583E-02 
1853	 8.56015660572545E-02 
1854	 0.288573823884666 
1855	 0.558589464040573 
1856	 0.985905947935439 
1857	 202.595569491744 
1858	-4.04869572319535 
1859	-1.45818945640079 
1860	-0.940550069542435 
1861	-7.08540960149282E-02 
1862	 0.479488506949359 
1863	 0.271139997229519 
1864	 6.10051242910742E-02 
1865	 0.159844472769721 
1866	-3.87853888088443 
1867	-3.27570926140466 
1868	 0.858509799655839 
1869	-3.49020914325901 
1870	 0.322080445187278 
1871	 4.97363354362142E-03 
1872	-0.138387614253879 
1873	-0.178108623542935 
1874	-0.23868408329395 
1875	-0.082512684722124 
1876	-0.12674523847505 
1877	-5.06326839681044E-02 
1878	 6.90947920148725E-02 
1879	 0.30722156613153 
1880	-4.02831443807349E-02 
1881	 0.593793310730036 
1882	-0.113001963776056 
1883	-0.313531769081014 
1884	-0.973950552705713 
1885	-1.90643663013652 
1886	-4.84851818840966 
1887	 1.10892078240017 
1888	 1.04080051101952E-02 
1889	 0.09096451443065 
1890	 0.742712810925355 
1891	 0.587330124509193 
1892	 0.790647976229322 
1893	 1.04650873688944 
1894	 0.475750804429012 
1895	 0.425801044045335 
1896	-6.62760240157522 
1897	-0.169963241858768 
1898	-6.32560465716996 
1899	 4.72841122848282 
1900	 2.05990896584553 
1901	 1.417947534942 
1902	 1.1995398184072 
1903	 0.304361436461952 
1904	-0.618536179712675 
1905	 1.56209018363414 
1906	 1.18818880055966 
1907	 0.625665934061054 
1908	 0.650273114614943 
1909	-3.18634223542921E-02 
1910	 5.89168473784377E-02 
1911	 0.328406058475004 
1912	 0.513271043070125 
1913	 0.584362963902603 
1914	-0.884885113707034 
1915	-1.35997983102134 
1916	-0.610099708042183 
1917	-0.233737994466179 
1918	-0.307587040968462 
1919	-0.146438614281795 
1920	-8.34607513461093E-02 
1921	-0.895973068428869 
1922	 6.49136884874458E-03 
1923	 0.352290185268238 
1924	 0.618011537984781 
1925	 0.908277997885907 
1926	 0.75324837771682 
1927	 0.397260644454736 
1928	 0.198762446787042 
1929	 0.181997880642124 
1930	 6.85615432032731E-02 
1931	 3.48707876397659E-02 
1932	 4.25419628816415E-02 
1933	-0.013118628129194 
1934	-1.48237765035664E-02 
1935	 6.28430192577808E-03 
1936	-4.02591426574955E-03 
1937	-1.36889494157887E-02 
1938	-1.66449927472441E-02 
1939	-1.75105518764777E-02 
1940	-1.15791105155518E-02 
1941	-1.31903447537053E-02 
1942	-1.39452330063554E-02 
1943	-1.30206425966434E-02 
1944	-8.86347944743711E-03 
1945	 5.25002274056894E-03 
1946	 1.04945503313325E-02 
1947	 6.56842973833672E-03 
1948	 9.09545212540523E-03 
1949	 0.011767641809612 
1950	 7.3077524139256E-03 
1951	 1.05438970273732E-02 
1952	 1.19443479702913E-02 
1953	 0.01055798165162 
1954	 3.77018771771119E-03 
1955	 2.25505790119975E-03 
1956	 1.31912502032221E-04 
1957	-2.96745581753079E-03 
1958	-1.62959045962469E-03 
1959	 5.38369473052696E-03 
1960	 7.99441312267144E-03 
1961	 3.96069372326284E-03 
1962	-8.39157493698503E-04 
1963	-2.09389001926747E-03 
1964	-1.41817713386934E-03 
1965	 2.38981836724129E-04 
1966	 9.67256599149157E-04 
1967	 2.62839178626806E-03 
1968	 1.81075845995849E-03 
1969	 1.73252503986115E-03 
1970	 1.75073226918355E-03 
1971	 1.68676712012385E-03 
1972	 1.99545304487237E-03 
1973	 1.01425718145423E-03 
1974	 6.33563377241009E-04 
1975	 1.04808043919481E-03 
1976	 5.60092935647768E-04 
1977	 3.33677059761255E-04 
1978	 5.97789631616916E-04 
1979	 4.33036287725378E-04 
1980	-3.00021701758312E-05 
1981	 4.86710418998462E-05 
1982	-2.11668701334204E-04 
1983	-1.16300178596931E-03 
1984	-1.82048026308689E-03 
1985	-1.69973513439923E-03 
1986	-1.73123850864114E-04 
1987	 7.11734168749801E-04 
1988	 8.39417431568463E-04 
1989	 1.20514676234028E-03 
1990	 1.71768373019255E-04 
1991	-6.96132274842294E-04 
1992	-1.65843930462063E-04 
1993	 1.58292654465044E-04 
1994	 3.76474283649695E-04 
1995	 7.30342316913921E-04 
1996	 1.10582304114013E-03 
1997	 4.96509596973939E-04 
1998	-7.37714218154974E-04 
1999	-8.77881162042217E-04 
2000	-3.01480686234265E-04 
2001	-2.25144946771732E-04 
2002	 2.48254298071412E-03 
2003	 3.36105312014281E-03 
2004	-4.31130885813428E-05 
2005	-1.10252488711903E-04 
2006	-1.05236960828901E-03 
2007	-3.1404855402254E-03 
2008	-9.13795097555743E-04 
2009	-5.96057425643415E-04 
2010	-1.0005443593906E-03 
2011	-1.46661169056541E-03 
2012	-1.8083540250369E-03 
2013	-4.54585540981919E-03 
2014	-3.2131450164195E-03 
2015	-1.62818484928678E-03 
2016	-1.4822485085617E-03 
2017	-4.70563170861339E-05 
2018	-1.62620280344298E-03 
2019	-3.15022325334336E-03 
2020	-2.47114774559649E-03 
2021	-1.65189312334494E-03 
2022	-7.88099838750257E-04 
2023	-9.10994267926089E-05 
2024	 3.26762014829976E-04 
2025	 1.0227597176292E-04 
2026	 1.54645983322467E-04 
2027	 3.56471934522094E-04 
2028	 7.34921065145243E-04 
2029	 2.10743620559105E-04 
2030	 2.59316269293052E-04 
2031	 6.23845000839835E-04 
2032	 9.62587608632684E-05 
2033	-1.69176880955298E-04 
2034	-1.79775216736151E-04 
2035	-1.90799296356953E-04 
2036	 1.69463802204304E-04 
2037	 4.5926577333655E-04 
2038	 6.75372205527132E-04 
2039	 9.18470765830114E-04 
2040	 1.02666216519395E-03 
2041	 9.73234043110833E-04 
2042	 9.48008396153094E-04 
2043	 9.08807790668283E-04 
2044	 5.72968962130357E-04 
2045	 3.07186251869322E-04 
2046	 5.0722276227663E-04 
2047	 4.37547396825488E-04 
2048	 2.8053880021194E-04 
2049	 1.77247101893021E-04 
2050	-2.56135200925853E-05 
2051	 2.39924753912511E-04 
2052	 4.49349606481121E-04 
2053	-2.95031769309718E-04 
2054	-3.66897954911676E-04 
2055	 8.30374042448703E-04 
2056	 1.00306075268338E-03 
2057	 1.28039518723554E-03 
2058	 1.13420577199876E-03 
2059	-3.40408234394815E-04 
2060	-7.32533472285751E-04 
2061	-6.08227432779438E-04 
2062	-4.11463900633719E-04 
2063	-8.73302833607277E-04 
2064	-7.32353329815924E-04 
2065	-8.79442250615014E-04 
2066	-1.22759949286791E-03 
2067	-8.63927378629798E-04 
2068	-3.21320182105853E-04 
2069	-7.63864619827359E-04 
2070	-1.07182905685029E-03 
2071	 3.57322389063104E-04 
2072	 6.10789022248246E-04 
2073	 4.4588581318308E-04 
2074	-9.34723255469812E-05 
2075	 4.46947047372528E-05 
2076	-5.39386439044441E-05 
2077	-1.12039391214874E-04 
2078	 2.06876308518774E-04 
2079	 4.80089764709983E-04 
2080	 4.51310725888316E-04 
2081	 5.81810709054544E-04 
2082	 1.20759992892568E-03 
2083	 2.00424174991271E-03 
2084	 2.13847897537945E-03 
2085	 1.32777121778027E-03 
2086	 8.26675273604156E-04 
2087	 3.36928387353558E-04 
2088	 1.79995232405416E-04 
2089	 4.79196460429618E-04 
2090	 1.56203105244759E-04 
2091	 2.10513731970232E-04 
2092	 2.99809287964735E-04 
2093	 3.6371780530007E-04 
2094	 2.66981699964029E-04 
2095	 1.16985987681503E-04 
2096	 2.37701788729489E-04 
2097	 7.83833499890433E-04 
2098	 7.10025649076784E-04 
2099	 4.22241893640923E-04 
2100	 4.58561261470607E-04 
2101	 2.33210072470844E-04 
2102	-6.45424503468072E-04 
2103	-6.62870264357635E-04 
2104	-4.57886463461826E-04 
2105	-7.02347489403806E-04 
2106	-4.66170511160369E-04 
2107	 1.60579904011519E-05 
2108	-1.84625911656622E-04 
2109	-2.46863742378143E-04 
2110	-8.69054155615166E-05 
2111	-1.85449633079241E-04 
2112	 2.16688374969563E-05 
2113	 1.72530396168867E-04 
2114	 1.83331579992525E-04 
2115	 2.05595571525827E-04 
2116	 2.6466073306743E-04 
2117	 5.54546909240464E-04 
2118	 9.1760468117887E-04 
2119	 1.14608932865907E-03 
2120	 1.65272914320754E-03 
2121	 1.97733121782359E-03 
2122	 1.41362890796935E-03 
2123	 9.59465701966964E-04 
2124	 4.68168510728606E-04 
2125	-3.15726423080375E-04 
2126	-3.72552210263725E-04 
2127	-2.77235993736562E-04 
2128	-5.76439945071088E-04 
2129	-3.04594610064161E-04 
2130	-3.02355059195861E-04 
2131	-6.9478186076689E-04 
2132	-1.37557718008558E-04 
2133	 2.25531359355281E-04 
2134	 5.88194349269176E-04 
2135	 1.54217511199837E-03 
2136	 1.66057133286383E-03 
2137	 9.52713943145522E-04 
2138	 8.15574511983023E-04 
2139	 3.77283057366714E-04 
2140	 5.12667889752729E-04 
2141	 1.66304944094286E-03 
2142	 1.6842100226808E-03 
2143	 1.24644837266446E-03 
2144	 1.00549524538341E-03 
2145	 2.20947902117943E-04 
2146	 2.5604347281699E-06 
2147	 1.22871452811998E-03 
2148	 1.54879344266225E-03 
2149	 1.32222279501157E-03 
2150	 1.57441923816297E-03 
2151	 1.17913314954251E-03 
2152	 8.75673256990318E-04 
2153	 3.32435869808349E-04 
2154	 4.12614699252414E-04 
2155	 1.19979239953194E-03 
2156	 6.74019346353485E-04 
2157	 3.94513552002999E-04 
2158	 1.96290141765343E-04 
2159	 1.26458610764621E-04 
2160	-4.15679693905619E-04 
2161	-2.99481441283049E-04 
2162	 7.45054816091684E-04 
2163	 9.12055258652845E-04 
2164	 8.2948227598969E-04 
2165	 6.01099819940734E-04 
2166	-1.97223201522309E-04 
2167	-5.10431025533339E-04 
2168	-7.75973548513803E-04 
2169	-6.54489573061235E-04 
2170	 1.46834119966139E-04 
2171	 2.7626707723502E-04 
2172	-3.8715693498264E-05 
2173	-3.8716334613323E-04 
2174	 2.01722681819559E-04 
2175	 8.1033610616064E-04 
2176	 1.24733468826104E-03 
2177	 2.03676231275029E-03 
2178	 2.27296086594767E-03 
2179	 1.41558848234296E-03 
2180	 1.77593096226361E-03 
2181	 3.1564712510417E-03 
2182	 2.85076275784453E-03 
2183	 1.34720647204874E-03 
2184	 1.00374286685021E-03 
2185	 4.00260027067756E-04 
2186	-3.25704117427902E-04 
2187	-2.39582390356478E-04 
2188	 2.23284030853851E-04 
2189	-5.52626539376208E-05 
2190	 9.78541458291703E-05 
2191	 2.16823050602146E-03 
2192	 1.90165401991881E-03 
2193	-7.64189314318958E-04 
2194	-1.21120145382023E-03 
2195	-1.09398906832174E-03 
2196	-1.87461763365881E-03 
2197	-1.82252042660534E-03 
2198	-1.67646459674175E-03 
2199	-2.44058949035596E-03 
2200	-2.93114980722319E-03 
2201	-3.44357788426353E-03 
2202	-4.12070447270057E-03 
2203	-3.43271092453532E-03 
2204	-3.91660363974587E-03 
2205	-3.2845827382566E-03 
2206	-8.80194750105525E-04 
2207	-1.37263728033529E-03 
2208	-2.14563345699804E-03 
2209	-3.79454949005772E-04 
2210	 1.05917911688606E-04 
2211	-1.37370081138017E-03 
2212	-1.3870707261316E-03 
2213	-1.27241774973215E-03 
2214	-3.16042171478426E-03 
2215	-3.62663244775548E-03 
2216	-2.5666817030162E-03 
2217	-1.75522618018348E-03 
2218	-8.47880096968713E-04 
2219	-2.18564559866187E-04 
2220	 1.1486465624951E-03 
2221	 1.30966005454869E-03 
2222	-6.94328996809399E-04 
2223	-7.61841592439732E-04 
2224	 8.45369765276839E-04 
2225	 7.99939357750605E-04 
2226	 6.70882652328477E-04 
2227	 6.80421293327088E-04 
2228	-1.15745757181407E-03 
2229	-1.15364780140342E-03 
2230	 9.74169022699436E-04 
2231	 1.48285834902561E-03 
2232	 1.17302883361242E-03 
2233	 1.92947696460824E-03 
2234	 2.92949030245094E-03 
2235	 3.38773158861313E-03 
2236	 3.3411328455113E-03 
2237	 4.12245227660315E-03 
2238	 3.31643207272507E-03 
2239	 1.06874809027853E-03 
2240	 6.24843451494732E-04 
2241	 2.16892180680269E-04 
2242	-1.51245798104414E-03 
2243	-1.09130720965862E-03 
2244	 1.2656993990499E-03 
2245	 1.88339390229346E-03 
2246	 1.93102084750473E-03 
2247	 9.80606128034416E-04 
2248	-1.79976928455933E-03 
2249	-3.04444230127838E-03 
2250	-2.71905109069288E-03 
2251	-1.34496229647361E-03 
2252	-2.42255054881616E-04 
2253	-7.64023214188523E-04 
2254	-1.3771238666881E-03 
2255	-1.92259486532788E-03 
2256	-2.37489101595046E-03 
2257	-2.24101537299868E-03 
2258	-2.10318060499376E-03 
2259	-3.29621474989135E-03 
2260	-3.86269294023135E-03 
2261	-5.03072019954572E-03 
2262	-4.49834834390933E-03 
2263	-1.79909300750317E-03 
2264	-1.54298133766008E-03 
2265	-1.79812046417959E-03 
2266	-2.49852126897552E-03 
2267	-5.34032988926562E-03 
2268	-5.86180834554091E-03 
2269	-5.33282819220449E-03 
2270	-4.60775648565084E-03 
2271	-3.17374905217538E-03 
2272	-2.26447187949418E-03 
2273	-3.74169248684808E-04 
2274	 1.28559338590711E-04 
2275	-7.25602142026366E-04 
2276	-2.91983977636968E-04 
2277	 1.27068708974869E-04 
2278	-9.75908010047925E-06 
2279	 1.01459735511143E-03 
2280	 1.61829781630393E-03 
2281	 7.76317256415295E-04 
2282	 1.5552633054264E-04 
2283	 3.06916504347612E-03 
2284	 3.22896505710875E-03 
2285	 1.32063049096349E-03 
2286	 1.50136653707716E-03 
2287	 7.60578603339481E-04 
2288	-8.82772052108063E-04 
2289	-4.69720976246122E-04 
2290	 3.77552226520661E-04 
2291	 1.94820615444863E-03 
2292	 3.3851829659697E-03 
2293	 3.17269031319275E-03 
2294	 2.26672711091091E-03 
2295	-8.8957828458551E-04 
2296	-3.17760014213703E-03 
2297	-1.80656002934023E-03 
2298	 1.31975789090937E-03 
2299	 3.08900315984336E-03 
2300	 2.0996967897032E-03 
2301	 1.37044150091272E-03 
2302	 1.0568681369179E-04 
2303	-1.60552743350477E-03 
2304	-8.53323688845276E-04 
2305	 7.22875940900229E-04 
2306	-5.70266805697486E-04 
2307	-2.68097600206667E-03 
2308	-2.34271851464848E-03 
2309	-3.29240383765921E-03 
2310	-4.87398143628518E-03 
2311	-3.47898175363199E-03 
2312	-2.26106738399118E-03 
2313	-2.05777042445263E-03 
2314	-3.57320709296268E-03 
2315	-3.92762912017082E-03 
2316	-5.35323062749325E-04 
2317	-6.90871411349997E-04 
2318	-4.89242365977198E-03 
2319	-1.13132478926504E-02 
2320	-1.62128352261072E-02 
2321	-1.52941203361737E-02 
2322	-1.11107993981594E-02 
2323	-7.08505411319184E-03 
2324	-6.14532361035457E-03 
2325	-8.5593732486063E-03 
2326	-9.79921813233238E-03 
2327	-7.37278703526831E-03 
2328	-6.81532554629232E-03 
2329	-2.67014324605431E-03 
2330	 2.99147718794189E-03 
2331	-8.52761056938037E-04 
2332	-5.52453650862415E-03 
2333	-7.29253662623231E-03 
2334	-8.60519548636567E-03 
2335	-6.38048781576399E-03 
2336	-3.97753733667139E-03 
2337	-2.79832045886186E-03 
2338	-1.15509930359624E-04 
2339	 1.58618655020666E-03 
2340	 5.91642093695173E-03 
2341	 9.68788292208611E-03 
2342	 1.49931588790413E-03 
2343	-5.09958609457003E-03 
2344	 1.71245393762467E-04 
2345	 5.13477576175836E-03 
2346	 7.42525557285691E-03 
2347	 8.77693852538824E-03 
2348	 6.20881212689439E-03 
2349	 1.27574053194926E-03 
2350	-6.04021904657408E-03 
2351	-1.43599178213869E-02 
2352	-1.40576215397459E-02 
2353	-8.67015310471689E-03 
2354	-1.14860178601846E-02 
2355	-9.58904890308729E-03 
2356	-5.67163306031565E-03 
2357	-1.11623764246378E-02 
2358	-6.99428979701492E-03 
2359	-1.86817346212278E-03 
2360	-7.54851917429232E-03 
2361	-2.02737963803739E-03 
2362	 4.9747915150379E-03 
2363	 1.54232811574365E-03 
2364	 3.42112566737547E-03 
2365	-5.51034545467139E-04 
2366	-5.86300232157465E-03 
2367	-8.36272599920964E-04 
2368	-2.86209753138836E-03 
2369	-6.25945456315632E-03 
2370	-1.11587514637642E-02 
2371	-2.00065215100671E-02 
2372	-1.07969340521879E-02 
2373	-1.96132022987187E-03 
2374	-0.006226442816954 
2375	-2.60271685732249E-04 
2376	 7.70588559314816E-03 
2377	 7.25313256114964E-03 
2378	 3.7984178026628E-03 
2379	-1.39420738434403E-03 
2380	-0.011287628423023 
2381	-2.31838647764861E-02 
2382	-1.67542639744345E-02 
2383	-1.00060833904856E-03 
2384	 1.81299104967396E-03 
2385	 1.0824958716951E-03 
2386	-8.00736402830447E-03 
2387	-2.33998687474296E-02 
2388	-3.42624964372435E-02 
2389	-3.07493506318643E-02 
2390	-1.04498862042887E-02 
2391	-3.09740809986789E-03 
2392	-1.27174871797172E-02 
2393	-2.76152304742675E-02 
2394	-2.84680996404643E-02 
2395	-1.51083526788165E-02 
2396	-8.98743906688683E-03 
2397	 1.19594209881167E-02 
2398	 2.62116457684629E-02 
2399	 1.15373081331814E-02 
2400	 6.80471868129931E-03 
2401	-1.32379155222046E-03 
2402	-1.39024915255393E-02 
2403	-2.12950066554307E-03 
2404	 2.01590082222517E-02 
2405	 0.035605733114598 
2406	 1.93940015633502E-02 
2407	-2.27724757765273E-02 
2408	-2.67035275734062E-02 
2409	-4.47886098678059E-03 
2410	 3.61417623976789E-03 
2411	 2.43995844396292E-02 
2412	 5.58775747777706E-02 
2413	 3.64586114364212E-02 
2414	 1.08175933054845E-02 
2415	 3.07167065930126E-02 
2416	-1.14780462271248E-02 
2417	-5.77001759382498E-02 
2418	-2.26309871112095E-02 
2419	-2.00726382006898E-02 
2420	-3.23210313565402E-02 
2421	-5.81548311601452E-02 
2422	-0.092833710209982 
2423	-9.34044328742902E-02 
2424	-8.47162019257101E-02 
2425	-4.04576157347206E-02 
2426	-3.80263343391429E-02 
2427	-7.15148015008096E-02 
2428	-7.05642814357957E-02 
2429	-8.04126365986942E-02 
2430	-8.22897238691814E-02 
2431	-6.00351630925599E-02 
2432	-6.38713591735082E-02 
2433	-0.10925990437505 
2434	-0.1109927058834 
2435	-5.48754682184343E-02 
2436	-4.72665575712404E-02 
2437	-0.073088334713077 
2438	-5.60121987189114E-02 
2439	-5.42405935935568E-02 
2440	-5.48202501203434E-02 
2441	 3.91062137869265E-02 
2442	 8.09418056021076E-02 
2443	 3.73091776994814E-02 
2444	 7.19331991377874E-02 
2445	 8.01399700726901E-03 
2446	-0.133613069926552 
2447	-5.11220603990484E-02 
2448	-8.82751724080414E-02 
2449	-7.27352504202897E-03 
2450	 6.86150713689439E-02 
2451	-0.100681664945178 
2452	 6.65144958385841E-02 
2453	 0.321007284035085 
2454	 0.192011990841731 
2455	 6.06068245230793E-02 
2456	 5.60453358184656E-03 
2457	-9.86512661946744E-02 
2458	-0.1387508012524 
2459	-7.73629664863364E-02 
2460	-6.29487362753155E-02 
2461	-0.112480990540989 
2462	-9.04303028991757E-02 
2463	-0.126229261445161 
2464	-0.163844877937295 
2465	-2.31592059924313E-02 
2466	 0.111508759288224 
2467	 3.84322012267924E-02 
2468	-0.134064081594528 
2469	-0.371214638943046 
2470	-0.50207013103869 
2471	-0.361963724619338 
2472	-0.159549922677586 
2473	-7.03082281681609E-02 
2474	-4.02612787962072E-02 
2475	-0.290410173852099 
2476	-0.443847465663983 
2477	-0.212875495297858 
2478	-2.83060914216727E-02 
2479	 9.53143364137812E-02 
2480	 0.165607374626758 
2481	-0.199233749682889 
2482	-0.441464460353421 
2483	-0.434674111258503 
2484	-0.298424802113625 
2485	-4.39575038491427E-02 
2486	 4.48149645669193 
2487	-56.9769551190394 
2488	-2.54437439866022 
2489	-5.53202872904906 
2490	-16.5312595690533 
2491	-3.63560514141238 
2492	 2.9208631674669 
2493	 1.2282139065987 
2494	-1.18499891271376 
2495	-0.312457845856671 
2496	-0.98410455538607 
2497	-1.4789474070005 
2498	-1.75852593842051 
2499	-38.7847430929202 
2500	 1.10367741079327 
