Wavelength	rt0715far00000.asd
350	 1.44344120222455E-02 
351	 1.44445193525719E-02 
352	 1.42485942649284E-02 
353	 1.41487195624407E-02 
354	 0.01429675469049 
355	 1.44042926015012E-02 
356	 1.45291599869817E-02 
357	 1.45693114963229E-02 
358	 0.01445921996476 
359	 1.44003649099083E-02 
360	 1.46881621190764E-02 
361	 1.49738224732654E-02 
362	 1.46368311688212E-02 
363	 1.49599765350727E-02 
364	 1.48316776786281E-02 
365	 0.014179724126318 
366	 1.49024975374093E-02 
367	 1.51360724514417E-02 
368	 0.015104311954343 
369	 1.53196745704572E-02 
370	 1.52764942840993E-02 
371	 0.015360549059407 
372	 1.55100192461287E-02 
373	 1.54947782214892E-02 
374	 0.016123396879405 
375	 1.62395066213424E-02 
376	 1.57901438388855E-02 
377	 1.64227086086438E-02 
378	 1.66500775735429E-02 
379	 1.64367073543422E-02 
380	 1.62305538880799E-02 
381	 0.016890094916874 
382	 0.016952349113341 
383	 1.67378593001559E-02 
384	 1.72276207975176E-02 
385	 1.74015329413194E-02 
386	 1.73949199125018E-02 
387	 0.017463942508217 
388	 1.78631849828795E-02 
389	 0.018259096748797 
390	 1.83982617128514E-02 
391	 1.82791841985994E-02 
392	 0.01840785525018 
393	 1.84736280952494E-02 
394	 0.018691352690386 
395	 1.92486267906678E-02 
396	 1.92004708977507E-02 
397	 1.93536721371129E-02 
398	 1.97289200268426E-02 
399	 1.96475626196435E-02 
400	 1.97097781756944E-02 
401	 1.98372664590321E-02 
402	 1.99103095883433E-02 
403	 1.99451853781186E-02 
404	 2.00973736776491E-02 
405	 2.02802792354097E-02 
406	 2.03735696056171E-02 
407	 0.02063757361399 
408	 2.08684052667668E-02 
409	 2.10177953247647E-02 
410	 2.12088290049034E-02 
411	 2.12983353397097E-02 
412	 2.13398113371669E-02 
413	 2.14272669164506E-02 
414	 0.021691786930134 
415	 2.17752509293084E-02 
416	 0.021857562046012 
417	 2.22302342876908E-02 
418	 2.24221623659663E-02 
419	 2.25829099243201E-02 
420	 2.27718075893922E-02 
421	 2.29097395813275E-02 
422	 2.31581391046747E-02 
423	 2.34299242201407E-02 
424	 2.36502483290758E-02 
425	 2.39333443524312E-02 
426	 2.41750656381594E-02 
427	 2.43926039695259E-02 
428	 2.46481637823505E-02 
429	 2.48555548939992E-02 
430	 2.51938029858188E-02 
431	 2.56155126798444E-02 
432	 0.025796450246882 
433	 2.60390536637017E-02 
434	 2.63114356924367E-02 
435	 2.65528710939529E-02 
436	 2.68473553885459E-02 
437	 2.71369067343509E-02 
438	 2.74145827373879E-02 
439	 0.027700754129657 
440	 0.027999432443458 
441	 2.82907681756855E-02 
442	 2.85653179594913E-02 
443	 2.88335169819337E-02 
444	 2.90509329492201E-02 
445	 2.92920785555955E-02 
446	 2.96156899611707E-02 
447	 2.99062642925448E-02 
448	 3.01332032230784E-02 
449	 3.03272489863105E-02 
450	 3.05584564525592E-02 
451	 3.07793297666517E-02 
452	 3.09717399590785E-02 
453	 3.11515901901512E-02 
454	 3.13963687489941E-02 
455	 3.16331437440808E-02 
456	 3.17982505250071E-02 
457	 3.18788823817524E-02 
458	 3.20961327776969E-02 
459	 3.22921220207594E-02 
460	 3.24295328548403E-02 
461	 3.26064329882199E-02 
462	 3.27534843713963E-02 
463	 3.28933168671151E-02 
464	 3.30462636604359E-02 
465	 3.31740698520663E-02 
466	 3.33093705609862E-02 
467	 3.35290109447668E-02 
468	 3.38684184246292E-02 
469	 0.033906237980242 
470	 3.40185297640645E-02 
471	 0.034320334843834 
472	 3.44856311509705E-02 
473	 3.45611279399009E-02 
474	 3.46618684741775E-02 
475	 3.48749693421574E-02 
476	 3.51077752214238E-02 
477	 3.53115039921639E-02 
478	 3.54801542709764E-02 
479	 3.56449706282701E-02 
480	 3.58655172558603E-02 
481	 3.61090064331777E-02 
482	 3.63443892123015E-02 
483	 3.65709581856672E-02 
484	 3.67716139871332E-02 
485	 3.69989500433879E-02 
486	 3.72962580231611E-02 
487	 3.75045961516285E-02 
488	 3.77876435006067E-02 
489	 3.81555866918447E-02 
490	 3.84612972670514E-02 
491	 3.87135982118782E-02 
492	 3.89343819081125E-02 
493	 3.91597648262546E-02 
494	 3.94506201565561E-02 
495	 3.97707212927744E-02 
496	 4.01039725341522E-02 
497	 4.04424029444648E-02 
498	 0.040759419815646 
499	 0.041071088564131 
500	 4.14155047354934E-02 
501	 4.18604537309835E-02 
502	 0.04219658630378 
503	 4.24676892016051E-02 
504	 4.27741121607866E-02 
505	 4.31062700356204E-02 
506	 4.34370307754806E-02 
507	 4.37804507832241E-02 
508	 4.41723999543553E-02 
509	 0.044446626700773 
510	 4.47373978597786E-02 
511	 4.51358857260893E-02 
512	 4.55281445811229E-02 
513	 4.58991415662438E-02 
514	 4.62468047896519E-02 
515	 4.65866199838392E-02 
516	 4.69797763610229E-02 
517	 0.047423158033607 
518	 4.78825706514376E-02 
519	 4.82993761196889E-02 
520	 4.87322686186798E-02 
521	 4.91792554636772E-02 
522	 4.96238972221916E-02 
523	 5.00419953104756E-02 
524	 5.04464795838449E-02 
525	 5.08571049574631E-02 
526	 5.12982640479078E-02 
527	 5.17678414835316E-02 
528	 5.22467014834672E-02 
529	 0.052705872206097 
530	 5.30910438174964E-02 
531	 5.35529974733027E-02 
532	 5.40641250628553E-02 
533	 5.45300040666408E-02 
534	 5.49158445969455E-02 
535	 0.055372253273896 
536	 5.59111450018504E-02 
537	 5.63756832481803E-02 
538	 5.68611605686518E-02 
539	 5.73437545650736E-02 
540	 5.78010161215833E-02 
541	 5.82997081244417E-02 
542	 5.88242172956037E-02 
543	 5.93168972101771E-02 
544	 5.97182838533964E-02 
545	 6.02150724229974E-02 
546	 6.07481027968151E-02 
547	 6.12430162377298E-02 
548	 0.061655694338398 
549	 6.21030690604343E-02 
550	 6.25860752831971E-02 
551	 6.30648494122903E-02 
552	 6.35298746146337E-02 
553	 6.39998007368254E-02 
554	 6.44635884148187E-02 
555	 6.48758028520585E-02 
556	 6.54636354805712E-02 
557	 6.59894528292607E-02 
558	 0.066279193341422 
559	 6.67609105000294E-02 
560	 0.067223707309776 
561	 6.76108862833184E-02 
562	 6.79723992307863E-02 
563	 6.83793068547941E-02 
564	 6.87754486014548E-02 
565	 0.069124666365041 
566	 6.94649211216496E-02 
567	 6.97988882772592E-02 
568	 7.01180537630761E-02 
569	 7.04068775061976E-02 
570	 0.070648033721631 
571	 7.08981645415048E-02 
572	 7.11436798548579E-02 
573	 0.071295603225299 
574	 7.15171220492934E-02 
575	 7.17221160062536E-02 
576	 7.18298854776682E-02 
577	 7.19767431552263E-02 
578	 7.20857110479303E-02 
579	 7.21761128153293E-02 
580	 7.23112306511114E-02 
581	 7.23745073467158E-02 
582	 7.23710589820199E-02 
583	 7.23441591893004E-02 
584	 7.23821845318202E-02 
585	 7.23633568569468E-02 
586	 7.22754688040331E-02 
587	 7.21564734411419E-02 
588	 7.20934353286786E-02 
589	 7.19854816605322E-02 
590	 7.17944482451356E-02 
591	 7.15582008964354E-02 
592	 7.14228569458355E-02 
593	 7.12221051871886E-02 
594	 7.08301754752065E-02 
595	 0.070441743391779 
596	 6.99695179398695E-02 
597	 6.94130583617534E-02 
598	 6.88264163774006E-02 
599	 6.82355325537688E-02 
600	 6.77366914341156E-02 
601	 6.73778790745789E-02 
602	 6.71138624802565E-02 
603	 6.68959598221134E-02 
604	 6.67557154078341E-02 
605	 6.67339750301393E-02 
606	 6.67551995171383E-02 
607	 6.68328340170875E-02 
608	 6.68919738890473E-02 
609	 6.67802448176722E-02 
610	 6.68872044102446E-02 
611	 0.066996073988721 
612	 6.69300213176244E-02 
613	 6.70295641723949E-02 
614	 6.70701598023681E-02 
615	 6.70345948768035E-02 
616	 6.70236395877517E-02 
617	 6.70723537344488E-02 
618	 6.71024486225515E-02 
619	 6.71049012281984E-02 
620	 6.72093808278087E-02 
621	 6.71844394544596E-02 
622	 6.71037936080383E-02 
623	 6.71027174674964E-02 
624	 6.70787034704465E-02 
625	 6.70827980816695E-02 
626	 6.71124923831438E-02 
627	 6.71108346839385E-02 
628	 6.70492873874704E-02 
629	 6.70453224077463E-02 
630	 6.71349559692525E-02 
631	 6.70651023933646E-02 
632	 0.067012435442434 
633	 6.70377456803383E-02 
634	 6.71150247813563E-02 
635	 6.70055587005619E-02 
636	 6.69245753272632E-02 
637	 6.69492762722966E-02 
638	 6.68974750809545E-02 
639	 6.68639742607034E-02 
640	 6.68165986522077E-02 
641	 6.67276488155078E-02 
642	 6.67346968414402E-02 
643	 6.66689032781721E-02 
644	 0.066529790108257 
645	 0.066453853363491 
646	 6.63884051856562E-02 
647	 6.62781439875496E-02 
648	 6.61372850844788E-02 
649	 6.61666090534324E-02 
650	 6.60265604233334E-02 
651	 6.57690547597569E-02 
652	 6.55655284709316E-02 
653	 0.065234507336255 
654	 6.48210102407241E-02 
655	 6.43665673346419E-02 
656	 6.39482386705336E-02 
657	 6.35408046210646E-02 
658	 6.31779865718681E-02 
659	 6.28782023151177E-02 
660	 6.26295692376588E-02 
661	 6.23263675737257E-02 
662	 6.20488195981751E-02 
663	 6.19731794829844E-02 
664	 6.19093938184612E-02 
665	 0.061779580630124 
666	 6.15965193047418E-02 
667	 0.061507467497531 
668	 6.14009080376453E-02 
669	 0.061332538886442 
670	 6.13585229409386E-02 
671	 6.12528855197644E-02 
672	 6.12316973627299E-02 
673	 6.12861548614901E-02 
674	 6.11941579699178E-02 
675	 0.061143478183515 
676	 6.11416590017785E-02 
677	 6.11603244146673E-02 
678	 6.11681456214191E-02 
679	 6.12012627750123E-02 
680	 6.12674037130012E-02 
681	 6.13448972914515E-02 
682	 0.061303858138443 
683	 6.13348378090579E-02 
684	 6.14735471556533E-02 
685	 6.15230769760304E-02 
686	 6.14391986146719E-02 
687	 6.13337321478149E-02 
688	 6.13141944299209E-02 
689	 6.12101071735371E-02 
690	 6.11363788980671E-02 
691	 6.10185502767689E-02 
692	 6.06973924360276E-02 
693	 6.04314791753457E-02 
694	 6.01463611877456E-02 
695	 5.97721720765812E-02 
696	 5.92916841239845E-02 
697	 5.87063658441606E-02 
698	 5.81382038504603E-02 
699	 5.76831992228018E-02 
700	 5.69768190976762E-02 
701	 5.63291250025484E-02 
702	 0.05574354859242 
703	 5.49571592759038E-02 
704	 5.41644564981531E-02 
705	 5.33689299623476E-02 
706	 5.25435222678984E-02 
707	 5.16228734767991E-02 
708	 5.05769516797139E-02 
709	 4.95089891452021E-02 
710	 4.84998431822362E-02 
711	 4.72330493484249E-02 
712	 4.58698972535771E-02 
713	 4.45222963453629E-02 
714	 4.31854125291114E-02 
715	 4.19504182781108E-02 
716	 4.05634789462814E-02 
717	 3.89034498786296E-02 
718	 3.74223115945285E-02 
719	 3.59560327089842E-02 
720	 3.46084163704251E-02 
721	 3.33185666549624E-02 
722	 3.19514533267339E-02 
723	 3.05939727499942E-02 
724	 2.92848631031115E-02 
725	 2.76263874725508E-02 
726	 2.61987503858736E-02 
727	 2.47810665666243E-02 
728	 2.31483326671054E-02 
729	 2.15138795216427E-02 
730	 1.98972973226726E-02 
731	 1.84184843294136E-02 
732	 1.71625094011617E-02 
733	 1.61403596303552E-02 
734	 1.52720029701443E-02 
735	 1.45340240813609E-02 
736	 1.39662854536262E-02 
737	 1.35200794456409E-02 
738	 1.31591315547158E-02 
739	 1.28864182605555E-02 
740	 1.28114641257932E-02 
741	 1.26430246238539E-02 
742	 1.24455868005754E-02 
743	 1.24377941435365E-02 
744	 1.23926415724763E-02 
745	 0.012358415826172 
746	 1.23223929397117E-02 
747	 1.21540524427587E-02 
748	 1.21705735408358E-02 
749	 1.22608458238764E-02 
750	 0.012254719107052 
751	 1.21789703313556E-02 
752	 0.012134629597286 
753	 1.21306685919356E-02 
754	 1.21224755200949E-02 
755	 1.21093588388467E-02 
756	 1.21383952135138E-02 
757	 1.21749168874658E-02 
758	 1.20202024409859E-02 
759	 1.20974112936505E-02 
760	 1.23602337089091E-02 
761	 0.012311933353579 
762	 1.21418640757123E-02 
763	 1.22082789571615E-02 
764	 1.23512263578309E-02 
765	 1.23303455578539E-02 
766	 1.23349726412447E-02 
767	 1.24173340273889E-02 
768	 1.25566996980846E-02 
769	 1.26668698412352E-02 
770	 1.26511169582611E-02 
771	 1.26549238273995E-02 
772	 1.27931251869193E-02 
773	 1.29647845321662E-02 
774	 1.31112577963831E-02 
775	 1.32317421547154E-02 
776	 1.33595662799874E-02 
777	 1.35130258009376E-02 
778	 1.37075278861473E-02 
779	 1.38874425857492E-02 
780	 1.39470436997532E-02 
781	 1.41716451166537E-02 
782	 1.43568885633984E-02 
783	 1.44093932109904E-02 
784	 1.46975828455142E-02 
785	 1.49077749246262E-02 
786	 1.50904905876075E-02 
787	 1.53777782684532E-02 
788	 1.56254755127648E-02 
789	 1.58920769792918E-02 
790	 1.62133936057157E-02 
791	 1.65736975521942E-02 
792	 1.66504221693668E-02 
793	 1.67578459517179E-02 
794	 1.70721171212491E-02 
795	 1.73955503713711E-02 
796	 0.017623149658541 
797	 1.78236470119465E-02 
798	 0.018084942578935 
799	 1.83431414278292E-02 
800	 1.85746521979322E-02 
801	 0.018763995122037 
802	 1.89131963152236E-02 
803	 1.90656544625752E-02 
804	 1.92287404363947E-02 
805	 1.93460711467543E-02 
806	 1.93102963455482E-02 
807	 1.93469405522505E-02 
808	 1.94234828779249E-02 
809	 1.94370772873777E-02 
810	 1.92316142743607E-02 
811	 1.91609564802557E-02 
812	 1.91339609804269E-02 
813	 1.89051940922739E-02 
814	 1.85257973369007E-02 
815	 1.82543031858183E-02 
816	 1.80660983607303E-02 
817	 1.77216981040471E-02 
818	 1.74396643168707E-02 
819	 1.70665371726956E-02 
820	 1.66059945283394E-02 
821	 1.63241256337893E-02 
822	 1.55131162887897E-02 
823	 1.45885176153071E-02 
824	 1.39559282544751E-02 
825	 1.32114136958725E-02 
826	 1.23612674414374E-02 
827	 1.14505841876163E-02 
828	 1.05994115097598E-02 
829	 9.85658500464841E-03 
830	 9.08758529753222E-03 
831	 8.45987697424279E-03 
832	 8.28299271109473E-03 
833	 7.74198327996904E-03 
834	 7.44299930623204E-03 
835	 7.45863207449483E-03 
836	 6.96730320853586E-03 
837	 6.90373478810704E-03 
838	 6.96941490332284E-03 
839	 6.78616019656146E-03 
840	 6.47344648398472E-03 
841	 6.29709519368462E-03 
842	 6.26117540042959E-03 
843	 6.25365072160637E-03 
844	 6.22301593820877E-03 
845	 6.05036227486463E-03 
846	 5.79278134002747E-03 
847	 5.63316662130857E-03 
848	 5.67435119875349E-03 
849	 5.74542251445932E-03 
850	 5.70544320309361E-03 
851	 5.51643694179581E-03 
852	 5.43421101746673E-03 
853	 5.37160145250612E-03 
854	 5.26230957064472E-03 
855	 5.24625737089113E-03 
856	 5.2476124526366E-03 
857	 5.05455338557047E-03 
858	 4.68230911963548E-03 
859	 5.12338030807166E-03 
860	 4.96090031019599E-03 
861	 4.55591017840482E-03 
862	 4.90708930955758E-03 
863	 4.75726503790762E-03 
864	 4.68256897050818E-03 
865	 4.72906845620811E-03 
866	 4.42873940490086E-03 
867	 4.33259789418433E-03 
868	 4.26967268680167E-03 
869	 4.18792732036138E-03 
870	 4.30543624654937E-03 
871	 4.14605280412337E-03 
872	 3.98889524588665E-03 
873	 4.06590902132015E-03 
874	 4.13956963286102E-03 
875	 4.01184258426498E-03 
876	 3.83055281210505E-03 
877	 3.77457818699518E-03 
878	 3.67259260192212E-03 
879	 3.60880076638167E-03 
880	 3.58880624299204E-03 
881	 3.5282813103155E-03 
882	 3.04721128997035E-03 
883	 3.0655784131947E-03 
884	 3.39565208107826E-03 
885	 3.11786195515108E-03 
886	 3.06122343483178E-03 
887	 3.02982409164272E-03 
888	 2.9565807974865E-03 
889	 3.02291299063662E-03 
890	 3.04099285839793E-03 
891	 3.02636657873585E-03 
892	 2.96992678736297E-03 
893	 2.75595145814445E-03 
894	 2.9627955573145E-03 
895	 2.92888412775954E-03 
896	 2.25245717099782E-03 
897	 2.36806330860434E-03 
898	 2.86824290075712E-03 
899	 3.01860767294056E-03 
900	 2.4584949686775E-03 
901	 2.34888121918557E-03 
902	 2.45060356538292E-03 
903	 2.39145765675353E-03 
904	 2.02833134280427E-03 
905	 2.6339222988529E-03 
906	 2.58836767370593E-03 
907	 2.00269272627762E-03 
908	 2.11613455547217E-03 
909	 1.99874094983701E-03 
910	 2.13261892065021E-03 
911	 2.46934045092633E-03 
912	 2.43677085526198E-03 
913	 2.06632480183108E-03 
914	 1.66007573852747E-03 
915	 1.50768562386987E-03 
916	 1.7519405604856E-03 
917	 2.04017947727965E-03 
918	 1.87234560830487E-03 
919	 1.40040118272292E-03 
920	 1.58162109688921E-03 
921	 1.75493715367696E-03 
922	 1.54796044367912E-03 
923	 1.03862680119268E-03 
924	 1.08864646707993E-03 
925	 1.04365781644847E-03 
926	 8.03743284948342E-04 
927	 7.1351230727218E-04 
928	 2.17215679970104E-03 
929	 1.8724693941635E-03 
930	 6.36074343623707E-04 
931	 9.74167251463192E-04 
932	 2.25723407541834E-04 
933	 6.4138653989978E-04 
934	 2.23589055068553E-03 
935	 3.15467543729612E-03 
936	 6.90200002495212E-04 
937	 1.2224405014731E-03 
938	 2.36809026100788E-03 
939	 5.24923413261488E-04 
940	-1.04925586759462E-03 
941	-8.81683354997462E-05 
942	 9.67629352024724E-04 
943	-1.23897085965971E-03 
944	-1.28851402102871E-04 
945	 1.52330701513634E-03 
946	 1.30034219786836E-03 
947	-1.25612851420132E-03 
948	-7.89018877559342E-04 
949	 6.51110865864027E-04 
950	 1.2039885809273E-03 
951	 9.36150650400132E-05 
952	-3.82668778951792E-04 
953	 1.0339282317375E-04 
954	 4.63911947666047E-04 
955	-4.99570871800316E-04 
956	 1.17089895594104E-03 
957	 2.35646534223301E-03 
958	 1.4780091021455E-03 
959	-6.38178914061212E-04 
960	 1.34423959611837E-03 
961	 1.40279742153851E-03 
962	-2.74898447880319E-04 
963	 8.9842847057782E-04 
964	 2.90459688453363E-04 
965	 6.62294184783496E-04 
966	 1.58268324702352E-03 
967	 3.49983459901987E-04 
968	-8.24128577992169E-05 
969	-2.24959086425845E-04 
970	-3.3806206883243E-05 
971	 9.92713234814305E-04 
972	 4.15557315072765E-04 
973	 8.44097630479858E-05 
974	 3.57882450495181E-04 
975	-1.39099140855274E-04 
976	-4.4712025481403E-04 
977	 9.23399558033462E-04 
978	 2.08146829120259E-03 
979	-5.57665267262948E-04 
980	-6.37277157083219E-04 
981	 1.91162935657937E-04 
982	 3.81903673563249E-04 
983	-3.5670941111058E-04 
984	 2.31736813689449E-04 
985	 1.13245541320379E-03 
986	 1.59150511374591E-03 
987	 1.48035294667033E-03 
988	 1.2661253739935E-03 
989	 4.77605166419047E-04 
990	-4.25837624124813E-04 
991	-2.84176258006082E-04 
992	 1.55226241438963E-03 
993	 2.04079562314021E-03 
994	 7.6836449711381E-04 
995	-3.6070527114938E-04 
996	 5.51985449092217E-04 
997	 4.83272777700234E-05 
998	-7.45710087378631E-04 
999	 1.12517659948776E-03 
1000	 5.66606304400017E-04 
1001	 7.03358420410385E-04 
1002	 7.34199522956978E-04 
1003	 7.44420127415043E-04 
1004	 7.70906175320714E-04 
1005	 8.70537209563246E-04 
1006	 1.00303891674458E-03 
1007	 1.04786115618676E-03 
1008	 1.21842841819411E-03 
1009	 1.11672212749802E-03 
1010	 1.31553966081878E-03 
1011	 1.43697196319373E-03 
1012	 1.18893250077752E-03 
1013	 1.16618814856555E-03 
1014	 1.15770876681752E-03 
1015	 1.02345297189671E-03 
1016	 9.36227056599573E-04 
1017	 1.13241379687072E-03 
1018	 9.9517197470039E-04 
1019	 3.46463115559976E-04 
1020	 2.06919511305274E-04 
1021	 1.67244798455938E-04 
1022	 4.12291816859116E-04 
1023	 4.66748100319697E-04 
1024	 6.96852487266352E-04 
1025	 9.33596777779821E-04 
1026	 7.90865409471094E-04 
1027	 8.99022881532642E-04 
1028	 1.34984536078461E-03 
1029	 1.26022545454106E-03 
1030	 8.33884886852881E-04 
1031	 6.99710101870847E-04 
1032	 2.88832551938834E-04 
1033	 2.7450556183194E-04 
1034	 7.5631527618661E-04 
1035	 9.09679160604403E-04 
1036	 1.05689694692921E-03 
1037	 1.16705502078691E-03 
1038	 1.17893545828703E-03 
1039	 1.07707511167113E-03 
1040	 1.22389286363379E-03 
1041	 1.29964231066412E-03 
1042	 1.34314899251943E-03 
1043	 1.44331222193939E-03 
1044	 1.40281779343634E-03 
1045	 1.23521655957851E-03 
1046	 1.12086248723923E-03 
1047	 8.66308448094751E-04 
1048	 8.48517918290486E-04 
1049	 1.03560018026064E-03 
1050	 1.0250208955515E-03 
1051	 9.47099874634102E-04 
1052	 1.02469742975928E-03 
1053	 1.10773466438182E-03 
1054	 1.14890438541991E-03 
1055	 0.001456973781258 
1056	 1.55553407097535E-03 
1057	 1.52446993828442E-03 
1058	 1.21648446325908E-03 
1059	 1.13491291867007E-03 
1060	 1.04316418924455E-03 
1061	 9.94261709082425E-04 
1062	 9.85840374240949E-04 
1063	 1.03436040011732E-03 
1064	 1.21060177625432E-03 
1065	 1.20016302568921E-03 
1066	 1.10497768564197E-03 
1067	 1.10846849692045E-03 
1068	 9.83462674489042E-04 
1069	 9.85840558925103E-04 
1070	 1.35251460543936E-03 
1071	 1.37866888706212E-03 
1072	 1.23925225218041E-03 
1073	 9.7827142395177E-04 
1074	 9.16719976789728E-04 
1075	 7.17991568985127E-04 
1076	 7.79418987834405E-04 
1077	 1.1521233131569E-03 
1078	 1.29980657255465E-03 
1079	 1.48052015299757E-03 
1080	 1.47388598383221E-03 
1081	 1.36140072389924E-03 
1082	 1.23358214032942E-03 
1083	 8.45580446538653E-04 
1084	 7.36928671884651E-04 
1085	 7.97537753227236E-04 
1086	 7.5376337249415E-04 
1087	 8.66715150117463E-04 
1088	 8.18168398327236E-04 
1089	 4.61790011577506E-04 
1090	 3.81477078962416E-04 
1091	 2.97482891317637E-04 
1092	 1.02899853198761E-04 
1093	 2.95954001196604E-04 
1094	 1.02257718892046E-03 
1095	 1.05622482350293E-03 
1096	 9.2360230577717E-04 
1097	 8.63925257079402E-04 
1098	 2.22140282918825E-04 
1099	 1.04377897283287E-04 
1100	 6.72216707327142E-04 
1101	 7.68612668005176E-04 
1102	 6.56120199866474E-04 
1103	 6.06636748783897E-04 
1104	 2.91635009048642E-04 
1105	 1.59623936213718E-04 
1106	 4.84514156510558E-04 
1107	 6.70229197163854E-04 
1108	 6.8456979228533E-04 
1109	 6.42422537181523E-04 
1110	 5.21530541138047E-04 
1111	-8.7325138018867E-05 
1112	-1.58484125255485E-04 
1113	 2.52018562625261E-04 
1114	 2.75145362027286E-04 
1115	 3.96897217874298E-04 
1116	 1.86055103691963E-04 
1117	-6.86495706808338E-04 
1118	-1.04725237156839E-03 
1119	-1.44247264951277E-03 
1120	-1.70394784737415E-03 
1121	-8.25018608395698E-04 
1122	-1.67296268609735E-03 
1123	-2.03227292349523E-03 
1124	-3.19922560564253E-04 
1125	-3.45927473289821E-04 
1126	-6.91402325319844E-04 
1127	-4.6527762995824E-04 
1128	-9.38068210140536E-04 
1129	-6.14700342087996E-04 
1130	 1.35699106108492E-03 
1131	 1.35969455403204E-03 
1132	-1.50133884066718E-04 
1133	 8.34418459733465E-05 
1134	 8.44479550740089E-04 
1135	 8.73369468071987E-04 
1136	 1.56540641047533E-03 
1137	 1.69028589308071E-03 
1138	 8.6648627826602E-04 
1139	 2.91652790867518E-04 
1140	 1.12678211612826E-03 
1141	 1.42776272326433E-03 
1142	 1.7508758853441E-03 
1143	 1.22842340737452E-03 
1144	-2.97548167126343E-04 
1145	-4.49790360818508E-04 
1146	-3.67629565648007E-05 
1147	 5.35379427592656E-04 
1148	 1.62111717451266E-03 
1149	 1.50108096862071E-03 
1150	 1.43457363332925E-03 
1151	 9.78430634606859E-04 
1152	 9.22041453352648E-04 
1153	 9.44167342189377E-04 
1154	 7.14789558708874E-04 
1155	 3.50098725759978E-04 
1156	 2.32439178408432E-04 
1157	 4.78648134175324E-05 
1158	 2.73165937437237E-04 
1159	 9.68255524415867E-04 
1160	 1.09813159015957E-03 
1161	 8.9915805893271E-04 
1162	 7.95046615528187E-04 
1163	 8.83706917582636E-04 
1164	 1.00906386454788E-03 
1165	 1.00983190120674E-03 
1166	 1.15399587522938E-03 
1167	 1.0650414507469E-03 
1168	 7.20557177090826E-04 
1169	 7.2896733341924E-04 
1170	 6.70064092546361E-04 
1171	 6.6047556103214E-04 
1172	 8.11507337288555E-04 
1173	 8.58060276186408E-04 
1174	 8.37734556133071E-04 
1175	 8.46653876336407E-04 
1176	 8.45289648558787E-04 
1177	 5.63499717284292E-04 
1178	 5.21219893359101E-04 
1179	 6.58673604831024E-04 
1180	 4.40662691211797E-04 
1181	 3.50013932595359E-04 
1182	 4.68336324103923E-04 
1183	 3.31537590266343E-04 
1184	 4.50173265393527E-04 
1185	 7.89991138246414E-04 
1186	 7.49721438479205E-04 
1187	 6.50967943810469E-04 
1188	 7.87314430121358E-04 
1189	 7.56792472084974E-04 
1190	 5.42206845726296E-04 
1191	 5.6447413706446E-04 
1192	 6.09517526351528E-04 
1193	 6.37733728306289E-04 
1194	 6.58901282157308E-04 
1195	 7.85351198386818E-04 
1196	 6.93031765189005E-04 
1197	 4.57849328345007E-04 
1198	 3.98423100325616E-04 
1199	 4.70608756130157E-04 
1200	 4.13353233629002E-04 
1201	 3.86230800827293E-04 
1202	 4.52520967382445E-04 
1203	 3.91649584001836E-04 
1204	 4.26347366392302E-04 
1205	 4.9768185127339E-04 
1206	 4.35691573567588E-04 
1207	 4.07915592834134E-04 
1208	 4.02912788493926E-04 
1209	 4.61168476408102E-04 
1210	 4.44160768663327E-04 
1211	 2.65218690042182E-04 
1212	 1.94200629725845E-04 
1213	 3.65424254585131E-04 
1214	 4.1627831848446E-04 
1215	 4.99302037941096E-04 
1216	 4.62117047784013E-04 
1217	 4.48553803475578E-04 
1218	 2.80867900042835E-04 
1219	 1.22693427986361E-04 
1220	 2.36524625025383E-04 
1221	 2.4894022811982E-04 
1222	 2.07513798251202E-04 
1223	 4.02639204840996E-04 
1224	 4.34321383684723E-04 
1225	 1.84175212124945E-04 
1226	 1.91232298769583E-04 
1227	 3.17890221541691E-04 
1228	 2.57755524464651E-04 
1229	 3.39764153254559E-04 
1230	 3.75724060458944E-04 
1231	 3.04254744881744E-04 
1232	 4.75209030548692E-04 
1233	 6.10624790398495E-04 
1234	 5.74895894207692E-04 
1235	 6.27511790318685E-04 
1236	 5.04768790148329E-04 
1237	 4.31389069581247E-04 
1238	 3.84470852027064E-04 
1239	 6.8143367751831E-04 
1240	 6.79358858407807E-04 
1241	 4.86075919820932E-04 
1242	 4.352406746308E-04 
1243	 3.36471001275959E-04 
1244	 3.77251949441821E-04 
1245	 5.07517479566061E-04 
1246	 5.19644026663813E-04 
1247	 5.52856650402198E-04 
1248	 6.88495084680564E-04 
1249	 7.12148699516623E-04 
1250	 4.42449700606401E-04 
1251	 3.6855992734889E-04 
1252	 4.57770535809473E-04 
1253	 2.55010474551461E-04 
1254	 3.97642538120704E-04 
1255	 7.51462954224778E-04 
1256	 7.72206312326101E-04 
1257	 3.06476693892309E-04 
1258	 2.62328726734519E-04 
1259	 3.51195880276505E-04 
1260	 3.55066701955342E-04 
1261	 4.88363822865083E-04 
1262	 6.24366437682048E-04 
1263	 8.29144953258556E-04 
1264	 7.32720558402608E-04 
1265	 5.92095651302573E-04 
1266	 7.19464829773616E-04 
1267	 8.2126062622246E-04 
1268	 6.73141047670832E-04 
1269	 7.81658813720979E-04 
1270	 7.30953703667471E-04 
1271	 3.15383180133265E-04 
1272	 3.22856497092543E-04 
1273	 5.1065259742611E-04 
1274	 4.72492832348943E-04 
1275	 3.85229581040374E-04 
1276	 3.7648346542769E-04 
1277	 5.15257022066338E-04 
1278	 5.49285441837412E-04 
1279	 5.08503723836659E-04 
1280	 6.41336885831079E-04 
1281	 6.80940428772905E-04 
1282	 4.77966055236974E-04 
1283	 4.64691071952855E-04 
1284	 6.60940621534454E-04 
1285	 6.46790562170791E-04 
1286	 4.78115962247882E-04 
1287	 4.77001709149964E-04 
1288	 6.02252731421249E-04 
1289	 5.40135573788618E-04 
1290	 4.18190015410358E-04 
1291	 3.18045169434071E-04 
1292	 2.67968522433271E-04 
1293	 3.22308548145769E-04 
1294	 4.10667553848262E-04 
1295	 4.14870284731997E-04 
1296	 3.53877543002823E-04 
1297	 3.39448946914162E-04 
1298	 4.75564392493503E-04 
1299	 5.19940345076562E-04 
1300	 4.79543782323711E-04 
1301	 5.22074681490995E-04 
1302	 4.53880369223759E-04 
1303	 3.36166438829463E-04 
1304	 2.1554880591329E-04 
1305	 1.57163829873137E-04 
1306	 1.57580229708793E-04 
1307	 1.90509966045551E-04 
1308	 2.37539201839914E-04 
1309	 3.98354111227333E-04 
1310	 5.24591756173088E-04 
1311	 7.38768502503095E-04 
1312	 7.6796852319359E-04 
1313	 6.33429772657963E-04 
1314	 6.24825710198032E-04 
1315	 5.92323173498022E-04 
1316	 5.13853735705126E-04 
1317	 4.07794738123471E-04 
1318	 4.74727611208955E-04 
1319	 5.68527129941509E-04 
1320	 5.7517822434973E-04 
1321	 7.91990484815674E-04 
1322	 9.71024228299976E-04 
1323	 7.34211387358609E-04 
1324	 6.38487420553552E-04 
1325	 9.63540402091515E-04 
1326	 1.12411636137188E-03 
1327	 1.2475380544314E-03 
1328	 1.16172201304762E-03 
1329	 6.17254030606765E-04 
1330	 3.91380912304113E-04 
1331	 4.77997311846791E-04 
1332	 2.29202572021403E-04 
1333	 2.87792232305935E-04 
1334	 8.23182164638023E-04 
1335	 7.51258814228681E-04 
1336	 2.61071284835169E-04 
1337	 3.34634880785872E-04 
1338	 4.24496133172342E-04 
1339	 2.96018565888527E-04 
1340	 5.97362307456561E-04 
1341	 7.8395454037238E-04 
1342	 2.94195877430607E-04 
1343	 1.04138496362552E-04 
1344	 9.23818458887849E-04 
1345	 8.73125193387228E-04 
1346	-9.12006950597645E-04 
1347	-1.51391227852406E-03 
1348	-1.40279843040153E-03 
1349	-1.91600673385895E-03 
1350	-8.69570579569544E-04 
1351	-2.80917331308565E-04 
1352	-2.11209035340447E-03 
1353	-3.6515973478271E-03 
1354	-5.95112798388073E-03 
1355	-7.93647638959635E-03 
1356	-3.82969610101941E-03 
1357	 5.2771952460843E-03 
1358	 3.23702339786116E-02 
1359	 9.31958269300407E-02 
1360	 0.106837561006457 
1361	 6.06591251121153E-02 
1362	 2.61944853717113E-02 
1363	-1.04961978031575E-02 
1364	-5.60837038847304E-02 
1365	-4.83051386437271E-02 
1366	-3.51393727249017E-02 
1367	-8.13940013651268E-02 
1368	-9.96207324846601E-02 
1369	-9.85613805307266E-03 
1370	 1.53211653379035E-02 
1371	-8.62849212358445E-02 
1372	-0.084108229671742 
1373	 3.36647423296609E-02 
1374	 7.22922605025512E-02 
1375	 0.08052715760392 
1376	 9.20191321279868E-02 
1377	 9.53984871504417E-02 
1378	 5.66049261909012E-02 
1379	-1.78387109899028E-02 
1380	-4.35070201074144E-02 
1381	-0.143389901398553 
1382	-0.121306791437545 
1383	 0.158357038485941 
1384	 0.183453158762785 
1385	 0.132847376419058 
1386	 0.140076139463046 
1387	-0.115850502091729 
1388	-0.262238938121245 
1389	-0.332458095502107 
1390	-0.419608135433248 
1391	-0.282973742042267 
1392	-0.117199854911819 
1393	 0.125531248370096 
1394	 0.27250484009639 
1395	 0.117966209778257 
1396	 0.183708762820016 
1397	 0.26984426591767 
1398	 0.155507802454198 
1399	 7.77881018242472E-02 
1400	 2.59495828656012E-02 
1401	 3.66726776323339E-02 
1402	 0.105182293074675 
1403	 0.121840066307694 
1404	 0.210654078953578 
1405	 0.185446414130969 
1406	 7.69921643819001E-02 
1407	 3.04333143072803E-02 
1408	 0.014104694827003 
1409	 7.03646389772186E-03 
1410	-1.71666245802252E-02 
1411	-1.35938647871377E-02 
1412	 2.02290831917633E-02 
1413	 1.32088574707168E-02 
1414	-1.23704263819771E-02 
1415	-9.83655174092299E-03 
1416	-1.47329373430864E-03 
1417	-6.65161883868888E-03 
1418	-7.90090726833003E-03 
1419	-6.13449292721263E-03 
1420	-1.50089035842272E-02 
1421	-1.29671511164539E-02 
1422	-1.16534191138261E-03 
1423	 2.36118808143776E-03 
1424	 5.40558336363822E-03 
1425	 4.85396395659376E-03 
1426	 7.39329677786592E-04 
1427	 7.893702815299E-04 
1428	 4.41278779232414E-04 
1429	 1.8486493371941E-04 
1430	 2.41480315192965E-03 
1431	 3.35968392473855E-03 
1432	 2.65632863610373E-03 
1433	 3.55115390936981E-03 
1434	 6.76597135264432E-03 
1435	 6.52785852707761E-03 
1436	 4.57432863277149E-03 
1437	 3.35703403525813E-03 
1438	 4.39620840473007E-04 
1439	-3.93568058646109E-04 
1440	 2.88605510722947E-03 
1441	 5.42348542529607E-03 
1442	 5.35336910739233E-03 
1443	 2.66275663275502E-03 
1444	-1.11188511351842E-03 
1445	-1.04850426404698E-03 
1446	 8.43603436893037E-04 
1447	 6.90824794217039E-04 
1448	 1.23140386063626E-03 
1449	 1.50522492163269E-03 
1450	 1.19800050395331E-04 
1451	-9.20502309781474E-05 
1452	 8.12014793526697E-04 
1453	 8.15032208559756E-04 
1454	 4.90424282686753E-04 
1455	 1.59020253752653E-04 
1456	 5.65438087288843E-04 
1457	 7.37520609570096E-04 
1458	 7.70111765609587E-04 
1459	 1.53116713789461E-03 
1460	 1.70801252408237E-03 
1461	 1.14394368469376E-03 
1462	 8.06734767782202E-04 
1463	 6.49021171660103E-04 
1464	 5.83838223435935E-04 
1465	 1.60643227784419E-04 
1466	 2.80318533233357E-04 
1467	 1.28852560872735E-03 
1468	 1.35106570998727E-03 
1469	 8.17768629993362E-04 
1470	 6.95267387484414E-04 
1471	 5.37237674323118E-04 
1472	 3.45185130055911E-04 
1473	 1.64187622396802E-04 
1474	 3.29727290929999E-04 
1475	 6.8038597110613E-04 
1476	 6.60268761765988E-04 
1477	 7.95660967543896E-04 
1478	 7.55235900142865E-04 
1479	 3.02221942394008E-04 
1480	 7.81696806787704E-05 
1481	-2.54961134948215E-05 
1482	 6.23206123465987E-05 
1483	 1.06207075741715E-04 
1484	 1.94784070553321E-04 
1485	 5.97516705308347E-04 
1486	 6.86021805942397E-04 
1487	 6.36674042301458E-04 
1488	 6.1390978740581E-04 
1489	 4.86910300781546E-04 
1490	 4.05273149967551E-04 
1491	 2.84169833872136E-04 
1492	 3.17227614734808E-04 
1493	 4.14518719411145E-04 
1494	 4.44317154707561E-04 
1495	 6.4107946267785E-04 
1496	 6.90594273519009E-04 
1497	 5.18780683030275E-04 
1498	 4.69710508300702E-04 
1499	 5.55374033284151E-04 
1500	 4.72772264578694E-04 
1501	 2.53474249024765E-04 
1502	 2.19975068964073E-04 
1503	 1.75336373958437E-04 
1504	 1.04735665058858E-04 
1505	 6.31723895904402E-06 
1506	 2.04554190237757E-04 
1507	 2.7924447057016E-04 
1508	 1.70227028146672E-04 
1509	 7.93001631082672E-05 
1510	 1.16576709369437E-04 
1511	 2.70215157148963E-04 
1512	 4.05125135998551E-04 
1513	 4.92329085497888E-04 
1514	 5.05998913448877E-04 
1515	 5.82170647423565E-04 
1516	 6.62465811071133E-04 
1517	 5.26660303233338E-04 
1518	 4.75913184264753E-04 
1519	 4.54133565112449E-04 
1520	 2.78942751086721E-04 
1521	 2.48709958196978E-04 
1522	 3.02592722549195E-04 
1523	 2.36675580040461E-04 
1524	 2.5370248999655E-04 
1525	 3.92594756569627E-04 
1526	 3.54013506875801E-04 
1527	 3.09174153618648E-04 
1528	 4.26355990586779E-04 
1529	 4.48360608894619E-04 
1530	 3.85612702135894E-04 
1531	 2.98655843887124E-04 
1532	 1.63238105130849E-04 
1533	 1.56111555658035E-04 
1534	 2.48743430745514E-04 
1535	 3.21849372171169E-04 
1536	 3.78582281842177E-04 
1537	 3.94139907213203E-04 
1538	 5.01707966830278E-04 
1539	 5.01937776402555E-04 
1540	 2.7817750466866E-04 
1541	 1.74295461387189E-04 
1542	 2.04519818370468E-04 
1543	 3.60290176400905E-04 
1544	 5.5328573579423E-04 
1545	 5.39107001169252E-04 
1546	 4.25223429018393E-04 
1547	 3.61871042132147E-04 
1548	 3.7543957831492E-04 
1549	 3.1569153925223E-04 
1550	 2.48037171717581E-04 
1551	 3.33540304085661E-04 
1552	 3.37725949982771E-04 
1553	 3.52327747762812E-04 
1554	 5.11485358297937E-04 
1555	 6.01326809681619E-04 
1556	 5.71568869433234E-04 
1557	 3.6483721560564E-04 
1558	 1.51893849608892E-04 
1559	 2.17692382052723E-04 
1560	 3.13558108568364E-04 
1561	 3.56870428382339E-04 
1562	 4.74531123271926E-04 
1563	 4.23461507317932E-04 
1564	 1.95102742358865E-04 
1565	 7.17592930255948E-05 
1566	 2.02968130858979E-04 
1567	 4.19818932134012E-04 
1568	 4.13121972879028E-04 
1569	 3.77668154756245E-04 
1570	 4.81772533428372E-04 
1571	 4.23817097859876E-04 
1572	 3.37697489358325E-04 
1573	 4.52972785906376E-04 
1574	 4.69817026433394E-04 
1575	 3.37653974338272E-04 
1576	 2.4848888748132E-04 
1577	 2.63560636722681E-04 
1578	 3.22156598473373E-04 
1579	 3.67924137313689E-04 
1580	 4.514267218956E-04 
1581	 6.56592576028854E-04 
1582	 6.69856072660439E-04 
1583	 3.8818517044509E-04 
1584	 4.37676857960824E-04 
1585	 5.66951587186776E-04 
1586	 4.01110475054486E-04 
1587	 4.14415575976091E-04 
1588	 5.40689321457939E-04 
1589	 3.03966366483679E-04 
1590	 1.25534590818633E-04 
1591	 4.04612754682056E-04 
1592	 4.62882144571697E-04 
1593	 4.14869024964378E-04 
1594	 5.34594400224867E-04 
1595	 4.36704589498044E-04 
1596	 4.70523558637698E-04 
1597	 5.40691376537393E-04 
1598	 5.52612184864719E-04 
1599	 7.00188584026504E-04 
1600	 4.64333820055948E-04 
1601	 1.35021046954832E-04 
1602	 1.53548905212302E-04 
1603	 2.79329480372286E-04 
1604	 6.07896939727475E-04 
1605	 1.00726074985795E-03 
1606	 9.34611421200721E-04 
1607	 5.83788625814223E-04 
1608	 5.14546985040009E-04 
1609	 5.17275253469151E-04 
1610	 6.36808508133415E-04 
1611	 8.63560493303128E-04 
1612	 7.14114018216499E-04 
1613	 5.50521811519743E-04 
1614	 5.08208054620123E-04 
1615	 4.69486433967827E-04 
1616	 5.28554758764349E-04 
1617	 3.70250255840026E-04 
1618	 2.82022422190476E-04 
1619	 4.99053081194603E-04 
1620	 5.33256909890218E-04 
1621	 4.33166141134552E-04 
1622	 4.14951502868165E-04 
1623	 3.82558552447493E-04 
1624	 2.7369122042723E-04 
1625	 3.15282285101646E-04 
1626	 6.09559298380743E-04 
1627	 7.51835776641618E-04 
1628	 6.94924042369579E-04 
1629	 5.07791277516244E-04 
1630	 2.23900324086187E-04 
1631	 1.70992929980583E-04 
1632	 2.14079615353927E-04 
1633	 2.58571731942113E-04 
1634	 4.55155061588575E-04 
1635	 5.42731465507863E-04 
1636	 5.34639966522364E-04 
1637	 6.23941049945358E-04 
1638	 6.1063708989158E-04 
1639	 3.62077622035058E-04 
1640	 1.63307445406954E-04 
1641	 2.68030412855147E-04 
1642	 4.00260322225818E-04 
1643	 3.40287405041353E-04 
1644	 2.43921334077989E-04 
1645	 3.32021733974511E-04 
1646	 5.18393519203859E-04 
1647	 4.37500203782726E-04 
1648	 1.71387071971893E-04 
1649	 1.08094884153465E-04 
1650	 2.44679399936579E-04 
1651	 3.1810619385216E-04 
1652	 4.285457427314E-04 
1653	 5.59842929664622E-04 
1654	 3.6759570999177E-04 
1655	 2.27650972214355E-04 
1656	 3.36663611332513E-04 
1657	 9.93886506020273E-05 
1658	 5.31971894009251E-05 
1659	 6.46147029623801E-04 
1660	 6.49606665948546E-04 
1661	-1.24341333198484E-05 
1662	-2.24203200099722E-05 
1663	 3.36178598729523E-04 
1664	 3.50261379176556E-04 
1665	 4.94888557551838E-04 
1666	 6.60154262462708E-04 
1667	 4.35869359084431E-04 
1668	 5.77799208952561E-04 
1669	 8.25755660272983E-04 
1670	 5.64300992022891E-04 
1671	 2.629868289241E-04 
1672	 4.10536855145133E-04 
1673	 4.99470714818854E-04 
1674	 2.84359250031414E-04 
1675	 3.07378159284921E-04 
1676	 4.75154490812199E-04 
1677	 3.24154547758962E-04 
1678	 3.27897323427188E-04 
1679	 6.24766039571019E-04 
1680	 4.03927164398976E-04 
1681	-6.32006169669331E-05 
1682	 2.49632223194938E-04 
1683	 5.78270360306492E-04 
1684	 2.3268844914728E-04 
1685	 1.48937969881249E-04 
1686	 3.19859293355691E-04 
1687	 2.25150210463956E-04 
1688	 2.24090764275229E-04 
1689	 5.81551811054861E-04 
1690	 6.10285609916234E-04 
1691	 2.04364557954933E-04 
1692	 3.2845660781646E-04 
1693	 6.82503039881043E-04 
1694	 5.40399796966738E-04 
1695	 5.47377755185401E-04 
1696	 5.28267792084315E-04 
1697	 1.41319980834998E-04 
1698	 3.6975793420205E-04 
1699	 6.36577379684179E-04 
1700	 4.50564034968315E-04 
1701	 5.95641973107035E-04 
1702	 7.01328188153536E-04 
1703	 5.75908250872162E-04 
1704	 4.25466658034592E-04 
1705	 1.93358558474836E-04 
1706	 8.12523567501985E-05 
1707	-3.20489325013338E-05 
1708	 2.04441120934866E-05 
1709	 4.37498928815122E-04 
1710	 5.75679150074543E-04 
1711	 4.42099290349907E-04 
1712	 5.88873130511642E-04 
1713	 6.22536915342153E-04 
1714	 5.46666643863079E-04 
1715	 2.6080971080337E-04 
1716	 2.72832063204828E-04 
1717	 6.4149698621347E-04 
1718	 6.80031981001478E-04 
1719	 8.46548772025647E-04 
1720	 1.09079841321782E-03 
1721	 4.90487465618505E-04 
1722	 1.90500681542081E-04 
1723	 4.2291768579515E-04 
1724	 4.91284882818616E-04 
1725	 8.50862056551042E-04 
1726	 9.63495929657957E-04 
1727	 5.74729004267347E-04 
1728	 4.96509879334501E-04 
1729	 6.77571824985605E-04 
1730	 7.21306559236545E-04 
1731	 7.94282488006307E-04 
1732	 7.78820518910028E-04 
1733	 2.57798289481189E-04 
1734	 8.1727709893559E-05 
1735	 5.07841414635665E-04 
1736	 4.32937459684423E-04 
1737	 2.60507678354182E-04 
1738	 3.69348984880837E-04 
1739	 2.15998854987476E-04 
1740	 1.32021770237495E-04 
1741	 4.02695319031799E-04 
1742	 6.81257251271194E-04 
1743	 6.99562760068012E-04 
1744	 5.26176723530232E-04 
1745	 5.41068010194869E-04 
1746	 2.45288536893497E-04 
1747	 2.25282322409514E-04 
1748	 8.8790786710919E-04 
1749	 1.02829332799689E-03 
1750	 8.59827600882725E-04 
1751	 8.65543634274402E-04 
1752	 5.69763751160699E-04 
1753	 5.35144845598625E-04 
1754	 8.1116823506635E-04 
1755	 7.62900626525559E-04 
1756	 8.36259953292305E-04 
1757	 8.60988012249428E-04 
1758	 4.63273673981585E-04 
1759	 6.72388951821754E-04 
1760	 5.79825630269156E-04 
1761	-8.92116274292987E-05 
1762	 1.97876330722224E-04 
1763	 1.00133158317582E-03 
1764	 5.32002369906041E-04 
1765	 8.07582006089903E-05 
1766	 7.04404462620117E-05 
1767	-7.58004575642301E-04 
1768	-4.21688726954214E-04 
1769	 8.26663821643086E-04 
1770	 7.89338935129901E-04 
1771	 2.82573626683233E-04 
1772	-4.37199480650458E-04 
1773	-9.61804926878704E-04 
1774	-6.09995169942448E-04 
1775	 1.68011927974025E-04 
1776	 7.69399757793534E-04 
1777	 1.27390257612958E-03 
1778	 1.01708013499857E-03 
1779	 2.61461147210733E-04 
1780	-1.86622743079932E-04 
1781	-1.38343495718554E-03 
1782	-1.8175615886848E-03 
1783	-1.44845999502233E-03 
1784	-9.57656831497642E-04 
1785	-4.02741964994148E-05 
1786	 1.70797960802321E-05 
1787	 1.88615342543797E-04 
1788	 7.66257529651656E-04 
1789	 2.42551176832332E-04 
1790	 1.80871663923403E-03 
1791	 2.46522663658734E-03 
1792	 4.86995123724561E-04 
1793	 2.72819464439905E-03 
1794	 3.74494637677082E-03 
1795	 3.34846218129345E-03 
1796	 6.21627159495951E-03 
1797	 4.1878755766952E-03 
1798	 8.81092324550997E-04 
1799	 2.91889581697101E-04 
1800	-5.4675408407925E-04 
1801	 1.56230049863907E-04 
1802	 8.8459112336996E-03 
1803	 9.13239228578115E-03 
1804	-2.07348021453741E-03 
1805	-6.68946025993294E-03 
1806	-0.018320372343677 
1807	-2.18278227800349E-02 
1808	-1.07717305236833E-03 
1809	 7.51683994019076E-03 
1810	 1.43094393343338E-02 
1811	 1.24319431529688E-02 
1812	-1.08533931014732E-02 
1813	-1.77337785955211E-02 
1814	-3.05344832896626E-02 
1815	-3.17721763762115E-02 
1816	 7.18651195695676E-03 
1817	-7.15835807651319E-03 
1818	 1.46818975163874E-02 
1819	-0.104388057247058 
1820	-0.158041586044453 
1821	-0.104678532716307 
1822	-0.107410513789495 
1823	 1.52634253152531E-02 
1824	 9.70288361994907E-02 
1825	 8.49277618786919E-02 
1826	 5.19672548839839E-02 
1827	-5.50669693869926E-02 
1828	-6.11671840881985E-02 
1829	-9.09784070250758E-02 
1830	-8.58155625941738E-02 
1831	-4.63579017946084 
1832	-6.4934539571111 
1833	-7.22521900839983 
1834	-4.65313735725165 
1835	-2.24666844290121 
1836	-1.11020079380616 
1837	 0.169895267897766 
1838	 0.280930238536581 
1839	-8.18783882225688E-03 
1840	-0.625334232456045 
1841	-1.81619020896466 
1842	 24.0605491673056 
1843	 2.63923545677285 
1844	 0.477976099296885 
1845	 0.163931022630055 
1846	 0.67504893662077 
1847	 1.6295502609264 
1848	-21.8383660729007 
1849	-3.19554458842123 
1850	-1.9522490091666 
1851	-0.118116611630241 
1852	 0.558465365938684 
1853	 0.646440170015238 
1854	 0.488364182745149 
1855	-0.217296267399764 
1856	-0.459456603646341 
1857	-101.284677088553 
1858	 1.56488271773147 
1859	-0.261837850714203 
1860	-0.729973138223285 
1861	-1.76763526955573 
1862	-2.63055869254435 
1863	 0.193892998617446 
1864	-1.03774760623131 
1865	-2.27637848627294 
1866	 9.38091697506592 
1867	 9.06954959787215 
1868	 4.74002465281394 
1869	-18.4811448628588 
1870	-1.00051145417268 
1871	-0.366341368472886 
1872	-0.293890162082813 
1873	-5.29093009494228E-03 
1874	-6.86221908412123E-03 
1875	 5.62994286762611E-02 
1876	 0.22085881987627 
1877	 7.19414402413575E-02 
1878	 2.92778164548642E-02 
1879	 0.768676994918901 
1880	 2.88652823306567 
1881	-5.03569552377896E-02 
1882	 0.177729813737461 
1883	 0.312711183561987 
1884	 0.566477186456356 
1885	 1.72717264899723E-02 
1886	 0.352305416752378 
1887	-0.345103992047853 
1888	-0.520104237857847 
1889	-0.918516986932326 
1890	-1.46827405134639 
1891	-1.32271127385031 
1892	-1.47092098922373 
1893	-1.63186800734905 
1894	-0.620314424089041 
1895	 0.857583772490229 
1896	-23.813963369878 
1897	-3.66812999102392 
1898	-7.38443007227124 
1899	 0.549046228999539 
1900	-0.503048868044653 
1901	-0.477690044120654 
1902	-0.473206126431598 
1903	-0.477093406186905 
1904	-1.1186333502431 
1905	-2.45470870081092 
1906	-3.05958566622271 
1907	-2.20222411078281 
1908	 2.4439404024357 
1909	 0.614105367018278 
1910	 0.129440915335667 
1911	 0.202039618721867 
1912	 0.745566957675172 
1913	 1.10896319922067 
1914	 1.52653319611258 
1915	 0.81461312617279 
1916	 0.59019887873002 
1917	 0.213818916013836 
1918	 6.13197937172274E-02 
1919	 0.159607103991571 
1920	 0.28227334343016 
1921	 0.842999987830026 
1922	 1.61606378554971 
1923	 0.620509730229436 
1924	 0.911010753647492 
1925	 0.95525100155177 
1926	 0.672962030805518 
1927	 0.238989994353413 
1928	 0.248450995390799 
1929	 0.100908367833239 
1930	-0.100844982552351 
1931	-2.86260579978283E-03 
1932	 5.62535814120262E-02 
1933	-4.95888755359617E-03 
1934	 8.67973157111109E-03 
1935	 5.83338050752677E-02 
1936	 3.30057090852664E-02 
1937	 2.18374758186604E-02 
1938	 1.22795341171272E-02 
1939	 8.69293598482529E-03 
1940	-9.74058794597265E-04 
1941	 1.77368827145806E-03 
1942	-2.52326583873338E-03 
1943	 5.84079514252511E-04 
1944	-9.81082797891672E-03 
1945	-1.96112479427913E-02 
1946	-9.70647058695629E-03 
1947	-1.41783971632079E-04 
1948	 1.10038501378947E-02 
1949	 1.95910796984865E-02 
1950	 2.07782427749792E-02 
1951	 1.54730943309487E-02 
1952	 1.01689421910162E-02 
1953	-7.05509496122969E-04 
1954	-2.62866026267329E-03 
1955	 3.11104225485303E-03 
1956	 6.03001014913559E-03 
1957	 1.02689451329203E-02 
1958	 1.49376016620428E-02 
1959	 9.80815758583319E-03 
1960	 6.01674373269802E-03 
1961	 7.97889419898391E-03 
1962	 5.7138192708157E-03 
1963	 4.95985129462815E-04 
1964	-9.23328865032771E-04 
1965	-1.09127218711292E-03 
1966	-1.61940793402615E-03 
1967	-2.0575072192806E-03 
1968	-4.70453566342717E-04 
1969	-3.70406693125385E-05 
1970	-5.78606037302331E-04 
1971	-3.27870557460304E-04 
1972	-2.32261518974512E-04 
1973	 1.9533188646145E-05 
1974	 1.4864009078033E-04 
1975	-5.93680098800815E-04 
1976	-5.69067437939724E-04 
1977	-1.54354134471237E-04 
1978	-6.6997205130173E-04 
1979	-9.06395596597071E-04 
1980	-1.06770445218541E-03 
1981	-1.11882015088902E-03 
1982	-8.86906989844494E-04 
1983	 2.26969981174269E-04 
1984	 5.97417341317414E-04 
1985	 3.61124465690761E-04 
1986	 4.68797663618164E-04 
1987	-4.54587670562774E-04 
1988	-1.3090919201238E-03 
1989	-7.16763910355651E-04 
1990	-1.0905025796309E-03 
1991	-1.85825582720237E-03 
1992	-1.5963918171326E-03 
1993	-1.73354760009348E-03 
1994	-1.64487941337897E-03 
1995	-1.3154034878221E-03 
1996	-5.90389058279177E-04 
1997	-5.58440820829128E-04 
1998	-5.85021510651456E-04 
1999	-7.22975754781953E-04 
2000	-4.16827074892129E-04 
2001	-4.17786435103699E-04 
2002	-1.15216432052753E-03 
2003	-2.64017375792208E-04 
2004	-7.23852952623104E-04 
2005	-9.57873259368724E-04 
2006	 2.45023738908302E-03 
2007	 2.21621188102829E-03 
2008	 9.36692137233874E-04 
2009	 9.851089455212E-04 
2010	 7.87218853547018E-04 
2011	 9.001927349086E-04 
2012	 1.89436526857254E-03 
2013	 3.34444332906013E-03 
2014	 3.51528283463451E-03 
2015	 2.39905663656736E-03 
2016	 1.60208386731688E-03 
2017	 6.34830216945331E-04 
2018	-7.14273763076551E-04 
2019	-1.59089632790046E-03 
2020	-2.37740432385354E-03 
2021	-1.62268797934616E-03 
2022	 4.02339290810085E-06 
2023	 1.41309050031753E-03 
2024	 1.61157335829025E-03 
2025	 6.54435940344062E-04 
2026	 7.66602308418715E-04 
2027	 7.32509725083183E-04 
2028	 7.1338369166129E-04 
2029	 1.5779471834431E-03 
2030	 1.7838229234546E-03 
2031	 9.19129649934769E-04 
2032	 6.45866495762809E-04 
2033	 2.68919527281067E-04 
2034	 9.4269380062568E-05 
2035	 2.90922272783612E-04 
2036	 2.34704129616714E-04 
2037	 3.7621609748892E-04 
2038	 9.05758886187928E-04 
2039	 1.07335928204432E-03 
2040	 1.07283923551344E-03 
2041	 1.11705040272353E-03 
2042	 1.1975758382113E-03 
2043	 8.66676375403459E-04 
2044	 1.51267541293986E-04 
2045	 5.1704591855354E-05 
2046	-2.76166265633951E-04 
2047	-1.11675774571257E-03 
2048	-1.15442233937911E-03 
2049	-1.04244388169999E-03 
2050	-8.59656801808533E-04 
2051	-3.11769200236277E-04 
2052	-3.73139909104331E-05 
2053	 6.42588369089357E-04 
2054	 1.01304785173604E-03 
2055	 5.92007728811311E-04 
2056	 5.34108998397486E-04 
2057	 5.20157600423784E-04 
2058	 5.27731991837358E-04 
2059	 1.12925310110267E-03 
2060	 9.54770301958781E-04 
2061	 3.87123305662291E-04 
2062	-3.95930153811894E-04 
2063	-3.04827328060159E-04 
2064	-9.81315975000573E-04 
2065	-7.41285314690678E-04 
2066	 7.16913236392201E-05 
2067	-4.15492178737329E-04 
2068	-6.83290850276554E-04 
2069	-7.74750147685276E-04 
2070	-9.30715626518263E-04 
2071	-4.36708633228861E-04 
2072	 1.24401275010279E-04 
2073	 1.39460557444043E-04 
2074	-1.78845970822063E-04 
2075	-1.2992189329795E-05 
2076	 1.47192814408317E-04 
2077	 8.82144361083721E-05 
2078	 2.92868750823866E-04 
2079	 4.14842684177562E-04 
2080	 3.30515142968446E-04 
2081	-1.11970766015255E-04 
2082	-1.94811338372866E-04 
2083	-1.32836684606927E-04 
2084	-8.06635822323685E-05 
2085	-1.83292679663232E-04 
2086	-3.87929153252734E-04 
2087	-3.0776064295465E-04 
2088	-2.25392788279717E-04 
2089	-1.00504332400703E-04 
2090	 3.52412280614515E-04 
2091	 7.52643637090197E-04 
2092	 6.16636861818153E-04 
2093	-3.13017669998563E-04 
2094	-3.83023226677287E-04 
2095	-3.34492083531595E-04 
2096	-3.64837330068655E-04 
2097	 9.9636638834706E-05 
2098	 3.13801778808391E-04 
2099	 2.05341483914004E-04 
2100	 1.87501567012157E-04 
2101	 2.14542585273332E-04 
2102	 7.25705068131026E-04 
2103	 1.1124090599224E-03 
2104	 7.88319666399761E-04 
2105	 8.06204404184146E-04 
2106	 1.00025203712427E-03 
2107	 8.96976139412606E-04 
2108	 9.63357046757378E-04 
2109	 9.67370992688719E-04 
2110	 6.04076797903738E-04 
2111	 5.09677621030886E-04 
2112	 1.97895713669486E-04 
2113	-2.27905352437854E-05 
2114	-1.62874289841604E-04 
2115	 1.18705885846276E-05 
2116	 5.78115002007054E-04 
2117	 5.15969870422923E-04 
2118	 1.5510026363539E-04 
2119	-4.9095624244632E-06 
2120	-4.82414982193779E-04 
2121	-9.44981876444324E-04 
2122	-1.07132877102578E-03 
2123	-4.48247798847417E-04 
2124	-6.39244123864947E-04 
2125	-1.0376228442203E-03 
2126	-4.90580479616839E-04 
2127	-3.48845981074458E-04 
2128	 1.47587699117307E-04 
2129	 5.57258314878209E-04 
2130	-4.25761827404081E-04 
2131	-1.20629945051326E-03 
2132	-1.35408419376433E-03 
2133	-1.05661825284533E-03 
2134	-1.2462589043576E-03 
2135	-9.23614223054727E-04 
2136	-8.13671434536191E-04 
2137	-1.78095357680433E-03 
2138	-2.00957494445838E-03 
2139	-1.16730861476664E-03 
2140	-8.76071207595075E-04 
2141	-1.06151785820129E-03 
2142	-6.16449254628806E-04 
2143	 5.20623474809205E-04 
2144	 7.76635446520613E-04 
2145	 3.33435942338865E-04 
2146	 5.68184529366652E-04 
2147	 5.95767845094913E-04 
2148	 9.24517692805767E-06 
2149	 1.66431916727098E-04 
2150	 3.7536054214871E-04 
2151	-4.12317612057365E-05 
2152	-4.91332822954352E-04 
2153	-4.22915128093477E-04 
2154	-2.8185717296336E-04 
2155	-3.50835416130889E-04 
2156	-5.23541189487414E-04 
2157	-6.15752786809786E-04 
2158	-7.51568886488193E-04 
2159	-9.31237438764934E-04 
2160	-9.54191863910217E-04 
2161	-1.06132051943286E-03 
2162	-1.50790569490469E-03 
2163	-1.51475428214628E-03 
2164	-1.12549864529689E-03 
2165	-1.14821950048322E-03 
2166	-1.2434080236451E-03 
2167	-1.41800723007262E-03 
2168	-1.83017254523211E-03 
2169	-2.1720521150832E-03 
2170	-2.65677422164736E-03 
2171	-2.57145818472385E-03 
2172	-2.67899032499512E-03 
2173	-2.36379475931195E-03 
2174	-1.39041769737934E-03 
2175	-6.23617516579682E-04 
2176	-1.78509318059775E-04 
2177	-5.89673893837947E-05 
2178	 1.37746320394852E-04 
2179	 3.20558091726766E-04 
2180	 1.1119819625221E-03 
2181	 1.9213478340701E-03 
2182	 1.46884031683117E-03 
2183	 1.02100367428388E-03 
2184	 8.6061245345182E-04 
2185	 4.5222903703069E-04 
2186	 3.71771417047641E-04 
2187	 1.02268365715945E-03 
2188	 7.5636158905356E-04 
2189	-1.97786662214781E-04 
2190	-4.72242091647877E-04 
2191	-1.03677764024264E-03 
2192	-7.43188786387378E-04 
2193	 1.31717121645444E-03 
2194	 1.63462274698535E-03 
2195	 7.84025753680301E-04 
2196	 3.94336519848349E-04 
2197	-1.26041512625059E-03 
2198	-1.66811274439621E-03 
2199	-1.31377459983258E-03 
2200	 6.73869843565892E-04 
2201	 7.96775761944609E-04 
2202	 3.70679311911741E-04 
2203	 4.69895963242376E-04 
2204	-4.17868622154762E-04 
2205	-1.34739229829595E-03 
2206	-1.27772692290788E-03 
2207	-1.65195890986675E-03 
2208	-2.82119200195049E-03 
2209	-1.84924910267479E-03 
2210	-5.82634113052196E-05 
2211	 1.81543898584847E-04 
2212	 6.92168428735571E-04 
2213	-1.16980355685095E-04 
2214	-1.52857256913518E-03 
2215	-7.78441303438125E-04 
2216	 5.40261891526105E-05 
2217	 3.97902703887742E-04 
2218	 1.70587137098797E-03 
2219	 1.57277681800922E-03 
2220	-9.47630480525709E-04 
2221	-6.75608289604344E-04 
2222	 1.41301689666874E-03 
2223	 2.11600667309907E-03 
2224	 3.62093689679155E-03 
2225	 4.03952709081444E-03 
2226	 2.25148219251395E-03 
2227	 1.69918285515255E-03 
2228	 2.18813714005804E-03 
2229	 2.22441966826909E-03 
2230	 2.67517901098537E-03 
2231	 2.08140913315219E-03 
2232	-4.45612850226131E-05 
2233	-5.62411179851984E-04 
2234	-7.12398635586511E-04 
2235	-1.08854933313674E-03 
2236	-3.98632357244827E-04 
2237	-2.91790103830452E-04 
2238	-5.64837060837571E-04 
2239	-3.41179470847731E-05 
2240	 1.19771546979357E-03 
2241	 2.37577397609799E-03 
2242	 8.52549024339113E-04 
2243	-2.71709657894231E-04 
2244	-4.51907750809678E-04 
2245	-8.77521212526754E-04 
2246	 1.04972001626235E-03 
2247	 2.62922818806706E-03 
2248	 3.20093080911527E-03 
2249	 1.35555874887647E-03 
2250	-1.48552931219873E-03 
2251	-1.39774338450207E-03 
2252	-2.17424087141953E-03 
2253	-2.60867694073342E-03 
2254	-1.31037635860454E-03 
2255	-2.21795874083656E-03 
2256	-2.63815961206384E-03 
2257	-4.07037096225266E-04 
2258	-2.83150997567344E-04 
2259	-1.87705267675637E-03 
2260	-2.97895081734406E-03 
2261	-6.13552986509615E-03 
2262	-6.38507612730778E-03 
2263	-4.44177023647953E-03 
2264	-4.10933201522645E-03 
2265	-3.14634309732491E-03 
2266	-2.3809088225149E-03 
2267	-1.99096275373582E-03 
2268	-2.19751700442094E-03 
2269	-2.45779491089791E-03 
2270	-2.58332271747286E-03 
2271	-4.73950484019236E-03 
2272	-4.92959835641881E-03 
2273	-3.1234806390089E-03 
2274	-1.67694374475699E-03 
2275	 1.03932218056087E-03 
2276	 2.06099064657783E-03 
2277	 2.72618479410026E-03 
2278	 2.50308684610494E-03 
2279	-1.10595516666659E-04 
2280	-1.00293124426944E-03 
2281	-1.57217405852198E-03 
2282	-1.52742287577467E-03 
2283	-7.32542646390869E-04 
2284	-8.92936670409785E-04 
2285	-8.02285605217966E-04 
2286	-3.306173265409E-04 
2287	-7.33703436518224E-04 
2288	-1.72709705263977E-03 
2289	-3.84971284081937E-03 
2290	-5.61671519995434E-03 
2291	-6.05398016555989E-03 
2292	-5.72209517261151E-03 
2293	-3.93693483765579E-03 
2294	-2.71150688140871E-03 
2295	-2.01443170971855E-03 
2296	-1.02306728807008E-03 
2297	-2.00575074399885E-03 
2298	-1.06855160814775E-03 
2299	-4.77513447671625E-04 
2300	-1.18360986584633E-03 
2301	 1.83090425989391E-03 
2302	 2.08847639018864E-03 
2303	-5.20287962166914E-04 
2304	-2.58541292505848E-03 
2305	-5.25024686449552E-03 
2306	-4.51920390212422E-03 
2307	-2.20239247107211E-03 
2308	-1.39648491871371E-03 
2309	-1.60542796217301E-03 
2310	-5.46614281474563E-03 
2311	-8.73459669121462E-03 
2312	-7.31387134267954E-03 
2313	-3.91639097693279E-03 
2314	-1.21348029393657E-03 
2315	-1.78453740447728E-03 
2316	-4.22965266330478E-03 
2317	-7.51777086576046E-03 
2318	-9.10765429540806E-03 
2319	-5.68390343811615E-03 
2320	-2.97191508854248E-03 
2321	-1.80485097305522E-03 
2322	 7.53642402049449E-04 
2323	-3.1463550434369E-04 
2324	-1.6721034665068E-03 
2325	-9.11939515399483E-04 
2326	-2.24024124459326E-03 
2327	-2.52735289335958E-03 
2328	-3.83489277337891E-03 
2329	-4.95504280893492E-03 
2330	-5.39778143308055E-03 
2331	-9.25272584367746E-03 
2332	-9.89488105625288E-03 
2333	-9.40522942293928E-03 
2334	-8.4547774277059E-03 
2335	-1.16922583848782E-03 
2336	 6.16255715368699E-03 
2337	 8.82627080652966E-03 
2338	 4.58353171382262E-03 
2339	-3.84546109775758E-03 
2340	-7.8576362827731E-03 
2341	-7.47909550908321E-03 
2342	-1.21781618915459E-03 
2343	 9.19063949465563E-03 
2344	 1.41220966154589E-02 
2345	 1.63378208366738E-02 
2346	 1.64756578723007E-02 
2347	 7.58080712038376E-03 
2348	 2.2905461847611E-03 
2349	 1.54263590800109E-03 
2350	-4.69680646033191E-03 
2351	-9.42912583795144E-04 
2352	 4.66258871256772E-03 
2353	-1.80565674948783E-03 
2354	-3.64799913377355E-03 
2355	-2.07771046177992E-03 
2356	-7.14892328734537E-03 
2357	-3.1161014098021E-03 
2358	 7.65301639890536E-03 
2359	 2.3824960760715E-03 
2360	-1.95643175526081E-03 
2361	 5.68538830845656E-04 
2362	-6.08025582948067E-03 
2363	-1.98811349366047E-03 
2364	 9.32414738829439E-03 
2365	 2.61987672622219E-03 
2366	-8.31217821718798E-03 
2367	-1.21031975945441E-02 
2368	-2.08773085759375E-02 
2369	-2.95827573707657E-02 
2370	-2.25859311539148E-02 
2371	-1.96281979760649E-02 
2372	-2.32818409578233E-02 
2373	-0.011767100052934 
2374	-1.34986122183883E-02 
2375	-2.68735020938006E-02 
2376	-0.014038567105014 
2377	 2.29656792260327E-03 
2378	 1.08189344109908E-02 
2379	 2.08314270783168E-02 
2380	 5.5135271633214E-03 
2381	-2.80790746935043E-02 
2382	-4.08521447138001E-02 
2383	-3.77089413065351E-02 
2384	-3.13723901804253E-02 
2385	-2.15107265678041E-02 
2386	-2.48532812131839E-02 
2387	-2.54767335165188E-02 
2388	-0.023635667437636 
2389	-2.35236651974771E-02 
2390	-1.47258363832239E-02 
2391	-2.75073503829794E-02 
2392	-3.96861911006754E-02 
2393	-3.37697841046225E-02 
2394	-4.00750437385145E-02 
2395	-2.71412473280014E-02 
2396	-9.70532418517278E-03 
2397	-6.53917929167701E-03 
2398	 2.12522726581327E-02 
2399	 0.016270281155955 
2400	 2.88670239717874E-03 
2401	 2.23842306622044E-02 
2402	 2.31093747857762E-02 
2403	 2.56800076931975E-02 
2404	 2.25897923432961E-02 
2405	 7.94103384564536E-03 
2406	-0.012019320942063 
2407	-1.97676132220866E-02 
2408	 6.22225539106246E-03 
2409	 5.78670645518388E-03 
2410	 6.07213074388533E-03 
2411	 6.32727210934335E-03 
2412	-1.49650902789335E-02 
2413	-1.66205767047108E-02 
2414	-6.27477592403006E-02 
2415	-0.121143279270107 
2416	-0.137311695450189 
2417	-0.136670838092051 
2418	-0.114637924959494 
2419	-9.51124064033591E-02 
2420	-0.110184142454027 
2421	-0.126629982129627 
2422	-9.15864444144992E-02 
2423	-7.48740863271458E-02 
2424	-8.29479482631741E-02 
2425	-6.84986098255563E-02 
2426	-6.02706358358785E-02 
2427	-4.72614837833492E-02 
2428	-1.93447760932163E-02 
2429	-1.97542090050079E-03 
2430	-1.35981080353201E-02 
2431	-3.74507058991279E-02 
2432	-5.63393772583277E-02 
2433	-6.19976363038205E-02 
2434	-0.050248931066886 
2435	-1.46977516657907E-02 
2436	 2.50348699225535E-02 
2437	 0.024125874902576 
2438	 5.01341310008091E-03 
2439	-5.18387974763287E-02 
2440	-7.86996915026059E-02 
2441	-3.91449111510807E-03 
2442	 2.27317918794768E-03 
2443	-1.22781476884208E-02 
2444	 2.84805022393367E-02 
2445	 3.08271017806751E-02 
2446	 3.10248867896025E-02 
2447	 7.35097809582422E-02 
2448	 4.19798992095138E-02 
2449	-4.99640564288893E-03 
2450	-7.97669885700407E-02 
2451	-0.305013011538924 
2452	-0.336744996546247 
2453	-0.352584935895958 
2454	-0.207293145840013 
2455	-7.81597012462111E-02 
2456	-1.24630746179095E-02 
2457	-3.51299782978652E-02 
2458	-0.116858408940065 
2459	-0.149871458473905 
2460	-0.14533675293082 
2461	-0.162535463472897 
2462	-0.107311637037873 
2463	-3.63927430120534E-02 
2464	-0.210901137201367 
2465	-0.24380892336911 
2466	-0.127858882944057 
2467	-0.201232896274926 
2468	-0.191302409581989 
2469	-7.22842582485883E-02 
2470	-0.158212691531116 
2471	-0.258629550711383 
2472	-0.267812475957008 
2473	-0.314068900414693 
2474	-0.433325616987316 
2475	-0.580446625822141 
2476	-0.589468603804333 
2477	-0.51349272674524 
2478	-0.456221739969654 
2479	-0.278116967146775 
2480	-0.217121016523305 
2481	-0.216662720279318 
2482	-6.33066429768563E-03 
2483	-0.145594893517077 
2484	-0.427555444013034 
2485	-0.371590182606923 
2486	 9.66812354411427 
2487	-39.5674123412004 
2488	-1.08684523375303 
2489	-7.06484055714361 
2490	-19.124759936047 
2491	-2.64948924570223 
2492	 1.92529528579191 
2493	 1.69547059806679 
2494	-3.42787565235765 
2495	-0.903720810828158 
2496	-0.178333550246039 
2497	 0.111115393001581 
2498	-0.232466804050754 
2499	-0.317028163085947 
2500	-0.51073515811586 
