Wavelength	rt0715close00002.asd
350	 4.92332881616667E-02 
351	 4.89895604033399E-02 
352	 4.83668585908986E-02 
353	 4.81835011733199E-02 
354	 4.86989952132319E-02 
355	 4.87520074168894E-02 
356	 4.84685106597792E-02 
357	 4.79476324728654E-02 
358	 4.74391324092048E-02 
359	 4.77417490795221E-02 
360	 4.74971119264735E-02 
361	 4.68694290216081E-02 
362	 4.69559918092689E-02 
363	 4.68146090198396E-02 
364	 4.63654818654485E-02 
365	 4.60003838136419E-02 
366	 4.66565334034471E-02 
367	 4.67877637848636E-02 
368	 4.65731152258516E-02 
369	 0.046503094051062 
370	 4.64168111907491E-02 
371	 4.62610175995063E-02 
372	 4.61351266593809E-02 
373	 4.61820801645949E-02 
374	 4.61491763059036E-02 
375	 4.57994694493659E-02 
376	 4.53947750995354E-02 
377	 0.045813389239504 
378	 4.58158758344789E-02 
379	 4.55132355358228E-02 
380	 4.54021828094243E-02 
381	 4.62044324288817E-02 
382	 4.59529159841597E-02 
383	 4.52206439151793E-02 
384	 4.55077414365078E-02 
385	 4.52580630164198E-02 
386	 0.044998651028046 
387	 4.49977104951373E-02 
388	 4.50597695148639E-02 
389	 4.56361475928786E-02 
390	 4.59917940992225E-02 
391	 4.57161620354138E-02 
392	 4.56905418442061E-02 
393	 0.045390358239993 
394	 4.51539768097136E-02 
395	 4.53582542789967E-02 
396	 4.49217395378227E-02 
397	 4.46527510600254E-02 
398	 4.46888623431709E-02 
399	 4.45384741588146E-02 
400	 4.47101956852411E-02 
401	 4.49061610603351E-02 
402	 0.044910444024089 
403	 0.044937864629314 
404	 4.49926515619842E-02 
405	 4.50371149690758E-02 
406	 4.50400126053195E-02 
407	 4.51404026586081E-02 
408	 4.51585639302665E-02 
409	 4.51050413555061E-02 
410	 4.51800114690192E-02 
411	 4.52481379967657E-02 
412	 4.52124811060472E-02 
413	 4.51028823998669E-02 
414	 4.52410930963313E-02 
415	 0.045263811193064 
416	 4.52618755592024E-02 
417	 4.54358476087847E-02 
418	 0.045440620586481 
419	 4.55249777598929E-02 
420	 4.57189609726961E-02 
421	 0.04578601554345 
422	 4.59045646713314E-02 
423	 4.59943346296919E-02 
424	 0.046038287196031 
425	 0.046351857459444 
426	 4.66088943949865E-02 
427	 4.67790987012494E-02 
428	 4.69475894449005E-02 
429	 4.69000442604106E-02 
430	 4.68670586444611E-02 
431	 4.69787844778932E-02 
432	 4.71960554066132E-02 
433	 4.73573126906595E-02 
434	 4.75309392289717E-02 
435	 4.77898894608839E-02 
436	 4.80779490224071E-02 
437	 4.82209779773469E-02 
438	 4.82592039290196E-02 
439	 4.83514467790826E-02 
440	 0.048530848197386 
441	 4.87219104965282E-02 
442	 4.89089451423561E-02 
443	 4.91874806464704E-02 
444	 4.93740826969806E-02 
445	 4.95183604006939E-02 
446	 0.049703954919352 
447	 4.98807393917477E-02 
448	 5.00267030487931E-02 
449	 5.01541221409763E-02 
450	 5.02987222605103E-02 
451	 5.04576631608635E-02 
452	 5.05220907041806E-02 
453	 5.04881320128927E-02 
454	 5.05891287831381E-02 
455	 5.07237405170597E-02 
456	 5.08125216717129E-02 
457	 5.08204622617645E-02 
458	 0.050924254142742 
459	 5.10101771740155E-02 
460	 5.10681957114725E-02 
461	 5.12004565322692E-02 
462	 5.13095067367834E-02 
463	 5.14399649142498E-02 
464	 5.15980078742715E-02 
465	 5.15972672905281E-02 
466	 5.16490138864458E-02 
467	 5.17829862158841E-02 
468	 5.19120442730534E-02 
469	 5.18152519223416E-02 
470	 5.18307104514895E-02 
471	 5.20302992126137E-02 
472	 5.20696957761663E-02 
473	 5.20195885750196E-02 
474	 5.20031321278404E-02 
475	 5.21038171023117E-02 
476	 5.21924219202154E-02 
477	 5.23167906073254E-02 
478	 5.24823602900901E-02 
479	 5.26613960487569E-02 
480	 5.27899838692977E-02 
481	 5.29938018827148E-02 
482	 5.33213139911648E-02 
483	 0.053633965703287 
484	 5.37162862075195E-02 
485	 5.36814955934731E-02 
486	 5.37406817108896E-02 
487	 5.37926848922516E-02 
488	 5.40104950315768E-02 
489	 5.43563778214962E-02 
490	 5.45935781351031E-02 
491	 5.48140421750761E-02 
492	 5.50089726369866E-02 
493	 5.51789354989184E-02 
494	 5.53890124202598E-02 
495	 5.56566443326874E-02 
496	 0.055958053938121 
497	 5.62512973447232E-02 
498	 5.65669246321336E-02 
499	 5.68049196869458E-02 
500	 5.69734364946731E-02 
501	 5.72605363720773E-02 
502	 5.75492587319547E-02 
503	 5.78295148935299E-02 
504	 5.81151129418419E-02 
505	 5.83840623442693E-02 
506	 5.87025372171854E-02 
507	 5.90662623266373E-02 
508	 5.94103556105141E-02 
509	 5.96667217987169E-02 
510	 5.99425153595688E-02 
511	 6.03037903599578E-02 
512	 6.06498484432213E-02 
513	 6.10908406188157E-02 
514	 6.15617166640111E-02 
515	 6.19328264336906E-02 
516	 6.22532742143815E-02 
517	 6.25508010626734E-02 
518	 6.28676114553869E-02 
519	 6.32612642719346E-02 
520	 6.36264091770243E-02 
521	 6.39902956118754E-02 
522	 6.44169676461151E-02 
523	 6.49932963937251E-02 
524	 6.54953356339229E-02 
525	 6.58880327511781E-02 
526	 6.62753235129123E-02 
527	 6.66111678746482E-02 
528	 0.066989094498314 
529	 0.067450731476668 
530	 0.067905131783435 
531	 6.84395188523268E-02 
532	 6.89743770159562E-02 
533	 6.94080929318123E-02 
534	 6.98874385361518E-02 
535	 7.05312003817168E-02 
536	 0.071285020749906 
537	 7.19068842535475E-02 
538	 7.24766990955213E-02 
539	 7.29969433299312E-02 
540	 7.34687835861293E-02 
541	 7.39244781504622E-02 
542	 7.43778600527997E-02 
543	 7.48007256716729E-02 
544	 7.51479769200089E-02 
545	 7.54875779691088E-02 
546	 7.57798342461382E-02 
547	 7.59934418071781E-02 
548	 7.61377577182118E-02 
549	 0.076237347988702 
550	 7.63254225899815E-02 
551	 7.64323475174801E-02 
552	 0.076535827829766 
553	 7.67681491968769E-02 
554	 7.71703896960967E-02 
555	 7.76738409872034E-02 
556	 7.84234025327489E-02 
557	 7.92007881380187E-02 
558	 7.98133717366324E-02 
559	 8.04715920115768E-02 
560	 8.11259041850649E-02 
561	 8.17265429032955E-02 
562	 8.22384829019034E-02 
563	 8.27587708597771E-02 
564	 8.32387299441485E-02 
565	 8.36771908113679E-02 
566	 8.42012590776669E-02 
567	 8.47990042690624E-02 
568	 8.54201950295744E-02 
569	 8.59891121472221E-02 
570	 8.64361580739008E-02 
571	 8.67990109251583E-02 
572	 0.087137209356882 
573	 8.75196580901718E-02 
574	 8.78814751629648E-02 
575	 8.80806519352295E-02 
576	 8.80429294733648E-02 
577	 8.79566744936908E-02 
578	 8.78198722889721E-02 
579	 8.76349501693407E-02 
580	 8.74181055131742E-02 
581	 8.73183169902407E-02 
582	 8.72510558945646E-02 
583	 8.71629301229352E-02 
584	 8.71007726679142E-02 
585	 8.72351348859657E-02 
586	 8.76036430077817E-02 
587	 8.81122503328938E-02 
588	 8.83243425341697E-02 
589	 8.81870851486631E-02 
590	 8.79205063152959E-02 
591	 8.79487772052207E-02 
592	 8.79804891790117E-02 
593	 8.78696577659806E-02 
594	 8.75893403339065E-02 
595	 8.73803832677147E-02 
596	 8.71089507343166E-02 
597	 8.67156493543833E-02 
598	 8.62147763639645E-02 
599	 8.58427019697333E-02 
600	 8.56327310521449E-02 
601	 8.55595047560886E-02 
602	 8.55509310934373E-02 
603	 8.56299663921795E-02 
604	 8.57282986086766E-02 
605	 8.57773878447535E-02 
606	 0.085855703558904 
607	 8.59040712718696E-02 
608	 8.59224048774882E-02 
609	 8.59760668312007E-02 
610	 8.60508269588319E-02 
611	 8.61196509264374E-02 
612	 8.61702817732529E-02 
613	 8.62444257114765E-02 
614	 8.63123126663974E-02 
615	 8.63699106983893E-02 
616	 8.64175162595199E-02 
617	 8.63655269632528E-02 
618	 8.63192513039858E-02 
619	 8.63609603088955E-02 
620	 8.65139763223911E-02 
621	 8.65734856297358E-02 
622	 8.65559226396848E-02 
623	 8.65392433773274E-02 
624	 8.64794766359943E-02 
625	 8.64918741034202E-02 
626	 8.65629282845298E-02 
627	 8.65597664854032E-02 
628	 8.65674862405982E-02 
629	 0.086603951735445 
630	 8.66529007510927E-02 
631	 8.66350549497268E-02 
632	 8.66761422913889E-02 
633	 8.67372554410278E-02 
634	 8.67150597350353E-02 
635	 8.66785687306092E-02 
636	 8.66524150483937E-02 
637	 8.66657877499799E-02 
638	 8.67652866118462E-02 
639	 8.67421450531727E-02 
640	 8.66367094764992E-02 
641	 8.65626209201579E-02 
642	 8.65779485406001E-02 
643	 8.66122038072956E-02 
644	 0.086589504976259 
645	 8.64479503725837E-02 
646	 8.63799267260142E-02 
647	 8.63642470895839E-02 
648	 0.086345335191053 
649	 8.62893272558066E-02 
650	 8.61858238536187E-02 
651	 8.60697381523426E-02 
652	 8.59824854943425E-02 
653	 8.58519058128539E-02 
654	 8.57619914845104E-02 
655	 8.56488202213512E-02 
656	 8.52634392178011E-02 
657	 0.084877911882376 
658	 8.46345223885914E-02 
659	 8.45692079382091E-02 
660	 8.45783233499871E-02 
661	 8.44672990284241E-02 
662	 8.43016309396095E-02 
663	 8.42923396146705E-02 
664	 8.42491146459494E-02 
665	 8.42177980329316E-02 
666	 8.41920844486131E-02 
667	 8.40159188290478E-02 
668	 8.38478475029118E-02 
669	 0.083767354360198 
670	 8.37789384979848E-02 
671	 8.36552830785729E-02 
672	 8.36144012074566E-02 
673	 8.36717687923531E-02 
674	 8.36440948167265E-02 
675	 8.36358378434725E-02 
676	 8.36599037189412E-02 
677	 0.083716690856784 
678	 8.38139809060456E-02 
679	 8.39638597248008E-02 
680	 0.084196965198567 
681	 8.45108170685409E-02 
682	 0.084648225633122 
683	 8.47050044984686E-02 
684	 8.48090394880276E-02 
685	 8.51090190680733E-02 
686	 8.51990649173316E-02 
687	 8.50306668304613E-02 
688	 8.48191632993942E-02 
689	 8.49824387434209E-02 
690	 0.085182478264305 
691	 8.52717831859021E-02 
692	 8.52357678156981E-02 
693	 8.52126741453442E-02 
694	 8.52205820187747E-02 
695	 8.51888647371989E-02 
696	 0.084928582799956 
697	 0.084733623708957 
698	 8.46143463928658E-02 
699	 8.44674947859657E-02 
700	 0.08407453796094 
701	 8.36901784628354E-02 
702	 8.33945907758715E-02 
703	 8.30878950396865E-02 
704	 8.26690345753926E-02 
705	 8.22064170961103E-02 
706	 0.081743344624814 
707	 8.11758635371333E-02 
708	 8.06164951430004E-02 
709	 8.00141820829694E-02 
710	 7.92759854312306E-02 
711	 7.84657938461661E-02 
712	 7.75669081000046E-02 
713	 7.66037507702506E-02 
714	 7.56242657439648E-02 
715	 7.47353314131287E-02 
716	 7.37444042203578E-02 
717	 7.25000918292827E-02 
718	 7.11792852973504E-02 
719	 6.96511773268126E-02 
720	 6.82936049342859E-02 
721	 6.72846523745872E-02 
722	 6.63849268092568E-02 
723	 6.52498125383176E-02 
724	 6.38551092067416E-02 
725	 6.23862995999062E-02 
726	 6.09227833127376E-02 
727	 5.94149402640196E-02 
728	 5.77882504731006E-02 
729	 5.59110928661075E-02 
730	 5.40103631588053E-02 
731	 5.22342326057906E-02 
732	 5.06362041455551E-02 
733	 4.94782823778928E-02 
734	 0.048422286289506 
735	 4.73587919419229E-02 
736	 0.046514086199497 
737	 4.59580741855575E-02 
738	 4.55362636291494E-02 
739	 4.51387303103229E-02 
740	 4.49723735278976E-02 
741	 4.47963707419989E-02 
742	 4.46136153974822E-02 
743	 4.45485405321953E-02 
744	 4.45637798651399E-02 
745	 4.45452695321024E-02 
746	 4.44603190715169E-02 
747	 4.43943768789926E-02 
748	 0.044430031080002 
749	 0.044461075978227 
750	 4.44109016801875E-02 
751	 4.44874069016095E-02 
752	 4.44637049333129E-02 
753	 4.43744460468469E-02 
754	 4.43809812064252E-02 
755	 4.43747774874912E-02 
756	 4.43572962982795E-02 
757	 4.44848697819516E-02 
758	 4.53250802980931E-02 
759	 0.045777985405738 
760	 4.48621354099164E-02 
761	 4.35013226590575E-02 
762	 4.38118969142268E-02 
763	 4.39977299740185E-02 
764	 4.40025244611958E-02 
765	 4.42646402896006E-02 
766	 4.44600731239386E-02 
767	 0.044758863091444 
768	 4.50990992855189E-02 
769	 0.0451791623835 
770	 4.53760655810692E-02 
771	 4.55479102169996E-02 
772	 4.56137053402972E-02 
773	 4.59659873254257E-02 
774	 4.61805928939162E-02 
775	 4.62817831085074E-02 
776	 4.64795802362507E-02 
777	 4.67795880248608E-02 
778	 4.70457274967739E-02 
779	 4.72647716686206E-02 
780	 4.75554873182455E-02 
781	 0.047857560677519 
782	 4.80935175501036E-02 
783	 4.82806533249491E-02 
784	 4.86676275951256E-02 
785	 4.88968100244125E-02 
786	 4.91795502909676E-02 
787	 4.97614398135113E-02 
788	 4.99845678299395E-02 
789	 5.02367199977549E-02 
790	 0.050617045503703 
791	 5.09614884540159E-02 
792	 5.13263570891226E-02 
793	 5.16331921686402E-02 
794	 5.19066821780771E-02 
795	 5.23626977534474E-02 
796	 5.26527599787737E-02 
797	 5.29179506583911E-02 
798	 5.33235363143601E-02 
799	 5.36056215687414E-02 
800	 5.38531928546103E-02 
801	 5.41054226606208E-02 
802	 5.43611833972808E-02 
803	 5.45304041386965E-02 
804	 5.46409583357738E-02 
805	 5.47296259955271E-02 
806	 5.48271605931223E-02 
807	 5.49106582477011E-02 
808	 5.49672493374642E-02 
809	 5.49678049155356E-02 
810	 0.054829616110031 
811	 5.47436357172857E-02 
812	 5.46070796573249E-02 
813	 5.42524298071171E-02 
814	 0.053926263297724 
815	 5.34844429114156E-02 
816	 5.30005671797305E-02 
817	 5.26740957501622E-02 
818	 5.21803003958866E-02 
819	 5.17109840881327E-02 
820	 5.12840587285246E-02 
821	 5.06551881808829E-02 
822	 4.95057282686313E-02 
823	 4.82133980077187E-02 
824	 4.71662394485727E-02 
825	 4.62346794982217E-02 
826	 4.50488086144727E-02 
827	 0.043611143457414 
828	 4.21614992462025E-02 
829	 4.07819777256856E-02 
830	 3.95005435518165E-02 
831	 3.84413884035018E-02 
832	 3.77568744911037E-02 
833	 3.69170723533631E-02 
834	 3.62035539827408E-02 
835	 3.57266047868796E-02 
836	 3.52480058557482E-02 
837	 3.49549052201547E-02 
838	 3.47592834897601E-02 
839	 3.45109607511175E-02 
840	 3.40207365747521E-02 
841	 3.38261134845369E-02 
842	 3.37980691972385E-02 
843	 3.36103597046066E-02 
844	 3.33631990104971E-02 
845	 3.30539135946471E-02 
846	 3.27524879438955E-02 
847	 3.25518977159472E-02 
848	 3.22697560002044E-02 
849	 3.21613691698313E-02 
850	 3.21928309710618E-02 
851	 3.19299165353156E-02 
852	 3.16188016694324E-02 
853	 3.13066759639968E-02 
854	 3.10576836766828E-02 
855	 3.10332683077758E-02 
856	 3.09508755910214E-02 
857	 3.06847692147228E-02 
858	 3.03181774888018E-02 
859	 0.030505639988712 
860	 0.030328518817924 
861	 2.99384471702425E-02 
862	 2.99107426615349E-02 
863	 2.96481709434049E-02 
864	 2.96762298774243E-02 
865	 2.98043657364145E-02 
866	 2.92578720841352E-02 
867	 0.028895849399073 
868	 2.86278685589288E-02 
869	 2.84308150861789E-02 
870	 2.85252506140209E-02 
871	 2.82033977364523E-02 
872	 2.78692562602352E-02 
873	 2.78325654475879E-02 
874	 2.76330285462171E-02 
875	 2.73976469863893E-02 
876	 2.71830617230062E-02 
877	 0.026993547427028 
878	 2.67061088935638E-02 
879	 2.63707054780144E-02 
880	 2.61139649048533E-02 
881	 2.60189246589958E-02 
882	 2.57602004552378E-02 
883	 2.54832944373188E-02 
884	 2.52786606490619E-02 
885	 2.51733116949287E-02 
886	 2.52644747202615E-02 
887	 2.50102617087468E-02 
888	 2.45234554706494E-02 
889	 2.46383353144311E-02 
890	 2.45130050230182E-02 
891	 2.43414653508936E-02 
892	 2.42839200471708E-02 
893	 2.41123923434179E-02 
894	 2.38948875707991E-02 
895	 2.36900449937623E-02 
896	 2.35599588399208E-02 
897	 2.35669986124204E-02 
898	 2.34821713028609E-02 
899	 2.30884010364177E-02 
900	 2.24591188035417E-02 
901	 2.24326252130766E-02 
902	 0.022444994554319 
903	 0.02227653168538 
904	 2.19714445167998E-02 
905	 2.20532738618069E-02 
906	 2.21401443575369E-02 
907	 2.20950592183457E-02 
908	 2.19699826894118E-02 
909	 2.16756858452203E-02 
910	 2.13528166774369E-02 
911	 2.11203569412378E-02 
912	 2.10045100646466E-02 
913	 2.07011061407443E-02 
914	 2.01946027773556E-02 
915	 1.97271323959995E-02 
916	 1.96857060865406E-02 
917	 1.94857058963936E-02 
918	 0.019255598423767 
919	 1.92059108532784E-02 
920	 0.019470985804843 
921	 1.92712415439849E-02 
922	 1.87656292961514E-02 
923	 1.83598886988662E-02 
924	 1.85365493559017E-02 
925	 1.87432788313921E-02 
926	 0.018868308002788 
927	 1.89594074693098E-02 
928	 1.91876223808221E-02 
929	 1.85751311868922E-02 
930	 1.83900877283158E-02 
931	 2.01616312582621E-02 
932	 1.92055364974101E-02 
933	 1.67384743487957E-02 
934	 1.59140955558129E-02 
935	 1.79634266855969E-02 
936	 1.55528233076466E-02 
937	 1.52713412886253E-02 
938	 1.67820235335845E-02 
939	 1.74157883071392E-02 
940	 1.52539138978541E-02 
941	 1.54546638836552E-02 
942	 1.65325622962482E-02 
943	 1.48618904684562E-02 
944	 1.61716777484213E-02 
945	 1.74558996290147E-02 
946	 1.76655911279138E-02 
947	 1.74577434436672E-02 
948	 1.71583825185817E-02 
949	 1.69566352161203E-02 
950	 0.017092624158776 
951	 1.74875538833377E-02 
952	 1.58495345313469E-02 
953	 1.61917655011902E-02 
954	 1.69554580160206E-02 
955	 1.39822191673109E-02 
956	 1.51438372854964E-02 
957	 1.64485291693087E-02 
958	 1.61359096960079E-02 
959	 1.52515840647704E-02 
960	 1.63968981731514E-02 
961	 1.58384930780546E-02 
962	 1.44591862518445E-02 
963	 1.59696609969327E-02 
964	 0.015805159964638 
965	 1.61002121120454E-02 
966	 1.67434090820955E-02 
967	 1.58485310142416E-02 
968	 1.49845173677871E-02 
969	 1.47955556177362E-02 
970	 1.54384038667457E-02 
971	 1.65532524048229E-02 
972	 1.65778492742403E-02 
973	 1.61547803911767E-02 
974	 1.58800134800259E-02 
975	 1.59572558335409E-02 
976	 1.62135477433736E-02 
977	 1.64622239171682E-02 
978	 1.65361411879056E-02 
979	 1.62743965132062E-02 
980	 1.50561243859583E-02 
981	 0.01495604031944 
982	 1.59909941045131E-02 
983	 1.62882659757907E-02 
984	 0.015023977294615 
985	 1.51041751591742E-02 
986	 1.66515810781601E-02 
987	 1.72782696460636E-02 
988	 1.61966853717984E-02 
989	 1.58969538655304E-02 
990	 1.63153598492326E-02 
991	 1.56760818862209E-02 
992	 1.66751564239282E-02 
993	 1.65000448720697E-02 
994	 1.52810416976918E-02 
995	 1.52822463677298E-02 
996	 1.62997928498596E-02 
997	 0.015475366427905 
998	 1.47988696223989E-02 
999	 1.75031992976102E-02 
1000	 1.56976269111072E-02 
1001	 1.40654795917726E-03 
1002	 1.65623281167671E-03 
1003	 1.72598980938276E-03 
1004	 0.001664279220808 
1005	 1.51485920293798E-03 
1006	 1.11113478985112E-03 
1007	 8.86275787430971E-04 
1008	 7.77254368551047E-04 
1009	 7.39795385526534E-04 
1010	 8.5935803768378E-04 
1011	 8.89200402338076E-04 
1012	 9.42365907308091E-04 
1013	 7.97467603416404E-04 
1014	 7.27398986631569E-04 
1015	 5.84978079497931E-04 
1016	 6.93967131735275E-04 
1017	 1.01710518551516E-03 
1018	 1.1347989417354E-03 
1019	 1.38950584838398E-03 
1020	 1.47013889740933E-03 
1021	 1.31085245181058E-03 
1022	 1.09240256059586E-03 
1023	 1.06065924307193E-03 
1024	 1.34206827554787E-03 
1025	 1.60577497608016E-03 
1026	 1.51545240166011E-03 
1027	 1.57999794622223E-03 
1028	 1.58251068897981E-03 
1029	 1.61251970854008E-03 
1030	 1.7966319968378E-03 
1031	 1.82004246827347E-03 
1032	 1.68827436799358E-03 
1033	 1.65005797006428E-03 
1034	 1.50206260228994E-03 
1035	 1.46939668857624E-03 
1036	 1.64588454372096E-03 
1037	 1.63908493582214E-03 
1038	 1.50611203391283E-03 
1039	 1.49925229436442E-03 
1040	 1.47161929709624E-03 
1041	 1.56547173470319E-03 
1042	 1.54835610772517E-03 
1043	 1.58414582516403E-03 
1044	 1.65128070991468E-03 
1045	 1.64573230667844E-03 
1046	 1.6618835995195E-03 
1047	 1.89039679267143E-03 
1048	 1.85656990884089E-03 
1049	 1.50559761268073E-03 
1050	 1.43269047975093E-03 
1051	 1.42895274499632E-03 
1052	 1.4031564314493E-03 
1053	 1.43648885653102E-03 
1054	 1.54040536591891E-03 
1055	 1.67456268390871E-03 
1056	 1.78054301423015E-03 
1057	 1.91713626940631E-03 
1058	 2.28560852384031E-03 
1059	 2.23299729255339E-03 
1060	 1.87560719327797E-03 
1061	 1.79110636125325E-03 
1062	 1.51172425799865E-03 
1063	 1.56404875771217E-03 
1064	 2.04674427367164E-03 
1065	 2.19666423520716E-03 
1066	 2.48097806619445E-03 
1067	 2.42008422824736E-03 
1068	 1.75070895847018E-03 
1069	 1.61760767120663E-03 
1070	 1.51557227062902E-03 
1071	 1.56343483855156E-03 
1072	 2.07282039197708E-03 
1073	 2.6259970586095E-03 
1074	 2.64419525412447E-03 
1075	 2.3475702889822E-03 
1076	 2.22823360819782E-03 
1077	 0.001794809823683 
1078	 1.66022446315022E-03 
1079	 1.77531534584917E-03 
1080	 1.79650138621941E-03 
1081	 1.84562149800697E-03 
1082	 1.82960366260722E-03 
1083	 1.83096113752305E-03 
1084	 1.78085106127773E-03 
1085	 1.59544068590198E-03 
1086	 1.50258316635095E-03 
1087	 1.36544300077211E-03 
1088	 1.38166970296878E-03 
1089	 1.54881034398107E-03 
1090	 1.76018135139442E-03 
1091	 1.78048113633491E-03 
1092	 1.74387571959369E-03 
1093	 1.75810192181636E-03 
1094	 1.69655616039719E-03 
1095	 1.63228971747161E-03 
1096	 1.65654503985892E-03 
1097	 1.66011598212196E-03 
1098	 1.4393815949248E-03 
1099	 1.37915595718907E-03 
1100	 1.6116182464127E-03 
1101	 1.63497463813111E-03 
1102	 1.53452642276545E-03 
1103	 1.52696153406061E-03 
1104	 1.67953913753841E-03 
1105	 1.31715693346221E-03 
1106	 1.02480623301413E-03 
1107	 1.19282002966028E-03 
1108	 1.11524492134561E-03 
1109	 1.36453550511102E-03 
1110	 1.51543404410211E-03 
1111	 1.72249425937663E-03 
1112	 1.89076727572018E-03 
1113	 2.3255090284213E-03 
1114	 2.40097592704341E-03 
1115	 2.13133666329634E-03 
1116	 2.09892311766037E-03 
1117	 1.54870677676071E-03 
1118	 1.35144522162019E-03 
1119	 2.41697047478593E-03 
1120	 2.67821507063898E-03 
1121	 2.42693460530721E-03 
1122	 1.41886638556133E-03 
1123	 3.22984976613156E-03 
1124	 4.1887951583329E-03 
1125	 0.003680694642852 
1126	 3.84792683689306E-03 
1127	 2.07330492667846E-03 
1128	 5.51016426024808E-04 
1129	 1.33145205938848E-04 
1130	 1.82959850096941E-03 
1131	 2.13293874972009E-03 
1132	 1.7832965182761E-03 
1133	 1.6306245643606E-03 
1134	 1.78714715530393E-03 
1135	 1.65740235688799E-03 
1136	 1.35180666009028E-03 
1137	 1.36147001918365E-03 
1138	 1.55645091379803E-03 
1139	 1.15223090339516E-03 
1140	 1.76727714426489E-03 
1141	 1.68080486441368E-03 
1142	 3.24428836572452E-04 
1143	 4.56584140762286E-04 
1144	 1.45388896716869E-03 
1145	 1.37543373171399E-03 
1146	 1.94551001370219E-03 
1147	 2.57579092855618E-03 
1148	 1.99524515686959E-03 
1149	 1.5219929521059E-03 
1150	 1.24913765774451E-03 
1151	 1.02418331911883E-03 
1152	 1.07699273852764E-03 
1153	 1.68382922744014E-03 
1154	 1.45851049051939E-03 
1155	 9.25239210071926E-04 
1156	 6.39290976496261E-04 
1157	 7.03546419853268E-04 
1158	 4.97244863365568E-04 
1159	 6.30194001569194E-04 
1160	 8.9283392207168E-04 
1161	 5.88846355267586E-04 
1162	 4.48419427422728E-04 
1163	 6.86608423466786E-04 
1164	 1.04464905589012E-03 
1165	 1.17128447228774E-03 
1166	 9.38752465436232E-04 
1167	 9.72918384763006E-04 
1168	 9.29561084971261E-04 
1169	 7.36776911245023E-04 
1170	 9.73175761807491E-04 
1171	 1.0243445336773E-03 
1172	 7.19597953307104E-04 
1173	 6.82365768004552E-04 
1174	 8.58027011820749E-04 
1175	 9.6104824483588E-04 
1176	 8.53776007554794E-04 
1177	 9.43397828355134E-04 
1178	 8.96510753333665E-04 
1179	 4.97661987589186E-04 
1180	 4.27174705632944E-04 
1181	 6.92367857969911E-04 
1182	 7.72609196524886E-04 
1183	 8.6000673601181E-04 
1184	 9.50572041603076E-04 
1185	 7.78965301194433E-04 
1186	 6.47441958858775E-04 
1187	 7.16406038595271E-04 
1188	 7.04054430482992E-04 
1189	 6.54704725853748E-04 
1190	 8.37129066544777E-04 
1191	 9.6013132001595E-04 
1192	 9.49214155497965E-04 
1193	 8.82869985024463E-04 
1194	 9.32913310933286E-04 
1195	 9.30696057293535E-04 
1196	 9.3317975006639E-04 
1197	 1.03006557130226E-03 
1198	 9.41680687556531E-04 
1199	 7.89149057626499E-04 
1200	 6.86054681441057E-04 
1201	 5.42147988887699E-04 
1202	 6.82680601462074E-04 
1203	 9.17467231744885E-04 
1204	 8.011566708942E-04 
1205	 8.49740607762963E-04 
1206	 9.78680085017368E-04 
1207	 6.27145197773176E-04 
1208	 3.39625708225467E-04 
1209	 5.80040329673808E-04 
1210	 7.5220812549844E-04 
1211	 5.78618429012007E-04 
1212	 6.97801232240217E-04 
1213	 9.38873876432972E-04 
1214	 9.28765958592702E-04 
1215	 6.6006204054555E-04 
1216	 7.48939289139985E-04 
1217	 1.01480574961635E-03 
1218	 8.1671012267893E-04 
1219	 6.26327674118595E-04 
1220	 8.11399821088509E-04 
1221	 8.24531492373852E-04 
1222	 6.92876984767673E-04 
1223	 7.33077778135071E-04 
1224	 7.44113311857449E-04 
1225	 7.21007124805998E-04 
1226	 8.26452704963058E-04 
1227	 8.84609784416503E-04 
1228	 8.57920366299789E-04 
1229	 8.97469512294547E-04 
1230	 7.98805424266944E-04 
1231	 6.83305476969191E-04 
1232	 7.9439981078759E-04 
1233	 7.93417418475637E-04 
1234	 7.01065177085734E-04 
1235	 6.91775094186884E-04 
1236	 8.2107920243993E-04 
1237	 8.38813246543125E-04 
1238	 8.28045160165908E-04 
1239	 7.55473508301041E-04 
1240	 5.87797239608697E-04 
1241	 5.65023721048306E-04 
1242	 7.42992899666681E-04 
1243	 7.84917687096046E-04 
1244	 7.7694497383743E-04 
1245	 8.26527029230743E-04 
1246	 7.5167099134473E-04 
1247	 7.40560764314535E-04 
1248	 7.71576084658503E-04 
1249	 8.00826729924557E-04 
1250	 8.42192756757141E-04 
1251	 6.69221527770368E-04 
1252	 6.23512464989689E-04 
1253	 7.22665446520052E-04 
1254	 6.83661146417505E-04 
1255	 7.7401433722393E-04 
1256	 7.94411282405335E-04 
1257	 8.69190071083408E-04 
1258	 9.16703200180963E-04 
1259	 8.67001773657574E-04 
1260	 8.41827974602702E-04 
1261	 9.49318841518412E-04 
1262	 9.78127071541621E-04 
1263	 8.83313348954629E-04 
1264	 8.22530340303026E-04 
1265	 1.0865255950406E-03 
1266	 1.04725089395437E-03 
1267	 7.28345987306622E-04 
1268	 7.13493850895868E-04 
1269	 6.44288540693302E-04 
1270	 5.42358619242905E-04 
1271	 6.8787116727382E-04 
1272	 8.52211794315263E-04 
1273	 8.61206426185304E-04 
1274	 7.57856536799123E-04 
1275	 7.65043428857906E-04 
1276	 8.20404161065575E-04 
1277	 8.36116741334831E-04 
1278	 8.65368206899749E-04 
1279	 7.47115921029694E-04 
1280	 5.98022960173203E-04 
1281	 6.54710601564512E-04 
1282	 8.56424889471721E-04 
1283	 8.29066970444672E-04 
1284	 8.42975356942159E-04 
1285	 8.65631413673313E-04 
1286	 6.04828791782157E-04 
1287	 5.34455015122027E-04 
1288	 8.08933828972854E-04 
1289	 9.16742083856027E-04 
1290	 9.85604170825221E-04 
1291	 7.83738897797203E-04 
1292	 8.86752601210676E-04 
1293	 9.88188224623271E-04 
1294	 6.84109677149016E-04 
1295	 5.73130618703504E-04 
1296	 7.70328227542778E-04 
1297	 8.72577302067434E-04 
1298	 9.3168276403848E-04 
1299	 1.03531142177744E-03 
1300	 9.16281309474013E-04 
1301	 5.38688770261227E-04 
1302	 4.49164533423347E-04 
1303	 8.08408101196821E-04 
1304	 8.91394246053685E-04 
1305	 6.64829018252422E-04 
1306	 7.45109989959746E-04 
1307	 1.0242926357613E-03 
1308	 9.15326006854633E-04 
1309	 7.08717820850303E-04 
1310	 7.60516616941206E-04 
1311	 6.82571406711461E-04 
1312	 5.43283894824666E-04 
1313	 5.55597369733356E-04 
1314	 6.02722823985292E-04 
1315	 4.82701663389434E-04 
1316	 3.73121195090919E-04 
1317	 4.01224501051475E-04 
1318	 5.94861961051273E-04 
1319	 9.42530077589511E-04 
1320	 9.17976639480583E-04 
1321	 7.78595160531457E-04 
1322	 9.37698964199606E-04 
1323	 9.38171068030741E-04 
1324	 5.81835020518956E-04 
1325	 5.82644088292055E-04 
1326	 9.73989334725544E-04 
1327	 1.13459685974177E-03 
1328	 8.58635112710659E-04 
1329	 7.11111565719625E-04 
1330	 6.7469262097669E-04 
1331	 2.2443494627871E-04 
1332	-2.47754042431887E-04 
1333	-4.76741672885223E-04 
1334	-3.88449410310634E-04 
1335	-2.1483870795473E-05 
1336	 1.09282765668581E-03 
1337	 1.15151402429682E-03 
1338	 8.08291135477511E-04 
1339	 9.81255025607292E-04 
1340	 6.74124096704992E-04 
1341	 5.65780419569324E-04 
1342	 1.32141985434307E-03 
1343	 1.58155758717986E-03 
1344	 1.15874706602409E-03 
1345	 9.76876524106195E-04 
1346	 6.83379215613402E-04 
1347	 1.21533862353675E-03 
1348	 3.65691891274967E-03 
1349	 3.58932523058244E-03 
1350	-1.27530101438592E-04 
1351	 2.76132627251211E-04 
1352	 3.21758284033014E-03 
1353	 1.8844750530542E-03 
1354	 6.55370616847087E-03 
1355	 1.34441904996699E-02 
1356	 9.37252798844737E-03 
1357	-1.17811976595387E-02 
1358	-2.15927412521494E-02 
1359	-5.39172309420503E-03 
1360	-2.05381352269207E-02 
1361	-4.62679835938239E-02 
1362	-7.88842238808599E-04 
1363	 9.54382126422714E-02 
1364	 0.116039313132076 
1365	 6.47936317213213E-02 
1366	 5.92467640091116E-02 
1367	 7.04230574351102E-02 
1368	 2.76253826324145E-02 
1369	-6.09864558191778E-02 
1370	-9.35282938867704E-02 
1371	-0.224269575461961 
1372	-0.191115953936386 
1373	 0.151007675575656 
1374	 0.150390851236619 
1375	-0.123371544072959 
1376	-5.78719280360386E-02 
1377	 0.145829576992351 
1378	 8.85412344629182E-02 
1379	-2.08898277061022E-02 
1380	 1.86563367506773E-02 
1381	-8.44714811310077E-02 
1382	-0.103645247848774 
1383	 0.335157063660502 
1384	 0.492179350714016 
1385	 0.287616450085153 
1386	 0.26564565228471 
1387	 0.249853305728792 
1388	 0.251355776430263 
1389	 0.362203030734471 
1390	 0.408526361417611 
1391	 0.269474482818595 
1392	 0.362163597009118 
1393	 0.212724583030074 
1394	-0.162148250739748 
1395	-9.49036215266369E-02 
1396	 8.11656023541605E-02 
1397	 5.69466143007149E-02 
1398	 7.99699176296389E-02 
1399	 9.27496156114574E-02 
1400	 4.94597395902667E-02 
1401	-8.40021829158362E-02 
1402	-0.145812896952606 
1403	-6.31789188911984E-02 
1404	-0.107822332988508 
1405	-0.102924699158716 
1406	-6.28012950925932E-03 
1407	 3.36375344968399E-02 
1408	 3.71116250919598E-02 
1409	-2.08607922885778E-03 
1410	-5.84344284584621E-02 
1411	-3.63596311589942E-02 
1412	-1.55592046841563E-02 
1413	-2.45546627634702E-02 
1414	-6.78039774651329E-03 
1415	 5.75212829142198E-03 
1416	-9.95707269023136E-03 
1417	-1.54613281333974E-02 
1418	-2.09343845357028E-03 
1419	 2.16106016729741E-03 
1420	-4.38280569619672E-03 
1421	-8.52900318729515E-03 
1422	-8.39379526593231E-03 
1423	-6.49819193314481E-03 
1424	-9.41404652991626E-03 
1425	-0.008807286883325 
1426	-2.34742560665136E-03 
1427	 2.55309239477325E-04 
1428	 1.03007847783513E-03 
1429	 1.52820409884451E-03 
1430	 1.91752077209174E-03 
1431	 2.37977921655415E-03 
1432	 2.72242788102024E-03 
1433	 2.28041203096762E-03 
1434	 1.21031717843274E-03 
1435	 3.37783414948867E-04 
1436	-2.46430861753043E-03 
1437	-2.41968408540947E-03 
1438	 2.39505164086129E-04 
1439	 5.24302877729849E-04 
1440	 1.49478507266288E-03 
1441	 0.002060790244576 
1442	-1.26027718016279E-03 
1443	-1.82187160307702E-03 
1444	 1.56400191360215E-05 
1445	-1.0327631054987E-03 
1446	-2.19009615173781E-03 
1447	-4.60959444351502E-04 
1448	 6.05503416629822E-04 
1449	-4.67502373277854E-04 
1450	-4.5100443277898E-04 
1451	 5.20594726770298E-04 
1452	 4.31548393949747E-04 
1453	 3.03721488667248E-04 
1454	 1.10399005900662E-04 
1455	-6.73659877725875E-05 
1456	-4.48713856075212E-04 
1457	-1.21214728538901E-03 
1458	-1.19286636323973E-03 
1459	-9.47396837048015E-04 
1460	-8.9291543881015E-04 
1461	-3.48699019177297E-04 
1462	-5.37005985285343E-05 
1463	-8.30857511407165E-05 
1464	-1.0946118120423E-04 
1465	-3.45857613133152E-05 
1466	-3.10757244510999E-04 
1467	-1.14825990834561E-03 
1468	-1.17733118323404E-03 
1469	-9.42466500495922E-04 
1470	-6.24982498453154E-04 
1471	 3.3271911941938E-04 
1472	 6.56914055467056E-04 
1473	 6.2088713089767E-04 
1474	 6.41052323607572E-04 
1475	 7.38779923271109E-04 
1476	 4.77815880367934E-04 
1477	-3.03519470598524E-04 
1478	-1.80516991326344E-04 
1479	 2.71421688332501E-04 
1480	 8.1304470930822E-05 
1481	 2.09868888316539E-04 
1482	 2.51475456468085E-04 
1483	-4.62686193834593E-04 
1484	-5.90468931331844E-04 
1485	-2.17481012599437E-04 
1486	-7.59315550694197E-07 
1487	 2.95118873945559E-04 
1488	 3.69259605224095E-04 
1489	 3.97481422727153E-04 
1490	 3.78616235322566E-04 
1491	 8.56614344366817E-05 
1492	 1.17158498558988E-04 
1493	 4.86792130985749E-04 
1494	 4.46519248136578E-04 
1495	 3.04691174538577E-04 
1496	 2.20619919496515E-04 
1497	-9.43231809440973E-05 
1498	-2.32082382851663E-04 
1499	-3.416261628928E-04 
1500	-2.78677656527452E-04 
1501	 1.22256987466149E-04 
1502	 1.47042383879006E-04 
1503	-5.64846926732829E-05 
1504	-1.20739715581066E-06 
1505	-2.42415703128895E-05 
1506	-1.03855447555583E-05 
1507	-2.18237684386403E-05 
1508	 8.95371894006247E-05 
1509	 1.4688942428914E-04 
1510	 3.69341569912213E-05 
1511	 2.24410164068817E-04 
1512	 4.69745148573005E-04 
1513	 2.90727227934254E-04 
1514	 4.42339371982554E-05 
1515	 7.42199243382659E-05 
1516	 7.2173876214082E-05 
1517	-7.04676337873431E-05 
1518	-1.03389350683898E-04 
1519	 4.12092077231213E-05 
1520	 6.75912255952618E-05 
1521	-1.534704058475E-04 
1522	-1.54942093525568E-04 
1523	 2.68192487047004E-05 
1524	 1.12312849563131E-04 
1525	 1.57451212970902E-04 
1526	 2.15006204531744E-04 
1527	 1.70246215374153E-04 
1528	 1.2118037048263E-05 
1529	 1.09700184363181E-05 
1530	 2.07859658801021E-05 
1531	 1.14925299596072E-04 
1532	 1.7747698274171E-04 
1533	 1.25800588992298E-04 
1534	 4.31628845777847E-04 
1535	 5.2124805541034E-04 
1536	 2.21091703026774E-04 
1537	 1.61041120030826E-04 
1538	 2.26081282963871E-04 
1539	 2.25610691143534E-04 
1540	 2.80808087619541E-04 
1541	 3.47843607019279E-04 
1542	 1.66633385307589E-04 
1543	 2.40666638049904E-06 
1544	 1.8132497540192E-04 
1545	 3.52020055474056E-04 
1546	 4.117181210433E-04 
1547	 4.00187886616192E-04 
1548	 2.42069254505991E-04 
1549	 1.35575912641673E-04 
1550	 2.07658142108322E-04 
1551	 3.75262195790357E-04 
1552	 3.98966242552564E-04 
1553	 2.03413463404863E-04 
1554	 1.06825007058698E-04 
1555	 2.94764478855778E-04 
1556	 4.03194887326466E-04 
1557	 2.71373513076712E-04 
1558	 3.08973371651873E-04 
1559	 4.34962294716841E-04 
1560	 3.3108332339369E-04 
1561	 2.15267566527197E-04 
1562	 2.42209683979718E-04 
1563	 2.3506432228278E-04 
1564	 1.37653457585831E-04 
1565	 1.85484950323795E-04 
1566	 3.6874195697574E-04 
1567	 3.51404567760684E-04 
1568	 1.68340241881416E-04 
1569	 8.10818582193037E-05 
1570	 1.26197301228027E-04 
1571	 1.38245612840613E-04 
1572	 1.55907154055982E-04 
1573	 4.12411053844273E-04 
1574	 5.63096621181918E-04 
1575	 4.54959491896384E-04 
1576	 4.22835829971266E-04 
1577	 3.49777272005605E-04 
1578	 2.30114614342958E-04 
1579	 3.05602353246823E-04 
1580	 5.14195174039032E-04 
1581	 5.86923430806503E-04 
1582	 4.77452570751611E-04 
1583	 4.6611770895237E-04 
1584	 5.19776203277994E-04 
1585	 4.32103415754169E-04 
1586	 3.39085904133168E-04 
1587	 2.86599371328467E-04 
1588	 2.13077240034371E-04 
1589	 2.66665604938493E-04 
1590	 4.16293446452297E-04 
1591	 3.71778068608095E-04 
1592	 3.12206189745218E-04 
1593	 3.31267379049507E-04 
1594	 2.0773750664054E-04 
1595	 2.13498252640396E-04 
1596	 3.29238216766051E-04 
1597	 2.25043033935113E-04 
1598	 1.52290105413102E-04 
1599	 2.44455355616546E-04 
1600	 1.5822751590011E-04 
1601	 1.62753584200171E-05 
1602	 1.17506856258999E-04 
1603	 1.92558659520011E-04 
1604	 1.1568954726859E-04 
1605	 1.97190890412768E-04 
1606	 1.82192178453365E-04 
1607	-1.86063392622958E-05 
1608	 6.10609976809444E-05 
1609	 7.42744190254873E-05 
1610	 1.09867546716128E-04 
1611	 4.48023877468286E-04 
1612	 3.69371504721427E-04 
1613	 1.68805348214037E-04 
1614	 3.81728646621338E-04 
1615	 5.56995278061162E-04 
1616	 5.26545613667368E-04 
1617	 4.2723208321807E-04 
1618	 3.77670875042126E-04 
1619	 3.6957217082064E-04 
1620	 3.64122536715304E-04 
1621	 2.8652824526717E-04 
1622	 2.46283439441258E-04 
1623	 3.11538727068457E-04 
1624	 2.54347759216617E-04 
1625	 1.99401943523768E-04 
1626	 1.69947965170812E-04 
1627	-2.82877041272626E-05 
1628	-1.22185097625721E-04 
1629	 2.03426240584655E-04 
1630	 4.23682973643386E-04 
1631	 2.52653394831075E-04 
1632	 2.08887635560864E-04 
1633	 3.10664469153187E-04 
1634	 4.32496705942896E-04 
1635	 5.20595300692344E-04 
1636	 2.94099507279236E-04 
1637	 1.0040190297683E-04 
1638	 2.85615625683506E-04 
1639	 4.18533898492305E-04 
1640	 4.20992688542952E-04 
1641	 4.99358949451282E-04 
1642	 3.87076410014011E-04 
1643	 2.06271622705535E-04 
1644	 3.66144094245572E-04 
1645	 3.97110603791392E-04 
1646	 4.77517425936425E-05 
1647	-7.14947265481269E-05 
1648	 2.89129171181315E-05 
1649	-9.75932701764341E-06 
1650	-9.28274016865647E-06 
1651	 1.22562854250381E-04 
1652	 2.61941246397586E-04 
1653	 7.49249971671338E-05 
1654	 1.76076271388777E-04 
1655	 4.2050092750664E-04 
1656	 3.21497735138087E-04 
1657	 2.27380940198974E-04 
1658	 3.31788805146497E-04 
1659	 1.98415389586586E-04 
1660	 8.82342700902613E-05 
1661	 2.71754085629462E-04 
1662	 2.9314638170481E-04 
1663	 3.46567648050803E-05 
1664	 1.32813354151276E-05 
1665	 1.88654132135316E-04 
1666	 2.82862584494666E-04 
1667	 3.68533061980181E-04 
1668	 5.51510574598603E-04 
1669	 5.95909348712968E-04 
1670	 6.90223236703008E-04 
1671	 6.51423532449269E-04 
1672	 1.79916653720901E-04 
1673	 2.67797652414359E-05 
1674	 2.74799900576217E-04 
1675	 3.04349464730286E-04 
1676	 2.84575528439046E-04 
1677	 3.64231846873114E-04 
1678	 1.960708883578E-04 
1679	 1.10655994105526E-04 
1680	 4.17443098315475E-04 
1681	 4.47212604778953E-04 
1682	 2.56084035997626E-04 
1683	 3.74596053262322E-04 
1684	 3.99001374934663E-04 
1685	 4.69689087156471E-04 
1686	 7.34335151807314E-04 
1687	 3.94634606736882E-04 
1688	 4.48913631217304E-05 
1689	 1.17486327215133E-04 
1690	-8.69206810521113E-05 
1691	-9.47154625053185E-05 
1692	-1.01583196325688E-05 
1693	-9.0772787117314E-05 
1694	 1.54764227092056E-04 
1695	 2.8774105920415E-04 
1696	 1.45518511610116E-04 
1697	 8.12953656570957E-05 
1698	 2.47724972142199E-04 
1699	 3.84544325761196E-04 
1700	 2.85752340060456E-04 
1701	-1.90042153267011E-05 
1702	-3.82070555315815E-04 
1703	 1.47759035415112E-05 
1704	 6.57850066221273E-04 
1705	 5.22498291629647E-04 
1706	 3.63379664210851E-04 
1707	 2.28869037310356E-04 
1708	-2.38139481706749E-04 
1709	 1.54876205672175E-04 
1710	 8.64681175712522E-04 
1711	 2.38798233156207E-04 
1712	-3.75293264468653E-04 
1713	 5.81999659118771E-05 
1714	-7.84329470365714E-06 
1715	 7.27322528314769E-05 
1716	 2.02434386757095E-04 
1717	 1.25283222892922E-04 
1718	 5.90999615381795E-05 
1719	 4.39830100731179E-04 
1720	 6.20997034214015E-04 
1721	 2.64368818516188E-04 
1722	 8.69420637554145E-05 
1723	 1.64505892528291E-04 
1724	 2.8067760212639E-04 
1725	 3.83003168615102E-04 
1726	 5.54517666157729E-04 
1727	 5.92274496642353E-04 
1728	 3.81783103926717E-04 
1729	 3.17853941129033E-04 
1730	 4.501456997249E-04 
1731	 4.15320074939277E-04 
1732	 4.41932921481783E-04 
1733	 7.34094068590082E-04 
1734	 6.00267019178707E-04 
1735	 2.6985592278843E-04 
1736	 4.25815175513489E-04 
1737	 4.51104559357485E-04 
1738	 3.99973597208183E-04 
1739	 5.37511222458401E-04 
1740	 2.07016660800009E-04 
1741	 1.12730774606833E-05 
1742	 4.14913496970668E-04 
1743	 2.72169249172817E-04 
1744	 4.02061406163445E-05 
1745	 2.62499181177485E-04 
1746	-3.51456325566483E-05 
1747	 9.48749315283504E-06 
1748	 3.67563486757576E-04 
1749	 4.42335914946987E-04 
1750	 7.16970453678223E-04 
1751	 6.72860231297761E-04 
1752	 1.95265249618592E-04 
1753	 7.48662845733907E-05 
1754	-2.07022151099568E-04 
1755	-3.64106587672365E-04 
1756	 1.20932199436776E-05 
1757	 3.47657688311177E-05 
1758	-1.67030078575735E-04 
1759	 2.65870487138147E-05 
1760	 3.11118345033827E-05 
1761	-4.20616298308548E-04 
1762	-5.12105866898819E-04 
1763	 7.90730383325772E-05 
1764	 3.85543960823627E-04 
1765	 7.46317996759295E-04 
1766	 1.53866259666339E-03 
1767	 7.88180349680965E-04 
1768	-1.55760338115315E-04 
1769	 3.98078748718445E-04 
1770	 1.23755684254912E-04 
1771	-1.55311842110043E-04 
1772	 6.21264402800078E-04 
1773	 7.52883416482096E-04 
1774	 5.24866897090041E-04 
1775	-4.69837687051826E-04 
1776	-4.60274186141024E-04 
1777	-1.23404449988843E-04 
1778	-2.80721583494631E-04 
1779	 7.72651654763973E-04 
1780	 7.93143183983111E-04 
1781	-1.35553618389903E-03 
1782	-1.29519947050381E-03 
1783	 2.83942749531461E-04 
1784	 2.01591787039597E-04 
1785	 4.61796623140881E-04 
1786	 9.22428668047638E-05 
1787	-2.40109647509892E-03 
1788	-2.04773065599494E-03 
1789	 5.52973767868861E-04 
1790	 1.70052528602841E-03 
1791	 1.32665881869442E-03 
1792	-6.26038402957603E-04 
1793	-1.76055181719085E-03 
1794	-8.2877730221733E-04 
1795	 2.01689829133902E-03 
1796	 3.59864911524828E-03 
1797	 1.01125105860961E-03 
1798	-3.78994859467203E-03 
1799	-7.72428205626722E-03 
1800	-2.09450010856816E-03 
1801	-2.09681686520227E-04 
1802	 4.21774491039768E-03 
1803	 4.85974780939051E-03 
1804	-8.58385052407767E-03 
1805	-1.32448004363909E-02 
1806	-1.17159910929901E-02 
1807	-1.09737402877977E-02 
1808	 4.56142465425945E-03 
1809	 9.07102169357164E-03 
1810	 5.80822787387394E-04 
1811	-1.64150513859659E-03 
1812	-1.00871623971283E-02 
1813	-1.96204377028582E-02 
1814	-3.01574508175123E-02 
1815	-2.83928070252521E-02 
1816	-2.06977844775942E-02 
1817	 9.91164897122358E-03 
1818	 0.053241468094038 
1819	 2.93296774242674E-02 
1820	 1.24794510859712E-02 
1821	 0.107334888810244 
1822	 0.128448059937542 
1823	 0.155074254798668 
1824	 0.181988228584168 
1825	 6.90258410699858E-02 
1826	-5.32517565395029E-02 
1827	-6.07038788916403E-02 
1828	-0.106070394840563 
1829	-0.25566467069376 
1830	-0.206649042263335 
1831	 0.576386582912515 
1832	-5.00292916446069E-02 
1833	-0.557104876459145 
1834	-0.947821272892315 
1835	-1.73117855296304 
1836	-1.43536363882406 
1837	-0.804850656847819 
1838	-0.635105169270104 
1839	-0.251500241758187 
1840	 7.61264810152333E-03 
1841	 0.579041348592595 
1842	-18.7581624191535 
1843	-2.53898885332367 
1844	-1.29832631633934 
1845	-1.16151229014785 
1846	-1.53993831947933 
1847	-2.40583658746835 
1848	 14.2646278872436 
1849	 3.26252082562271 
1850	 10.33435211808 
1851	 1.72235284632525 
1852	 1.29929437289513 
1853	 0.457750483720849 
1854	 0.210688325275162 
1855	-0.109503029579199 
1856	-0.279464850957261 
1857	-31.1173101018109 
1858	 1.08528035373274 
1859	 0.556898257238908 
1860	 0.869768957039981 
1861	 3.22094037280249 
1862	 7.39225387726922 
1863	-6.74249415315504 
1864	-4.04475999322338 
1865	-2.83563559825288 
1866	 0.502449870984098 
1867	-3.16485499318518 
1868	-4.34547389728844 
1869	 19.6509434160672 
1870	 1.36792716209212 
1871	 0.334621369801635 
1872	-8.08393650674217E-02 
1873	-0.227003566007497 
1874	-0.13901888471311 
1875	-0.224055762144826 
1876	-0.218491742584238 
1877	-8.87328255348743E-03 
1878	 8.24586261109241E-02 
1879	 0.288737285302567 
1880	 1.90988055717142 
1881	-2.48118487763123 
1882	-0.462393153568824 
1883	-1.41778581934877E-03 
1884	 0.507166081895519 
1885	 0.858004196102872 
1886	 0.152888106973199 
1887	 1.55954616160869 
1888	 1.973025434805 
1889	 1.57794612713491 
1890	 8.20772769588866E-02 
1891	-0.142626000090825 
1892	-0.583065950696515 
1893	-0.632179630415663 
1894	-0.098038031027424 
1895	 0.535502242892661 
1896	-1.81407117287499 
1897	 2.4634990211135 
1898	 4.5768024785391 
1899	-2.53495924311391 
1900	-0.968014170808813 
1901	-3.77735860235975E-02 
1902	 0.20902219352048 
1903	 0.443920117178074 
1904	 0.958004003318142 
1905	-3.72958835882009 
1906	-0.310481814193995 
1907	 0.648548065753123 
1908	-0.953304894597709 
1909	 0.042106291283397 
1910	 0.217206354335355 
1911	 1.45912917598202E-02 
1912	-0.422715973215492 
1913	-0.735480205475307 
1914	-2.16522057733363 
1915	-1.86136576340917 
1916	-0.726282967440026 
1917	-0.215011658876237 
1918	-0.162569165459201 
1919	-0.583561867408845 
1920	-0.473066514674127 
1921	-1.12150571748444 
1922	-1.29572674776898 
1923	-3.45751210659895E-02 
1924	 0.277232161222689 
1925	 0.32487119978856 
1926	 0.331414168759497 
1927	 0.260336865337907 
1928	 0.252949510281699 
1929	 0.144867903707031 
1930	 2.69944331431931E-02 
1931	-9.77267470032055E-02 
1932	-0.238719237584443 
1933	-0.171865344752218 
1934	-4.14419787494201E-02 
1935	-0.020317587361256 
1936	 7.67058313401639E-03 
1937	-2.82499011314596E-02 
1938	-0.075698774533102 
1939	-7.17173374792109E-02 
1940	-4.30283627087674E-02 
1941	-1.96326922914562E-02 
1942	-1.66097263573604E-02 
1943	-1.85930365543808E-02 
1944	-1.89709668875383E-02 
1945	-1.25254169356931E-02 
1946	 2.52023759082489E-04 
1947	 1.60235844370902E-02 
1948	 2.64258230313087E-02 
1949	 3.84979603703437E-02 
1950	 4.11507976088562E-02 
1951	 2.34505935919025E-02 
1952	 1.48342350616141E-02 
1953	 2.27874139363217E-03 
1954	-8.96277468714334E-03 
1955	-9.96033594678415E-03 
1956	 4.05513911544143E-03 
1957	 1.06844133417309E-02 
1958	 1.16596905749571E-02 
1959	 9.95695856653342E-03 
1960	 4.10908717554365E-03 
1961	 2.31119279560084E-03 
1962	 4.63308420241854E-04 
1963	-1.3965274246405E-03 
1964	-4.50740839039325E-04 
1965	-1.35570012258973E-03 
1966	-2.21516605232344E-03 
1967	-3.57338862097856E-03 
1968	-4.77544844440304E-03 
1969	-4.68150472227197E-03 
1970	-2.46799271190631E-03 
1971	-1.78092243531734E-03 
1972	-1.12594099821939E-03 
1973	-1.6914243009609E-04 
1974	-8.2198109685965E-04 
1975	-1.34150420878988E-04 
1976	 1.13918317356947E-03 
1977	 1.40478583909934E-03 
1978	 9.42717432667323E-04 
1979	 9.27310405346221E-04 
1980	 9.08690717220574E-04 
1981	 9.70259785635575E-04 
1982	 3.99302201847068E-04 
1983	 5.70139988249912E-04 
1984	 9.19258953381056E-04 
1985	 7.95110226225804E-04 
1986	 9.43817432759437E-04 
1987	 1.25308395579494E-03 
1988	 8.88587004923379E-04 
1989	 1.30540472992052E-04 
1990	-9.03242941972546E-05 
1991	 1.28798368311113E-04 
1992	 2.16349688990058E-04 
1993	-2.16132713524049E-04 
1994	 1.03649036629028E-05 
1995	 6.75558098535281E-04 
1996	 1.13840827694657E-03 
1997	 4.63654136137129E-04 
1998	 1.48318899124364E-03 
1999	 1.55619497832099E-03 
2000	-1.69643499198446E-04 
2001	 1.03321646702513E-03 
2002	 5.28360148905182E-04 
2003	-1.99752913541046E-04 
2004	 1.47893802713498E-03 
2005	 1.16084092183782E-03 
2006	 3.24554026253061E-03 
2007	 3.81581399457743E-03 
2008	 1.95773676142488E-03 
2009	 6.6327574232155E-04 
2010	-2.79755116963236E-03 
2011	-3.28930836544402E-03 
2012	-1.83294303432139E-03 
2013	-9.09647950790265E-04 
2014	-1.59375931498179E-03 
2015	-1.21410836060225E-03 
2016	-2.17859495742978E-03 
2017	-2.99092380914688E-03 
2018	-4.82433801381374E-04 
2019	 1.32962371946365E-03 
2020	-5.15156619414019E-04 
2021	-9.05305428919404E-04 
2022	-8.2658502354016E-04 
2023	-1.89680588362899E-03 
2024	-1.98680256351426E-03 
2025	-5.99137099202948E-04 
2026	-3.12634281983419E-04 
2027	-6.18384264802158E-04 
2028	-5.17624264539953E-04 
2029	-4.39234414783168E-04 
2030	-8.36994889397308E-04 
2031	-1.13916407543103E-03 
2032	-1.1135465314427E-03 
2033	-1.15949522515181E-03 
2034	-1.08186152648992E-03 
2035	-8.28138831881445E-04 
2036	-3.09004705761392E-04 
2037	 6.62353323621947E-05 
2038	 7.40143393628039E-04 
2039	 1.03958443183795E-03 
2040	 6.25742073332141E-04 
2041	 4.89792779155176E-04 
2042	 6.80897899707803E-04 
2043	 7.79579466829733E-04 
2044	 8.46659918333884E-04 
2045	 7.65309487233342E-04 
2046	 1.4341723083507E-03 
2047	 1.05306199863693E-03 
2048	-1.08423885899078E-04 
2049	 2.52904898551338E-04 
2050	-5.24240518749918E-04 
2051	-1.43182856051359E-03 
2052	-5.13534394992843E-04 
2053	-3.69231494018256E-04 
2054	-4.54634306141723E-04 
2055	 1.62301320527934E-04 
2056	 5.8788191779026E-04 
2057	 7.22345900647456E-04 
2058	 5.33193337206571E-04 
2059	 1.79449409973151E-04 
2060	 1.96878390770479E-04 
2061	-4.06040428170436E-04 
2062	-1.90769637973671E-04 
2063	 9.11799770499243E-04 
2064	 1.47868363483915E-03 
2065	 7.84347525825936E-04 
2066	-2.94452808715068E-04 
2067	-4.22122896771041E-04 
2068	-4.28562423203792E-05 
2069	 6.7001750590936E-04 
2070	 1.42428507982825E-03 
2071	 1.4505712851459E-03 
2072	 9.44022971894278E-04 
2073	 1.0326534467412E-03 
2074	 1.61910756136991E-03 
2075	 1.71711742987278E-03 
2076	 1.86003936221969E-03 
2077	 1.7231266471143E-03 
2078	 1.04300903297774E-03 
2079	 8.23431109834898E-04 
2080	 7.42674909288433E-04 
2081	 6.27095400140754E-04 
2082	 5.98408195548314E-04 
2083	 2.97533494906694E-04 
2084	 2.36197038306654E-04 
2085	 4.52951087978876E-04 
2086	 7.99264717010614E-04 
2087	 6.43228528575555E-04 
2088	 1.63336985559851E-04 
2089	 2.24117215355818E-04 
2090	 2.29445947543568E-04 
2091	 2.48207340859422E-04 
2092	 6.08532259591951E-04 
2093	 1.64380995694836E-03 
2094	 1.66241006065671E-03 
2095	 0.00124082356457 
2096	 1.12374786251635E-03 
2097	 2.88318508393379E-04 
2098	 1.7828285353237E-04 
2099	 6.99902076018435E-04 
2100	 1.23754388510568E-03 
2101	 1.2884210712218E-03 
2102	 1.37183548519919E-03 
2103	 1.64822661792033E-03 
2104	 2.02871264746903E-03 
2105	 2.94302020214043E-03 
2106	 2.96013680282452E-03 
2107	 1.48935946396641E-03 
2108	 1.11447962929472E-03 
2109	 1.5132564894761E-03 
2110	 1.81384664633496E-03 
2111	 2.22510361996863E-03 
2112	 1.99820806471764E-03 
2113	 1.78685758434976E-03 
2114	 4.28597085265638E-04 
2115	 9.36338280422694E-05 
2116	 4.3877278614071E-04 
2117	 8.20884430849526E-04 
2118	 1.74840600181567E-03 
2119	 1.95447577754116E-03 
2120	 2.12272368105324E-03 
2121	 1.97862347131822E-03 
2122	 1.09480230026226E-03 
2123	 8.00936200958209E-04 
2124	 9.71111983598702E-04 
2125	 1.09179862546045E-03 
2126	 1.30038043191321E-03 
2127	 1.31476820683162E-03 
2128	 1.37764356666838E-03 
2129	 1.56924714455188E-03 
2130	 2.06018119492566E-03 
2131	 1.83998625885834E-03 
2132	 7.63671461430777E-04 
2133	 4.08788630723127E-04 
2134	 4.10878998500559E-04 
2135	 7.83293820100685E-04 
2136	 5.52667846700413E-04 
2137	 3.82651671878017E-04 
2138	 4.98192292820077E-04 
2139	 3.45505588363256E-04 
2140	 4.5750116460197E-04 
2141	 1.36823308313953E-03 
2142	 1.58356010160878E-03 
2143	 1.20331490655696E-03 
2144	 8.38724982722532E-04 
2145	 8.92224205789156E-04 
2146	 1.48130190466176E-03 
2147	 2.09625293595049E-03 
2148	 1.73030577523916E-03 
2149	 1.64418975201318E-03 
2150	 1.88905843047892E-03 
2151	 1.57633178914388E-03 
2152	 1.57696593394771E-03 
2153	 1.12734682441612E-03 
2154	 4.32785428994501E-04 
2155	 5.46930047398135E-04 
2156	 1.05136854531415E-03 
2157	 9.84063073092902E-04 
2158	 6.58616153342154E-04 
2159	 8.32261508051881E-04 
2160	 9.0073336400001E-04 
2161	 8.57963962610359E-04 
2162	 1.4155944223798E-03 
2163	 1.70836776567893E-03 
2164	 1.53982708144483E-03 
2165	 1.63970441453568E-03 
2166	 1.78885485170344E-03 
2167	 1.88236415214043E-03 
2168	 2.30285423577109E-03 
2169	 2.00432808397799E-03 
2170	 5.95620435032341E-04 
2171	 1.23588656607368E-03 
2172	 2.22849928544118E-03 
2173	 1.7186779684837E-03 
2174	 1.7948022815246E-03 
2175	 2.00681994227355E-03 
2176	 1.73151807001189E-03 
2177	 1.3144582002519E-03 
2178	 1.07545188370641E-03 
2179	 1.52048915161498E-03 
2180	 9.75963991958079E-04 
2181	 5.01358124967448E-04 
2182	 1.83052097556306E-03 
2183	 2.69339435300788E-03 
2184	 3.14673716125625E-03 
2185	 3.19806819500427E-03 
2186	 2.96292769176005E-03 
2187	 1.73452603277672E-03 
2188	 1.18218574467386E-03 
2189	 3.07911930064166E-04 
2190	 8.02765809066692E-04 
2191	 2.76881615811219E-03 
2192	 2.7001872205812E-03 
2193	 2.35827382223379E-03 
2194	 2.32867994350874E-03 
2195	 2.53305835324706E-04 
2196	-3.04161503197151E-06 
2197	 2.66275275837294E-03 
2198	 3.10555036356559E-03 
2199	 2.01672990497343E-03 
2200	 2.48219606073512E-03 
2201	 3.57136569031079E-03 
2202	 3.33894008606299E-03 
2203	 4.01648428693703E-03 
2204	 5.22883930416559E-03 
2205	 3.71516111406242E-03 
2206	 2.39842877929921E-03 
2207	 2.74547302279052E-03 
2208	 1.96904160683676E-03 
2209	 2.27442029445251E-03 
2210	 3.38857588266504E-03 
2211	 3.25782303960222E-03 
2212	 2.88539236062196E-03 
2213	 3.84624369209414E-03 
2214	 4.75943688908026E-03 
2215	 4.52141622435283E-03 
2216	 4.6427520231004E-03 
2217	 4.57304032848788E-03 
2218	 3.17633584936501E-03 
2219	 2.85525072888862E-03 
2220	 3.25807293267832E-03 
2221	 3.46500370236012E-03 
2222	 4.10057719220537E-03 
2223	 3.84855142780628E-03 
2224	 3.37289845641652E-03 
2225	 3.02220078488889E-03 
2226	 1.70508282351613E-03 
2227	 1.34726899798631E-03 
2228	 2.05685449012629E-03 
2229	 1.67914050125273E-03 
2230	 5.32431661287366E-04 
2231	 2.64468205223023E-04 
2232	 2.28319224340734E-04 
2233	 1.34423467139452E-04 
2234	 8.42486475367565E-04 
2235	 9.80463794105061E-04 
2236	 1.11213668475467E-03 
2237	 1.57862161016034E-03 
2238	 2.69511947609136E-03 
2239	 3.77644398365804E-03 
2240	 3.82952378668934E-03 
2241	 1.71302656271215E-03 
2242	-6.57344763101644E-05 
2243	 7.11580465984012E-04 
2244	 1.32779002142086E-03 
2245	 2.86898987692373E-03 
2246	 3.73800462851884E-03 
2247	 2.58997080999488E-03 
2248	 3.37552893032162E-03 
2249	 4.08409056067099E-03 
2250	 3.94186120962714E-03 
2251	 4.35633164755695E-03 
2252	 4.00144529013691E-03 
2253	 3.64892582556487E-03 
2254	 4.11011667728033E-03 
2255	 5.22312631364519E-03 
2256	 5.28053187155428E-03 
2257	 5.08622888926984E-03 
2258	 6.19016052631402E-03 
2259	 5.51845845651082E-03 
2260	 4.79116669675359E-03 
2261	 3.17040634239375E-03 
2262	 2.90519870384367E-03 
2263	 2.88023283314325E-03 
2264	 2.97372596852553E-03 
2265	 4.49800011331035E-03 
2266	 4.85962802052995E-03 
2267	 3.50030781298505E-03 
2268	 3.18790401710881E-03 
2269	 3.04235153705628E-03 
2270	 0.00368371326334 
2271	 5.96583659125818E-03 
2272	 6.77409289868341E-03 
2273	 7.71363015677544E-03 
2274	 7.67470642246277E-03 
2275	 5.02909986220791E-03 
2276	 4.73203139410283E-03 
2277	 6.57161495269468E-03 
2278	 5.30549040843753E-03 
2279	 3.34750982372128E-03 
2280	 2.21618579769439E-03 
2281	-1.19627087667262E-03 
2282	-2.63854190424233E-03 
2283	-1.78758950300779E-05 
2284	-3.11433033234265E-04 
2285	 7.57022417754179E-05 
2286	 2.80824750858073E-03 
2287	 2.08745464438981E-03 
2288	 1.28463468679549E-03 
2289	 1.25280935951677E-03 
2290	-2.10827956316446E-03 
2291	-2.08876211971899E-03 
2292	-4.79940609001457E-04 
2293	-2.14011595889961E-03 
2294	-1.91620370591401E-03 
2295	-1.37385646231955E-03 
2296	-2.67510084359011E-03 
2297	-5.77083261932203E-04 
2298	 4.13723078111897E-03 
2299	 5.95088186192366E-03 
2300	 6.54536292848362E-03 
2301	 6.26707878399256E-03 
2302	 3.12527573513777E-03 
2303	 1.57975861247587E-04 
2304	-1.66175001720738E-04 
2305	-8.75314894556729E-04 
2306	 2.22211170612264E-04 
2307	 4.56483010797399E-03 
2308	 3.96224314275561E-03 
2309	 1.60625207139163E-03 
2310	 6.94425825847574E-04 
2311	-1.8851063531925E-03 
2312	-2.20064821324342E-03 
2313	-2.30055704525832E-04 
2314	-1.53141059703726E-03 
2315	-4.72071403730885E-03 
2316	-0.003531782293881 
2317	-5.30493086184768E-04 
2318	 1.72437615455582E-03 
2319	 1.84285272709811E-03 
2320	-6.74501257205618E-04 
2321	-1.57707682057928E-03 
2322	-1.64281134287646E-03 
2323	 4.13529333344284E-04 
2324	 3.86813292420772E-03 
2325	 2.26124534222992E-03 
2326	 1.80520282230817E-03 
2327	 4.73781800197031E-03 
2328	 3.45296724556531E-03 
2329	-8.55227876490682E-04 
2330	-0.004993061083809 
2331	-8.33066665371677E-03 
2332	-1.38426347952273E-02 
2333	-1.09395687757573E-02 
2334	-4.47615754339986E-03 
2335	-8.27326322852887E-03 
2336	-4.58629230091277E-03 
2337	-1.70379283004924E-03 
2338	-4.11828801520248E-03 
2339	 4.39527816781089E-03 
2340	 0.011068434747061 
2341	 1.13188142388156E-02 
2342	 1.18258585712061E-02 
2343	 9.99227063072502E-03 
2344	 5.62035942450686E-03 
2345	 8.33160842359411E-03 
2346	 0.012049654572569 
2347	 7.80353117229449E-03 
2348	 6.18640244290526E-03 
2349	 1.22716139458364E-03 
2350	-3.58920606599703E-03 
2351	-4.3077063696969E-03 
2352	-2.63292197344567E-03 
2353	 5.63583194176057E-03 
2354	 8.05310315008969E-03 
2355	 8.88264347176624E-03 
2356	 8.34501630645637E-03 
2357	-2.86241346688018E-03 
2358	-1.30739792767665E-02 
2359	-1.27171710531696E-02 
2360	-9.11083742619379E-03 
2361	-4.08790686882494E-03 
2362	 1.53187006726791E-03 
2363	 5.5861538731923E-04 
2364	-7.59571836001121E-03 
2365	-1.65517468314702E-02 
2366	-1.66590568527299E-02 
2367	-1.22913239743153E-02 
2368	-6.60318893145085E-03 
2369	-3.2561197896909E-03 
2370	-7.6484246965119E-03 
2371	-1.75066345025534E-02 
2372	-2.65118995297526E-02 
2373	-2.28205758147511E-02 
2374	-9.18858511145555E-03 
2375	 5.70340924209686E-03 
2376	 1.72732899615464E-02 
2377	 2.30486089505874E-02 
2378	 1.49137356922011E-02 
2379	 4.76690713791513E-03 
2380	 7.98060493713764E-03 
2381	 1.58340049778918E-03 
2382	-0.013487553383702 
2383	-2.04297290263854E-02 
2384	-2.87640312248188E-02 
2385	-2.75574243323535E-02 
2386	-9.64778006644641E-03 
2387	-1.62820568640604E-03 
2388	-6.68878845407943E-03 
2389	-1.57599441175056E-02 
2390	-0.018596771976207 
2391	-2.27030536762105E-03 
2392	 1.33533946350307E-02 
2393	 1.68685511338877E-02 
2394	 1.21169498489917E-02 
2395	-7.02166421801642E-03 
2396	-2.11219701861876E-02 
2397	-1.88125145540232E-02 
2398	-0.028232731367041 
2399	-0.033986926706155 
2400	-1.93515322904823E-02 
2401	-8.61529637766567E-03 
2402	 2.55555987355235E-03 
2403	 0.014871530651577 
2404	 2.04755131948891E-03 
2405	-4.43622979187218E-02 
2406	-7.97664587482436E-02 
2407	-8.23258915618823E-02 
2408	-0.1030368768008 
2409	-0.113105540195925 
2410	-6.41153836359659E-02 
2411	-3.60707957843675E-02 
2412	-3.78761058454933E-02 
2413	-2.29323009015006E-02 
2414	-5.27004704402804E-02 
2415	-0.088100819346704 
2416	-7.78078800353614E-02 
2417	-3.35353496742382E-02 
2418	 7.12870358335516E-02 
2419	 8.03119928226888E-02 
2420	 3.47520495227366E-02 
2421	 6.26754049251568E-02 
2422	 1.65866503651993E-02 
2423	-3.25350494214677E-02 
2424	 5.46781316219707E-03 
2425	 1.08260159440537E-02 
2426	-0.03167754625538 
2427	-3.42062802940648E-02 
2428	-6.8824046387644E-03 
2429	-3.90542804252704E-02 
2430	-0.063874589732215 
2431	-4.92972605418655E-02 
2432	-5.64723942588497E-02 
2433	-4.11568125354791E-02 
2434	-4.45572445233825E-02 
2435	-6.47924936595313E-02 
2436	-8.53227440702765E-02 
2437	-0.139790652434426 
2438	-0.12890351659336 
2439	-0.109941311121467 
2440	-0.164014444641814 
2441	-0.166561013103651 
2442	-0.112014997451317 
2443	-0.112587375144049 
2444	-0.111948544659201 
2445	 1.36216792000319E-02 
2446	 2.29591567994527E-02 
2447	-1.23322050714929E-02 
2448	 1.89237298672106E-02 
2449	-0.113387301389626 
2450	-0.138596470594689 
2451	 2.13286906297923E-02 
2452	-3.38748402426814E-02 
2453	-2.93852072762535E-02 
2454	-7.36700237245328E-02 
2455	 5.55192081930284E-03 
2456	 0.131077481731022 
2457	 0.136284012852457 
2458	 0.177296205947332 
2459	 0.220752339978647 
2460	 0.145930334179432 
2461	 6.93980848436702E-02 
2462	 5.50379507309572E-02 
2463	 2.56612071851214E-02 
2464	-5.02160461832216E-02 
2465	 2.19193572341792E-02 
2466	 0.076123947490455 
2467	 6.22217865160633E-02 
2468	 7.11416426363854E-02 
2469	 4.72782713318322E-02 
2470	-0.040792441359159 
2471	-0.16415753007472 
2472	-0.193733982904013 
2473	-0.197612800029898 
2474	-0.155354234337707 
2475	-0.445922537764599 
2476	-0.687482329520832 
2477	-0.525475694506108 
2478	-0.791834039392867 
2479	-0.260767820518358 
2480	 0.347574398988101 
2481	 3.12087552099318E-02 
2482	 0.182910217850673 
2483	 0.454424539905544 
2484	 0.216766663846407 
2485	 0.423031399724428 
2486	 1.71931291008012 
2487	-10.1050125055176 
2488	-4.65411933834194E-02 
2489	-4.72854121003584 
2490	-8.42170058136102 
2491	-4.5609634711738 
2492	 6.23907930752719 
2493	 2.17646775189746 
2494	-11.2576404938179 
2495	-1.55038193730324 
2496	-0.561974639201531 
2497	-0.61070206598173 
2498	-0.432611146634681 
2499	-10.3179249249236 
2500	 0.641078046212455 
