Wavelength	rt0715far00003.asd
350	 1.59979005073453E-02 
351	 0.016086327879107 
352	 1.55188290255102E-02 
353	 1.53952646189259E-02 
354	 1.59867883134039E-02 
355	 1.53101008702196E-02 
356	 1.55634120761695E-02 
357	 0.016074661917875 
358	 1.57812425994506E-02 
359	 0.015915796057209 
360	 1.61074539636467E-02 
361	 1.61546305440642E-02 
362	 1.60619499985356E-02 
363	 1.64139616165255E-02 
364	 1.62142903446139E-02 
365	 1.55168651787665E-02 
366	 1.61961584761833E-02 
367	 1.68028928860138E-02 
368	 1.69583585270282E-02 
369	 1.67058743778628E-02 
370	 1.64387599983026E-02 
371	 1.65165206645213E-02 
372	 1.69026575703983E-02 
373	 1.72827529932932E-02 
374	 1.73376265123459E-02 
375	 1.71829836389316E-02 
376	 1.71816192595209E-02 
377	 1.79114117063679E-02 
378	 1.78929042530204E-02 
379	 1.74845564693584E-02 
380	 0.017374578550297 
381	 1.77913599663862E-02 
382	 0.018122366790406 
383	 1.83076651100162E-02 
384	 1.85403134024082E-02 
385	 1.86560032305717E-02 
386	 1.86688158996093E-02 
387	 1.87296920437926E-02 
388	 0.019094459514523 
389	 1.93445950507678E-02 
390	 1.95588014641802E-02 
391	 1.98025460117592E-02 
392	 1.98615141189798E-02 
393	 1.98154488587821E-02 
394	 0.019942907975802 
395	 2.04088895786967E-02 
396	 2.04916333747733E-02 
397	 2.05215619397033E-02 
398	 2.06786818469061E-02 
399	 2.09409267266445E-02 
400	 2.10113564134833E-02 
401	 2.10666664159276E-02 
402	 2.12151870449079E-02 
403	 2.12311911295073E-02 
404	 2.13713003462523E-02 
405	 2.15384858606444E-02 
406	 2.15717591990035E-02 
407	 2.17398952991621E-02 
408	 2.19353406896804E-02 
409	 2.21104848600691E-02 
410	 2.22991786337557E-02 
411	 2.25154881623903E-02 
412	 2.25827905995759E-02 
413	 2.25160546980934E-02 
414	 2.28887501522738E-02 
415	 2.30185151076469E-02 
416	 2.30368359203047E-02 
417	 2.33260934758991E-02 
418	 0.023630030135138 
419	 0.02378918441839 
420	 2.38627397614019E-02 
421	 2.41225978591523E-02 
422	 2.43814491771424E-02 
423	 2.46128710988799E-02 
424	 0.024823998381172 
425	 2.50129852567069E-02 
426	 2.52649394138304E-02 
427	 2.55626733012851E-02 
428	 2.58368895689416E-02 
429	 2.60539182787041E-02 
430	 2.63486134951983E-02 
431	 2.67214776407808E-02 
432	 2.70048913125561E-02 
433	 2.72137532996073E-02 
434	 2.74578848611812E-02 
435	 2.77931701826531E-02 
436	 2.80581904079051E-02 
437	 2.82991929243997E-02 
438	 2.85796584042279E-02 
439	 2.89467394923305E-02 
440	 2.92351527941398E-02 
441	 2.94849745663059E-02 
442	 2.97423688081634E-02 
443	 0.030028069292566 
444	 0.030262759730144 
445	 3.05167770344659E-02 
446	 3.08457217380911E-02 
447	 3.10849191059596E-02 
448	 3.13656629197086E-02 
449	 3.16356275609878E-02 
450	 3.17335421484258E-02 
451	 3.19410198719763E-02 
452	 3.21925469456898E-02 
453	 3.24094253358922E-02 
454	 3.25895093031559E-02 
455	 3.28023221533714E-02 
456	 3.29894244742115E-02 
457	 3.30929479680543E-02 
458	 0.03332392641692 
459	 3.35149605498817E-02 
460	 3.36296760439131E-02 
461	 3.37785243713204E-02 
462	 3.39326732330074E-02 
463	 3.40939860863317E-02 
464	 3.42579957351397E-02 
465	 3.43812170531728E-02 
466	 3.45885005132365E-02 
467	 3.48349432670809E-02 
468	 3.49996891188635E-02 
469	 3.50826420107202E-02 
470	 3.52640380390861E-02 
471	 3.55356459833701E-02 
472	 3.56219687446017E-02 
473	 3.57499688481906E-02 
474	 3.59335639067599E-02 
475	 3.61401209036283E-02 
476	 3.63864303986306E-02 
477	 3.65680494055661E-02 
478	 3.67335879644953E-02 
479	 3.70100904578073E-02 
480	 3.71178968775753E-02 
481	 3.72676309583637E-02 
482	 3.75778143036902E-02 
483	 3.78534392519256E-02 
484	 3.81073201899836E-02 
485	 3.83516608177856E-02 
486	 3.85927594293685E-02 
487	 3.87381330702326E-02 
488	 3.90595623945753E-02 
489	 3.94907029519858E-02 
490	 3.96529497484595E-02 
491	 0.039930834743653 
492	 0.040214903579368 
493	 4.04078507990662E-02 
494	 4.07123699795248E-02 
495	 4.10371585913826E-02 
496	 4.13432436325404E-02 
497	 4.16320355167857E-02 
498	 4.20201102390557E-02 
499	 4.23863515536715E-02 
500	 4.26885771729024E-02 
501	 4.30424143946562E-02 
502	 0.043377379637822 
503	 4.37064384830746E-02 
504	 4.40504371598362E-02 
505	 4.43502547887731E-02 
506	 0.04474576181086 
507	 4.51913352263238E-02 
508	 4.55036059460763E-02 
509	 4.58190156143405E-02 
510	 4.60989278922075E-02 
511	 4.63517078392062E-02 
512	 4.67694035875915E-02 
513	 4.71942084372311E-02 
514	 4.75643207998924E-02 
515	 4.78809123015305E-02 
516	 4.82987840542236E-02 
517	 4.87615629641459E-02 
518	 4.92130109079988E-02 
519	 0.049627376134922 
520	 5.00564558241046E-02 
521	 5.04903921463551E-02 
522	 0.050918659230298 
523	 5.13746571709897E-02 
524	 5.18173345265106E-02 
525	 5.22334358125013E-02 
526	 5.26399108380046E-02 
527	 5.31271391130829E-02 
528	 5.36002273067779E-02 
529	 5.40032851985553E-02 
530	 5.43982636000581E-02 
531	 5.48800072781322E-02 
532	 5.53979937310138E-02 
533	 5.58602031529723E-02 
534	 5.63302820441505E-02 
535	 5.68075917680717E-02 
536	 5.72744853479341E-02 
537	 5.76968527640786E-02 
538	 5.82017393280875E-02 
539	 5.87222986538562E-02 
540	 5.91931998009018E-02 
541	 5.97271799319872E-02 
542	 6.01790567969043E-02 
543	 6.05977559430306E-02 
544	 6.11350192754945E-02 
545	 6.16364213311472E-02 
546	 6.21064453232222E-02 
547	 6.25713106075847E-02 
548	 6.30619846401552E-02 
549	 6.35170216293404E-02 
550	 6.39809592194485E-02 
551	 6.45025501558535E-02 
552	 0.064913064802059 
553	 6.53614896243225E-02 
554	 6.58862162021507E-02 
555	 6.63797611156364E-02 
556	 6.69059882552548E-02 
557	 6.73982968347397E-02 
558	 6.78079757809987E-02 
559	 6.82602532830216E-02 
560	 6.86604343017657E-02 
561	 6.90267309341015E-02 
562	 6.94436093459682E-02 
563	 6.98770614778323E-02 
564	 7.02752515064488E-02 
565	 7.06230085963406E-02 
566	 0.070982453871318 
567	 0.071316365440242 
568	 7.16281261305137E-02 
569	 7.19286090510569E-02 
570	 7.21954186005902E-02 
571	 7.24360177246154E-02 
572	 7.26483188899458E-02 
573	 7.28200141852435E-02 
574	 7.30646773361817E-02 
575	 7.32920108309938E-02 
576	 7.34129792667809E-02 
577	 7.34992589199281E-02 
578	 7.36289906016464E-02 
579	 7.38057910926883E-02 
580	 7.39687011935296E-02 
581	 7.39600278832769E-02 
582	 0.073965245031193 
583	 7.40512551377774E-02 
584	 7.39829307052093E-02 
585	 7.39776238113191E-02 
586	 7.39664354171011E-02 
587	 7.38228823587894E-02 
588	 7.37126718742601E-02 
589	 7.35881770964134E-02 
590	 0.073438391491536 
591	 7.32936878407066E-02 
592	 7.31335828017537E-02 
593	 7.28826538852154E-02 
594	 7.25098822132366E-02 
595	 7.21386732245672E-02 
596	 7.16932963898338E-02 
597	 0.071150381654778 
598	 7.05370171143173E-02 
599	 7.00121120296545E-02 
600	 6.95365621192873E-02 
601	 0.069119758115404 
602	 0.068905385081166 
603	 0.068722706526409 
604	 6.85624035585721E-02 
605	 6.84716372995787E-02 
606	 6.84780816822611E-02 
607	 6.85868935984313E-02 
608	 6.86861340951881E-02 
609	 6.85668463243779E-02 
610	 6.87126612764709E-02 
611	 6.88307495218066E-02 
612	 6.86965228653669E-02 
613	 6.87822804746884E-02 
614	 6.88731617701874E-02 
615	 6.89003564543638E-02 
616	 6.88864987773902E-02 
617	 6.89391955564824E-02 
618	 6.89618601992365E-02 
619	 6.89319351062876E-02 
620	 6.89820219340804E-02 
621	 6.90325802593295E-02 
622	 6.90058486345706E-02 
623	 6.88844492488611E-02 
624	 6.89284988161502E-02 
625	 6.89984273521067E-02 
626	 6.90218972988135E-02 
627	 6.90091331394553E-02 
628	 6.90029651803871E-02 
629	 6.89905709582138E-02 
630	 6.89686592837975E-02 
631	 6.89946427888415E-02 
632	 6.89942859319914E-02 
633	 6.89709052177716E-02 
634	 6.89652360132936E-02 
635	 6.89996495242952E-02 
636	 6.89482121256696E-02 
637	 6.88356364855091E-02 
638	 0.068921941502482 
639	 6.88455828552396E-02 
640	 6.87351387512309E-02 
641	 6.87682631270303E-02 
642	 6.87010840355368E-02 
643	 6.86193093993138E-02 
644	 6.85316097049879E-02 
645	 6.83878360995124E-02 
646	 6.82855764274849E-02 
647	 6.82243385432562E-02 
648	 6.81652754597352E-02 
649	 6.80281094822644E-02 
650	 6.78531073073078E-02 
651	 6.76694663586119E-02 
652	 6.74816293022868E-02 
653	 6.71364889292398E-02 
654	 6.67234471585444E-02 
655	 6.62949248679809E-02 
656	 0.065885969560136 
657	 6.54723385208114E-02 
658	 6.51126807292046E-02 
659	 6.48407731233955E-02 
660	 6.46159283727693E-02 
661	 0.064361288389649 
662	 6.41137406975459E-02 
663	 0.063975098824011 
664	 6.38579400889306E-02 
665	 6.37374436722021E-02 
666	 6.36111278365043E-02 
667	 6.35062015068669E-02 
668	 6.33540830175666E-02 
669	 0.063269055808993 
670	 6.33495361137293E-02 
671	 6.33049169992281E-02 
672	 6.32373926618148E-02 
673	 6.32014108560069E-02 
674	 6.31888106131898E-02 
675	 6.32072850818332E-02 
676	 0.063207343968556 
677	 6.31663137190805E-02 
678	 6.31485811042724E-02 
679	 6.31682090654439E-02 
680	 6.32105090353336E-02 
681	 6.32504996171015E-02 
682	 6.33163943533567E-02 
683	 6.33847160879511E-02 
684	 6.34386094633853E-02 
685	 6.34796013048846E-02 
686	 6.34481230302895E-02 
687	 0.063349228945393 
688	 6.32325997806595E-02 
689	 6.31367773155199E-02 
690	 0.063059106147295 
691	 6.29269649636045E-02 
692	 6.26351926907361E-02 
693	 6.22611056867501E-02 
694	 6.19101565180454E-02 
695	 6.15852003046191E-02 
696	 6.10912205838443E-02 
697	 6.05156048350228E-02 
698	 5.99531819311762E-02 
699	 5.94677677797328E-02 
700	 5.88094735911228E-02 
701	 5.81080960076241E-02 
702	 5.74129105954961E-02 
703	 5.66765503391675E-02 
704	 5.59080870257623E-02 
705	 5.51003266883937E-02 
706	 0.054243344544058 
707	 5.32826851021119E-02 
708	 5.22390609765012E-02 
709	 5.11632583626741E-02 
710	 5.00714571672938E-02 
711	 0.04874624605983 
712	 0.047405755429994 
713	 4.61060517954186E-02 
714	 4.46794443981192E-02 
715	 4.33654756699488E-02 
716	 4.19670808113143E-02 
717	 4.03584877237212E-02 
718	 3.88014898479547E-02 
719	 3.72312362846126E-02 
720	 3.58150766609906E-02 
721	 3.45114610963257E-02 
722	 3.32619906734903E-02 
723	 3.18413315640746E-02 
724	 3.03140504955606E-02 
725	 2.88060999958166E-02 
726	 2.73597022267075E-02 
727	 0.025878623692555 
728	 2.42893593040681E-02 
729	 2.25827803786386E-02 
730	 2.09282198645501E-02 
731	 1.94379973438809E-02 
732	 1.81339925237021E-02 
733	 1.71437066989002E-02 
734	 1.62724380740713E-02 
735	 1.54589047760447E-02 
736	 1.48273895020982E-02 
737	 1.43978290611718E-02 
738	 1.40886673116166E-02 
739	 1.38299058822274E-02 
740	 0.013661869256312 
741	 1.34991442881045E-02 
742	 1.33617556966717E-02 
743	 1.33121719643187E-02 
744	 0.013277446689649 
745	 1.32262723536197E-02 
746	 1.31702815437471E-02 
747	 1.31708755712103E-02 
748	 1.31310784667422E-02 
749	 1.30971926469645E-02 
750	 1.31157539996619E-02 
751	 1.31117698535369E-02 
752	 1.30863384018924E-02 
753	 1.30491051904674E-02 
754	 1.30178669420887E-02 
755	 1.30187285673417E-02 
756	 1.30466184327301E-02 
757	 1.30581555378104E-02 
758	 1.29253259837041E-02 
759	 1.29785256814477E-02 
760	 1.30308709124006E-02 
761	 1.27985450376869E-02 
762	 1.31469483766886E-02 
763	 1.32404478031127E-02 
764	 1.31615220615751E-02 
765	 1.32270660210938E-02 
766	 1.32287143607301E-02 
767	 1.33118783126252E-02 
768	 1.34522730654809E-02 
769	 1.34596340745144E-02 
770	 1.35320839543942E-02 
771	 1.35980628242576E-02 
772	 1.36174527043748E-02 
773	 0.013785493472896 
774	 1.39691956317022E-02 
775	 1.41244881052538E-02 
776	 1.42570332287376E-02 
777	 1.44108978518909E-02 
778	 1.45603449647014E-02 
779	 1.47088519218864E-02 
780	 1.48940339349374E-02 
781	 1.51322017969889E-02 
782	 1.53081429457698E-02 
783	 1.53962460176616E-02 
784	 1.56277532176234E-02 
785	 1.57887489575916E-02 
786	 1.59893860953296E-02 
787	 1.63693654101873E-02 
788	 1.66298163218671E-02 
789	 0.016816020355483 
790	 0.017028215049384 
791	 1.73702576662893E-02 
792	 1.75925269317096E-02 
793	 1.77853167809618E-02 
794	 0.01802062793541 
795	 1.82559526033986E-02 
796	 0.018491170477226 
797	 1.87645404213341E-02 
798	 1.90823666562949E-02 
799	 0.019282418027493 
800	 1.95133720990705E-02 
801	 1.97647363992491E-02 
802	 1.99441935959641E-02 
803	 0.020066947899468 
804	 2.02140246088971E-02 
805	 2.03393361175062E-02 
806	 2.02670830071536E-02 
807	 2.02499277476098E-02 
808	 2.03359017070892E-02 
809	 2.04408851248173E-02 
810	 2.02601267518638E-02 
811	 0.020083683362961 
812	 1.99653359441316E-02 
813	 1.98345335699529E-02 
814	 1.94687746971603E-02 
815	 1.92402592992723E-02 
816	 1.91039388370497E-02 
817	 1.86993138809812E-02 
818	 1.83157340473355E-02 
819	 0.017894188880039 
820	 1.74369145377669E-02 
821	 1.70954686497648E-02 
822	 1.63499298735197E-02 
823	 1.55057812508348E-02 
824	 1.48625541712872E-02 
825	 1.41204377034384E-02 
826	 1.31563714129815E-02 
827	 1.21689025135582E-02 
828	 0.011464482646608 
829	 1.07769548975366E-02 
830	 9.9125117251775E-03 
831	 9.20286339183853E-03 
832	 9.21883490516831E-03 
833	 8.80480919201865E-03 
834	 8.26742854295903E-03 
835	 7.89943559485312E-03 
836	 7.71392815582406E-03 
837	 7.62386588858347E-03 
838	 7.54785417985407E-03 
839	 7.42359043158593E-03 
840	 7.20623253283911E-03 
841	 7.14754660944589E-03 
842	 7.15436928092767E-03 
843	 7.05167951211378E-03 
844	 6.98483393533464E-03 
845	 6.83008907064699E-03 
846	 6.61015997603024E-03 
847	 6.46053013524632E-03 
848	 6.4921682584158E-03 
849	 6.52153572042501E-03 
850	 6.40475891566817E-03 
851	 6.12102859012459E-03 
852	 6.14926778246327E-03 
853	 6.15477449289027E-03 
854	 5.9546323691357E-03 
855	 6.07495267355108E-03 
856	 5.99871840960716E-03 
857	 5.7493414727911E-03 
858	 5.55952233046508E-03 
859	 5.87048588967939E-03 
860	 5.77770991293465E-03 
861	 5.38692494244778E-03 
862	 5.29203485734103E-03 
863	 5.47903676088731E-03 
864	 5.60576210737118E-03 
865	 5.57598764617692E-03 
866	 5.53286392964131E-03 
867	 5.27196474416348E-03 
868	 4.91588330395715E-03 
869	 4.72661698501203E-03 
870	 5.04809721864986E-03 
871	 4.94404682716087E-03 
872	 4.79451634531698E-03 
873	 4.91477269699746E-03 
874	 4.81053927156345E-03 
875	 4.65822641562562E-03 
876	 4.54740069179941E-03 
877	 4.5149068639456E-03 
878	 4.50993155005532E-03 
879	 4.32869960266541E-03 
880	 4.14805381780081E-03 
881	 4.21561190208528E-03 
882	 4.06646242954557E-03 
883	 3.99344083032081E-03 
884	 4.03525181672312E-03 
885	 4.0208851978517E-03 
886	 4.00367698961728E-03 
887	 0.003902401486639 
888	 3.73901024582036E-03 
889	 3.6524028812777E-03 
890	 3.51568636906076E-03 
891	 3.62206741729949E-03 
892	 3.94155994571529E-03 
893	 3.74356680270417E-03 
894	 3.77783746107756E-03 
895	 3.73776866367234E-03 
896	 3.33226472526144E-03 
897	 3.20262426409922E-03 
898	 3.41031711075271E-03 
899	 3.44134342771223E-03 
900	 3.01489258453063E-03 
901	 3.30395595198147E-03 
902	 3.46652618463512E-03 
903	 3.28890917076413E-03 
904	 2.94009366604776E-03 
905	 3.05414998509562E-03 
906	 3.03909207512802E-03 
907	 3.02289942176982E-03 
908	 3.44376978291226E-03 
909	 2.89342180170957E-03 
910	 2.53651376489573E-03 
911	 2.75715161835475E-03 
912	 2.95686872074439E-03 
913	 2.44600738320134E-03 
914	 2.22281577988647E-03 
915	 2.55570898797772E-03 
916	 2.67287741275054E-03 
917	 0.003013143246706 
918	 2.86273087311369E-03 
919	 0.002362676153353 
920	 2.88432589385426E-03 
921	 2.44340624884951E-03 
922	 1.61580478242005E-03 
923	 1.30276123330829E-03 
924	 1.98833307303815E-03 
925	 2.45093316836337E-03 
926	 2.22949398539309E-03 
927	 1.66263820147513E-03 
928	 3.02034962718796E-03 
929	 3.17426428528666E-03 
930	 1.98645711292426E-03 
931	 1.16370071455882E-03 
932	 2.54549660838298E-03 
933	 1.47277238669674E-03 
934	 6.09785989512333E-04 
935	 3.36784222770118E-03 
936	 8.6841887521302E-04 
937	 4.25557346754433E-05 
938	 4.95950512153053E-04 
939	 5.44096333114576E-06 
940	-2.39215492923673E-04 
941	 9.03495788387548E-04 
942	 1.71190146295803E-03 
943	 1.38908553310456E-04 
944	 1.48640751567126E-03 
945	 1.67067229858365E-03 
946	 5.2686295989059E-04 
947	 3.9909368256794E-04 
948	 4.60021976099107E-04 
949	 1.61307283474072E-03 
950	 2.46030778209241E-03 
951	 1.05792058787979E-03 
952	 1.43487297538612E-03 
953	 1.5250144652671E-03 
954	 1.03269925305304E-03 
955	 1.13160093312379E-03 
956	 1.54904053547415E-03 
957	 2.29552178298266E-03 
958	 2.18311686357412E-03 
959	 1.34006036020802E-04 
960	 1.69376342949159E-03 
961	 1.94953038940018E-03 
962	 5.51631696019782E-04 
963	 7.93911744784087E-04 
964	 8.69468913537729E-04 
965	 4.56356356361058E-04 
966	 6.85648503255894E-05 
967	 4.95834965900634E-04 
968	 4.99456381220123E-04 
969	 6.08409222900501E-04 
970	 9.42612598422339E-04 
971	 1.11241039134337E-03 
972	 8.39594917011508E-04 
973	 9.14673231686801E-04 
974	 1.46804412977002E-03 
975	 1.79278007547713E-03 
976	 8.5948227539092E-04 
977	 1.31618643097198E-03 
978	 2.42871008739355E-03 
979	 9.31341581749071E-04 
980	 6.45791409077572E-04 
981	 8.24151865572977E-04 
982	 1.21587088435391E-03 
983	 2.02966839745666E-03 
984	 4.96848016472655E-04 
985	 1.86909113881373E-04 
986	 1.56916526895888E-03 
987	 2.2031675269456E-03 
988	 2.06219828022815E-03 
989	 1.57022457019401E-03 
990	 8.25275664790809E-04 
991	-1.29906671834366E-04 
992	 4.89084871460699E-04 
993	 9.83444929785816E-04 
994	 8.78947496203463E-04 
995	 7.23041953953099E-04 
996	 3.22476736752283E-05 
997	-6.45518287768716E-04 
998	-2.31763362377766E-04 
999	 1.7345320657912E-03 
1000	 1.57345349326643E-03 
1001	 1.42307964069474E-03 
1002	 1.91996256973357E-03 
1003	 1.97819599924215E-03 
1004	 1.66069648083911E-03 
1005	 1.56659784383305E-03 
1006	 1.32624570891883E-03 
1007	 1.19366935013473E-03 
1008	 1.56033560162272E-03 
1009	 1.81590584348418E-03 
1010	 1.88136394091823E-03 
1011	 2.03755240861874E-03 
1012	 1.81657171434758E-03 
1013	 1.75220117434275E-03 
1014	 1.68448131674028E-03 
1015	 1.64936669646419E-03 
1016	 1.50500945245313E-03 
1017	 1.26590402427377E-03 
1018	 1.20755559448444E-03 
1019	 1.07628211717252E-03 
1020	 1.20067731406934E-03 
1021	 1.68619881382586E-03 
1022	 1.96729719682099E-03 
1023	 2.1932580966966E-03 
1024	 2.28709341933414E-03 
1025	 2.12387460156156E-03 
1026	 1.84778855451735E-03 
1027	 1.64212202027594E-03 
1028	 1.34413704666166E-03 
1029	 1.15446126977845E-03 
1030	 8.96712373919458E-04 
1031	 9.37530079355179E-04 
1032	 1.28009210761412E-03 
1033	 1.35151179745196E-03 
1034	 1.54099775736997E-03 
1035	 1.57463077438384E-03 
1036	 1.23553164427489E-03 
1037	 1.17953529711707E-03 
1038	 1.22642812469321E-03 
1039	 1.33676213295506E-03 
1040	 1.72856631826896E-03 
1041	 1.87318076674007E-03 
1042	 1.88871375022066E-03 
1043	 1.86450647177116E-03 
1044	 1.74699111188734E-03 
1045	 1.22908702870049E-03 
1046	 1.24027859957172E-03 
1047	 1.5312390466327E-03 
1048	 1.64177927153526E-03 
1049	 2.05450712691597E-03 
1050	 2.09043876522605E-03 
1051	 1.64885802522849E-03 
1052	 1.59422836246151E-03 
1053	 1.61885348662875E-03 
1054	 1.64544666942068E-03 
1055	 1.99929321713892E-03 
1056	 2.09986202629449E-03 
1057	 2.08576669412068E-03 
1058	 1.90215161853255E-03 
1059	 1.76571979655257E-03 
1060	 1.42095855288205E-03 
1061	 1.4137628817905E-03 
1062	 1.62753344073068E-03 
1063	 1.62582842888216E-03 
1064	 1.65251096646774E-03 
1065	 1.73056154875092E-03 
1066	 1.74138556350472E-03 
1067	 1.70717583540841E-03 
1068	 1.8715231380278E-03 
1069	 1.80982015812578E-03 
1070	 1.24006292456431E-03 
1071	 1.13502408430907E-03 
1072	 1.35058352997698E-03 
1073	 1.38944612927496E-03 
1074	 1.44206203653521E-03 
1075	 1.65882934775249E-03 
1076	 1.83391693969179E-03 
1077	 1.92421753933535E-03 
1078	 1.95299208202192E-03 
1079	 2.15661800575449E-03 
1080	 2.11033012765852E-03 
1081	 1.59947720821167E-03 
1082	 1.51772679285243E-03 
1083	 1.73427937716617E-03 
1084	 1.7410569523601E-03 
1085	 1.72912520006661E-03 
1086	 1.75844682471154E-03 
1087	 1.56837174837448E-03 
1088	 1.57073329276465E-03 
1089	 1.70500519417892E-03 
1090	 2.2503734814106E-03 
1091	 2.18823905435684E-03 
1092	 1.8901356428202E-03 
1093	 1.85760478319199E-03 
1094	 1.49428490908897E-03 
1095	 1.49923555873458E-03 
1096	 2.14857164395889E-03 
1097	 2.15704644322466E-03 
1098	 1.8227753612101E-03 
1099	 1.68344636213305E-03 
1100	 1.18983073483063E-03 
1101	 1.10714348541136E-03 
1102	 1.34446254834788E-03 
1103	 1.53446306759937E-03 
1104	 2.00904643218946E-03 
1105	 2.45195793456334E-03 
1106	 2.20369479476702E-03 
1107	 2.15017111915346E-03 
1108	 2.28442954066655E-03 
1109	 2.18406295713476E-03 
1110	 2.03027800441974E-03 
1111	 2.16313045800792E-03 
1112	 2.16648228275123E-03 
1113	 1.29610091611423E-03 
1114	 1.23728604928534E-03 
1115	 2.48527336475471E-03 
1116	 2.66096777088758E-03 
1117	 2.52423733173053E-03 
1118	 2.72853903189001E-03 
1119	 2.03163658641349E-03 
1120	 1.35856664833871E-03 
1121	 6.24513599518936E-04 
1122	 1.03229462716613E-03 
1123	 6.53287911125435E-04 
1124	 2.8410699048917E-04 
1125	 1.83724988176425E-03 
1126	 2.54643721580665E-03 
1127	 1.30316244687921E-03 
1128	 2.03771821736152E-03 
1129	 2.05907156779052E-03 
1130	 4.55961502814528E-04 
1131	 7.06441350236746E-04 
1132	 3.10013544992448E-03 
1133	 3.15262368278677E-03 
1134	 2.32584216999744E-03 
1135	 2.39613045774667E-03 
1136	 2.02570271847964E-03 
1137	 1.53593116573794E-03 
1138	 1.32656037549695E-03 
1139	 1.5435641268638E-03 
1140	 9.58047250873944E-04 
1141	 5.40911129467925E-04 
1142	 6.9669644981087E-04 
1143	 1.30015491302608E-03 
1144	 2.46200985095536E-03 
1145	 3.20468026589586E-03 
1146	 2.4924086608017E-03 
1147	 1.68305190409563E-03 
1148	 1.87082376388993E-03 
1149	 1.61030587874147E-03 
1150	 1.31501961073616E-03 
1151	 1.82598105009881E-03 
1152	 1.68755554006435E-03 
1153	 6.72899393456705E-04 
1154	 4.51573493828879E-04 
1155	 4.17446106275062E-04 
1156	 6.80678143778007E-04 
1157	 0.001179043220107 
1158	 9.91054212316099E-04 
1159	 6.56719389089641E-04 
1160	 6.59335604892765E-04 
1161	 3.84496262147366E-04 
1162	 4.84218383551426E-04 
1163	 1.01725471996176E-03 
1164	 9.61365679268835E-04 
1165	 9.17997228842234E-04 
1166	 9.41110609603164E-04 
1167	 4.4096045759264E-04 
1168	 5.297516327764E-04 
1169	 9.62850887833283E-04 
1170	 7.1520010254978E-04 
1171	 6.11207872347036E-04 
1172	 6.67469167385805E-04 
1173	 5.19651172693302E-04 
1174	-8.1089366173724E-05 
1175	 1.04932194372411E-04 
1176	 6.65800886865728E-04 
1177	 4.74508987082498E-04 
1178	 4.1602197372344E-04 
1179	 6.24039599454358E-04 
1180	 3.5698948094748E-04 
1181	 3.64958023728107E-04 
1182	 8.57426716818549E-04 
1183	 8.18769039370895E-04 
1184	 5.75976284237069E-04 
1185	 6.96463310811178E-04 
1186	 8.48688017132442E-04 
1187	 8.34285710555849E-04 
1188	 7.2700563575908E-04 
1189	 7.62948358816187E-04 
1190	 7.83862187414964E-04 
1191	 7.70985977751375E-04 
1192	 7.63507638532612E-04 
1193	 9.1341884389641E-04 
1194	 9.25639335223795E-04 
1195	 8.03020606822276E-04 
1196	 8.6124920940245E-04 
1197	 1.13478657878827E-03 
1198	 1.00440280567551E-03 
1199	 6.98686658385036E-04 
1200	 7.25077655730921E-04 
1201	 6.28704038975405E-04 
1202	 6.00199649219878E-04 
1203	 9.17280420717055E-04 
1204	 1.04977176934758E-03 
1205	 1.05306382802607E-03 
1206	 1.15253867103454E-03 
1207	 1.1912289992105E-03 
1208	 1.07768736672907E-03 
1209	 9.23006977042179E-04 
1210	 9.67107439344257E-04 
1211	 1.06898663896829E-03 
1212	 1.05291968894214E-03 
1213	 1.00847263918287E-03 
1214	 9.29921260141859E-04 
1215	 7.57359580330488E-04 
1216	 5.40914378686016E-04 
1217	 4.99954189489331E-04 
1218	 6.79217059740424E-04 
1219	 8.62796552320553E-04 
1220	 8.64385678638205E-04 
1221	 8.57997789658009E-04 
1222	 8.94115154227672E-04 
1223	 8.64022198696173E-04 
1224	 8.6274586804486E-04 
1225	 9.53317520015509E-04 
1226	 1.03181845429202E-03 
1227	 9.06847045456849E-04 
1228	 7.55734409367392E-04 
1229	 8.03093959245499E-04 
1230	 8.7276471569557E-04 
1231	 8.45544958677602E-04 
1232	 8.0836083631421E-04 
1233	 9.0240636305399E-04 
1234	 1.01820971159453E-03 
1235	 1.00467640123666E-03 
1236	 1.04931427856911E-03 
1237	 1.04604611482301E-03 
1238	 0.001001982305972 
1239	 6.56465645597298E-04 
1240	 3.27170768373338E-04 
1241	 3.74195915097703E-04 
1242	 4.43275945476377E-04 
1243	 3.91147717576755E-04 
1244	 6.06510835566834E-04 
1245	 8.55879713130245E-04 
1246	 8.77794632802608E-04 
1247	 8.22579829975364E-04 
1248	 6.84190930164786E-04 
1249	 5.96900687011548E-04 
1250	 7.98177784137656E-04 
1251	 1.0314695637088E-03 
1252	 1.05810588412279E-03 
1253	 1.11014442683311E-03 
1254	 1.1605011903981E-03 
1255	 9.29327948330233E-04 
1256	 8.1655639804319E-04 
1257	 9.95026229936198E-04 
1258	 1.02789475872289E-03 
1259	 7.02841945414636E-04 
1260	 6.99855664251598E-04 
1261	 1.04026494464481E-03 
1262	 1.06235088187209E-03 
1263	 8.78448052138687E-04 
1264	 1.13572705297888E-03 
1265	 1.13772473538858E-03 
1266	 7.76845065600914E-04 
1267	 7.86636576002446E-04 
1268	 7.94720161120438E-04 
1269	 7.00134710477402E-04 
1270	 7.96130560010184E-04 
1271	 8.12180251256861E-04 
1272	 7.78821159328939E-04 
1273	 8.60788270985246E-04 
1274	 9.55244548564161E-04 
1275	 1.07150541216553E-03 
1276	 1.09918437190597E-03 
1277	 9.82181933765137E-04 
1278	 1.00410136666085E-03 
1279	 9.41472101121307E-04 
1280	 6.82983186542199E-04 
1281	 5.66562772157049E-04 
1282	 5.66905590697423E-04 
1283	 5.75301776321954E-04 
1284	 5.92929854013231E-04 
1285	 5.5837965249669E-04 
1286	 6.02363233127723E-04 
1287	 5.47652827237585E-04 
1288	 3.22475588154932E-04 
1289	 2.9784280856545E-04 
1290	 4.12400594623761E-04 
1291	 4.30540476812266E-04 
1292	 3.6399592106269E-04 
1293	 1.46057394587824E-04 
1294	 8.44807383578065E-05 
1295	 4.14874056040095E-05 
1296	 1.49645207690786E-04 
1297	 3.1761140235017E-04 
1298	 2.37808204522989E-04 
1299	 3.23746634808163E-04 
1300	 3.25612230570327E-04 
1301	 2.29120754061475E-04 
1302	 5.71229628453334E-04 
1303	 7.93012636463153E-04 
1304	 6.11729221673952E-04 
1305	 6.47524674865175E-04 
1306	 7.11072539257942E-04 
1307	 6.40279184051205E-04 
1308	 5.65991912532495E-04 
1309	 6.00672215244656E-04 
1310	 7.04463189684216E-04 
1311	 7.97079451457263E-04 
1312	 7.71454025938496E-04 
1313	 8.1302310088198E-04 
1314	 8.82530811949615E-04 
1315	 7.09774963641156E-04 
1316	 6.67600570162022E-04 
1317	 9.98988882260689E-04 
1318	 1.16401592497561E-03 
1319	 1.06703340602973E-03 
1320	 1.01728234656535E-03 
1321	 8.73873345533887E-04 
1322	 1.12770095535698E-03 
1323	 8.85413419346848E-04 
1324	 5.7538169234783E-04 
1325	 6.49568352420635E-04 
1326	 4.06393974177107E-04 
1327	 2.33147783786386E-04 
1328	 5.96136256870869E-04 
1329	 1.00832597863419E-03 
1330	 1.13712530159689E-03 
1331	 1.00935652462121E-03 
1332	 8.31156418850733E-04 
1333	 7.67767490228388E-04 
1334	 7.62820533177309E-04 
1335	 6.98762109881482E-04 
1336	 9.14886859881507E-04 
1337	 8.27760620662214E-04 
1338	 4.15384538839708E-04 
1339	 1.47812190098779E-04 
1340	-4.52383079677429E-04 
1341	-5.02613634787911E-04 
1342	 1.96091813667137E-04 
1343	 5.13917435293061E-04 
1344	 9.24008161133687E-04 
1345	 1.29987562615807E-03 
1346	 1.58264387172769E-03 
1347	 1.50888748522407E-03 
1348	 3.86345537365405E-04 
1349	 1.0404427339408E-03 
1350	 4.14314276834404E-03 
1351	 4.82140087553662E-03 
1352	 4.5909907781601E-03 
1353	 8.74322205212161E-03 
1354	 1.74594110590676E-02 
1355	 1.89008498794266E-02 
1356	 1.95622433935394E-02 
1357	 3.07843733854349E-02 
1358	 5.05719705667726E-02 
1359	 3.64477572861123E-02 
1360	-6.1291643428808E-03 
1361	 1.94805044789164E-02 
1362	 8.64764929128822E-02 
1363	 5.27702408598922E-02 
1364	 5.20721727928762E-02 
1365	 0.113406221724039 
1366	 7.44834925276396E-02 
1367	 3.05885396541243E-02 
1368	-1.53833020993213E-02 
1369	 0.105569216158714 
1370	 7.25192382387951E-02 
1371	-0.27762193266917 
1372	-0.402221284537625 
1373	-0.378660080342752 
1374	-0.309765201684283 
1375	-2.16049746464738E-03 
1376	 3.07780558365546E-02 
1377	-2.07351475359677E-02 
1378	-0.03453607219367 
1379	-0.249538381688712 
1380	-0.267738093979236 
1381	-2.96393607411701E-02 
1382	 5.74385518272749E-03 
1383	-0.223643377957081 
1384	-0.124465175200157 
1385	 0.146076673609906 
1386	 0.146986983523573 
1387	-0.015291161461411 
1388	 0.040903511193575 
1389	 0.129030952627957 
1390	-3.07298387530497E-02 
1391	 0.208119591806619 
1392	 9.67121646582834E-02 
1393	-0.062116554663526 
1394	-7.22171281872603E-02 
1395	-6.10809463568474E-02 
1396	-8.82008440678576E-02 
1397	-3.77463043644725E-02 
1398	-0.050470740482374 
1399	-0.143467576241922 
1400	-9.03417847552067E-02 
1401	 9.16827784159852E-02 
1402	 0.138914773532178 
1403	 0.117068467017755 
1404	 0.19653870419281 
1405	 0.169728113473038 
1406	 1.99990945125063E-02 
1407	 0.00370322621381 
1408	 0.058072225666307 
1409	 0.055383838366114 
1410	 4.19971856061892E-02 
1411	 3.21195152889921E-02 
1412	 1.55795701490644E-02 
1413	 1.07628525983364E-02 
1414	 8.88081561221652E-03 
1415	 1.09554652840264E-02 
1416	 2.01687190819144E-02 
1417	 1.72068460919896E-02 
1418	 9.3698082986379E-03 
1419	 7.55867401666915E-03 
1420	 2.99374704705607E-03 
1421	 4.18634751435415E-03 
1422	 1.34471853084839E-02 
1423	 1.21572702673197E-02 
1424	 5.60833885497418E-03 
1425	 4.81926633587329E-03 
1426	 3.89447555877183E-03 
1427	 2.83800448991733E-03 
1428	 4.43621753817518E-03 
1429	 4.46055035960022E-03 
1430	 9.2124238114362E-04 
1431	 8.38303576632066E-04 
1432	 4.57238088569904E-03 
1433	 5.24786020572571E-03 
1434	 5.59091889339202E-03 
1435	 5.30650400877913E-03 
1436	 2.90030813141559E-03 
1437	 6.78648650824666E-04 
1438	 1.94006557239633E-04 
1439	 2.15984031606471E-03 
1440	 2.47436103704027E-03 
1441	 1.70287853357723E-03 
1442	 3.32551692584302E-03 
1443	 3.8122148660672E-03 
1444	 1.80486004818534E-03 
1445	 1.28160755712333E-03 
1446	 7.96934360635969E-04 
1447	-7.01680108892874E-04 
1448	-2.40178949175881E-04 
1449	 5.76238874898194E-04 
1450	-2.67940346934574E-05 
1451	 3.63947366908054E-04 
1452	 1.44873212083622E-03 
1453	 1.19231305561477E-03 
1454	 1.06584644175271E-03 
1455	 6.12950669532021E-04 
1456	 5.26924556807621E-04 
1457	 1.8516776286722E-04 
1458	 4.32008696937294E-04 
1459	 1.42202572637166E-03 
1460	 1.5507348903558E-03 
1461	 1.36887337299658E-03 
1462	 1.38148029241266E-03 
1463	 9.60393780866952E-04 
1464	 8.61650809117553E-04 
1465	 1.37288274358374E-03 
1466	 0.001549067033979 
1467	 1.48500852254095E-03 
1468	 1.42677430011702E-03 
1469	 1.26812549026308E-03 
1470	 1.19500823813809E-03 
1471	 8.87262598047112E-04 
1472	 8.61257303695226E-04 
1473	 1.19091296219008E-03 
1474	 1.42667546283298E-03 
1475	 1.91086983850599E-03 
1476	 2.01732751571059E-03 
1477	 1.80266328028982E-03 
1478	 1.70220576248479E-03 
1479	 1.61442757740987E-03 
1480	 1.41473191928435E-03 
1481	 1.26653916654355E-03 
1482	 1.01262002744784E-03 
1483	 2.17965915385277E-04 
1484	 2.34757253873999E-04 
1485	 1.14560196791143E-03 
1486	 8.55093236480929E-04 
1487	-1.44888049194732E-04 
1488	 1.95257028107551E-05 
1489	 2.6665891893171E-04 
1490	 2.71854830817032E-04 
1491	 1.08987792181505E-03 
1492	 1.25619188935664E-03 
1493	 5.06553453895981E-04 
1494	 3.80328792583957E-04 
1495	 6.33401421501129E-04 
1496	 5.88207308404446E-04 
1497	 3.84858290718969E-04 
1498	 5.0248489204075E-04 
1499	 8.44554171336388E-04 
1500	 8.97785707623814E-04 
1501	 1.00949557539649E-03 
1502	 1.05162245111574E-03 
1503	 6.66000406440626E-04 
1504	 5.71193331332784E-04 
1505	 6.97637943419327E-04 
1506	 9.00722285045961E-04 
1507	 7.51881180977378E-04 
1508	 6.88087901585323E-04 
1509	 7.91155083104047E-04 
1510	 6.49510985460119E-04 
1511	 5.6710170955597E-04 
1512	 7.34775650909313E-04 
1513	 6.26341645954888E-04 
1514	 3.64150946708991E-04 
1515	 3.44200616923833E-04 
1516	 5.19154398714915E-04 
1517	 6.52094096691603E-04 
1518	 5.85009974421108E-04 
1519	 5.41628107933493E-04 
1520	 6.05552526432149E-04 
1521	 4.678816803937E-04 
1522	 2.92175803108329E-04 
1523	 3.69392858362101E-04 
1524	 2.57021527161486E-04 
1525	 8.95211637223874E-05 
1526	 1.9565261142921E-04 
1527	 1.57182748820248E-04 
1528	 1.5319374343159E-04 
1529	 3.15505694713762E-04 
1530	 3.40576607408163E-04 
1531	 4.52415280401804E-04 
1532	 5.18144293252815E-04 
1533	 3.07108153207597E-04 
1534	 2.69896589832316E-04 
1535	 3.85549962278335E-04 
1536	 2.98951222431263E-04 
1537	 1.93061686827482E-04 
1538	 2.13388163426596E-04 
1539	 3.77609357649375E-04 
1540	 4.51869607302673E-04 
1541	 2.50531778875233E-04 
1542	 2.4901227263039E-04 
1543	 4.01296531334768E-04 
1544	 3.23951502218843E-04 
1545	 3.09575704588225E-04 
1546	 4.45009114529124E-04 
1547	 3.96340573213958E-04 
1548	 2.59148670527273E-04 
1549	 3.94213482740272E-04 
1550	 6.18619985754936E-04 
1551	 5.86571897857888E-04 
1552	 4.49346450346974E-04 
1553	 3.41101249031974E-04 
1554	 2.76530037401212E-04 
1555	 3.17130791893092E-04 
1556	 3.93194420283985E-04 
1557	 3.68107501619467E-04 
1558	 4.14127517588989E-04 
1559	 5.11927075840274E-04 
1560	 4.14078785423005E-04 
1561	 4.6141937077194E-04 
1562	 6.17344588501337E-04 
1563	 5.26125958121215E-04 
1564	 4.45886699610689E-04 
1565	 4.92681690835321E-04 
1566	 4.17667700040893E-04 
1567	 2.53074906662322E-04 
1568	 2.74478252685133E-04 
1569	 4.03752756624903E-04 
1570	 3.4335736738207E-04 
1571	 3.11106259118697E-04 
1572	 3.78088363729149E-04 
1573	 2.51885638394605E-04 
1574	 2.68508884044609E-04 
1575	 6.14301657269568E-04 
1576	 8.59685757740904E-04 
1577	 7.27742447745733E-04 
1578	 4.96228253842089E-04 
1579	 4.41185991386312E-04 
1580	 3.49982442067038E-04 
1581	 3.59218619120846E-04 
1582	 5.86184141625769E-04 
1583	 7.07571290899779E-04 
1584	 6.38216927801472E-04 
1585	 6.04581746501765E-04 
1586	 6.8149922999853E-04 
1587	 5.53972825753403E-04 
1588	 3.82760486196102E-04 
1589	 4.99077457718268E-04 
1590	 5.68526051373946E-04 
1591	 5.6343960348377E-04 
1592	 6.69874982987318E-04 
1593	 7.10867145380614E-04 
1594	 6.22340733407917E-04 
1595	 5.92408762436215E-04 
1596	 6.28422777519718E-04 
1597	 5.07810191838531E-04 
1598	 2.82106462834133E-04 
1599	 2.3455016106004E-04 
1600	 3.20531401890756E-04 
1601	 3.26242501924153E-04 
1602	 3.95463852958682E-04 
1603	 3.14582867007289E-04 
1604	 9.27649490256588E-05 
1605	 2.54817427062106E-04 
1606	 4.05840581449888E-04 
1607	 2.54118138317345E-04 
1608	 2.1668727912849E-04 
1609	 2.56672268889373E-04 
1610	 2.70166893726266E-04 
1611	 4.00196647544072E-04 
1612	 6.11101017718514E-04 
1613	 7.08785106939248E-04 
1614	 5.21648404144254E-04 
1615	 3.67112490261752E-04 
1616	 4.77331939724267E-04 
1617	 5.12105895814271E-04 
1618	 5.12695379642264E-04 
1619	 7.08930262484125E-04 
1620	 7.28792094980753E-04 
1621	 5.05669496880834E-04 
1622	 3.77314146580617E-04 
1623	 3.12269597983236E-04 
1624	 3.8036627139415E-04 
1625	 5.55566711534667E-04 
1626	 6.11732791243078E-04 
1627	 5.32548680958561E-04 
1628	 5.12574605140132E-04 
1629	 6.00115899033314E-04 
1630	 5.69485332518372E-04 
1631	 5.82635126714628E-04 
1632	 6.96586220768917E-04 
1633	 5.97588083641648E-04 
1634	 5.18957405104189E-04 
1635	 6.45517093945752E-04 
1636	 7.29905830092915E-04 
1637	 6.46524984062776E-04 
1638	 4.64935537901212E-04 
1639	 5.14549502547608E-04 
1640	 4.89731613759015E-04 
1641	 2.17658941068365E-04 
1642	 4.67943870734116E-04 
1643	 7.37125013594273E-04 
1644	 5.20077881822571E-04 
1645	 6.87299843514216E-04 
1646	 7.92418859459465E-04 
1647	 3.55160289142665E-04 
1648	 3.30248580667369E-04 
1649	 5.93553198523379E-04 
1650	 5.56815620057181E-04 
1651	 4.44525023235009E-04 
1652	 4.33126990661086E-04 
1653	 3.10973984795289E-04 
1654	 2.22486391919665E-04 
1655	 4.55869499706095E-04 
1656	 5.93141575532509E-04 
1657	 6.17892592850043E-04 
1658	 4.66538633498287E-04 
1659	 2.25869325677057E-04 
1660	 2.10313389666011E-04 
1661	 7.35578988659667E-05 
1662	-4.70545194414016E-06 
1663	 1.41142741833631E-04 
1664	 2.11393414204179E-04 
1665	 2.65556723819924E-04 
1666	 2.71473457558041E-04 
1667	 3.41416900327456E-04 
1668	 7.74452447983951E-04 
1669	 6.25125532706311E-04 
1670	 4.67579995068078E-04 
1671	 3.31253337457475E-04 
1672	 2.32736222405638E-04 
1673	 4.28239431728621E-04 
1674	 5.97315507600799E-04 
1675	 6.71998940034232E-04 
1676	 5.19458352674687E-04 
1677	 4.1154129210284E-04 
1678	 4.12326522266501E-04 
1679	 3.60968864811017E-04 
1680	 5.36975678135321E-04 
1681	 6.66857230606865E-04 
1682	 5.69602696708619E-04 
1683	 5.16570191997334E-04 
1684	 5.42660977986606E-04 
1685	 5.05873610906205E-04 
1686	 5.34327751202787E-04 
1687	 7.51516870845972E-04 
1688	 6.11667001798407E-04 
1689	 2.09816915415753E-04 
1690	 2.174463054952E-04 
1691	 5.18982582188878E-04 
1692	 7.63379773796195E-04 
1693	 7.53329667157569E-04 
1694	 5.50766975535283E-04 
1695	 3.98693481484765E-04 
1696	 3.21701923540154E-04 
1697	 3.43057387784164E-04 
1698	 5.55694109033586E-04 
1699	 5.20179370411555E-04 
1700	 2.32854079689468E-04 
1701	 3.32569422705214E-04 
1702	 4.83119717588591E-04 
1703	 5.02641377208404E-04 
1704	 6.64136333848471E-04 
1705	 7.13479913627581E-04 
1706	 8.58430651705322E-04 
1707	 8.20879669311554E-04 
1708	 5.22593827170293E-04 
1709	 5.83418202800471E-04 
1710	 4.73896562640447E-04 
1711	 3.30193258574817E-04 
1712	 5.70843436666292E-04 
1713	 4.28141734669358E-04 
1714	 4.47193326129821E-04 
1715	 3.99855307221265E-04 
1716	 1.86468441388352E-04 
1717	 1.87903611759765E-04 
1718	 2.99769566089731E-04 
1719	 4.22710189272211E-04 
1720	 4.94680241184994E-04 
1721	 8.51676713273104E-04 
1722	 8.61089214804765E-04 
1723	 3.37846221423338E-04 
1724	 5.02205004691932E-04 
1725	 7.76163859322643E-04 
1726	 5.40935058874298E-04 
1727	 7.46774595127055E-04 
1728	 1.02474889743733E-03 
1729	 7.28977365321244E-04 
1730	 6.48487936709476E-04 
1731	 1.01741893481043E-03 
1732	 1.10306889763907E-03 
1733	 8.55205927320575E-04 
1734	 6.8571120776464E-04 
1735	 4.51406714575708E-04 
1736	 3.77299835623674E-04 
1737	 7.21680690709677E-04 
1738	 9.57371788148228E-04 
1739	 7.66201510182546E-04 
1740	 4.02722101785785E-04 
1741	 3.81984621074915E-04 
1742	 6.40309810812305E-04 
1743	 8.46421407843287E-04 
1744	 5.63622306435492E-04 
1745	 2.84499435222669E-04 
1746	 6.39607758675456E-04 
1747	 5.97092516765852E-04 
1748	 1.09599916039805E-03 
1749	 1.32883479221439E-03 
1750	 9.01697759489505E-04 
1751	 8.05509696844706E-04 
1752	 7.05584184755586E-04 
1753	 5.6237771032459E-04 
1754	 5.7978028622575E-04 
1755	 4.31485145829357E-04 
1756	 3.79163788059488E-04 
1757	 4.89545103219871E-04 
1758	 9.01213177211646E-05 
1759	 1.13334637330629E-04 
1760	 2.04958000378055E-04 
1761	 1.77069680948526E-04 
1762	 6.12717086204605E-04 
1763	 9.48437151028465E-04 
1764	 1.04487779090529E-03 
1765	 1.00013762896723E-03 
1766	 3.70542183284432E-04 
1767	-4.65908688150347E-05 
1768	 4.28882407480678E-04 
1769	 6.17675489764501E-04 
1770	 6.55066774213299E-04 
1771	 8.7774474561081E-04 
1772	 8.08264168277301E-05 
1773	-3.42893500217777E-04 
1774	 1.96429404216411E-04 
1775	 7.19824993915848E-04 
1776	 1.01069245616993E-03 
1777	 1.28244729201503E-03 
1778	 1.26717030183276E-03 
1779	 6.85061930213989E-04 
1780	 4.06239805742546E-05 
1781	-9.21559678928233E-04 
1782	-9.78967546088824E-04 
1783	-4.62283891978627E-04 
1784	-1.29207507182156E-05 
1785	 1.06088879870907E-03 
1786	 1.24810012076231E-03 
1787	 7.60964367055332E-04 
1788	 8.01741975629149E-04 
1789	 9.5682786955823E-04 
1790	 1.29717855477886E-03 
1791	 1.27894105826749E-03 
1792	 5.54263675946047E-04 
1793	 4.60764663080043E-04 
1794	 1.23742568514053E-03 
1795	 1.08119149360482E-03 
1796	 1.86498591883401E-03 
1797	 3.54762905015611E-03 
1798	 5.03966581191794E-03 
1799	 6.8945049723165E-03 
1800	 7.46589496919452E-03 
1801	 8.1277074827752E-03 
1802	 5.17550104967051E-03 
1803	 4.84477915348844E-03 
1804	 8.99979314744267E-03 
1805	 1.01830839403538E-02 
1806	 9.76629381726153E-03 
1807	 1.08555718986655E-02 
1808	 9.12055849990209E-03 
1809	 1.02377027635084E-02 
1810	 2.36883852566957E-02 
1811	 2.43082398934686E-02 
1812	 1.10052737451809E-02 
1813	 1.64519029400992E-03 
1814	-2.92692181885903E-02 
1815	-4.42740587648685E-02 
1816	-4.23792189760556E-02 
1817	-3.24060743235505E-02 
1818	 1.92413182942921E-03 
1819	-7.35915399797326E-02 
1820	-5.87648819492102E-02 
1821	-5.97529961419799E-02 
1822	-8.38854465293953E-02 
1823	-6.38273579590453E-02 
1824	-0.023856603050065 
1825	 3.06413899839938E-02 
1826	 1.36144018389432E-02 
1827	 2.96012474913637E-03 
1828	-0.02529279040722 
1829	-0.363792785779307 
1830	-0.265794450795002 
1831	 2.2201393042641 
1832	 1.13187906752106 
1833	-3.10800763313415 
1834	-3.14124717349637 
1835	-2.65224339951174 
1836	-1.96375270269157 
1837	-0.853363880070942 
1838	-0.571955543894878 
1839	-0.114292495743558 
1840	-2.67233876910906E-02 
1841	-0.186449708373981 
1842	-0.429403499273766 
1843	-0.120205520319657 
1844	 0.319029249244679 
1845	 0.40206010188565 
1846	 0.990511584808072 
1847	 0.304052451943895 
1848	 22.3787871527859 
1849	 6.12045063459046 
1850	 29.8240391541659 
1851	 4.06419981500819 
1852	 1.41219684902815 
1853	 0.675156824729902 
1854	 0.481421923174177 
1855	 0.203048002962746 
1856	 0.178184047778081 
1857	 66.6951687976296 
1858	-1.23144043391547 
1859	-0.239830395989684 
1860	-0.304712300555661 
1861	-0.994827831339918 
1862	-0.775644729260392 
1863	 1.23256503376325 
1864	 2.20023558057047 
1865	 2.10070754886995 
1866	-2.10141916026935 
1867	-1.87502175260122 
1868	-0.822430655505723 
1869	 1.29791250473366 
1870	 0.336507483057443 
1871	 0.24974932756045 
1872	-0.158029173423824 
1873	-0.239340306074345 
1874	-0.162407790335192 
1875	-1.30500943049661E-02 
1876	 0.101931822475252 
1877	 0.242405525064154 
1878	 0.399138201224439 
1879	 1.82942696045997 
1880	 4.7730653290086 
1881	-9.53258760908963E-02 
1882	 0.43740547137705 
1883	 0.626120704600157 
1884	 2.55660695359798 
1885	 0.142286862177975 
1886	-4.70892307368958 
1887	 2.67866377228748 
1888	 1.87336425117271 
1889	 1.03328000230296 
1890	-0.689903219444787 
1891	-0.775204264846849 
1892	-0.907196998714392 
1893	-0.498820169842903 
1894	 0.785897195536354 
1895	 2.32047862801297 
1896	-49.6704225910076 
1897	-5.93630380859697 
1898	-3.87028971371633 
1899	 1.43807247089953 
1900	 0.240977543680181 
1901	 1.33092455243832E-02 
1902	-0.21210825091584 
1903	-0.553593714599074 
1904	-1.17809925368584 
1905	 4.72306284984695 
1906	-0.193328560427724 
1907	-3.93262233519928 
1908	 5.54990490980084 
1909	 1.2251871753842 
1910	 1.03481911654209 
1911	 1.47598775507693 
1912	 2.27711903485864 
1913	 2.31256252828691 
1914	 1.80707126971953 
1915	 0.890394445219549 
1916	-3.17127199112124E-02 
1917	 0.122129451365291 
1918	 0.600840030991927 
1919	 0.981591309633505 
1920	 0.827577437967685 
1921	 0.542140528976766 
1922	-4.48919012671915E-02 
1923	-0.225961403206994 
1924	-0.905435278038772 
1925	-0.829159160346361 
1926	-0.696934140866882 
1927	-0.494298956427528 
1928	-0.558433740579253 
1929	-0.228320266957886 
1930	-1.42532337809226E-02 
1931	-0.166919310327623 
1932	-0.116177715824926 
1933	-1.88229554285993E-02 
1934	-2.24889027576857E-02 
1935	 3.61348100664949E-04 
1936	 2.83018831454535E-02 
1937	 2.02614289385795E-02 
1938	-1.13060435111491E-02 
1939	-1.32532707105323E-02 
1940	-6.53064064793647E-03 
1941	 9.4476662312821E-03 
1942	 5.23142562988818E-03 
1943	 6.58267292520671E-03 
1944	 3.07480499927487E-03 
1945	-9.86716014248611E-03 
1946	-3.78790732353217E-03 
1947	-3.3396931178688E-03 
1948	-7.08821231884765E-03 
1949	-1.86347368860095E-03 
1950	-7.3404419525954E-03 
1951	-7.56981999737044E-03 
1952	-3.72201828933798E-03 
1953	 5.04141775309373E-03 
1954	 7.23612846455771E-03 
1955	 0.010696735495508 
1956	 1.44773872820439E-02 
1957	 1.64166351627453E-02 
1958	 1.60552983600453E-02 
1959	 1.08475767134344E-02 
1960	 7.36502978361162E-03 
1961	 1.01958900070772E-02 
1962	 1.04320436763276E-02 
1963	 9.64305476277927E-03 
1964	 1.08588556174796E-02 
1965	 7.14959024621341E-03 
1966	 4.68320688206695E-03 
1967	 1.30181180460582E-03 
1968	 1.82812718375621E-03 
1969	 1.50708465127227E-03 
1970	 9.26797954996991E-04 
1971	 5.13882938137471E-04 
1972	-6.46568773030315E-04 
1973	-1.32883665934829E-03 
1974	-1.86065380862241E-03 
1975	-1.8638752537622E-03 
1976	-5.87865996621829E-04 
1977	-5.19582695436047E-04 
1978	-2.23144279735295E-04 
1979	 6.68916765177624E-04 
1980	 2.34730692511793E-03 
1981	 2.45201274797636E-03 
1982	 2.3073085939648E-03 
1983	 2.15216364013656E-03 
1984	 6.57489426321442E-04 
1985	-8.4779186204888E-04 
1986	-6.17923011403679E-04 
1987	 2.59004778625508E-04 
1988	 7.13378866881384E-04 
1989	 9.19228071401057E-04 
1990	 9.20493092615304E-04 
1991	 8.20154289967967E-04 
1992	 1.3721096817466E-03 
1993	 2.16207565558619E-03 
1994	 2.00393333570368E-03 
1995	 1.08023800505239E-03 
1996	 1.58372606112107E-04 
1997	-1.00842583329558E-03 
1998	-2.09793001337166E-03 
1999	-3.57423342554962E-04 
2000	 1.69305249445062E-03 
2001	 1.34534629952237E-03 
2002	 1.52344972347927E-03 
2003	 1.74396047666322E-03 
2004	-1.58387089219677E-03 
2005	-2.01560455076132E-03 
2006	 7.03658939115795E-04 
2007	 8.9015678733289E-04 
2008	 2.29645997540299E-03 
2009	 3.21778383093744E-03 
2010	 2.75586569312551E-03 
2011	 2.05017668400101E-03 
2012	 4.46208503761969E-04 
2013	 2.33959200650635E-03 
2014	 3.47814875327723E-03 
2015	 3.55929866218488E-03 
2016	 6.02305943550176E-03 
2017	 6.02700722481062E-03 
2018	 3.66138841952043E-03 
2019	 3.39958277514904E-03 
2020	 3.12085750597076E-03 
2021	 1.65489546158265E-03 
2022	 8.20480392666916E-04 
2023	 6.39886938812705E-04 
2024	 3.08154256541667E-04 
2025	-1.81897145674224E-04 
2026	-4.71985604389953E-04 
2027	-5.86338784083545E-04 
2028	-6.84849548859357E-04 
2029	-1.00325968725988E-03 
2030	-1.14005556242371E-03 
2031	-6.46093756429946E-04 
2032	-3.48615331690257E-05 
2033	 7.36955333432262E-04 
2034	 1.15549279608899E-03 
2035	 9.55117180894232E-04 
2036	 1.0341473081598E-03 
2037	 9.40732310256029E-04 
2038	 7.14559609298296E-04 
2039	 5.73806692573666E-04 
2040	 3.77277526291984E-04 
2041	 2.18730179756529E-04 
2042	 1.17057843574954E-04 
2043	 3.06074409720026E-04 
2044	 8.11198062567305E-04 
2045	 1.28860710732928E-03 
2046	 1.36646183159339E-03 
2047	 7.48351538103019E-04 
2048	 5.26124565998585E-04 
2049	 2.30741763585098E-05 
2050	-0.000163100682564 
2051	 4.56135556171446E-05 
2052	 3.40648802591479E-04 
2053	 1.32556030938486E-03 
2054	 2.08320467351758E-03 
2055	 2.49221575681232E-03 
2056	 2.72677795787268E-03 
2057	 2.52112094494922E-03 
2058	 1.88316810906011E-03 
2059	 3.66377581153748E-04 
2060	 3.41944502461389E-04 
2061	 8.11334548416622E-04 
2062	 6.09146145727748E-04 
2063	 1.49902710547795E-03 
2064	 1.99284519052501E-03 
2065	 8.30170929967594E-04 
2066	 2.36778286603509E-04 
2067	 8.25689961826822E-04 
2068	 1.74272547011938E-03 
2069	 2.33020859992127E-03 
2070	 1.87525451467349E-03 
2071	 1.38911649328441E-03 
2072	 1.53288554439456E-03 
2073	 1.03884599777005E-03 
2074	 3.15965149792488E-04 
2075	 1.21545017826341E-04 
2076	-3.47650810858773E-04 
2077	-6.59916708532903E-04 
2078	-1.61093534809278E-04 
2079	 1.708301796045E-04 
2080	 5.38185420136385E-04 
2081	 2.39598162034416E-04 
2082	-1.12465623239142E-04 
2083	-7.72881790712679E-04 
2084	-4.40280162548973E-04 
2085	-1.31674347900257E-04 
2086	 1.20934905470307E-04 
2087	 4.92100725450184E-04 
2088	 3.75473619136011E-04 
2089	 2.5515870844499E-04 
2090	-1.17944609603705E-04 
2091	-2.89228595331259E-04 
2092	-1.76407337989571E-05 
2093	 4.75397856159274E-04 
2094	 5.20133356317413E-04 
2095	 1.18667179648939E-03 
2096	 1.07643745031484E-03 
2097	-5.42769740945742E-04 
2098	-7.61882509674731E-04 
2099	-4.50614018180155E-04 
2100	-9.40135496752446E-05 
2101	 5.22436808848013E-04 
2102	 1.01461556162611E-03 
2103	 6.27000298785659E-04 
2104	 6.95793238795025E-04 
2105	 1.21946545163922E-03 
2106	 1.25162260696333E-03 
2107	 1.69871529039455E-03 
2108	 1.68595047549194E-03 
2109	 1.0287336993301E-03 
2110	 1.07039640086701E-03 
2111	 9.36733331861351E-04 
2112	 5.67596929294849E-04 
2113	 6.26491140212694E-04 
2114	 1.38157932774143E-03 
2115	 1.51090462947427E-03 
2116	 1.38010739521783E-03 
2117	 1.48397378088714E-03 
2118	 1.58819617712908E-03 
2119	 1.36052248968693E-03 
2120	 7.70752608750506E-04 
2121	 9.27869446673838E-04 
2122	 1.39432136223658E-03 
2123	 1.32617034926598E-03 
2124	 1.4472976047055E-03 
2125	 1.74457422532963E-03 
2126	 1.45211330456332E-03 
2127	 1.08350785673241E-03 
2128	 1.11106928959592E-03 
2129	 1.48696687989947E-03 
2130	 1.29502988556464E-03 
2131	 3.15407476457492E-04 
2132	-3.6503994820587E-05 
2133	-3.87171157640484E-04 
2134	-6.83139220722484E-04 
2135	-7.36779623023718E-04 
2136	-6.40320731892384E-04 
2137	-6.56696441098243E-04 
2138	-3.07074197142185E-04 
2139	 7.94672231707837E-04 
2140	 1.01781528030648E-03 
2141	 6.98005163729482E-04 
2142	 8.23952469221235E-04 
2143	 8.09953675881082E-04 
2144	 7.94602211043496E-04 
2145	 5.8397460172789E-04 
2146	 3.39354165443023E-04 
2147	-4.87642137521237E-04 
2148	-1.0591540404242E-03 
2149	-9.09761021206572E-04 
2150	-5.13807873113296E-04 
2151	 3.44735497794983E-05 
2152	 5.80593565063457E-04 
2153	 9.51905054396072E-04 
2154	 1.12635325296013E-03 
2155	 7.03564705049726E-04 
2156	 4.0215329234392E-04 
2157	-5.18272086206016E-05 
2158	-9.19542617855309E-04 
2159	-1.18293455246883E-03 
2160	-1.39576084638075E-03 
2161	-1.43035340329999E-03 
2162	-8.10662870435786E-04 
2163	-5.14012972784043E-04 
2164	-2.60994409218358E-04 
2165	-6.35856998889889E-05 
2166	-2.83923330657601E-04 
2167	 1.31103222532715E-04 
2168	 1.65885300423874E-03 
2169	 1.73497626954619E-03 
2170	 1.28987140003752E-03 
2171	 7.07394282053286E-04 
2172	-1.09548347889548E-04 
2173	-5.50942618391629E-04 
2174	-2.61195876754408E-05 
2175	 9.6904997901632E-04 
2176	 1.63860046382895E-03 
2177	 1.65002785964511E-03 
2178	 1.15654785365213E-03 
2179	 9.33439418486326E-04 
2180	 4.65821611099812E-04 
2181	-2.42284227523018E-04 
2182	-8.21163904477205E-04 
2183	-1.13590260031053E-03 
2184	-1.20903139538683E-03 
2185	-1.0439164379965E-03 
2186	-6.29933346681599E-04 
2187	 6.00598616049238E-04 
2188	 1.16406161745656E-03 
2189	 1.73641596919481E-03 
2190	 1.89586135402787E-03 
2191	 1.69251944225756E-03 
2192	 1.42053115853647E-03 
2193	 4.71572146155783E-04 
2194	 3.76129438495221E-05 
2195	-2.12912650374352E-04 
2196	-2.19913482987767E-04 
2197	 2.02779046833178E-04 
2198	 6.73411030979049E-04 
2199	 1.6263265572697E-03 
2200	 1.75023810606642E-03 
2201	 1.66642366392444E-03 
2202	 8.43368974918779E-04 
2203	 9.81560898623865E-05 
2204	 4.58620231458962E-04 
2205	 1.40538902766248E-03 
2206	 1.81058459339809E-03 
2207	 1.54375210863949E-03 
2208	 1.15613324403791E-03 
2209	 4.35868933563389E-04 
2210	 4.92430289996853E-04 
2211	 8.38666905272486E-04 
2212	 1.08615099306855E-03 
2213	 6.84480997344025E-04 
2214	-1.67001008312074E-04 
2215	 4.73194394390003E-04 
2216	-2.22029309603238E-04 
2217	-7.56441466511569E-04 
2218	-9.3179027547029E-04 
2219	-8.48342459401053E-04 
2220	-8.5408813237108E-04 
2221	-9.11010377287529E-04 
2222	-1.21000656722345E-03 
2223	-6.17704050975043E-04 
2224	 7.27678132583318E-04 
2225	 6.93110773082703E-04 
2226	 8.93380720830997E-04 
2227	 1.00062202981721E-03 
2228	-6.31225236141923E-04 
2229	-1.08224293510533E-03 
2230	-3.66494559683249E-04 
2231	-2.72445732308149E-04 
2232	-4.38412273005942E-04 
2233	-1.77449978682014E-04 
2234	-6.74633888528739E-04 
2235	 1.55459149139877E-03 
2236	 4.11607699637328E-03 
2237	 3.3843726280061E-03 
2238	 3.02958634512804E-03 
2239	 2.46594762697243E-03 
2240	 4.09765623215302E-04 
2241	 3.57061308404778E-04 
2242	 7.26456570929294E-04 
2243	-4.64179088881559E-04 
2244	-5.8723851680261E-05 
2245	 1.30194672965634E-03 
2246	 2.02312922370486E-03 
2247	 4.04419322871017E-03 
2248	 5.1144999287585E-03 
2249	 2.51438668984948E-03 
2250	 1.67491042820839E-03 
2251	 2.28406819828919E-03 
2252	 5.85125356749329E-04 
2253	 2.90656876627959E-04 
2254	-5.69179929986169E-04 
2255	-3.30035574101482E-03 
2256	-3.12419723570794E-03 
2257	-1.08927962344352E-03 
2258	-1.23340414284786E-04 
2259	 1.60117812446104E-04 
2260	 1.94682884484753E-04 
2261	-1.4748019119497E-03 
2262	-1.67336128501719E-03 
2263	-8.50410879030513E-04 
2264	-5.47200000641897E-04 
2265	 3.62352574530731E-04 
2266	 4.78967384188472E-04 
2267	-9.09859692515099E-04 
2268	-1.22044579884881E-03 
2269	-1.38530716548397E-03 
2270	-6.28121987415921E-04 
2271	 1.9691571942068E-03 
2272	 3.10011839342021E-03 
2273	 3.97021102629515E-03 
2274	 3.45514393608958E-03 
2275	 1.01686181278111E-03 
2276	 4.85590555206843E-04 
2277	 1.02971509760153E-03 
2278	 1.01694872908151E-03 
2279	 5.34002331764257E-04 
2280	 3.90116214388005E-04 
2281	 2.05761573326559E-04 
2282	-4.93712489623094E-04 
2283	 1.07021001730521E-03 
2284	 2.02372022947906E-03 
2285	 1.25433465217345E-03 
2286	 8.19005123375393E-04 
2287	-2.10797749640815E-03 
2288	-1.74095495259538E-03 
2289	-3.41807118201815E-04 
2290	-1.77223923199418E-03 
2291	-7.92050583685005E-04 
2292	-4.11688670868399E-04 
2293	-1.98856513278865E-03 
2294	-1.19066671515711E-04 
2295	 1.92811285342171E-03 
2296	 8.55152054097193E-04 
2297	 1.11060945198393E-03 
2298	 1.73005095911325E-03 
2299	 1.41667728503561E-03 
2300	 2.22727564376459E-03 
2301	 3.87998258249779E-03 
2302	 4.61977018416766E-03 
2303	 2.92544724366749E-03 
2304	 1.91562607993869E-03 
2305	 2.45203474902851E-03 
2306	 1.25787260722007E-03 
2307	 5.44073433735407E-04 
2308	 1.32133444584751E-04 
2309	-1.83086444128933E-03 
2310	-1.89366409928631E-03 
2311	-6.43758438236365E-04 
2312	-6.23617899842881E-04 
2313	-7.40584064599252E-04 
2314	 3.61476999951884E-05 
2315	 2.15215944610661E-04 
2316	 6.73321608556675E-04 
2317	 1.40744628625582E-03 
2318	 1.02989454174363E-03 
2319	 5.64501235193957E-04 
2320	-2.11115369625144E-03 
2321	-3.53134278822869E-03 
2322	-4.09880438888421E-03 
2323	-4.63695300056871E-03 
2324	 8.65240991789436E-04 
2325	 6.15715031260682E-04 
2326	-4.23832669861724E-03 
2327	-9.11164512227382E-04 
2328	-8.1240782362833E-04 
2329	-4.32681839635297E-03 
2330	-8.45099272843155E-04 
2331	 2.11466246093272E-03 
2332	-6.57123792421201E-05 
2333	 2.11474832586568E-03 
2334	 4.90310226253737E-03 
2335	 1.24348107524376E-03 
2336	-2.25058825018361E-03 
2337	-1.94765777543149E-03 
2338	 7.79319921687664E-04 
2339	-2.30917381857991E-03 
2340	-6.23567075429894E-03 
2341	-4.67947290182171E-03 
2342	-9.68418603593541E-03 
2343	-1.21343343828633E-02 
2344	-4.01723166803683E-03 
2345	-2.17707076259698E-03 
2346	-2.79231417386213E-03 
2347	 3.02887122433871E-04 
2348	-1.79315748190625E-03 
2349	-1.43406195059924E-03 
2350	-2.59100176007623E-03 
2351	-6.17233430325418E-03 
2352	-5.69634886555353E-03 
2353	-1.14123079355695E-02 
2354	-1.31697632306184E-02 
2355	-7.69518882460869E-03 
2356	-4.0332296577053E-03 
2357	 5.41730584815275E-03 
2358	 1.07231796395382E-02 
2359	 3.19728819033531E-04 
2360	-8.44758821456373E-03 
2361	-8.93868334783459E-03 
2362	-6.20050255217515E-03 
2363	 1.8652265318914E-03 
2364	 6.94373441564231E-03 
2365	 8.05703300846753E-03 
2366	 4.81993671689546E-03 
2367	-5.88225946307442E-03 
2368	-6.69134031195939E-03 
2369	 2.26307627978973E-03 
2370	 3.31696479598464E-03 
2371	 1.54856541657551E-03 
2372	 4.99181716822258E-03 
2373	-7.26383559261901E-04 
2374	-1.24930266387242E-02 
2375	-1.34355768969653E-02 
2376	-1.44033084148928E-03 
2377	 1.32988469342753E-02 
2378	 1.64244380302351E-02 
2379	 1.64529801239382E-02 
2380	 1.79870253372882E-02 
2381	 1.50630555006097E-02 
2382	 1.19767590554097E-02 
2383	 0.019920258363182 
2384	 1.92157896850567E-02 
2385	-0.002940494049296 
2386	-2.10297486876002E-04 
2387	 1.71808571148141E-03 
2388	-7.24631299178673E-03 
2389	 1.58695999558169E-02 
2390	 1.99301676482083E-02 
2391	 6.58637554866985E-03 
2392	 7.76513580229306E-03 
2393	-5.33533979018969E-03 
2394	-2.38644216799624E-02 
2395	-2.08031022972277E-02 
2396	-1.27484698697332E-02 
2397	-1.77397105575198E-02 
2398	-1.58425133195755E-02 
2399	-1.46940385729233E-02 
2400	-1.93423602115416E-02 
2401	-1.81034225946045E-02 
2402	-2.06020259838479E-02 
2403	-6.88603985122799E-03 
2404	 5.68267193813487E-03 
2405	 1.18208685229595E-02 
2406	 4.39922174589855E-02 
2407	 0.056792182848427 
2408	 5.31059595391652E-02 
2409	 5.15068995210474E-02 
2410	 0.025321758933245 
2411	 5.22547297783851E-03 
2412	-8.23455821206161E-03 
2413	-1.60910718073847E-02 
2414	 5.7735979184303E-03 
2415	 2.62481559265035E-02 
2416	 3.66484650128035E-02 
2417	 2.62559995142858E-02 
2418	 2.73522091749015E-02 
2419	 1.19510363582239E-02 
2420	-4.78484932728669E-02 
2421	-3.41066057132413E-02 
2422	-4.57209939265271E-02 
2423	-8.95982498059321E-02 
2424	-6.13529721654923E-02 
2425	-6.84568858289751E-02 
2426	-8.93642278262713E-02 
2427	-7.63706227671728E-02 
2428	-5.66783234463491E-02 
2429	-1.44627181190501E-02 
2430	 0.011575664130814 
2431	 2.11693962569698E-02 
2432	 1.10403970436018E-02 
2433	-5.89645186211873E-02 
2434	-6.40813642501448E-02 
2435	-5.52040248648709E-02 
2436	-8.20521031846662E-02 
2437	-0.026340878598966 
2438	-3.70981545340863E-02 
2439	-9.08159699291936E-02 
2440	-5.97583941743687E-02 
2441	-0.100544456241387 
2442	-0.150945301162796 
2443	-0.113987665671664 
2444	-0.095299480412706 
2445	-8.96630840195939E-02 
2446	-3.76815723721513E-02 
2447	-2.45701770877585E-03 
2448	-1.6129857051196E-03 
2449	-5.00375434944383E-02 
2450	-6.75046247046084E-02 
2451	-0.125827330256142 
2452	-0.227019648020524 
2453	-0.167995279579001 
2454	-0.116352546889001 
2455	-5.65113493401226E-02 
2456	 1.61649412309476E-02 
2457	 2.15323760078137E-02 
2458	 5.84450877293897E-02 
2459	 0.108087915333592 
2460	 2.39665375773018E-02 
2461	 5.19257669082123E-02 
2462	 0.12904377120121 
2463	 2.36653833474688E-02 
2464	 0.118227377469745 
2465	 0.223684766075178 
2466	 0.165345600133869 
2467	 0.313438198660003 
2468	 0.383625278703732 
2469	 0.270634646767082 
2470	 0.205284411024572 
2471	-0.019582697520477 
2472	-0.212912609665469 
2473	 5.80659657735999E-02 
2474	 7.52324130172249E-02 
2475	 0.122207354989074 
2476	 0.382892659494469 
2477	 0.355035690086661 
2478	-9.25891274507809E-02 
2479	-9.37647453144748E-02 
2480	 0.159216600542511 
2481	-0.118193992848533 
2482	-0.304080896058287 
2483	-0.167140336861408 
2484	-0.527971477646643 
2485	-1.03179558692288 
2486	-0.942845531795954 
2487	 7.54675586615401 
2488	-9.47441039206501E-02 
2489	 3.34262540513188 
2490	 8.83206947091737 
2491	 1.7496099153985 
2492	-1.16268115636737 
2493	 0.366784284669053 
2494	 3.70595747882216 
2495	 1.36724960203931 
2496	 0.901716454095 
2497	 0.51385220774659 
2498	-9.91185646895724E-02 
2499	-8.18434748292564 
2500	 0.804187507136971 
