Wavelength	rt0715far00007.asd
350	 2.53855257180452E-02 
351	 2.59304851597781E-02 
352	 2.48782039044746E-02 
353	 2.43701271205097E-02 
354	 2.53474318787481E-02 
355	 2.49092983744122E-02 
356	 2.49322562798242E-02 
357	 2.48775535615031E-02 
358	 2.40659171746047E-02 
359	 2.43461973231814E-02 
360	 2.43762384381759E-02 
361	 2.41383322817267E-02 
362	 2.44502647999206E-02 
363	 2.43243631919561E-02 
364	 2.39175930241943E-02 
365	 2.36297269568289E-02 
366	 2.40028012471113E-02 
367	 2.41977870236476E-02 
368	 2.41862435951753E-02 
369	 2.41170477594723E-02 
370	 2.39004042635388E-02 
371	 2.38332964163154E-02 
372	 2.39752221520194E-02 
373	 2.41901067428928E-02 
374	 2.40937653261739E-02 
375	 2.39662035602828E-02 
376	 2.38952498563672E-02 
377	 0.023617151348877 
378	 2.39971307781241E-02 
379	 2.41907472627993E-02 
380	 2.36339875610371E-02 
381	 2.39268385586426E-02 
382	 2.36733000821663E-02 
383	 0.023382443409862 
384	 2.40994097219253E-02 
385	 2.38293300624496E-02 
386	 2.35567309099943E-02 
387	 2.37482548120135E-02 
388	 2.40067821114229E-02 
389	 2.38361043694674E-02 
390	 2.38047401252296E-02 
391	 2.41919123418066E-02 
392	 2.40877764399731E-02 
393	 2.38672499086477E-02 
394	 2.38779896368456E-02 
395	 2.42808227332779E-02 
396	 2.44524132115641E-02 
397	 2.43943139549006E-02 
398	 2.42838606769185E-02 
399	 2.43762121200881E-02 
400	 2.42858189035749E-02 
401	 2.42987488044312E-02 
402	 2.45027314779157E-02 
403	 2.42945022669729E-02 
404	 2.43266897369512E-02 
405	 2.44732203358242E-02 
406	 2.44137939602552E-02 
407	 0.024493672918799 
408	 2.45962319570765E-02 
409	 2.46896244540626E-02 
410	 2.48422893813565E-02 
411	 2.48362852108296E-02 
412	 2.47127191710392E-02 
413	 2.46297220467253E-02 
414	 2.49415621841461E-02 
415	 2.50205571491533E-02 
416	 2.50068921075583E-02 
417	 2.52562456758119E-02 
418	 2.53520494017908E-02 
419	 2.54355818795317E-02 
420	 2.55348598951963E-02 
421	 2.55231506451442E-02 
422	 2.55507567081838E-02 
423	 2.57328830664691E-02 
424	 2.60399488821007E-02 
425	 2.60737192166394E-02 
426	 2.61567197468471E-02 
427	 2.63329237705423E-02 
428	 0.026491070044399 
429	 2.64493372997306E-02 
430	 2.65607926096107E-02 
431	 2.68562476319271E-02 
432	 2.69439946494947E-02 
433	 2.70265249122111E-02 
434	 2.71776936390442E-02 
435	 2.73934201263133E-02 
436	 2.75248621947331E-02 
437	 2.76793585062289E-02 
438	 2.78560403334332E-02 
439	 2.80012480315885E-02 
440	 2.81653185102186E-02 
441	 2.83108878557753E-02 
442	 2.84369995306112E-02 
443	 2.86101532464739E-02 
444	 2.87240345241364E-02 
445	 2.88648677606398E-02 
446	 2.91076090255072E-02 
447	 2.92872300064589E-02 
448	 0.02941007103266 
449	 2.95027658785482E-02 
450	 2.96043062075909E-02 
451	 2.97108003684566E-02 
452	 2.98310590738981E-02 
453	 2.99703956636423E-02 
454	 3.01310717367145E-02 
455	 0.030234085760638 
456	 3.03072500171971E-02 
457	 3.04045250147667E-02 
458	 3.04776235029092E-02 
459	 3.05602793801598E-02 
460	 0.03066288995324 
461	 3.07657579610243E-02 
462	 3.07918091809961E-02 
463	 3.08575224958311E-02 
464	 0.031017385401941 
465	 3.10464119031618E-02 
466	 3.10960805363969E-02 
467	 3.11995893660373E-02 
468	 3.13175896326948E-02 
469	 3.13177699910881E-02 
470	 3.14320033443185E-02 
471	 3.16516900875049E-02 
472	 3.16109799957554E-02 
473	 3.16334338432916E-02 
474	 3.17350161568031E-02 
475	 3.18689734065599E-02 
476	 3.20841514555818E-02 
477	 3.21929699910383E-02 
478	 3.22176040018229E-02 
479	 3.23171628932165E-02 
480	 3.24095502094512E-02 
481	 3.25238644894852E-02 
482	 3.26918888148309E-02 
483	 0.032936864396952 
484	 3.30549144020708E-02 
485	 3.31066399439847E-02 
486	 3.32271861352255E-02 
487	 3.33157888762935E-02 
488	 3.35470172423154E-02 
489	 3.38421147407581E-02 
490	 3.38943919970812E-02 
491	 3.40712484323101E-02 
492	 3.42678090595248E-02 
493	 3.43831446808809E-02 
494	 3.45876543437714E-02 
495	 3.47788083478578E-02 
496	 3.49934259199275E-02 
497	 3.53039990706171E-02 
498	 3.54735895285325E-02 
499	 3.55856406637757E-02 
500	 3.57303951880473E-02 
501	 3.59530615607134E-02 
502	 3.61940546699927E-02 
503	 3.64199782185056E-02 
504	 3.66189763435876E-02 
505	 3.68183488987371E-02 
506	 3.70546748243472E-02 
507	 3.73308858816941E-02 
508	 3.76123414138942E-02 
509	 3.77175986143925E-02 
510	 3.78531955078821E-02 
511	 3.81488515169767E-02 
512	 3.84170660080049E-02 
513	 3.86758702205411E-02 
514	 3.88941516985583E-02 
515	 3.90499963027773E-02 
516	 3.92952640294666E-02 
517	 3.95611312374844E-02 
518	 3.98295066115181E-02 
519	 4.01707113765905E-02 
520	 4.03915457668311E-02 
521	 4.06201757549391E-02 
522	 4.09742574896091E-02 
523	 4.12698927855737E-02 
524	 4.15410819469966E-02 
525	 4.17915237369408E-02 
526	 4.20160408907681E-02 
527	 4.23478815596176E-02 
528	 0.042669392026503 
529	 4.29122769417832E-02 
530	 4.31661941651006E-02 
531	 0.043502366257114 
532	 4.38544544784431E-02 
533	 4.41268646236334E-02 
534	 4.44264359396658E-02 
535	 4.47298429678502E-02 
536	 4.50335195091295E-02 
537	 4.53628796494922E-02 
538	 4.56681926230521E-02 
539	 4.59636636037688E-02 
540	 4.62736337219614E-02 
541	 4.66027798076044E-02 
542	 4.69197317553737E-02 
543	 4.72016925858388E-02 
544	 4.74434416085018E-02 
545	 4.77444584326609E-02 
546	 4.80279724675698E-02 
547	 4.82676339456411E-02 
548	 0.048588912327026 
549	 4.88069477550414E-02 
550	 4.90033138436938E-02 
551	 0.049311793066118 
552	 4.95584888835089E-02 
553	 4.98949966716759E-02 
554	 5.03218713334567E-02 
555	 5.06540060856426E-02 
556	 5.11362839646868E-02 
557	 5.16066128881416E-02 
558	 5.19176291755936E-02 
559	 5.23184264402377E-02 
560	 5.26566803737005E-02 
561	 5.28789066487057E-02 
562	 5.30106460368545E-02 
563	 5.31828921271765E-02 
564	 5.33495529137392E-02 
565	 5.34831445792184E-02 
566	 5.36417928250135E-02 
567	 5.38236823742857E-02 
568	 0.053970149186873 
569	 5.40200125878452E-02 
570	 5.40233610237069E-02 
571	 5.41080890776377E-02 
572	 5.42979907137194E-02 
573	 5.45023670902149E-02 
574	 5.47277349840001E-02 
575	 5.49758254855625E-02 
576	 5.52073866094581E-02 
577	 0.055247469624899 
578	 5.52952057301215E-02 
579	 5.54120387192419E-02 
580	 5.55633414806598E-02 
581	 5.57200320486611E-02 
582	 5.58321014957862E-02 
583	 5.58603093889058E-02 
584	 5.57716514233856E-02 
585	 5.57524780548857E-02 
586	 5.57981344603253E-02 
587	 0.05580868030063 
588	 5.56077412965607E-02 
589	 5.54022927203315E-02 
590	 5.52885176300294E-02 
591	 5.52006362243122E-02 
592	 5.51448324562486E-02 
593	 5.50053650590798E-02 
594	 5.47250489577355E-02 
595	 0.054489227249285 
596	 5.41589709201998E-02 
597	 5.37429536223353E-02 
598	 5.33373149122656E-02 
599	 5.29632104879318E-02 
600	 0.052618015948036 
601	 5.23278905032031E-02 
602	 5.21787543528507E-02 
603	 5.20677397088842E-02 
604	 5.19449054882066E-02 
605	 5.18163319691442E-02 
606	 5.18644548969632E-02 
607	 5.19313643143771E-02 
608	 5.19400781628684E-02 
609	 0.051920340718361 
610	 5.20148573038475E-02 
611	 5.20924693352281E-02 
612	 5.20642998986679E-02 
613	 0.052148372295116 
614	 5.22024203873754E-02 
615	 5.21947298293978E-02 
616	 5.21632895241353E-02 
617	 5.21639690642564E-02 
618	 5.22048883993636E-02 
619	 5.22745637379143E-02 
620	 5.23464780328469E-02 
621	 0.052342525294896 
622	 5.23012557797522E-02 
623	 5.22834194400528E-02 
624	 5.22295794748093E-02 
625	 5.22240297002466E-02 
626	 5.22727997847424E-02 
627	 5.23039213180974E-02 
628	 5.23023463922956E-02 
629	 5.22883700592651E-02 
630	 5.22786486755461E-02 
631	 5.22487560110843E-02 
632	 5.22789927871461E-02 
633	 5.23171389602925E-02 
634	 5.22690755072011E-02 
635	 5.22558582382807E-02 
636	 5.22914918734529E-02 
637	 5.23287740573484E-02 
638	 5.22500583603567E-02 
639	 0.052137302583471 
640	 5.20895764025724E-02 
641	 5.21526871977316E-02 
642	 5.21548381138072E-02 
643	 5.20732998343509E-02 
644	 5.19616298833899E-02 
645	 5.19256442827523E-02 
646	 5.18748989836853E-02 
647	 5.17824896612959E-02 
648	 5.16719176800087E-02 
649	 5.16676697851816E-02 
650	 5.15856568995559E-02 
651	 5.14264753322228E-02 
652	 5.12581902577779E-02 
653	 5.10559422251148E-02 
654	 0.050744335481871 
655	 5.03416025953699E-02 
656	 5.00516942118535E-02 
657	 4.97494773907471E-02 
658	 4.95116550516235E-02 
659	 4.93907153511099E-02 
660	 4.92864941475547E-02 
661	 4.90626378219936E-02 
662	 4.88075267221643E-02 
663	 4.87315846482609E-02 
664	 4.86440681029514E-02 
665	 4.85483530579685E-02 
666	 4.84663261243628E-02 
667	 4.84136652794488E-02 
668	 0.048314449563852 
669	 4.82497695444755E-02 
670	 4.82913919314754E-02 
671	 4.81798528448766E-02 
672	 4.81430827140194E-02 
673	 4.81872208361627E-02 
674	 4.81046020935557E-02 
675	 4.80733998207339E-02 
676	 4.80912607364263E-02 
677	 4.81224798185566E-02 
678	 4.81386628694426E-02 
679	 4.81341198301591E-02 
680	 4.81528582755217E-02 
681	 4.82417339479079E-02 
682	 4.82914881343895E-02 
683	 4.83512135397895E-02 
684	 4.84236352462908E-02 
685	 4.84354456398111E-02 
686	 4.83067933936617E-02 
687	 4.81283340198883E-02 
688	 4.80376543099286E-02 
689	 4.80321337786392E-02 
690	 4.80110896974135E-02 
691	 4.79170496271398E-02 
692	 0.04772149674408 
693	 4.74368141359406E-02 
694	 4.71837946646163E-02 
695	 4.69747732384388E-02 
696	 4.66062427138737E-02 
697	 0.046210419658702 
698	 0.045833784556453 
699	 4.54784297222992E-02 
700	 4.49577816527735E-02 
701	 4.44735502186447E-02 
702	 4.40250907099646E-02 
703	 4.34358277045393E-02 
704	 4.28253792572737E-02 
705	 4.22369434934151E-02 
706	 4.16538456983329E-02 
707	 4.09206411401634E-02 
708	 4.01676919205697E-02 
709	 3.94123870038919E-02 
710	 3.86118460311467E-02 
711	 3.76642258946898E-02 
712	 3.66550009873504E-02 
713	 3.56564766502236E-02 
714	 3.46858211105088E-02 
715	 3.37141514957066E-02 
716	 0.032579042982962 
717	 3.12566458903654E-02 
718	 3.01469282757967E-02 
719	 2.90511985959626E-02 
720	 2.80621325369509E-02 
721	 2.71762869704454E-02 
722	 2.62789567093618E-02 
723	 2.52448028819057E-02 
724	 2.41210340945626E-02 
725	 2.29471094174459E-02 
726	 2.18733879275666E-02 
727	 2.08405401393536E-02 
728	 1.97434632397292E-02 
729	 1.84141752963951E-02 
730	 1.71856901906416E-02 
731	 1.61591702293039E-02 
732	 1.52687634744582E-02 
733	 0.014555995265572 
734	 1.39288541215199E-02 
735	 1.33702475918292E-02 
736	 1.29586076729381E-02 
737	 1.26780299275427E-02 
738	 1.24130061988258E-02 
739	 1.21393926279561E-02 
740	 0.012200232100369 
741	 1.21200440130862E-02 
742	 1.19189312562034E-02 
743	 0.011869836432859 
744	 1.19000948041475E-02 
745	 1.18999846166011E-02 
746	 1.18363390822479E-02 
747	 1.17855111749231E-02 
748	 0.011769268746586 
749	 1.17468734839994E-02 
750	 1.17076665855645E-02 
751	 1.18136143402663E-02 
752	 1.18245132314065E-02 
753	 1.17337624776997E-02 
754	 1.16731546674745E-02 
755	 1.17130267640238E-02 
756	 1.17267552707097E-02 
757	 1.16562576290694E-02 
758	 1.15417008545045E-02 
759	 1.14698245696226E-02 
760	 1.15128780069528E-02 
761	 1.15941194823347E-02 
762	 1.15576015351895E-02 
763	 1.15807406637181E-02 
764	 1.16654837763235E-02 
765	 0.011746686081022 
766	 0.01175397760281 
767	 1.18775444510266E-02 
768	 1.20514083982099E-02 
769	 1.19698958572066E-02 
770	 1.20755061444867E-02 
771	 1.21779858973359E-02 
772	 1.21373359478963E-02 
773	 1.23100297547302E-02 
774	 1.24711455993183E-02 
775	 1.25738004098216E-02 
776	 1.26563661234344E-02 
777	 1.27660068384222E-02 
778	 1.28573224355911E-02 
779	 1.29386855618305E-02 
780	 1.30773210815728E-02 
781	 1.32851934570347E-02 
782	 1.33909678123217E-02 
783	 0.013365719652205 
784	 1.35772006597947E-02 
785	 1.37065166148294E-02 
786	 1.38441551942175E-02 
787	 1.41329616663901E-02 
788	 1.42110898811318E-02 
789	 1.43956372380501E-02 
790	 1.46971743060674E-02 
791	 1.48761192263701E-02 
792	 0.015087096774232 
793	 1.52335218338391E-02 
794	 1.53137949988228E-02 
795	 1.55299856714345E-02 
796	 0.015687358574117 
797	 1.58659562189481E-02 
798	 1.61307288127489E-02 
799	 1.62081373040664E-02 
800	 1.63671825029286E-02 
801	 1.65775085898331E-02 
802	 1.66689379057805E-02 
803	 1.68022092733861E-02 
804	 1.69188472258881E-02 
805	 0.016987867119782 
806	 0.017031174337556 
807	 1.70561787021806E-02 
808	 1.70975834732276E-02 
809	 1.71336718678839E-02 
810	 1.69842782179738E-02 
811	 1.68848917242042E-02 
812	 0.016764459169071 
813	 1.64756598137437E-02 
814	 1.61949126596667E-02 
815	 1.60592852789088E-02 
816	 1.59891561931191E-02 
817	 1.57573741783479E-02 
818	 0.015501132094867 
819	 1.51529068483032E-02 
820	 1.47504197478001E-02 
821	 0.014507259723456 
822	 1.40298319212425E-02 
823	 0.013447959206264 
824	 0.012946222909291 
825	 1.24619978557467E-02 
826	 1.17535185074581E-02 
827	 1.09867463034914E-02 
828	 1.04636845373795E-02 
829	 9.95346232026743E-03 
830	 9.38629181487679E-03 
831	 8.93841797233022E-03 
832	 8.88294261360605E-03 
833	 8.53990250284338E-03 
834	 8.22211369815043E-03 
835	 8.06206859613742E-03 
836	 7.79769188636468E-03 
837	 7.84970882455683E-03 
838	 7.93671049521672E-03 
839	 7.78202513993302E-03 
840	 7.49981936458084E-03 
841	 7.41666246748213E-03 
842	 7.51094929238361E-03 
843	 7.59037549113044E-03 
844	 7.45047192610651E-03 
845	 7.24097540554402E-03 
846	 7.06180607764053E-03 
847	 6.96080897448274E-03 
848	 6.9643844729994E-03 
849	 6.9830933887578E-03 
850	 6.90516143494563E-03 
851	 6.64066190185723E-03 
852	 6.81378475826206E-03 
853	 6.91167966371553E-03 
854	 6.63666040386346E-03 
855	 6.67259376111218E-03 
856	 6.69189678802161E-03 
857	 6.53455249339622E-03 
858	 6.26088782602089E-03 
859	 6.56294613069575E-03 
860	 6.63133585332398E-03 
861	 6.4106737306287E-03 
862	 6.24322483172019E-03 
863	 6.15652497139366E-03 
864	 6.36510784369492E-03 
865	 6.59466904290434E-03 
866	 6.24013423576888E-03 
867	 6.08047030133688E-03 
868	 6.03223955392722E-03 
869	 6.00987383071969E-03 
870	 6.0820058976387E-03 
871	 5.97222532815856E-03 
872	 5.88924500136289E-03 
873	 5.96697987224164E-03 
874	 5.93419091736963E-03 
875	 5.84673546414695E-03 
876	 5.77296594704131E-03 
877	 5.73107701362399E-03 
878	 5.51830298836379E-03 
879	 5.41221254492988E-03 
880	 5.42876116657457E-03 
881	 5.44504244672083E-03 
882	 5.39409902257804E-03 
883	 5.37107982019203E-03 
884	 5.3342681774361E-03 
885	 5.17296634680006E-03 
886	 5.16184982724707E-03 
887	 5.10407768704042E-03 
888	 5.00785750643489E-03 
889	 0.005127903824977 
890	 4.92052271498253E-03 
891	 4.66851377991413E-03 
892	 4.68558914773368E-03 
893	 5.05585132511063E-03 
894	 4.80361809336171E-03 
895	 4.49028380972006E-03 
896	 4.70820128651534E-03 
897	 4.68395562753656E-03 
898	 4.70635165259711E-03 
899	 4.73758433869765E-03 
900	 4.64731033931813E-03 
901	 4.30070922931254E-03 
902	 4.52398400234002E-03 
903	 4.80464589258243E-03 
904	 4.39917981209598E-03 
905	 4.13477170572894E-03 
906	 4.55622164603727E-03 
907	 5.04034528653738E-03 
908	 4.4217909578113E-03 
909	 4.16706353349337E-03 
910	 4.36906556270941E-03 
911	 4.57070703221254E-03 
912	 4.12833177207158E-03 
913	 4.18857092247686E-03 
914	 4.03067494121627E-03 
915	 3.61777532294924E-03 
916	 3.82648308650049E-03 
917	 3.7989229060486E-03 
918	 3.80398045306198E-03 
919	 4.11056855871465E-03 
920	 4.71922399024713E-03 
921	 4.47475202917995E-03 
922	 3.86285384135158E-03 
923	 3.54558593378999E-03 
924	 3.81624192711381E-03 
925	 4.04963985116747E-03 
926	 3.90383896550786E-03 
927	 3.58002276751544E-03 
928	 4.92088634770783E-03 
929	 4.23343571585197E-03 
930	 2.82680558889929E-03 
931	 3.78515610238979E-03 
932	 2.61938267972811E-03 
933	 2.40550518206193E-03 
934	 4.16258456309211E-03 
935	 5.91769270150608E-03 
936	 1.52140399666329E-03 
937	 1.62631978032889E-03 
938	 3.69531124646588E-03 
939	 2.58646458196083E-03 
940	 1.20698524948553E-03 
941	 2.19938607972757E-03 
942	 3.00099758200448E-03 
943	 2.13497542055273E-04 
944	 2.37243159878371E-03 
945	 4.10282861484874E-03 
946	 3.09097575334872E-03 
947	 5.30521090077776E-04 
948	 5.39173156519364E-04 
949	 2.63829252985602E-03 
950	 4.4123814662493E-03 
951	 3.32363439693381E-03 
952	 1.73596518204484E-03 
953	 2.51860875560051E-03 
954	 4.18906422878406E-03 
955	 3.06578179860678E-03 
956	 2.39418406398665E-03 
957	 1.94929318919019E-03 
958	 2.07737326519736E-03 
959	 3.42200428874566E-03 
960	 4.83789637356053E-03 
961	 4.30467854662743E-03 
962	 2.60512527498361E-03 
963	 2.26340509079236E-03 
964	 2.40693747365099E-03 
965	 3.47619950302991E-03 
966	 3.82580264905957E-03 
967	 1.1729455189298E-03 
968	 5.40591093896107E-04 
969	 1.84843788181938E-03 
970	 3.30959250950116E-03 
971	 2.68833528498061E-03 
972	 2.67836788859998E-03 
973	 2.35164083225554E-03 
974	 1.65227959374004E-03 
975	 1.65184320088609E-03 
976	 2.10335756336376E-03 
977	 3.18398209998385E-03 
978	 3.6808266045577E-03 
979	 1.96887477818887E-03 
980	 2.45463051485745E-03 
981	 2.39424428070603E-03 
982	 1.88862901809576E-03 
983	 3.30375889683912E-03 
984	 2.55475982648098E-03 
985	 2.41139753275833E-03 
986	 3.26610175812946E-03 
987	 3.29403315070164E-03 
988	 3.55246277642586E-03 
989	 3.77671034567769E-03 
990	 3.65679935155255E-03 
991	 3.1328398311303E-03 
992	 3.39341437884448E-03 
993	 2.65240462061679E-03 
994	 1.97923766889887E-03 
995	 3.60622785744652E-03 
996	 3.31959674554256E-03 
997	 2.43989961445147E-03 
998	 2.33642809350295E-03 
999	 3.34439068489662E-03 
1000	 1.77783005181321E-03 
1001	 1.37060777253437E-03 
1002	 1.7161515127581E-03 
1003	 1.95916702927058E-03 
1004	 2.50638766544204E-03 
1005	 0.002711254144427 
1006	 2.66627160519571E-03 
1007	 2.68552210418012E-03 
1008	 2.42193056341573E-03 
1009	 2.21778171198804E-03 
1010	 2.02438148515801E-03 
1011	 1.70212357651988E-03 
1012	 1.54155736412892E-03 
1013	 1.59188074390541E-03 
1014	 1.59371224543323E-03 
1015	 1.80765696837611E-03 
1016	 1.71496573264217E-03 
1017	 1.37959974295841E-03 
1018	 1.23029749796247E-03 
1019	 8.74109945691529E-04 
1020	 8.36173145204399E-04 
1021	 1.05692620269617E-03 
1022	 1.33432278657353E-03 
1023	 1.69308945273437E-03 
1024	 1.9981140029945E-03 
1025	 1.74398906064287E-03 
1026	 1.9573430414655E-03 
1027	 2.00460551190893E-03 
1028	 1.8049738246488E-03 
1029	 1.81580194795662E-03 
1030	 2.03807279251934E-03 
1031	 2.10804556271008E-03 
1032	 2.29406812815854E-03 
1033	 2.27631590092137E-03 
1034	 2.02314073393339E-03 
1035	 1.92353522329219E-03 
1036	 1.71172894993582E-03 
1037	 1.57668720539532E-03 
1038	 1.52795337656285E-03 
1039	 1.59699186149253E-03 
1040	 1.51991885216067E-03 
1041	 1.76681129582817E-03 
1042	 1.98353838926266E-03 
1043	 2.48487556309656E-03 
1044	 2.53361279120967E-03 
1045	 2.48011790003271E-03 
1046	 2.32318549284712E-03 
1047	 1.78195133464033E-03 
1048	 1.54667537524938E-03 
1049	 1.21091163241146E-03 
1050	 1.23881535462443E-03 
1051	 1.65151484223358E-03 
1052	 1.86582751681124E-03 
1053	 0.002514028319311 
1054	 2.66228568806791E-03 
1055	 2.16882915998175E-03 
1056	 2.03663590752703E-03 
1057	 1.94050580500783E-03 
1058	 1.7165957125658E-03 
1059	 1.65927915356765E-03 
1060	 1.8925619653969E-03 
1061	 1.94300515521355E-03 
1062	 1.76888840232735E-03 
1063	 1.92355827743757E-03 
1064	 2.43421895584667E-03 
1065	 2.55930282780491E-03 
1066	 2.73457978050759E-03 
1067	 2.71319671746483E-03 
1068	 2.11965047112778E-03 
1069	 2.00022664242746E-03 
1070	 2.09445060720192E-03 
1071	 2.14998169945746E-03 
1072	 2.4786637124372E-03 
1073	 2.71880191944198E-03 
1074	 2.74657731609359E-03 
1075	 2.62938422223138E-03 
1076	 2.52592900544588E-03 
1077	 2.24488538087806E-03 
1078	 2.11752596425579E-03 
1079	 1.88013199104218E-03 
1080	 1.97144059812487E-03 
1081	 2.4688250286103E-03 
1082	 2.53722237148891E-03 
1083	 2.58283320968904E-03 
1084	 2.63097210364702E-03 
1085	 2.34662773354049E-03 
1086	 2.23245465410492E-03 
1087	 2.43159240450921E-03 
1088	 2.41278722080239E-03 
1089	 2.29360552534568E-03 
1090	 2.00039923258707E-03 
1091	 1.83890524867293E-03 
1092	 1.61928611611149E-03 
1093	 1.58139454295543E-03 
1094	 1.61705594110849E-03 
1095	 1.7495162954172E-03 
1096	 2.08032441106716E-03 
1097	 2.16888269883252E-03 
1098	 2.3755433692353E-03 
1099	 2.37430287237201E-03 
1100	 2.00504545736496E-03 
1101	 1.88734451835554E-03 
1102	 1.76438180738623E-03 
1103	 1.63220418188419E-03 
1104	 1.35059859906827E-03 
1105	 1.59322640962491E-03 
1106	 2.10786189040094E-03 
1107	 2.2308975991562E-03 
1108	 2.30206409020678E-03 
1109	 2.12261321000378E-03 
1110	 1.91167226184313E-03 
1111	 8.5790744803898E-04 
1112	 1.01191610199676E-03 
1113	 2.46478411071485E-03 
1114	 2.75021408827621E-03 
1115	 2.97727151826683E-03 
1116	 3.04798201133174E-03 
1117	 1.7159377226942E-03 
1118	 1.00355952785561E-03 
1119	 1.00881546373496E-03 
1120	 9.35715701804965E-04 
1121	 9.06574152809798E-04 
1122	 6.24974552576185E-04 
1123	 5.37240348377127E-04 
1124	 7.08467030723559E-04 
1125	 1.15348051403112E-03 
1126	 1.83383721867813E-03 
1127	 1.63386518297765E-03 
1128	 2.64199331863833E-03 
1129	 2.67798100128198E-03 
1130	 9.00289281328845E-04 
1131	 6.22921819552041E-04 
1132	 1.95100064204327E-03 
1133	 1.97690275725221E-03 
1134	 1.37794546766202E-03 
1135	 1.74714918782358E-03 
1136	 1.92370258771046E-03 
1137	 1.45191185982282E-03 
1138	 3.41071192431542E-04 
1139	 1.85246930552059E-03 
1140	 2.29955065770694E-03 
1141	 1.92319531590781E-03 
1142	 2.4950193334125E-03 
1143	 2.30101325408775E-03 
1144	 1.01092061838021E-03 
1145	 1.1116375001626E-03 
1146	 2.08007708675297E-03 
1147	 2.35944207640431E-03 
1148	 2.84643078296061E-03 
1149	 2.85777172844037E-03 
1150	 2.63261468623435E-03 
1151	 1.87763931599521E-03 
1152	 1.50690478508248E-03 
1153	 8.55474931332094E-04 
1154	 8.6579461660531E-04 
1155	 1.19412870894633E-03 
1156	 1.36909206612289E-03 
1157	 1.55480349323445E-03 
1158	 1.8661393741042E-03 
1159	 1.86614978623851E-03 
1160	 1.59325684317788E-03 
1161	 1.34493605535553E-03 
1162	 1.27906679562008E-03 
1163	 1.43321141319052E-03 
1164	 1.61171081903162E-03 
1165	 1.8058179224494E-03 
1166	 1.92456376803402E-03 
1167	 1.62131890758368E-03 
1168	 1.34083892301203E-03 
1169	 1.4112261915463E-03 
1170	 1.41923291759785E-03 
1171	 1.34612663584438E-03 
1172	 1.33727692805326E-03 
1173	 1.34325675630024E-03 
1174	 1.19826509310069E-03 
1175	 1.15665383118675E-03 
1176	 1.43108874778513E-03 
1177	 1.59090383983956E-03 
1178	 1.27652622463944E-03 
1179	 1.00776501944187E-03 
1180	 9.57886756604743E-04 
1181	 1.0595819654959E-03 
1182	 1.27440225742847E-03 
1183	 1.34081104541961E-03 
1184	 1.3116771500483E-03 
1185	 1.10407439456991E-03 
1186	 9.46116256303998E-04 
1187	 1.17253231384816E-03 
1188	 1.38428445325671E-03 
1189	 1.30335551788128E-03 
1190	 1.1317493958677E-03 
1191	 1.09008689382506E-03 
1192	 1.12533129227244E-03 
1193	 1.14032343063205E-03 
1194	 1.24142456070637E-03 
1195	 1.38346004302112E-03 
1196	 1.28627507375996E-03 
1197	 1.01506873532449E-03 
1198	 1.04880291486139E-03 
1199	 1.40109312921391E-03 
1200	 1.55579273030781E-03 
1201	 1.52054379202069E-03 
1202	 1.44670606182884E-03 
1203	 1.27371821992399E-03 
1204	 1.19019335607681E-03 
1205	 1.42498778262806E-03 
1206	 1.62285458908978E-03 
1207	 1.43373546461129E-03 
1208	 1.31192117400365E-03 
1209	 1.3770435581282E-03 
1210	 1.26799578590459E-03 
1211	 1.06681682112023E-03 
1212	 1.0850280035747E-03 
1213	 1.30770682244054E-03 
1214	 1.32049697077461E-03 
1215	 1.28885456875773E-03 
1216	 1.22012742843334E-03 
1217	 1.32726458322176E-03 
1218	 1.26238515765331E-03 
1219	 1.15153441467583E-03 
1220	 1.37658257893746E-03 
1221	 1.46226680908164E-03 
1222	 1.32580340954868E-03 
1223	 1.14083749100597E-03 
1224	 1.11274641593221E-03 
1225	 1.16277257250608E-03 
1226	 9.5933715788434E-04 
1227	 9.6346483195598E-04 
1228	 1.15956321741736E-03 
1229	 1.07335700735092E-03 
1230	 9.42193361835708E-04 
1231	 9.81952880323058E-04 
1232	 1.05096151816349E-03 
1233	 1.17322561359546E-03 
1234	 1.44059092632297E-03 
1235	 1.57309244901298E-03 
1236	 1.5994044245287E-03 
1237	 1.56733491600696E-03 
1238	 1.41959508193526E-03 
1239	 1.45418896333254E-03 
1240	 1.37400645509709E-03 
1241	 1.3585500802896E-03 
1242	 1.4338158535947E-03 
1243	 1.27339851898756E-03 
1244	 1.24348864443996E-03 
1245	 1.43866997461709E-03 
1246	 1.47079992595098E-03 
1247	 1.4266634569023E-03 
1248	 1.41262101438924E-03 
1249	 1.42643140925701E-03 
1250	 1.45554909619145E-03 
1251	 1.47161059744121E-03 
1252	 1.48957091286276E-03 
1253	 1.38926495209571E-03 
1254	 1.32644192698822E-03 
1255	 1.42532841635347E-03 
1256	 1.41971918511693E-03 
1257	 1.34025479484775E-03 
1258	 1.32347495017309E-03 
1259	 1.32268531835899E-03 
1260	 1.29699508343926E-03 
1261	 1.24871493652941E-03 
1262	 1.31348751636666E-03 
1263	 1.45223742413078E-03 
1264	 1.50143201549001E-03 
1265	 1.50524101972257E-03 
1266	 1.46923228919691E-03 
1267	 1.19851211032934E-03 
1268	 9.38095697217034E-04 
1269	 1.05979701311846E-03 
1270	 1.30790396035076E-03 
1271	 1.4206945399515E-03 
1272	 1.28286676195352E-03 
1273	 1.01493510300347E-03 
1274	 1.02792469070128E-03 
1275	 1.18753600210539E-03 
1276	 1.3860883419587E-03 
1277	 1.55320356617507E-03 
1278	 1.46636267308797E-03 
1279	 1.36950623534644E-03 
1280	 1.39368810488334E-03 
1281	 1.31119198103232E-03 
1282	 1.07886556189683E-03 
1283	 1.10663798318428E-03 
1284	 1.28151662333879E-03 
1285	 1.30196243866485E-03 
1286	 1.5683426138043E-03 
1287	 1.61707171397596E-03 
1288	 1.16116380413895E-03 
1289	 1.11497432952736E-03 
1290	 1.32960904648132E-03 
1291	 1.40317456784128E-03 
1292	 1.34141755256442E-03 
1293	 1.36431469656861E-03 
1294	 1.45477303721649E-03 
1295	 1.43048773000695E-03 
1296	 1.21785189094307E-03 
1297	 1.28023820663692E-03 
1298	 1.36594042439903E-03 
1299	 1.12820315070305E-03 
1300	 1.20922238546892E-03 
1301	 1.65369840576319E-03 
1302	 1.73054860224733E-03 
1303	 1.3808625003173E-03 
1304	 1.21792545323072E-03 
1305	 1.33777379715476E-03 
1306	 1.22932679609313E-03 
1307	 8.43155548387159E-04 
1308	 9.02797176265444E-04 
1309	 1.33670490279939E-03 
1310	 1.27898691160822E-03 
1311	 1.10473156715698E-03 
1312	 1.18539560629795E-03 
1313	 1.05927036330244E-03 
1314	 9.21589826214121E-04 
1315	 1.14038826888813E-03 
1316	 1.27711117264682E-03 
1317	 1.1452054941081E-03 
1318	 1.10211446833437E-03 
1319	 1.19561737144228E-03 
1320	 1.23227943364004E-03 
1321	 1.24251403803622E-03 
1322	 1.20794556595488E-03 
1323	 9.71239788847331E-04 
1324	 9.12127271710165E-04 
1325	 8.87602937261617E-04 
1326	 8.55650854758847E-04 
1327	 1.13577099428245E-03 
1328	 1.20853564651777E-03 
1329	 9.7508649506061E-04 
1330	 7.26851659665234E-04 
1331	 5.15485746058812E-04 
1332	 4.85267951760669E-04 
1333	 1.87820617275698E-04 
1334	 2.28901173603466E-05 
1335	 7.87325529771412E-05 
1336	 7.36710078123577E-05 
1337	 1.93680824522057E-04 
1338	 1.05343222707599E-03 
1339	 1.14207794190312E-03 
1340	 4.4042494342854E-04 
1341	 2.45780295872042E-04 
1342	 2.1755609351411E-04 
1343	-1.43270976224165E-04 
1344	-7.42459347538556E-04 
1345	-8.4215075620329E-04 
1346	-1.19076484622481E-03 
1347	-1.20148967536997E-03 
1348	 4.25978534068609E-04 
1349	 1.29550221141108E-03 
1350	 2.38870196980242E-03 
1351	 3.13511494248087E-03 
1352	 8.31509536234476E-04 
1353	-4.3211814237018E-04 
1354	-1.62493750495861E-03 
1355	-3.59924305179681E-03 
1356	-6.44852786608188E-03 
1357	-1.64367463353527E-02 
1358	-1.79826006522037E-02 
1359	-1.83451742927763E-02 
1360	-9.17793047292807E-02 
1361	-0.120233506653373 
1362	-4.70348901823442E-02 
1363	-3.55365525867975E-02 
1364	-7.08738436889343E-02 
1365	-4.51214236361763E-02 
1366	-0.039443462204493 
1367	-0.193698363649993 
1368	-0.288410256511141 
1369	-0.33962176372105 
1370	-0.265773052986153 
1371	-0.145400164610314 
1372	-0.156705501535942 
1373	-2.67953063724004E-02 
1374	-1.78372342568907E-02 
1375	-0.387078968321467 
1376	-0.398627711236325 
1377	-5.64235179565062E-02 
1378	-6.26128050033879E-02 
1379	-0.198079997971051 
1380	-0.203642242547321 
1381	-0.29280394598486 
1382	-0.379791888703963 
1383	-0.426237108055148 
1384	-0.318899511353562 
1385	-0.235137461979634 
1386	-0.177387534965057 
1387	 0.23613291469395 
1388	 0.348239332291815 
1389	-1.96479545459318E-02 
1390	 0.206257910491144 
1391	 0.729713369726492 
1392	 0.457359862549253 
1393	 0.226178267235159 
1394	 0.320293705935978 
1395	 0.325464922908791 
1396	 0.145250032773254 
1397	 7.97009206345494E-02 
1398	 0.112089500938431 
1399	 0.102146825421168 
1400	-6.10594396052477E-02 
1401	-0.060574539995507 
1402	 8.78819201285285E-02 
1403	 1.94051249431766E-02 
1404	-4.15940973481812E-02 
1405	-1.15150289399113E-02 
1406	 5.59973142900681E-02 
1407	 4.50990168691967E-02 
1408	 0.019571069648119 
1409	 4.24504119801587E-02 
1410	 8.08131443009756E-02 
1411	 6.22956033072333E-02 
1412	 3.76699530666041E-02 
1413	 4.33366485729545E-02 
1414	 3.98630927677695E-02 
1415	 2.86926974661341E-02 
1416	 3.43823190385609E-02 
1417	 3.18149680243937E-02 
1418	 8.69398080345867E-03 
1419	 4.39367776336629E-03 
1420	 1.58393907987483E-02 
1421	 1.80857135805036E-02 
1422	 1.88512495189306E-02 
1423	 1.43349249666635E-02 
1424	 6.37667738239728E-03 
1425	 4.59581738312265E-03 
1426	 2.59251523826071E-03 
1427	 5.49531987035173E-04 
1428	-6.59010327876224E-04 
1429	 9.54220184716539E-04 
1430	 5.40448150070372E-03 
1431	 5.30238945914772E-03 
1432	 0.004034033667105 
1433	 5.23135654306046E-03 
1434	 5.4537346682365E-03 
1435	 3.63757178219317E-03 
1436	 1.9161607138106E-03 
1437	 3.00043596397989E-03 
1438	 3.36688367083323E-03 
1439	 9.07499194417004E-04 
1440	 8.65595797546353E-04 
1441	 2.72422642117177E-03 
1442	 6.44773356804396E-04 
1443	-2.68059355099594E-04 
1444	 9.73866797121388E-04 
1445	 7.85869286804763E-04 
1446	 6.46369671268396E-04 
1447	 1.59466976344807E-04 
1448	 5.12805447664444E-04 
1449	 2.18313776326691E-03 
1450	 2.1755298564612E-03 
1451	 1.60230001248538E-03 
1452	 1.41877383970551E-03 
1453	 5.62905123129881E-04 
1454	 5.61711741130656E-04 
1455	 1.41319181259285E-03 
1456	 1.14854417342145E-03 
1457	 4.29081471350512E-04 
1458	 2.32017674179802E-04 
1459	-3.17435397633576E-04 
1460	-4.49387751924668E-04 
1461	 1.51352602087744E-04 
1462	 2.45581747671383E-04 
1463	-1.39425140538898E-05 
1464	-1.69669398895224E-04 
1465	-4.95010450612549E-04 
1466	-3.26722612623015E-04 
1467	 1.88238497864017E-04 
1468	 3.78760914847678E-04 
1469	 9.22768935321209E-04 
1470	 1.15463537002962E-03 
1471	 7.60437257857872E-04 
1472	 7.60560219423849E-04 
1473	 9.93302831299238E-04 
1474	 1.09981338819045E-03 
1475	 1.36570323661774E-03 
1476	 1.16978588455174E-03 
1477	 6.6107514425235E-04 
1478	 4.35306031216829E-04 
1479	-1.59187296447814E-05 
1480	-1.32621164790169E-04 
1481	 1.22130330478888E-04 
1482	 2.61909971524487E-04 
1483	 4.67315500493033E-04 
1484	 3.49084036420266E-04 
1485	-4.72767863533235E-05 
1486	-7.46539617794522E-06 
1487	 1.88155806016882E-04 
1488	 2.06825295780534E-04 
1489	 3.18071064674007E-04 
1490	 4.57002732858079E-04 
1491	 5.84558857254543E-04 
1492	 4.46274758154874E-04 
1493	 2.04181775817629E-04 
1494	 1.60316346257891E-04 
1495	-4.17182233315494E-05 
1496	-9.90408689408675E-05 
1497	 6.63663930673447E-05 
1498	 1.38811001384061E-04 
1499	 2.96078659530126E-04 
1500	 3.01120107475411E-04 
1501	 5.01097259122115E-05 
1502	 9.23160290249549E-05 
1503	 2.70265719405636E-04 
1504	 3.10004200200342E-04 
1505	 3.83822331459466E-04 
1506	 7.00937283985355E-04 
1507	 5.87399391853463E-04 
1508	 5.87901337560898E-05 
1509	-4.9408121151765E-05 
1510	 4.65625569658746E-05 
1511	-7.92322407372992E-05 
1512	-5.24517216752887E-05 
1513	 4.28109465132823E-06 
1514	-2.54290203904629E-04 
1515	-2.3893772299064E-04 
1516	 1.37692233769601E-04 
1517	 2.39100828573949E-04 
1518	 2.7037390819154E-04 
1519	 3.46563582945731E-04 
1520	 2.4368748916167E-04 
1521	 1.31852420839341E-04 
1522	-4.25776380048601E-05 
1523	-1.57416826759264E-04 
1524	-8.75019906915494E-05 
1525	-3.81417571381174E-05 
1526	 3.96629004705078E-05 
1527	 2.94455705668945E-05 
1528	-4.01119313651156E-05 
1529	-2.19651388943047E-05 
1530	-6.83797650977869E-05 
1531	 9.98412245028783E-05 
1532	 3.82613765524942E-04 
1533	 3.19198940287864E-04 
1534	 1.76009806735128E-04 
1535	 1.22492384746774E-04 
1536	 1.00315987110938E-04 
1537	 2.05028599073836E-04 
1538	 2.69947991381106E-04 
1539	 1.05300665583255E-04 
1540	-5.28487017372239E-05 
1541	 3.43803836401603E-05 
1542	 2.05658542833417E-04 
1543	 4.09457446683596E-04 
1544	 4.87450708923264E-04 
1545	 2.79094142443412E-04 
1546	 1.8021579366373E-04 
1547	 2.17635654222543E-04 
1548	 2.20997298363037E-04 
1549	 2.6808270881149E-04 
1550	 2.66313828226294E-04 
1551	 2.66900016718145E-04 
1552	 3.65627179497001E-04 
1553	 3.76225725582413E-04 
1554	 2.80960643890223E-04 
1555	 3.27857835467961E-04 
1556	 4.1322304929825E-04 
1557	 2.59609788944474E-04 
1558	 1.62742306819992E-04 
1559	 4.7634120539021E-04 
1560	 6.11479226355341E-04 
1561	 2.42632987284643E-04 
1562	 2.43126723304568E-04 
1563	 6.47427670554704E-04 
1564	 5.09629368120802E-04 
1565	 1.46542190584729E-04 
1566	 2.94173069996311E-04 
1567	 4.33483205391267E-04 
1568	 2.48766434270867E-04 
1569	 3.64724339311241E-04 
1570	 6.92965111279396E-04 
1571	 4.81628628616936E-04 
1572	 1.7211271009426E-04 
1573	 4.86691644712425E-04 
1574	 7.40792862854433E-04 
1575	 5.40389529217793E-04 
1576	 3.87332036810038E-04 
1577	 5.13383771783769E-04 
1578	 5.53065597045459E-04 
1579	 1.88949314592355E-04 
1580	 1.56268923961873E-04 
1581	 5.13897969133945E-04 
1582	 4.30190698285978E-04 
1583	 2.18985991600203E-04 
1584	 3.99923282238481E-04 
1585	 4.5754083756108E-04 
1586	 1.19259549009999E-04 
1587	 1.05418738514609E-04 
1588	 2.71091028543627E-04 
1589	 9.13235494956152E-05 
1590	 5.15321613487355E-05 
1591	 2.80902752518835E-04 
1592	 3.85428688999023E-04 
1593	 3.34938634100424E-04 
1594	 3.44702127173045E-04 
1595	 3.9316175686301E-04 
1596	 3.44634326932885E-04 
1597	 2.9325477267109E-04 
1598	 4.05724678045173E-04 
1599	 6.15191722794599E-04 
1600	 6.97472692303917E-04 
1601	 5.8405831017218E-04 
1602	 4.23757996648499E-04 
1603	 4.70617301482613E-04 
1604	 6.48315173410715E-04 
1605	 7.39872361815637E-04 
1606	 7.58754847275708E-04 
1607	 6.14775713993314E-04 
1608	 4.95874046125634E-04 
1609	 4.47030265667111E-04 
1610	 3.72467593894458E-04 
1611	 5.36219532076302E-04 
1612	 6.76130617699138E-04 
1613	 5.64005382205423E-04 
1614	 5.34463771731049E-04 
1615	 5.09938484556327E-04 
1616	 3.85450689495769E-04 
1617	 4.2946102169109E-04 
1618	 4.93379344032925E-04 
1619	 4.50853648170507E-04 
1620	 3.65268199470545E-04 
1621	 2.93856135493248E-04 
1622	 2.55706140526112E-04 
1623	 1.94736752295651E-04 
1624	 1.45944657935558E-04 
1625	 1.65238644186447E-04 
1626	 4.08414123341538E-04 
1627	 5.65687371619838E-04 
1628	 5.31139255024654E-04 
1629	 6.97383800602939E-04 
1630	 8.51932587432542E-04 
1631	 7.83451204310536E-04 
1632	 7.47078584153517E-04 
1633	 6.91319828085392E-04 
1634	 4.57429500083776E-04 
1635	 3.08146378308059E-04 
1636	 4.01912694883983E-04 
1637	 5.91089028437051E-04 
1638	 6.01900746590436E-04 
1639	 5.77781160379982E-04 
1640	 8.30659128999747E-04 
1641	 8.99036750443693E-04 
1642	 7.91902479228353E-04 
1643	 9.97509961686297E-04 
1644	 1.01523646270482E-03 
1645	 6.83141303759647E-04 
1646	 6.03450574288187E-04 
1647	 7.9599923808793E-04 
1648	 7.05740567792476E-04 
1649	 4.6176978012122E-04 
1650	 5.93857383419563E-04 
1651	 7.25918123648493E-04 
1652	 8.61583149993003E-04 
1653	 9.50305495180966E-04 
1654	 9.69053379641287E-04 
1655	 7.80842708491913E-04 
1656	 6.46325244703002E-04 
1657	 6.59129479098941E-04 
1658	 7.40333765246816E-04 
1659	 7.21508151648685E-04 
1660	 6.87301185400449E-04 
1661	 8.23427118913503E-04 
1662	 8.53456435468837E-04 
1663	 6.16939207449763E-04 
1664	 7.39584753918471E-04 
1665	 1.28020056639518E-03 
1666	 1.17536258699261E-03 
1667	 7.70485108485162E-04 
1668	 9.60561317702981E-04 
1669	 8.88648927203936E-04 
1670	 7.34891171538701E-04 
1671	 7.83100195786671E-04 
1672	 9.8753931486378E-04 
1673	 7.15826094347875E-04 
1674	 6.13424847438212E-04 
1675	 8.95339123479801E-04 
1676	 4.63448978831723E-04 
1677	 1.27832329245114E-04 
1678	 4.63141128197127E-04 
1679	 4.30712082806513E-04 
1680	 1.99655554055974E-04 
1681	 4.01625369548095E-04 
1682	 6.22733739582391E-04 
1683	 6.99540823234716E-04 
1684	 8.96108987582098E-04 
1685	 9.0057762239417E-04 
1686	 6.87664915631714E-04 
1687	 6.39098248984348E-04 
1688	 6.36799421597449E-04 
1689	 7.51562839353264E-04 
1690	 7.87571716924788E-04 
1691	 6.06612010698052E-04 
1692	 7.97283478731877E-04 
1693	 9.60193847656596E-04 
1694	 8.81907467104501E-04 
1695	 8.25604117058495E-04 
1696	 5.00051791364757E-04 
1697	 2.94043462540198E-04 
1698	 4.0911317278691E-04 
1699	 6.08287154287296E-04 
1700	 6.5131431282567E-04 
1701	 5.4233602352032E-04 
1702	 5.61726734794479E-04 
1703	 3.86721561079581E-04 
1704	 1.9698793183178E-04 
1705	 2.1095953731063E-04 
1706	 1.72151981403468E-04 
1707	 2.74750320963776E-04 
1708	 6.00203383867414E-04 
1709	 7.13695024390899E-04 
1710	 4.134160303007E-04 
1711	 3.01040680707391E-04 
1712	 3.84809698870613E-04 
1713	 8.75189819025609E-04 
1714	 9.57150695967951E-04 
1715	 5.19375091621377E-04 
1716	 7.25648052043524E-04 
1717	 6.86464823462773E-04 
1718	 5.983360783151E-04 
1719	 9.83082619824944E-04 
1720	 8.73582592665836E-04 
1721	 4.64699128047346E-04 
1722	 4.56454682348218E-04 
1723	 7.93790841573211E-04 
1724	 1.28119306328442E-03 
1725	 1.27534504249992E-03 
1726	 9.72992291560866E-04 
1727	 5.3136240960729E-04 
1728	 2.39586169080892E-04 
1729	 5.23417656001429E-04 
1730	 8.17306228959494E-04 
1731	 1.16715368198232E-03 
1732	 1.17835539154219E-03 
1733	 6.62954460735399E-04 
1734	 5.84014659453302E-04 
1735	 6.1382967988262E-04 
1736	 4.49859143266625E-04 
1737	 8.28099289344625E-04 
1738	 1.13391988337455E-03 
1739	 8.36058161417867E-04 
1740	 5.19167508983932E-04 
1741	 2.04880417980847E-04 
1742	 2.33559365660706E-04 
1743	 8.20043329902616E-04 
1744	 1.00580270332278E-03 
1745	 6.87520568454582E-04 
1746	 2.35177246571645E-04 
1747	 1.03653020618653E-04 
1748	 7.56620667341397E-04 
1749	 7.83284785763076E-04 
1750	 2.382793447589E-04 
1751	 1.5565860757315E-04 
1752	-2.36357350704425E-04 
1753	-2.45793928319429E-04 
1754	 6.94049762867315E-04 
1755	 8.55102930918248E-04 
1756	 6.28886657316164E-04 
1757	 1.05621690989592E-03 
1758	 4.51531271786155E-04 
1759	-1.79066182074388E-04 
1760	-2.61647751143809E-04 
1761	-5.46320786838836E-04 
1762	-5.27865099966572E-04 
1763	 7.18643976981283E-04 
1764	 1.56579099111528E-03 
1765	 1.2763938800419E-03 
1766	 1.47021151349342E-03 
1767	 1.16367678062282E-03 
1768	 5.28638958387055E-04 
1769	 8.8597105442341E-04 
1770	 1.19351610456004E-03 
1771	 1.08260591939696E-03 
1772	 8.56989312581568E-04 
1773	 1.38887433262031E-03 
1774	 1.73038313301347E-03 
1775	 1.39082847347484E-03 
1776	 1.35352307924459E-03 
1777	 3.2257934542551E-04 
1778	-2.67390176585701E-04 
1779	 9.00513511118844E-06 
1780	-2.18045452248788E-04 
1781	-1.07451554187046E-03 
1782	-9.88198758842724E-04 
1783	-3.90916266807688E-04 
1784	 1.90378143322854E-04 
1785	 1.61181697772521E-03 
1786	 2.13428633194532E-03 
1787	 2.46452179296722E-03 
1788	 2.09790914616629E-03 
1789	 4.5975971234554E-04 
1790	-8.47592898660859E-04 
1791	-4.19265062255127E-04 
1792	 1.61816350265953E-03 
1793	 2.67569627324786E-03 
1794	 2.76497215554332E-03 
1795	 1.91701476995351E-03 
1796	-4.63387127765157E-04 
1797	-1.18023199667282E-03 
1798	-7.09982493666617E-04 
1799	-1.2193690123701E-03 
1800	-2.6337416063428E-03 
1801	-3.02650137939054E-03 
1802	-2.38661151052961E-03 
1803	-2.22825646069926E-03 
1804	 1.85881504586945E-03 
1805	 7.90935995244957E-04 
1806	-1.35442852337003E-02 
1807	-1.44221214135167E-02 
1808	-6.21167963384945E-03 
1809	-4.74880549348608E-04 
1810	 0.035339777947351 
1811	 3.95798057139666E-02 
1812	-4.83210474446922E-03 
1813	-2.27299962413864E-02 
1814	-6.58543561043494E-02 
1815	-6.85005511951586E-02 
1816	 1.24691076355243E-02 
1817	 3.24641113478507E-02 
1818	 4.60229860568493E-02 
1819	-7.04247093488838E-02 
1820	-0.179800948609111 
1821	-0.138008588224547 
1822	-0.125178402390587 
1823	 0.046114819066631 
1824	 0.132720386779967 
1825	 0.152148227981122 
1826	 0.12118355644761 
1827	-0.195761971043955 
1828	-0.303216617286345 
1829	-0.285724555204406 
1830	-0.305828168740127 
1831	 0.372970265874867 
1832	 0.674918353891312 
1833	 9.79056859421803E-02 
1834	-0.111864393360445 
1835	-1.05126750662536E-02 
1836	-6.92774181219871E-02 
1837	-0.20870312714354 
1838	-0.263241589203032 
1839	-0.157435714350629 
1840	-0.264179804176307 
1841	-1.58952845639409 
1842	 18.6505516425291 
1843	 2.26759510372665 
1844	 1.59338474120744 
1845	 1.28395826446187 
1846	 1.07234987262372 
1847	 0.686352013407571 
1848	 1.66842231666415 
1849	 5.3538318368536 
1850	 17.1873874150168 
1851	 0.86420974586473 
1852	 0.253560903326531 
1853	-9.75873612190021E-02 
1854	-0.144395367110058 
1855	-1.31122876256144E-02 
1856	 0.147661659300695 
1857	 67.9900858379354 
1858	-1.47082056530949 
1859	-0.516721624186493 
1860	-0.478091057292427 
1861	-1.02041473751737 
1862	-1.56972153925232 
1863	 1.9435205137279 
1864	 0.809868865156732 
1865	 0.763537802576737 
1866	-3.42599773354283 
1867	-2.33028776225927 
1868	 0.023906428369153 
1869	-1.29982833143975 
1870	-0.130919828088333 
1871	-0.453862826291683 
1872	-0.34228193928945 
1873	-5.03532302023433E-02 
1874	 3.80928939716661E-02 
1875	-0.012501786112372 
1876	-5.09110728552212E-02 
1877	-0.154020917871201 
1878	-0.168876256667367 
1879	 1.45579614937058E-02 
1880	 0.441516877057407 
1881	-0.633461038317044 
1882	 5.06683889443684E-02 
1883	 0.242412626230542 
1884	 1.74127654336628 
1885	 2.05965103420203 
1886	-1.10297432351954 
1887	 3.26673041852144 
1888	 3.54310836855406 
1889	 3.53323749520021 
1890	 2.33978856803977 
1891	 1.74722058999618 
1892	 0.947604457534115 
1893	 1.54029383319705 
1894	 1.29813720412235 
1895	 1.67533074937734 
1896	-43.0427585380657 
1897	-4.70044606610612 
1898	-4.01896613185528 
1899	 0.401255950117032 
1900	-4.67952826268028E-02 
1901	-0.272897758409685 
1902	-0.347976826744363 
1903	-9.93356845336492E-02 
1904	 0.114281955654828 
1905	 2.18028896462885 
1906	 0.537760227146911 
1907	 0.15626857975656 
1908	-0.930799581375776 
1909	-0.451075669838987 
1910	-0.468892353463562 
1911	-0.588078698508577 
1912	-1.28569981647382 
1913	-1.4284520227758 
1914	 0.500331725033208 
1915	 1.15876463461262 
1916	 0.213012749329509 
1917	 0.318533661745143 
1918	 0.413915058664814 
1919	-0.106986620551768 
1920	-0.561328147469985 
1921	-0.42548388058997 
1922	-0.428683370510891 
1923	-0.282768168901573 
1924	 0.177972960739847 
1925	-4.86873365401122E-02 
1926	-3.94978186238892E-02 
1927	-4.92958134938202E-02 
1928	 3.61217957371659E-03 
1929	-2.80818777455344E-02 
1930	 6.82791077231825E-02 
1931	 5.84448156190315E-03 
1932	 2.82409759868491E-02 
1933	 7.35743878452947E-02 
1934	 4.54445256360784E-02 
1935	 5.62226983750316E-02 
1936	 6.29683963171461E-02 
1937	 6.71311689640204E-02 
1938	 7.33354522764145E-02 
1939	 6.64198850386998E-02 
1940	 6.17043007058535E-02 
1941	 4.18441748209682E-02 
1942	 2.02042262600865E-02 
1943	 9.54406613710235E-03 
1944	 5.10685612496783E-03 
1945	 1.27649582505372E-02 
1946	 2.09410531717962E-02 
1947	 1.88692810706393E-02 
1948	 9.66274008166397E-03 
1949	-1.60849088735324E-03 
1950	-4.44323295628824E-03 
1951	-4.16827340240622E-03 
1952	-5.3026576202363E-03 
1953	-2.26668024823718E-03 
1954	-5.87245623322015E-05 
1955	-3.14840449553234E-04 
1956	 1.83091093669139E-03 
1957	 4.98768057539265E-03 
1958	 4.50192224295739E-03 
1959	 2.72367409401753E-03 
1960	 5.82464590134958E-03 
1961	 5.5916780307799E-03 
1962	 3.81484821861407E-03 
1963	 4.36685622083545E-03 
1964	 0.002788939489389 
1965	 1.32274160788803E-03 
1966	 4.67634010854606E-04 
1967	 0.000842862748463 
1968	 9.45429344106942E-04 
1969	-5.02182112555007E-04 
1970	-1.31704733329227E-03 
1971	-1.3540009004607E-04 
1972	 1.89153381443305E-04 
1973	 1.24850584340012E-03 
1974	 1.57237929234948E-03 
1975	 7.4007159402586E-04 
1976	 1.34024595476048E-03 
1977	 5.93846892464384E-04 
1978	-9.43450154098766E-04 
1979	-1.01882967806917E-03 
1980	-2.26987983861704E-04 
1981	-2.78952165136864E-04 
1982	-7.51483265576202E-04 
1983	-2.00035675423036E-04 
1984	-4.99208483152606E-04 
1985	-1.21435269108027E-03 
1986	-7.50264505559704E-04 
1987	 9.97552684067399E-05 
1988	 4.16257912860704E-04 
1989	-2.02335302048181E-04 
1990	-5.40344948985608E-04 
1991	-5.43762554086453E-04 
1992	-7.02573788775738E-04 
1993	-3.83113864937864E-04 
1994	 6.93538658046142E-05 
1995	 6.05680345287186E-04 
1996	 1.07030816664485E-03 
1997	 2.4454935173865E-03 
1998	 3.45108407462725E-03 
1999	 3.22044088435797E-03 
2000	 3.21637614051986E-03 
2001	 3.25375660676476E-03 
2002	 3.66921886436168E-03 
2003	 5.52963792997112E-03 
2004	 6.01669724807087E-03 
2005	 4.14863251656187E-03 
2006	 2.22392598901343E-03 
2007	-2.41168348358565E-04 
2008	-1.43187696705823E-03 
2009	-1.58196438785187E-03 
2010	 1.12607655564212E-03 
2011	 1.2412326219566E-03 
2012	 1.55551155082971E-03 
2013	-5.86655895388913E-04 
2014	-2.00148664368625E-03 
2015	-4.44314527438254E-03 
2016	-5.45303554596716E-03 
2017	-3.5628058827586E-03 
2018	-2.35158126997238E-03 
2019	-1.87852612434618E-03 
2020	-2.06829336997802E-03 
2021	-8.49981102385126E-04 
2022	-1.11720335397278E-04 
2023	-4.56948895771587E-04 
2024	-2.55701312955174E-04 
2025	 2.9785715249524E-04 
2026	 2.413550127177E-04 
2027	-2.37935258926492E-04 
2028	-1.26259126961136E-04 
2029	 8.42575965796402E-05 
2030	-4.69350059651714E-05 
2031	-6.08231045241308E-06 
2032	 2.39849004550844E-04 
2033	 9.00475562917909E-04 
2034	 1.62438643916682E-03 
2035	 1.36659922160933E-03 
2036	 1.03761345470878E-03 
2037	 7.43943301152623E-04 
2038	-3.33527081837003E-04 
2039	-7.00567368006746E-04 
2040	-1.1315538918225E-04 
2041	-5.00924095231619E-05 
2042	-1.85940692580218E-04 
2043	-9.77197354250111E-05 
2044	 1.97092984306386E-04 
2045	-3.41437820230923E-04 
2046	-1.95440701050124E-04 
2047	-8.44556577481305E-05 
2048	-3.69610553820284E-04 
2049	-5.24014323165971E-06 
2050	 4.2146838400264E-04 
2051	 1.07441479219078E-03 
2052	 1.22043419675484E-03 
2053	 8.05311397289546E-04 
2054	 9.05086426996501E-04 
2055	 4.04341118028409E-04 
2056	 4.39252884767737E-05 
2057	 5.34609700443673E-04 
2058	 2.37909865841169E-04 
2059	-1.51310733055847E-03 
2060	-1.50687530418271E-03 
2061	-3.33945587629119E-04 
2062	-6.45607005654473E-04 
2063	-5.62997131125337E-04 
2064	 1.41537110058993E-04 
2065	-4.33280232144568E-04 
2066	-9.86960503565218E-04 
2067	-8.35031917371619E-04 
2068	-5.92379226454069E-04 
2069	-5.99501003693951E-04 
2070	-6.74552335847804E-04 
2071	-5.75541652412381E-04 
2072	-2.53545093405162E-04 
2073	-1.20529919407128E-04 
2074	-4.5599321363724E-04 
2075	-1.06698941656588E-04 
2076	 1.20322744365387E-03 
2077	 1.0836629835434E-03 
2078	 1.21859245086731E-04 
2079	 2.42324081452315E-04 
2080	 6.05403637290858E-04 
2081	-1.60185451426117E-04 
2082	-8.79002681982911E-05 
2083	 3.30094375957123E-04 
2084	-5.17635750751358E-04 
2085	-2.63752358382334E-04 
2086	 3.76421388337711E-04 
2087	 2.17903984143317E-05 
2088	 3.6702627285992E-04 
2089	 2.48365551473006E-04 
2090	 1.4984048591033E-04 
2091	 6.92586025867856E-04 
2092	 7.28610804632877E-04 
2093	 5.6260749096672E-04 
2094	 3.03065962167986E-04 
2095	-5.77777825501252E-04 
2096	-4.8602544565352E-04 
2097	 1.68208604318484E-04 
2098	 4.13316591396784E-04 
2099	 1.07360618886701E-03 
2100	 1.39189428053644E-03 
2101	 1.30209225265904E-03 
2102	 9.19251903218598E-04 
2103	 6.90352741468983E-04 
2104	 6.63526443014527E-04 
2105	-1.1116369749501E-04 
2106	-7.81606603539571E-04 
2107	-5.28137688489462E-04 
2108	 6.55336926394198E-05 
2109	 1.7896741955401E-04 
2110	 2.22813575406981E-04 
2111	 1.3873130599586E-04 
2112	-7.77020686962419E-04 
2113	-8.95576656365689E-04 
2114	 1.52184791060035E-04 
2115	 3.10322472594216E-04 
2116	-5.58986017739104E-05 
2117	 1.15359455294624E-04 
2118	 2.97183684010388E-04 
2119	 3.55566469677092E-04 
2120	 6.69906698441979E-04 
2121	 9.58312643351939E-04 
2122	 8.0744252736555E-04 
2123	 1.80911336467542E-04 
2124	-4.84740841665183E-04 
2125	-4.61214524302539E-04 
2126	-3.08177823258144E-04 
2127	-3.3594355749227E-04 
2128	-4.72345933558706E-04 
2129	-4.80580526763756E-04 
2130	-4.27806791044036E-05 
2131	 1.16322847991709E-04 
2132	 1.36648235167488E-04 
2133	 5.00299505143452E-04 
2134	 5.96580199209625E-04 
2135	-8.89362752004448E-05 
2136	 1.53229090508291E-06 
2137	 8.72655723990286E-04 
2138	 7.57978598667208E-04 
2139	 3.82769318686697E-04 
2140	 2.33066100084853E-04 
2141	-7.75319361590866E-04 
2142	-8.1120457252454E-04 
2143	 7.44621969653922E-05 
2144	 2.20255870330907E-04 
2145	 3.46890964722404E-04 
2146	 1.69985219654073E-03 
2147	 1.9458729060164E-03 
2148	 1.29185442974212E-03 
2149	 2.01385020531873E-03 
2150	 1.62399986030943E-03 
2151	-1.29084197422356E-04 
2152	 2.667676678779E-04 
2153	 1.15621343409703E-03 
2154	 1.62583005792992E-03 
2155	 2.52109957009312E-03 
2156	 2.42631953201401E-03 
2157	 2.14934186224994E-03 
2158	 9.37465784231632E-05 
2159	-6.48703128802835E-04 
2160	-8.06865737509455E-04 
2161	-4.25184385891248E-04 
2162	 5.92303785596767E-04 
2163	 7.77601850130429E-04 
2164	 1.43983734083899E-03 
2165	 1.64199690440581E-03 
2166	 5.17511971989644E-04 
2167	 3.62250354983957E-04 
2168	 7.42550390367597E-04 
2169	 9.6761006031992E-04 
2170	 1.68354779381145E-03 
2171	 1.82566042253043E-03 
2172	 9.99803177521837E-04 
2173	 8.91427171897378E-04 
2174	 2.22174069300893E-04 
2175	-8.0161447315211E-04 
2176	-1.58145214427997E-03 
2177	-1.3378920209244E-03 
2178	-1.58548440652067E-03 
2179	-1.93028673474768E-03 
2180	-5.26161457799783E-04 
2181	-5.0677025117835E-04 
2182	-1.1903691060121E-03 
2183	-5.89553100451567E-04 
2184	-5.17272552141772E-04 
2185	-9.54304927435334E-04 
2186	-8.99149439723247E-04 
2187	-1.1299982035581E-04 
2188	 1.15809362213505E-04 
2189	 1.21882406174719E-06 
2190	-1.28546889577836E-04 
2191	-3.46953115237655E-04 
2192	-3.84681755064271E-04 
2193	-2.20885275401379E-04 
2194	-5.38725368868554E-04 
2195	-1.40634452760527E-03 
2196	-1.67262231310113E-03 
2197	-1.95176119891538E-03 
2198	-1.99057033028383E-03 
2199	-1.25892163518274E-03 
2200	-7.94656397415355E-04 
2201	-2.32369620066299E-04 
2202	-4.73649538796133E-04 
2203	-3.13862374524397E-04 
2204	 4.26739489452726E-04 
2205	 4.66580560644692E-04 
2206	 6.24034794474459E-04 
2207	-1.51194928334747E-04 
2208	-6.62275237040741E-04 
2209	-2.05855975685674E-04 
2210	-7.32058517559879E-05 
2211	 9.92678232327906E-04 
2212	 2.28708118559014E-03 
2213	 1.5179027736035E-03 
2214	 8.2489904850138E-04 
2215	 2.31079679585053E-03 
2216	 2.02702938936877E-03 
2217	 2.02176295708975E-03 
2218	 3.22200039164642E-03 
2219	 3.00038768676183E-03 
2220	 1.13026856995949E-03 
2221	 8.20427807884082E-04 
2222	 4.41798198955001E-04 
2223	-3.51785831135111E-05 
2224	 2.01035652179163E-04 
2225	 2.28949864776807E-04 
2226	-1.09740052345464E-04 
2227	 2.61507477312666E-04 
2228	 1.45870901327273E-03 
2229	 1.47361085672488E-03 
2230	 8.76594165818304E-04 
2231	 8.07662727411822E-04 
2232	 6.43493035905733E-04 
2233	 3.50870049737753E-04 
2234	-3.88976259883375E-04 
2235	 8.87768865823479E-04 
2236	 1.7829118412082E-03 
2237	 1.93180092909739E-04 
2238	 2.62108459094342E-04 
2239	-7.98165870683551E-04 
2240	-2.72141538509119E-03 
2241	-2.04378123227796E-03 
2242	-2.00400352739632E-03 
2243	-2.66464229014719E-03 
2244	-1.54595974728688E-03 
2245	-6.79511714643879E-04 
2246	-6.41297540153617E-04 
2247	 1.34374371072982E-03 
2248	 2.35446873667724E-03 
2249	 1.49040310056752E-03 
2250	 2.36772881696515E-03 
2251	 1.90054961367819E-03 
2252	 1.97410342066196E-04 
2253	 2.55376749428089E-04 
2254	-2.8659174950948E-04 
2255	 5.08089170820461E-04 
2256	 2.47475409828415E-03 
2257	 2.08391518303166E-03 
2258	 1.92892482909713E-03 
2259	 1.66648234615502E-03 
2260	 1.07519385691895E-03 
2261	-5.76514653491779E-04 
2262	-7.02287814182975E-04 
2263	 8.64929111161704E-05 
2264	 2.71253039139894E-04 
2265	 7.75416456956023E-04 
2266	 1.06784052052136E-03 
2267	 1.37740477739116E-03 
2268	 1.30989512390836E-03 
2269	 1.45789051195781E-03 
2270	 9.85153780095505E-04 
2271	-1.52927906190531E-03 
2272	-2.39492660493569E-03 
2273	-2.14361204350465E-03 
2274	-2.44863549139783E-03 
2275	-2.27913244146099E-03 
2276	-1.6225629921086E-03 
2277	-2.06466957480243E-03 
2278	-1.0960967262665E-03 
2279	 4.06868515379344E-03 
2280	 4.78725122801208E-03 
2281	 3.54139925878398E-03 
2282	 1.39771285226565E-03 
2283	-8.80753638344404E-04 
2284	-2.62311082368431E-03 
2285	-2.20784477401796E-03 
2286	-5.71838809942824E-04 
2287	 1.4719256384313E-03 
2288	 3.58899653486707E-04 
2289	-9.60232208715785E-05 
2290	 2.21703870104525E-03 
2291	 3.46387258044571E-03 
2292	 4.34896394013366E-03 
2293	 2.93889412523206E-03 
2294	-5.92673891062582E-04 
2295	-1.41614884392039E-03 
2296	-1.54869845437202E-03 
2297	-2.41191519495205E-03 
2298	-1.99608433486351E-03 
2299	-3.34558949273839E-03 
2300	-3.5937319038156E-03 
2301	-2.69964627662852E-03 
2302	-3.66435400728459E-03 
2303	-3.07125337858427E-03 
2304	-4.34441366059514E-03 
2305	-4.36472401137174E-03 
2306	-1.18744097067962E-03 
2307	-2.87586753480691E-03 
2308	-6.0444371368685E-03 
2309	-6.20538641597968E-03 
2310	-4.90581654709753E-03 
2311	-3.04696245544828E-03 
2312	-0.00183174781639 
2313	-4.77367035075141E-03 
2314	-9.8594336677105E-03 
2315	-7.59241016392386E-03 
2316	-2.86970850358752E-03 
2317	-2.00786845507533E-03 
2318	-9.68259473628525E-04 
2319	-2.60557941881025E-03 
2320	-5.87021576545411E-03 
2321	-5.36838133779526E-03 
2322	-3.82878269412707E-03 
2323	-4.96938396149713E-03 
2324	-6.48129214626681E-03 
2325	-5.74655443797709E-03 
2326	-1.87750183362909E-03 
2327	 3.20522986198225E-03 
2328	 6.49997218933461E-03 
2329	 4.3613828842881E-03 
2330	-1.53626135738364E-03 
2331	-4.61366278154818E-03 
2332	-7.35872655820537E-03 
2333	-1.11236333769666E-02 
2334	-7.60208494457553E-03 
2335	-1.61302922735212E-03 
2336	-3.69296327808761E-03 
2337	-2.80357439148324E-03 
2338	-2.42699505405918E-03 
2339	-8.07997053674475E-03 
2340	-7.62044009370562E-03 
2341	-6.14926895319984E-03 
2342	-8.75037029471953E-03 
2343	-8.4461852810872E-03 
2344	-7.88173824367351E-03 
2345	-1.52692372044128E-02 
2346	-0.016210410070865 
2347	-1.54546657582584E-02 
2348	-2.16114474870851E-02 
2349	-1.51354458140052E-02 
2350	-8.45645451581525E-03 
2351	-1.08522317960836E-03 
2352	 1.11127217520055E-02 
2353	 6.94503581388328E-03 
2354	 4.42151493732013E-04 
2355	-4.21727822798996E-03 
2356	-9.60722843683853E-03 
2357	-5.27336171565687E-03 
2358	-4.83187624602018E-04 
2359	-2.5576781820788E-03 
2360	-7.18505865610931E-03 
2361	-7.16228655955268E-03 
2362	-4.25189054904404E-03 
2363	-1.20285506725603E-03 
2364	-1.73404077949621E-03 
2365	-6.68960297512298E-03 
2366	-1.08539970668653E-02 
2367	-1.23378827982229E-02 
2368	-3.21708464259251E-03 
2369	 1.15031305310184E-02 
2370	 1.53165163884037E-02 
2371	 8.93162590621269E-03 
2372	 9.06894529030242E-03 
2373	 9.97483695664586E-03 
2374	 1.05593978011784E-02 
2375	 8.15897605021371E-03 
2376	-6.66472568807959E-03 
2377	-1.77218617208815E-02 
2378	-2.51427764589921E-02 
2379	-1.83000713597135E-02 
2380	-5.08410243365647E-03 
2381	-2.85558844124253E-03 
2382	-6.90332672946072E-03 
2383	-2.06025497256295E-02 
2384	-3.67608117730046E-02 
2385	-5.07944902962661E-02 
2386	-4.31839090363272E-02 
2387	-1.26698026101708E-02 
2388	 8.63441717802218E-03 
2389	 1.74306043017837E-02 
2390	 1.51935040572545E-02 
2391	-3.37184797714756E-03 
2392	-0.015992296438073 
2393	-2.09890072375416E-02 
2394	-2.30352248986508E-02 
2395	-1.53982361811761E-02 
2396	-1.91431491718988E-02 
2397	-3.44852312941827E-02 
2398	-3.81357889050053E-02 
2399	-4.23500310924521E-02 
2400	-4.49075923065782E-02 
2401	-1.97419002820169E-02 
2402	-0.016282944723096 
2403	-3.77396152050602E-02 
2404	-3.91890859554472E-02 
2405	-5.42428759767516E-02 
2406	-0.057583451656535 
2407	-4.08152267448381E-02 
2408	-0.04534747886223 
2409	-3.01630341630978E-02 
2410	-5.44801539764308E-03 
2411	 3.77637784926267E-02 
2412	 6.20884322372405E-02 
2413	 2.86030767282049E-02 
2414	 1.01931298975413E-02 
2415	-4.02959454322988E-02 
2416	-0.087475160470352 
2417	-5.13251208636775E-02 
2418	-1.90771019656136E-02 
2419	-2.88863359363847E-02 
2420	-4.62908278251135E-02 
2421	-3.91875634402595E-02 
2422	-6.07771102824112E-02 
2423	-7.69829199852331E-02 
2424	-4.48601575527155E-02 
2425	-5.97920648479681E-02 
2426	-8.22752050728356E-02 
2427	-8.56999467029277E-02 
2428	-0.106902990647886 
2429	-0.097989436303387 
2430	-6.39480206851602E-02 
2431	-1.19419924185378E-02 
2432	 1.18735828133621E-02 
2433	-2.17882700259018E-02 
2434	-5.74162561350695E-02 
2435	-0.15130256620099 
2436	-0.172788659397641 
2437	-0.099687819077461 
2438	-0.116977992733405 
2439	-0.144974582185265 
2440	-0.12890087344711 
2441	-0.113788350848388 
2442	-0.10485861764512 
2443	-5.84126774025876E-02 
2444	-3.30779476084901E-02 
2445	-0.197661848226218 
2446	-0.359221699098478 
2447	-0.361049828590487 
2448	-0.367686310073041 
2449	-0.154973835821948 
2450	-0.159704939601575 
2451	-0.520589547648859 
2452	-0.733450262772072 
2453	-0.644770426740836 
2454	-0.345648474205261 
2455	-0.136401835249436 
2456	-5.94849643995427E-02 
2457	-9.67647030275489E-02 
2458	-0.175202357669583 
2459	-0.135615170075158 
2460	-0.123151263899171 
2461	-0.160278195134953 
2462	-0.140322214442459 
2463	-0.183387072402842 
2464	-0.14855919381727 
2465	-4.11057153906047E-03 
2466	 1.97797740212626E-02 
2467	-0.046587966114421 
2468	-0.113764086846027 
2469	-0.210686210885431 
2470	-4.29753591350028E-02 
2471	 4.27400535943901E-02 
2472	-0.154238261154882 
2473	-0.202267267457691 
2474	-0.35343773678834 
2475	-0.54574444180493 
2476	-0.144129884890353 
2477	-0.134900423852284 
2478	-0.604060797242595 
2479	-0.337498502206549 
2480	-0.524082889567403 
2481	-0.54178008470875 
2482	-0.336877270478441 
2483	-0.425429818635558 
2484	-0.443963799992554 
2485	-0.777924586258253 
2486	 6.12594486340846 
2487	-22.6905044903075 
2488	-1.95909078495955 
2489	-2.38235685968432 
2490	 7.60771766726515 
2491	 4.31364581784469 
2492	-3.99515711504324 
2493	-2.66910539895924 
2494	 7.7111609679611 
2495	 1.06862849271348 
2496	 0.234316814723296 
2497	 0.244461152183385 
2498	 0.143772112263232 
2499	-3.89683682573018 
2500	-0.767471402660346 
