Wavelength	rt0715close00001.asd
350	 4.48491707449651E-02 
351	 4.52441958446607E-02 
352	 4.45916327568212E-02 
353	 4.39622298258993E-02 
354	 4.40747195755484E-02 
355	 4.41129198273229E-02 
356	 4.41358978716696E-02 
357	 4.38014688113606E-02 
358	 4.30264960249354E-02 
359	 4.31747932765728E-02 
360	 4.30290713613772E-02 
361	 4.26439498058182E-02 
362	 0.042861707413963 
363	 4.27770062844652E-02 
364	 0.042245516060483 
365	 4.16532146318509E-02 
366	 4.20158414442178E-02 
367	 4.20740857882419E-02 
368	 0.041946098692194 
369	 4.19615911384296E-02 
370	 4.18572192125212E-02 
371	 4.15248518079935E-02 
372	 4.12102327924734E-02 
373	 4.12960663810034E-02 
374	 4.14907628663738E-02 
375	 4.12735862909354E-02 
376	 4.07609233988876E-02 
377	 4.09137855572548E-02 
378	 4.06933009071159E-02 
379	 4.04176653949242E-02 
380	 4.05246767888495E-02 
381	 0.04089326495771 
382	 4.05286559780898E-02 
383	 0.03997062346254 
384	 4.02340555619791E-02 
385	 3.98862178130353E-02 
386	 3.97227350462466E-02 
387	 0.039953062890434 
388	 0.039964832955303 
389	 4.00838988133964E-02 
390	 4.02854194591953E-02 
391	 4.03867989974819E-02 
392	 3.99643465847916E-02 
393	 3.95543099014986E-02 
394	 3.94556896314464E-02 
395	 3.96874824165518E-02 
396	 0.03953365592283 
397	 0.039274849208149 
398	 3.91471777835042E-02 
399	 3.92660560533421E-02 
400	 3.93935872100542E-02 
401	 0.03940313197827 
402	 3.93007580728049E-02 
403	 3.93178154175179E-02 
404	 3.93180543636318E-02 
405	 0.039317254049065 
406	 3.93594697627136E-02 
407	 3.93200600663826E-02 
408	 3.93423334969587E-02 
409	 3.94186827951141E-02 
410	 3.93888415219479E-02 
411	 3.93301120889315E-02 
412	 0.039250915416565 
413	 3.91899401505383E-02 
414	 3.93104549278583E-02 
415	 3.92715318093622E-02 
416	 3.92381084372802E-02 
417	 3.94823352443942E-02 
418	 3.95792780330199E-02 
419	 3.96559641580584E-02 
420	 3.97355488057357E-02 
421	 3.96975578999149E-02 
422	 3.98148559332861E-02 
423	 3.99529427594746E-02 
424	 4.00049320295072E-02 
425	 4.01998779505713E-02 
426	 4.02841397297344E-02 
427	 4.03391685431755E-02 
428	 0.040544145083799 
429	 4.05222621493706E-02 
430	 4.05383744630785E-02 
431	 4.06969661985813E-02 
432	 4.08468229845274E-02 
433	 4.09771960633176E-02 
434	 4.11131843480304E-02 
435	 4.12838609349579E-02 
436	 4.15136375326813E-02 
437	 0.041631199621781 
438	 4.16786314796166E-02 
439	 4.18055012764476E-02 
440	 4.19700131206705E-02 
441	 4.21207793782606E-02 
442	 4.22478488077306E-02 
443	 4.24038634475386E-02 
444	 4.25537403219601E-02 
445	 4.27258485509284E-02 
446	 4.29305150343327E-02 
447	 4.30496037287124E-02 
448	 4.31558308012847E-02 
449	 4.32605460272521E-02 
450	 4.33311974780917E-02 
451	 4.34056378371558E-02 
452	 4.34948488608143E-02 
453	 4.35826985548458E-02 
454	 4.36008791701896E-02 
455	 4.36765570703512E-02 
456	 4.37432665883938E-02 
457	 4.37165703756703E-02 
458	 4.38176260344212E-02 
459	 4.38772337805645E-02 
460	 0.043896732981378 
461	 4.40538235552615E-02 
462	 4.41120090915898E-02 
463	 4.41479922484714E-02 
464	 4.42337181106494E-02 
465	 0.044247153419363 
466	 4.42722327948489E-02 
467	 4.43688867358433E-02 
468	 4.45396254755907E-02 
469	 4.44725192988053E-02 
470	 4.44419121402567E-02 
471	 4.45460975772486E-02 
472	 4.45785068922671E-02 
473	 0.044574694358868 
474	 0.04461466251973 
475	 4.47398849346753E-02 
476	 4.48041213648546E-02 
477	 4.48725565337283E-02 
478	 4.49730091266544E-02 
479	 4.51035241898528E-02 
480	 0.045236607800054 
481	 4.54217438207827E-02 
482	 4.56529980129738E-02 
483	 4.57890763232632E-02 
484	 4.59474429638239E-02 
485	 4.60419969608801E-02 
486	 4.59830735233914E-02 
487	 4.60147995559417E-02 
488	 4.63036341983375E-02 
489	 4.66902024658328E-02 
490	 4.67465967583823E-02 
491	 4.69053261220728E-02 
492	 4.71033911853487E-02 
493	 4.72559224550848E-02 
494	 4.74855588526712E-02 
495	 4.77795569168835E-02 
496	 4.80558007337857E-02 
497	 4.82261939689783E-02 
498	 4.84836005111432E-02 
499	 4.87574248843971E-02 
500	 4.89966748832949E-02 
501	 4.92228325059429E-02 
502	 4.94681157789861E-02 
503	 0.049738924469152 
504	 5.00306193426283E-02 
505	 5.03294143716042E-02 
506	 5.06633694727286E-02 
507	 5.10172467844986E-02 
508	 5.13404380290792E-02 
509	 5.16005756665938E-02 
510	 5.18810457627366E-02 
511	 5.22381693224395E-02 
512	 5.26288767219344E-02 
513	 0.053044532673409 
514	 5.34377054323628E-02 
515	 0.053767457592886 
516	 0.054179675810791 
517	 5.45459049123249E-02 
518	 5.48673287258052E-02 
519	 5.53299522908408E-02 
520	 5.57839236899742E-02 
521	 5.62271998899929E-02 
522	 5.66827982545703E-02 
523	 5.71296935543505E-02 
524	 0.057550745858418 
525	 5.79360880979774E-02 
526	 5.82934445373982E-02 
527	 5.87295424213413E-02 
528	 5.91766333889019E-02 
529	 5.95962565885969E-02 
530	 6.00618560047638E-02 
531	 6.05389213023781E-02 
532	 6.10176141966365E-02 
533	 6.14975359583555E-02 
534	 6.19943419671025E-02 
535	 6.25207174628368E-02 
536	 6.30523197922308E-02 
537	 6.35228014913498E-02 
538	 6.40748720968429E-02 
539	 0.064600700762403 
540	 6.50071858882029E-02 
541	 6.54496768056733E-02 
542	 0.065864243662845 
543	 6.62548835155333E-02 
544	 6.66658433470892E-02 
545	 6.70916470479572E-02 
546	 6.74426111588184E-02 
547	 6.77012719603228E-02 
548	 6.80092057801439E-02 
549	 6.82695685098325E-02 
550	 6.84910583544501E-02 
551	 6.87161135489562E-02 
552	 6.89408539183876E-02 
553	 6.92426839317058E-02 
554	 6.96328272298942E-02 
555	 7.00450497253793E-02 
556	 7.06159893291153E-02 
557	 7.11720844351833E-02 
558	 7.15785144445981E-02 
559	 7.20934633153693E-02 
560	 7.25986001538645E-02 
561	 0.073059491592399 
562	 7.35012009814576E-02 
563	 7.39689802092647E-02 
564	 7.43768011754376E-02 
565	 7.47080384550903E-02 
566	 7.51155968914668E-02 
567	 0.075507440242563 
568	 7.58645676342431E-02 
569	 7.61877651509914E-02 
570	 7.64609114187158E-02 
571	 7.66595146770851E-02 
572	 7.68191858373319E-02 
573	 7.70343951578173E-02 
574	 7.71986944122234E-02 
575	 7.72947235450057E-02 
576	 7.73313651802992E-02 
577	 0.077323233508884 
578	 7.73429162453733E-02 
579	 7.74037124602267E-02 
580	 0.077476831969462 
581	 7.75428631247422E-02 
582	 0.077636353808857 
583	 7.77463437909331E-02 
584	 7.77589486303893E-02 
585	 0.077822729366524 
586	 0.077906490094183 
587	 7.79157859660299E-02 
588	 7.78032853503233E-02 
589	 7.76515744697568E-02 
590	 7.75109612957101E-02 
591	 7.73756608371947E-02 
592	 7.73320922704538E-02 
593	 7.72924604327028E-02 
594	 0.077166250676758 
595	 7.69643691358529E-02 
596	 7.67400718023023E-02 
597	 7.64910656950109E-02 
598	 7.61915759860509E-02 
599	 7.59153836094594E-02 
600	 7.56830624089481E-02 
601	 7.55080654945282E-02 
602	 7.54044304554677E-02 
603	 7.53553312309582E-02 
604	 7.53297930873987E-02 
605	 7.53101004958848E-02 
606	 7.53660329452728E-02 
607	 7.54384951708029E-02 
608	 7.54688087531053E-02 
609	 7.54137554624081E-02 
610	 7.54594748702203E-02 
611	 7.55137606121659E-02 
612	 7.54996980335457E-02 
613	 7.55739524571589E-02 
614	 7.56232941856203E-02 
615	 7.56159775480887E-02 
616	 7.55761313127262E-02 
617	 7.55771264361693E-02 
618	 0.075578627428015 
619	 0.075575798406542 
620	 7.56460942661111E-02 
621	 7.56911014764678E-02 
622	 7.56789668750413E-02 
623	 7.56179781007301E-02 
624	 7.55845134239731E-02 
625	 7.55602526757142E-02 
626	 7.55454871366875E-02 
627	 7.55585305953792E-02 
628	 0.075538260416442 
629	 7.55489021908159E-02 
630	 7.56064094203234E-02 
631	 7.55241792154385E-02 
632	 7.55326769988172E-02 
633	 7.55975922889961E-02 
634	 7.55667998564327E-02 
635	 7.54544259613078E-02 
636	 7.53823739072833E-02 
637	 7.53714916361399E-02 
638	 7.52848559692001E-02 
639	 7.51695819552032E-02 
640	 7.50877714318779E-02 
641	 7.50683545232126E-02 
642	 7.49769295631939E-02 
643	 7.49122532737928E-02 
644	 0.074858099296822 
645	 7.47128036035417E-02 
646	 7.46110042148389E-02 
647	 7.45337768674008E-02 
648	 7.44542143777658E-02 
649	 7.44001404163962E-02 
650	 7.42872103561132E-02 
651	 7.41445809844282E-02 
652	 0.074041160685515 
653	 0.073968947711801 
654	 7.38221900892433E-02 
655	 7.35645353639759E-02 
656	 0.073305084647382 
657	 7.30522009018315E-02 
658	 7.28865644892937E-02 
659	 7.28228744475614E-02 
660	 7.26643980328577E-02 
661	 7.25217339515945E-02 
662	 7.24221544820846E-02 
663	 7.23448075645088E-02 
664	 7.23282498485465E-02 
665	 7.22701524108217E-02 
666	 7.21326668730221E-02 
667	 0.072023150084853 
668	 7.18635308724272E-02 
669	 7.18171979833358E-02 
670	 7.19977766888715E-02 
671	 7.18752215846497E-02 
672	 7.18146913708435E-02 
673	 7.18916266887928E-02 
674	 7.18824571945479E-02 
675	 7.19376044862097E-02 
676	 7.19622960701953E-02 
677	 7.19212329565043E-02 
678	 7.20387014212839E-02 
679	 7.21863488414739E-02 
680	 7.23621170706753E-02 
681	 7.25934883781855E-02 
682	 7.27104110893818E-02 
683	 7.28850964718539E-02 
684	 7.31516613280779E-02 
685	 7.33428890535662E-02 
686	 7.34622914266766E-02 
687	 7.35152724165846E-02 
688	 7.35623086159384E-02 
689	 7.37461410670287E-02 
690	 7.40682886778222E-02 
691	 7.44165838544427E-02 
692	 7.46306878360248E-02 
693	 7.47745871939349E-02 
694	 7.49390653734244E-02 
695	 7.51304193529682E-02 
696	 0.075230172967083 
697	 7.52509801551029E-02 
698	 7.52729705774717E-02 
699	 7.53495444398067E-02 
700	 7.52990152131591E-02 
701	 7.51792549741636E-02 
702	 7.50371429299789E-02 
703	 7.48929246298683E-02 
704	 7.47109433766427E-02 
705	 7.44907904726163E-02 
706	 7.42163531497654E-02 
707	 7.38107087917328E-02 
708	 7.33445621084238E-02 
709	 7.28568379134551E-02 
710	 7.23440348743594E-02 
711	 7.16579118871668E-02 
712	 7.09089513435269E-02 
713	 7.01201388133681E-02 
714	 6.91922101401476E-02 
715	 6.83565334855867E-02 
716	 6.74314435610871E-02 
717	 6.62604306315288E-02 
718	 6.50523230123925E-02 
719	 6.36891771317092E-02 
720	 6.24937177756771E-02 
721	 6.15926115046816E-02 
722	 6.06348111149844E-02 
723	 0.059441629107548 
724	 5.80628873425175E-02 
725	 5.65890485443204E-02 
726	 0.0551749756941 
727	 5.37161228733843E-02 
728	 5.20798140043276E-02 
729	 5.01409928557504E-02 
730	 4.82541963648993E-02 
731	 4.65216998778849E-02 
732	 4.48893280759636E-02 
733	 4.36939507462506E-02 
734	 4.25915891444382E-02 
735	 4.15010016257844E-02 
736	 4.07266586404987E-02 
737	 4.01373362200048E-02 
738	 0.039659655120711 
739	 0.039277898070577 
740	 3.91026884308703E-02 
741	 3.89238835560118E-02 
742	 3.87497742489617E-02 
743	 3.86890492846605E-02 
744	 3.86235491489516E-02 
745	 3.86008425827405E-02 
746	 3.86157453321938E-02 
747	 3.85718623637098E-02 
748	 3.84965467036553E-02 
749	 3.84891700995948E-02 
750	 3.85821579828663E-02 
751	 3.85307148793464E-02 
752	 3.84879799110754E-02 
753	 0.038489244669943 
754	 0.038499305905316 
755	 3.84815947479569E-02 
756	 3.85414114057843E-02 
757	 3.87139005942391E-02 
758	 3.89688078607963E-02 
759	 3.90520303665902E-02 
760	 3.85723177065457E-02 
761	 3.79271211963829E-02 
762	 3.81149630257829E-02 
763	 0.038284789424762 
764	 0.038367764918749 
765	 3.85453661207836E-02 
766	 0.038717893112707 
767	 3.89789576859907E-02 
768	 3.92769614013432E-02 
769	 3.94082144258846E-02 
770	 3.95128759332175E-02 
771	 3.96187481867982E-02 
772	 3.97518186184683E-02 
773	 3.99972146908874E-02 
774	 4.02462062749499E-02 
775	 4.04529681531852E-02 
776	 4.06260250355528E-02 
777	 4.08901183412671E-02 
778	 4.11101350464533E-02 
779	 4.12944768101801E-02 
780	 0.041607106138019 
781	 4.19875452571326E-02 
782	 4.22775394610305E-02 
783	 4.24436339482018E-02 
784	 4.27736731507854E-02 
785	 4.30129100486497E-02 
786	 4.33289936602075E-02 
787	 4.38980162394903E-02 
788	 4.41731318265039E-02 
789	 4.44750048659804E-02 
790	 4.49049028264177E-02 
791	 4.53418961228631E-02 
792	 4.56162111176432E-02 
793	 4.58501570968839E-02 
794	 0.0461574051434 
795	 0.046560657892541 
796	 4.68651581362825E-02 
797	 0.047197971020629 
798	 4.76612812802934E-02 
799	 4.79195575131371E-02 
800	 4.81902165806711E-02 
801	 0.048477185804892 
802	 0.048672118762634 
803	 4.87794184945936E-02 
804	 4.89219466118845E-02 
805	 0.049106973975525 
806	 4.92090350698906E-02 
807	 4.92896701518726E-02 
808	 4.93707208960731E-02 
809	 4.93915586007254E-02 
810	 4.90800165621853E-02 
811	 4.89312462016702E-02 
812	 4.88711810797784E-02 
813	 4.86131615218944E-02 
814	 4.81594390920241E-02 
815	 4.77185310024552E-02 
816	 0.047346198991282 
817	 0.046946318769418 
818	 4.65351473167413E-02 
819	 4.60993995542305E-02 
820	 4.55852791398802E-02 
821	 4.49085867511632E-02 
822	 4.38181574516767E-02 
823	 4.26128531773602E-02 
824	 4.15699096707744E-02 
825	 4.04753473588521E-02 
826	 3.91527920871484E-02 
827	 3.76707419078005E-02 
828	 3.62489450303429E-02 
829	 3.47761246060833E-02 
830	 3.34482094850836E-02 
831	 3.23907593758156E-02 
832	 3.16322064395356E-02 
833	 3.07068896295535E-02 
834	 3.00151833984181E-02 
835	 2.96543025277502E-02 
836	 2.92018308396987E-02 
837	 2.88007527039581E-02 
838	 2.85882896368294E-02 
839	 2.85137210072943E-02 
840	 2.80189654849157E-02 
841	 2.77105219467331E-02 
842	 2.75949735153885E-02 
843	 2.74507498209229E-02 
844	 0.027171858282984 
845	 2.68218412928311E-02 
846	 2.64867663708009E-02 
847	 2.62541264089234E-02 
848	 2.61464456766948E-02 
849	 2.60143022787358E-02 
850	 2.57937307710378E-02 
851	 2.55556515322137E-02 
852	 2.53100082553405E-02 
853	 2.50997843629195E-02 
854	 2.49570618867692E-02 
855	 2.48802088882824E-02 
856	 2.46839924992851E-02 
857	 2.43872094056397E-02 
858	 2.41188012620361E-02 
859	 2.41920306863242E-02 
860	 2.40194835414228E-02 
861	 2.37035976878401E-02 
862	 2.36275977094127E-02 
863	 0.023461117473472 
864	 2.34336075695597E-02 
865	 2.34194654777367E-02 
866	 2.30106804039935E-02 
867	 2.26337304209538E-02 
868	 2.23374959517055E-02 
869	 2.21839607027391E-02 
870	 2.23074839326277E-02 
871	 2.20381215823406E-02 
872	 2.16412812216786E-02 
873	 2.14344889687058E-02 
874	 2.13691442953968E-02 
875	 2.11225365868309E-02 
876	 2.08246550163719E-02 
877	 2.06421740043949E-02 
878	 2.02873588189754E-02 
879	 2.00556805878116E-02 
880	 1.99052400510444E-02 
881	 1.96441853858571E-02 
882	 1.92315753771245E-02 
883	 1.91442142685218E-02 
884	 1.91713830118776E-02 
885	 1.87085651060411E-02 
886	 1.86142221735283E-02 
887	 1.84807823373406E-02 
888	 0.018192066266824 
889	 1.80945397891445E-02 
890	 0.01799982407046 
891	 1.78267074548244E-02 
892	 1.75960004884725E-02 
893	 1.74807814372368E-02 
894	 1.74631043005262E-02 
895	 1.72452149059436E-02 
896	 1.67306916499774E-02 
897	 1.66377259748264E-02 
898	 1.67272449949196E-02 
899	 1.66089292170008E-02 
900	 1.61363548000727E-02 
901	 0.01608245621914 
902	 1.60609639841724E-02 
903	 1.58638289736806E-02 
904	 1.55188842605546E-02 
905	 1.58171956001541E-02 
906	 1.56694527703385E-02 
907	 1.52126302570951E-02 
908	 1.53136328072573E-02 
909	 1.48826558919028E-02 
910	 1.46245570459845E-02 
911	 1.46553294343236E-02 
912	 0.014424941917464 
913	 1.36588295685132E-02 
914	 1.31657577178804E-02 
915	 1.32540411295576E-02 
916	 1.34431626656149E-02 
917	 1.31542880196228E-02 
918	 1.27726691423642E-02 
919	 1.26161697103633E-02 
920	 1.26633124942281E-02 
921	 1.23189222504499E-02 
922	 1.18685441079208E-02 
923	 1.16267471130872E-02 
924	 1.15825018458765E-02 
925	 0.01159911646062 
926	 1.15974444178174E-02 
927	 1.16450969186701E-02 
928	 1.22954393379103E-02 
929	 1.18444026033099E-02 
930	 1.11248132937258E-02 
931	 1.20883509222604E-02 
932	 1.38459678162788E-02 
933	 1.24582198101071E-02 
934	 1.08926461888732E-02 
935	 1.28640266995361E-02 
936	 1.02171648998987E-02 
937	 9.21665982653448E-03 
938	 9.25207399034044E-03 
939	 8.27063648205996E-03 
940	 8.36815187363918E-03 
941	 9.55075242000302E-03 
942	 9.98852766887677E-03 
943	 8.16685586422189E-03 
944	 1.00755314039454E-02 
945	 1.10153001776395E-02 
946	 1.01814292509449E-02 
947	 9.58881452294392E-03 
948	 9.08762695738236E-03 
949	 9.55157537883343E-03 
950	 1.01692861851822E-02 
951	 9.58431590715156E-03 
952	 1.00914739207879E-02 
953	 9.95622329522438E-03 
954	 9.33377473412047E-03 
955	 9.57068753566531E-03 
956	 8.9945559466663E-03 
957	 9.4409566795963E-03 
958	 1.01798932775771E-02 
959	 9.19910803035229E-03 
960	 1.05963049251537E-02 
961	 0.010520255054434 
962	 9.27944040273668E-03 
963	 9.98929613305684E-03 
964	 8.57375213755988E-03 
965	 8.67122672584422E-03 
966	 9.73151709506659E-03 
967	 8.32680215740501E-03 
968	 8.37443744625592E-03 
969	 8.39353005975971E-03 
970	 8.48260466271485E-03 
971	 1.01019505353684E-02 
972	 1.03814097546053E-02 
973	 9.30435060187566E-03 
974	 8.6067085094895E-03 
975	 1.04440447617703E-02 
976	 9.10112076954006E-03 
977	 8.65851941613301E-03 
978	 9.93663409101192E-03 
979	 0.010027813492905 
980	 9.15858093040057E-03 
981	 8.22614194226954E-03 
982	 8.70832790896054E-03 
983	 1.13122938279943E-02 
984	 8.46104037577106E-03 
985	 8.0909375156705E-03 
986	 1.06930639879411E-02 
987	 1.02170346835905E-02 
988	 8.84894343080542E-03 
989	 9.36932702954309E-03 
990	 1.06904404577783E-02 
991	 9.53303570341042E-03 
992	 9.33610431160648E-03 
993	 9.91927423609949E-03 
994	 1.02816905537206E-02 
995	 9.54626598900266E-03 
996	 9.84164149491094E-03 
997	 9.23942804119866E-03 
998	 8.97749632745302E-03 
999	 1.11806440664545E-02 
1000	 1.09380428414743E-02 
1001	 8.42566021513764E-04 
1002	 9.80140757250927E-04 
1003	 1.06972047912472E-03 
1004	 1.20654476261957E-03 
1005	 1.2813035633481E-03 
1006	 1.26471981005362E-03 
1007	 1.28527026593366E-03 
1008	 1.45105654787038E-03 
1009	 1.72295378790889E-03 
1010	 1.9341152461399E-03 
1011	 1.89592069279208E-03 
1012	 1.91341329121877E-03 
1013	 1.64516387989359E-03 
1014	 1.43444374335714E-03 
1015	 1.1366180325901E-03 
1016	 1.0597128561306E-03 
1017	 9.98509767001329E-04 
1018	 9.41753661231945E-04 
1019	 8.97181685087556E-04 
1020	 1.02428472317843E-03 
1021	 1.24872162068857E-03 
1022	 1.54278744033695E-03 
1023	 1.78584367956115E-03 
1024	 1.86637532277241E-03 
1025	 1.59453951892451E-03 
1026	 1.25270088041329E-03 
1027	 1.12036015921876E-03 
1028	 1.04531307019593E-03 
1029	 9.79292558736284E-04 
1030	 9.99320144454932E-04 
1031	 1.04614694078043E-03 
1032	 1.08774608345629E-03 
1033	 1.22898742753244E-03 
1034	 1.63764269850392E-03 
1035	 1.7110992957696E-03 
1036	 1.72072773564665E-03 
1037	 1.58402571017113E-03 
1038	 1.10939644949953E-03 
1039	 6.36407224390692E-04 
1040	 7.08857156263722E-04 
1041	 9.91931716759687E-04 
1042	 1.18803867158772E-03 
1043	 1.91254853779702E-03 
1044	 1.94231495443634E-03 
1045	 1.42894442411519E-03 
1046	 1.31284154584473E-03 
1047	 1.05621617834034E-03 
1048	 1.04304927870277E-03 
1049	 1.4061608615421E-03 
1050	 1.50061040199856E-03 
1051	 1.54997457172758E-03 
1052	 1.56644832360752E-03 
1053	 1.39204241909004E-03 
1054	 1.37457684455267E-03 
1055	 1.43588836575995E-03 
1056	 1.49876244007388E-03 
1057	 1.59536211890606E-03 
1058	 1.79639608263842E-03 
1059	 1.86141274792615E-03 
1060	 1.91791560395734E-03 
1061	 1.88825221490578E-03 
1062	 1.64596035077756E-03 
1063	 1.69760958457348E-03 
1064	 1.94442211277505E-03 
1065	 1.96539265840558E-03 
1066	 2.13905663649537E-03 
1067	 2.07897094373302E-03 
1068	 1.41464819776009E-03 
1069	 1.32545806339323E-03 
1070	 1.69036013398459E-03 
1071	 1.73604457689494E-03 
1072	 1.7469838384504E-03 
1073	 2.04300252540864E-03 
1074	 2.06212987694188E-03 
1075	 1.70025926090412E-03 
1076	 1.66651315003499E-03 
1077	 1.90654769414357E-03 
1078	 1.83048366720088E-03 
1079	 1.51699215159241E-03 
1080	 1.50235684606367E-03 
1081	 1.53525068151193E-03 
1082	 1.52548992706497E-03 
1083	 1.71932198010628E-03 
1084	 1.79917039438049E-03 
1085	 1.68116794539709E-03 
1086	 1.67330836695114E-03 
1087	 1.8388857573678E-03 
1088	 1.8710102706652E-03 
1089	 1.81960490927625E-03 
1090	 0.00181020603705 
1091	 1.68104867553174E-03 
1092	 1.32315011882589E-03 
1093	 1.26361705518542E-03 
1094	 1.32744867665339E-03 
1095	 1.29268010455246E-03 
1096	 1.36639029144411E-03 
1097	 1.41953234337634E-03 
1098	 1.3711398912558E-03 
1099	 1.34274276895026E-03 
1100	 1.46261188587356E-03 
1101	 1.47096779905936E-03 
1102	 1.29090050154193E-03 
1103	 1.23037964658157E-03 
1104	 1.22980448120807E-03 
1105	 1.15644935522422E-03 
1106	 1.22062624250142E-03 
1107	 1.39702763525683E-03 
1108	 1.53487064806066E-03 
1109	 1.68255544233726E-03 
1110	 1.75514890352314E-03 
1111	 1.78851833425684E-03 
1112	 1.73043103799219E-03 
1113	 1.38372155602728E-03 
1114	 1.33948828589368E-03 
1115	 1.55034875009302E-03 
1116	 1.43718417584326E-03 
1117	 1.0245898668032E-03 
1118	 1.3844794562572E-03 
1119	 2.3998825344944E-03 
1120	 2.67613253455127E-03 
1121	 3.5923649313629E-03 
1122	 3.78949447217315E-03 
1123	 2.56408558619059E-03 
1124	 1.79115781693004E-03 
1125	 2.28991362358378E-03 
1126	 2.97610453040081E-03 
1127	 2.73152150465649E-03 
1128	 1.90642670835316E-03 
1129	 1.56603182286844E-03 
1130	 7.84858373497197E-04 
1131	 7.04163373515411E-04 
1132	 1.50141588903011E-03 
1133	 1.44307402932747E-03 
1134	 1.0910608437602E-03 
1135	 1.03734615331235E-03 
1136	 7.74264787167427E-04 
1137	 5.34011239143912E-04 
1138	 3.27640666923973E-04 
1139	 2.1284652023675E-04 
1140	 5.66905193927137E-04 
1141	 1.64796592748392E-03 
1142	 2.38152722603478E-03 
1143	 0.002539843225837 
1144	 2.07215330518862E-03 
1145	 1.04654967891383E-03 
1146	 5.60296284757087E-04 
1147	 1.26153168111929E-03 
1148	 1.76937738126929E-03 
1149	 1.06769078626972E-03 
1150	 9.68238066957373E-04 
1151	 8.39230143172293E-04 
1152	 8.44416449720109E-04 
1153	 1.32437554890548E-03 
1154	 1.36419016796501E-03 
1155	 1.49335898735026E-03 
1156	 7.84930128681815E-04 
1157	-2.1298497202485E-05 
1158	-1.07812658175899E-04 
1159	 3.39147143627586E-04 
1160	 5.99675205510158E-04 
1161	 1.18917558503687E-03 
1162	 1.4609337852677E-03 
1163	 9.2697292885932E-04 
1164	 8.43256681910337E-04 
1165	 7.68578272167817E-04 
1166	 5.27900434807471E-04 
1167	 9.47313039683211E-04 
1168	 1.03535114770688E-03 
1169	 5.93367055344929E-04 
1170	 6.98418522350412E-04 
1171	 7.45800094774239E-04 
1172	 6.0607474158031E-04 
1173	 5.75125659889407E-04 
1174	 9.04022539754936E-04 
1175	 7.49372787907677E-04 
1176	 2.4636714793953E-04 
1177	 3.26805357804421E-04 
1178	 5.292517880923E-04 
1179	 6.72002039459585E-04 
1180	 9.65887593093376E-04 
1181	 8.71964219229822E-04 
1182	 5.45504352982944E-04 
1183	 6.15728547461075E-04 
1184	 7.44111228034159E-04 
1185	 7.33818237177192E-04 
1186	 9.0295509220679E-04 
1187	 9.53772425724532E-04 
1188	 7.32794255025829E-04 
1189	 6.80420801238364E-04 
1190	 6.60381583494796E-04 
1191	 5.83196147298992E-04 
1192	 6.37223044957406E-04 
1193	 8.61929175170695E-04 
1194	 1.05415514827002E-03 
1195	 1.00534217333133E-03 
1196	 8.32377303709883E-04 
1197	 5.71085975426756E-04 
1198	 4.82908553041263E-04 
1199	 6.92148435009238E-04 
1200	 8.11237024931825E-04 
1201	 7.64335557863035E-04 
1202	 7.91209174387365E-04 
1203	 6.85147247998047E-04 
1204	 5.63914988502697E-04 
1205	 8.16525988643942E-04 
1206	 9.17388778289035E-04 
1207	 7.45388488692521E-04 
1208	 7.14795087910557E-04 
1209	 6.86417950098247E-04 
1210	 6.9115672666353E-04 
1211	 6.5419679431755E-04 
1212	 6.01577238039622E-04 
1213	 7.02316830320603E-04 
1214	 7.33552633051686E-04 
1215	 6.79542868235408E-04 
1216	 7.3778272561948E-04 
1217	 8.31716688331366E-04 
1218	 7.80474668414279E-04 
1219	 8.11630037792807E-04 
1220	 9.01556644873533E-04 
1221	 9.12749823802484E-04 
1222	 8.02988135403926E-04 
1223	 7.35320210256492E-04 
1224	 7.58897238807733E-04 
1225	 8.2253163413944E-04 
1226	 8.7209229531156E-04 
1227	 6.9395728913825E-04 
1228	 6.15321943810341E-04 
1229	 7.66649522336095E-04 
1230	 8.18079634072244E-04 
1231	 8.54224936206587E-04 
1232	 8.66563301097947E-04 
1233	 8.01840621910779E-04 
1234	 7.02397318259234E-04 
1235	 6.86358698391755E-04 
1236	 8.61953612013843E-04 
1237	 8.93221493736484E-04 
1238	 8.08930481524749E-04 
1239	 8.90102578111967E-04 
1240	 9.35639797336857E-04 
1241	 6.90001808307133E-04 
1242	 6.50364927153933E-04 
1243	 8.36563649967082E-04 
1244	 8.81559044222812E-04 
1245	 9.00035781862222E-04 
1246	 9.13795822322583E-04 
1247	 7.7767221725226E-04 
1248	 6.93103542399323E-04 
1249	 8.49830819693543E-04 
1250	 1.0903490663964E-03 
1251	 1.03368357450861E-03 
1252	 7.45318952278237E-04 
1253	 7.21821723991231E-04 
1254	 8.14539382078762E-04 
1255	 7.96670510904496E-04 
1256	 7.29330570348052E-04 
1257	 6.4120572721861E-04 
1258	 7.17241924011077E-04 
1259	 9.06756108369315E-04 
1260	 8.34959232258344E-04 
1261	 7.25299785109278E-04 
1262	 8.31956535072175E-04 
1263	 8.91909183457462E-04 
1264	 6.65499164782145E-04 
1265	 6.33967487607839E-04 
1266	 8.23384244194165E-04 
1267	 6.70174258308056E-04 
1268	 4.5827304787863E-04 
1269	 7.21413443964983E-04 
1270	 1.02814552270054E-03 
1271	 8.05027776324356E-04 
1272	 6.47671858041056E-04 
1273	 9.27501022601481E-04 
1274	 9.88115103076112E-04 
1275	 8.95655327866924E-04 
1276	 8.47545428569238E-04 
1277	 8.29075429147716E-04 
1278	 7.999872934135E-04 
1279	 6.30334381986576E-04 
1280	 7.26559656804702E-04 
1281	 7.9412302718314E-04 
1282	 6.36264601955779E-04 
1283	 5.25395149596147E-04 
1284	 6.49786879257089E-04 
1285	 7.51261325540837E-04 
1286	 6.76778567920198E-04 
1287	 6.23498236908439E-04 
1288	 7.46957741060537E-04 
1289	 8.12145921794034E-04 
1290	 7.16583802217934E-04 
1291	 7.38192591072203E-04 
1292	 8.32091768802334E-04 
1293	 8.19677667245704E-04 
1294	 7.55272140552501E-04 
1295	 7.54210578254393E-04 
1296	 8.6067590106841E-04 
1297	 8.45153072705364E-04 
1298	 7.49531237526096E-04 
1299	 6.80462440360164E-04 
1300	 6.05803478061139E-04 
1301	 6.32041696295094E-04 
1302	 6.18223224913886E-04 
1303	 5.74965319762829E-04 
1304	 7.33068967396415E-04 
1305	 7.71896080841195E-04 
1306	 6.9867372054635E-04 
1307	 3.65360583465625E-04 
1308	 4.61248680639812E-04 
1309	 7.79121940051845E-04 
1310	 7.74439120548365E-04 
1311	 8.45206267589824E-04 
1312	 8.83062480240051E-04 
1313	 6.48970626224411E-04 
1314	 4.8891277070007E-04 
1315	 3.30957260796028E-04 
1316	 4.48617669426295E-04 
1317	 8.07661019072674E-04 
1318	 8.12029588784623E-04 
1319	 9.37198942071702E-04 
1320	 9.72908318481001E-04 
1321	 5.77595676602207E-04 
1322	 2.06621005436768E-04 
1323	 3.62629854141878E-04 
1324	 4.62966142617089E-04 
1325	 6.8626925535338E-04 
1326	 9.64537788978904E-04 
1327	 7.799815108849E-04 
1328	 6.52877452266562E-04 
1329	 6.79301807450277E-04 
1330	 6.91718219651038E-04 
1331	 7.29911739486751E-04 
1332	 7.64484993156848E-04 
1333	 1.03960868625065E-03 
1334	 1.30264300519138E-03 
1335	 1.0075630805489E-03 
1336	 4.23330178314823E-04 
1337	 3.26375070216772E-04 
1338	-2.26077137187498E-04 
1339	-4.13242426484751E-04 
1340	 2.57036215117941E-04 
1341	 6.99617783687107E-04 
1342	 1.0521809073194E-03 
1343	 1.16743988798617E-03 
1344	 1.33684693846029E-03 
1345	 1.63105383144214E-03 
1346	 1.7134645315573E-03 
1347	 1.66368743755911E-03 
1348	 1.33375503620132E-03 
1349	 1.82646653471339E-03 
1350	 3.53832230702974E-03 
1351	 3.25696843802942E-03 
1352	 5.76958095593465E-04 
1353	 2.08960510138883E-03 
1354	 7.96325272099595E-03 
1355	 7.54126258331421E-03 
1356	 1.36037106137468E-02 
1357	 1.97577080285391E-02 
1358	 1.09640824990177E-02 
1359	-6.52995173655524E-03 
1360	 2.39873111756538E-02 
1361	 0.124646217105647 
1362	 0.140495163900408 
1363	 0.095470676616198 
1364	 9.69481069057488E-02 
1365	 6.89650834904228E-02 
1366	 0.133510263296072 
1367	 0.160150907950081 
1368	 0.185586750084199 
1369	 0.195991987467697 
1370	 0.166170747510726 
1371	 4.87077388058296E-02 
1372	 0.119305232982513 
1373	 0.312207573179214 
1374	 0.189777105260925 
1375	-7.89192114915343E-02 
1376	-6.60301804910174E-02 
1377	-0.111787318594561 
1378	-0.1604405405021 
1379	 2.92622164028632E-03 
1380	 6.74885085780642E-02 
1381	-4.55787610618555E-02 
1382	-8.32223079750306E-02 
1383	 3.73887323961148E-02 
1384	 0.118577019131217 
1385	 0.164044429642269 
1386	 0.12182179386768 
1387	-0.23871508497555 
1388	-0.175168430192044 
1389	 0.373104544141159 
1390	 0.390927966041741 
1391	 0.047140328278812 
1392	 0.221836419464523 
1393	 0.180747771270902 
1394	-0.106018239968381 
1395	-8.05508671630725E-02 
1396	 0.138088733221101 
1397	 0.153729828077766 
1398	 0.104292771159661 
1399	 2.04581641951671E-02 
1400	-1.81791533259697E-02 
1401	-0.020989330684156 
1402	-9.24983792754153E-02 
1403	-4.37223878320147E-02 
1404	 5.12605451822578E-02 
1405	 4.81313769972866E-02 
1406	 3.09241926233403E-03 
1407	 9.5449051751981E-03 
1408	 0.017370888212309 
1409	 1.32668815816793E-02 
1410	 1.68030015373171E-02 
1411	 2.00341208170385E-02 
1412	 1.69376587311483E-02 
1413	 1.11161158479024E-02 
1414	 9.60092629381925E-03 
1415	 9.62365260157695E-03 
1416	 2.95778745143562E-03 
1417	-8.7579515948504E-04 
1418	-7.26039053895989E-04 
1419	 2.39901681601401E-03 
1420	 6.62765428352519E-03 
1421	 6.45945414431402E-03 
1422	 5.18195149678184E-03 
1423	 6.67071299628734E-03 
1424	 9.64677845992276E-03 
1425	 7.59252755929766E-03 
1426	 4.15075684469825E-03 
1427	 4.55583738733302E-03 
1428	 2.55476165667212E-03 
1429	 9.67689933198832E-04 
1430	 4.24552184678646E-03 
1431	 4.58220166413843E-03 
1432	 3.32335091493321E-04 
1433	-5.07538669799675E-04 
1434	 1.1420124615114E-03 
1435	 1.71093525941578E-03 
1436	 2.68681368844011E-03 
1437	 3.43746495526083E-03 
1438	 2.33094368936266E-03 
1439	-1.05709675734742E-05 
1440	 1.26457602461367E-03 
1441	 1.57912309128881E-03 
1442	 1.4552569624309E-04 
1443	 8.27654213348813E-04 
1444	 1.55053311384963E-03 
1445	 1.28463965225414E-03 
1446	 9.89395136376253E-04 
1447	 4.2118853075475E-04 
1448	-8.09914447907868E-04 
1449	-1.59775763653883E-03 
1450	-1.15005757768598E-03 
1451	-1.37792378100497E-04 
1452	 6.23939725915885E-05 
1453	-1.07215175568792E-04 
1454	 3.27917199442157E-04 
1455	 1.55320137060382E-03 
1456	 1.26417478953167E-03 
1457	 2.28537221536319E-04 
1458	 3.95779324969138E-04 
1459	 5.20475251277181E-04 
1460	 3.71065224490206E-04 
1461	 9.7627293488119E-04 
1462	 9.56503407381372E-04 
1463	-1.877559071683E-04 
1464	-3.38005532479819E-04 
1465	 2.93284757088202E-04 
1466	 2.3042978468549E-04 
1467	-1.81398972387711E-06 
1468	-1.17649832840407E-04 
1469	-5.8622885084347E-04 
1470	-4.47202244983552E-04 
1471	 6.28588052288349E-05 
1472	 3.62911369992772E-04 
1473	 1.24743002717684E-03 
1474	 1.1881208830284E-03 
1475	 2.88669954723161E-04 
1476	 1.89650458781343E-04 
1477	 1.94723370370124E-04 
1478	 1.26887824461098E-05 
1479	 5.75563367915562E-05 
1480	 1.14225335752743E-04 
1481	-2.2641393985437E-05 
1482	-2.45614802096721E-04 
1483	-5.08433255422019E-04 
1484	-3.89349489022231E-04 
1485	-1.55234078962074E-04 
1486	-1.07883383145623E-04 
1487	 1.4737163119137E-04 
1488	 3.44731273399984E-04 
1489	 3.73145706193443E-04 
1490	 2.3329665468125E-04 
1491	 8.61884628768698E-05 
1492	 2.38353242113791E-05 
1493	-2.39398729698123E-04 
1494	-2.52989979141999E-04 
1495	 2.68681341117242E-05 
1496	 9.11955938993435E-05 
1497	-1.51697229599334E-05 
1498	 3.89300251285138E-05 
1499	 3.1668901752988E-04 
1500	 3.20240141064805E-04 
1501	 1.18842929226023E-04 
1502	 1.39569911146896E-04 
1503	 1.75255164698907E-04 
1504	 5.72356799254089E-05 
1505	-1.18835998650977E-04 
1506	-4.69244737441046E-06 
1507	 2.18205209366446E-04 
1508	 3.01079407001442E-04 
1509	 9.12998512155469E-05 
1510	 6.81186566955426E-05 
1511	 2.02907504998679E-04 
1512	-5.92457536168018E-05 
1513	-5.92060217967289E-05 
1514	 3.72694361045337E-04 
1515	 3.00697725401395E-04 
1516	 5.73811503831392E-05 
1517	 8.32536342909317E-05 
1518	 3.16342189126301E-05 
1519	 8.49189051781443E-05 
1520	 1.84768829657844E-04 
1521	 1.02703761862425E-04 
1522	 1.00485394901116E-04 
1523	 2.53711953416789E-04 
1524	 2.09372504875878E-04 
1525	 1.27235530418708E-04 
1526	 3.29260859412289E-04 
1527	 2.62863301858301E-04 
1528	 8.28397002952011E-05 
1529	 2.39024152940247E-04 
1530	 3.06004518321172E-04 
1531	 2.63292788423055E-04 
1532	 1.75593590036197E-04 
1533	 1.45514047735955E-04 
1534	 2.46020682877808E-04 
1535	 1.19257920943866E-04 
1536	 1.32534936061092E-04 
1537	 3.51539588444361E-04 
1538	 3.24950264564654E-04 
1539	 2.90543525109221E-04 
1540	 2.89708454862302E-04 
1541	 1.96281449802938E-04 
1542	 1.29636061094959E-04 
1543	 1.4879729894915E-04 
1544	 2.27627183943583E-04 
1545	 2.37057485316143E-04 
1546	 1.34373778934875E-04 
1547	 1.25685950109766E-04 
1548	 2.34938330679244E-04 
1549	 2.76927419640818E-04 
1550	 2.38069123667351E-04 
1551	 1.20702504295284E-04 
1552	 1.02511836205441E-04 
1553	 1.99080274429714E-04 
1554	 1.22655075170963E-04 
1555	 1.49941349621017E-04 
1556	 3.22796634792158E-04 
1557	 3.48294725133121E-04 
1558	 3.84969047197724E-04 
1559	 3.70790247150928E-04 
1560	 2.37399232319469E-04 
1561	 1.61139394298666E-04 
1562	 2.04611295472074E-04 
1563	 2.15709150601833E-04 
1564	 1.76562586712081E-04 
1565	 2.14557681034363E-04 
1566	 1.97374844031004E-04 
1567	 2.70889319688728E-04 
1568	 4.52840197966813E-04 
1569	 3.97823624358919E-04 
1570	 3.05187238405864E-04 
1571	 3.3252636179748E-04 
1572	 2.50148060004938E-04 
1573	 3.11248199554391E-04 
1574	 5.89030760827954E-04 
1575	 5.63760528347934E-04 
1576	 3.29567515799332E-04 
1577	 2.67177194391158E-04 
1578	 2.20291649736415E-04 
1579	 1.67406842323073E-04 
1580	 2.47313717498432E-04 
1581	 2.12369165832939E-04 
1582	 5.19691567482751E-05 
1583	 5.64626459036347E-05 
1584	 1.91157911244194E-04 
1585	 2.03078921419687E-04 
1586	 1.41024568931154E-04 
1587	 2.54628771682377E-04 
1588	 3.59731428093087E-04 
1589	 3.15387166842605E-04 
1590	 3.46572429752974E-04 
1591	 2.40564707470312E-04 
1592	-2.96645690541576E-06 
1593	 5.88747569594414E-05 
1594	 1.58985328131022E-04 
1595	 7.00062158463411E-05 
1596	 6.45808391212966E-06 
1597	-3.8414932203521E-05 
1598	 9.94254416936271E-05 
1599	 4.85159809315798E-04 
1600	 5.78020232564818E-04 
1601	 3.31710516930953E-04 
1602	 1.32473660872456E-04 
1603	 1.44447458845882E-04 
1604	 3.20927183544916E-04 
1605	 3.99885568737111E-04 
1606	 3.81903965202301E-04 
1607	 3.51409485246416E-04 
1608	 2.94381009983699E-04 
1609	 3.04678759763999E-04 
1610	 3.87138873891058E-04 
1611	 2.5989015241766E-04 
1612	 1.4869741544788E-04 
1613	 4.02751487006915E-04 
1614	 6.16737287135156E-04 
1615	 4.27026533156507E-04 
1616	 1.96338447872324E-04 
1617	 1.34816545228369E-04 
1618	 7.88880659432015E-05 
1619	 3.32746093494489E-04 
1620	 5.77335694127249E-04 
1621	 2.88393030649555E-04 
1622	 1.05639975077813E-04 
1623	 2.84085179602175E-04 
1624	 2.71744976991842E-04 
1625	 2.25541207647257E-04 
1626	 4.24109470168446E-04 
1627	 5.30573769774349E-04 
1628	 4.36494286752738E-04 
1629	 4.76801368616711E-04 
1630	 4.95758704472521E-04 
1631	 1.63416231109215E-04 
1632	 4.94836446095943E-05 
1633	 1.93078210237822E-04 
1634	 2.75976309123907E-04 
1635	 4.6619250025598E-04 
1636	 4.11123501350714E-04 
1637	 1.79477160174359E-04 
1638	 1.47266278192395E-04 
1639	 1.19738411560391E-04 
1640	 2.31376857025095E-04 
1641	 4.58227363506226E-04 
1642	 3.96946895796894E-04 
1643	 2.49592653059886E-04 
1644	 2.16795678266463E-04 
1645	 2.48887930211349E-04 
1646	 3.75083694463654E-04 
1647	 4.38073055942743E-04 
1648	 4.36244453563399E-04 
1649	 4.98201105003687E-04 
1650	 5.5473304166931E-04 
1651	 4.69108060968391E-04 
1652	 2.39911512420118E-04 
1653	-2.96026196202281E-05 
1654	-4.80207531000462E-05 
1655	 4.42699240342948E-04 
1656	 5.07582908912271E-04 
1657	 2.52492185205332E-04 
1658	 2.88064193498502E-04 
1659	 3.08699929381073E-04 
1660	 2.7732099350552E-04 
1661	 4.19756704388539E-04 
1662	 5.3287286902097E-04 
1663	 5.91337012400036E-04 
1664	 5.27174201674636E-04 
1665	 4.13774802477557E-04 
1666	 3.48250728029175E-04 
1667	 4.48454900488641E-05 
1668	 2.29377559784111E-04 
1669	 5.58885381794644E-04 
1670	 5.67622323619456E-04 
1671	 6.0660190885067E-04 
1672	 7.27121991007856E-04 
1673	 5.47564396453082E-04 
1674	 2.28129090416083E-04 
1675	 3.6767177545661E-04 
1676	 7.56091486030274E-04 
1677	 6.60964659493228E-04 
1678	 6.94500969469701E-04 
1679	 9.08990829560141E-04 
1680	 5.87532441948026E-04 
1681	 3.66982179720313E-04 
1682	 7.2284380060276E-04 
1683	 9.07099774920403E-04 
1684	 4.50283510753704E-04 
1685	 2.1680968011867E-04 
1686	 4.87152129204392E-04 
1687	 3.07140158680183E-04 
1688	 4.76805236844891E-05 
1689	 4.81515431308115E-04 
1690	 7.15260600678966E-04 
1691	 4.73298200117547E-04 
1692	 5.56002981053055E-04 
1693	 3.89679892434392E-04 
1694	-2.45999776167531E-04 
1695	-1.10733247380954E-04 
1696	 4.03944964060725E-04 
1697	 5.07718438555122E-04 
1698	 5.9771058460549E-04 
1699	 4.13927207929064E-04 
1700	-3.78453073213156E-05 
1701	 5.22977896501073E-05 
1702	 6.1202354789392E-04 
1703	 7.19192515446349E-04 
1704	 4.4349860269224E-04 
1705	 2.55224578446649E-04 
1706	 7.14929781155974E-05 
1707	 7.45574621206789E-06 
1708	 1.01918663018417E-04 
1709	 2.02141527866602E-04 
1710	 6.25564337314033E-05 
1711	-1.26053545589749E-04 
1712	 1.99461367830737E-04 
1713	 4.94722685758946E-04 
1714	 6.02810104273584E-04 
1715	 7.8489267121934E-04 
1716	 6.36684907246135E-04 
1717	 5.81070583089307E-04 
1718	 6.17562616116896E-04 
1719	 2.03772585470558E-04 
1720	 6.30882046663506E-06 
1721	 4.10306737362588E-04 
1722	 5.62244539323039E-04 
1723	 5.60345062042718E-04 
1724	 8.81626445075182E-04 
1725	 8.42728531294033E-04 
1726	 3.38875350630488E-04 
1727	 8.44093130571284E-05 
1728	-1.04529224584055E-04 
1729	-2.39968544418742E-04 
1730	 1.96135248842383E-04 
1731	 3.443513286679E-04 
1732	 1.18570188795906E-04 
1733	 3.0542043082611E-04 
1734	 5.33228910395582E-04 
1735	 6.14327489889567E-04 
1736	 6.48749096011095E-04 
1737	 5.85917552628126E-04 
1738	 4.4907353425678E-04 
1739	 2.45062223244406E-04 
1740	 1.89651808948498E-04 
1741	 3.3255654802192E-04 
1742	 0.000285005136588 
1743	 5.56269045957009E-04 
1744	 1.07154507052177E-03 
1745	 7.29920786337516E-04 
1746	 9.95549930018939E-06 
1747	-1.47378962255426E-05 
1748	 7.80800047391537E-04 
1749	 8.04989295227098E-04 
1750	 3.25757263410218E-04 
1751	 2.29249711232461E-04 
1752	-1.24914437134052E-05 
1753	-1.68278671072616E-04 
1754	 1.540694318639E-04 
1755	 2.25032973769847E-04 
1756	-1.98712506006633E-04 
1757	-6.51310775181054E-04 
1758	-4.55576240066516E-04 
1759	-2.39237210876311E-04 
1760	-1.24099944046535E-04 
1761	 2.24219935041348E-04 
1762	 3.46948298529572E-04 
1763	-1.19997591143979E-04 
1764	-3.12808164218308E-04 
1765	 1.58737234820466E-04 
1766	 5.74920525225821E-04 
1767	 0.000617855038615 
1768	 3.54686194477878E-04 
1769	-3.74921389484846E-04 
1770	-6.90950426133433E-04 
1771	-1.69559821648669E-04 
1772	 2.92976557236471E-04 
1773	 7.05899547201295E-04 
1774	 4.0362405227826E-04 
1775	-5.26067977878253E-04 
1776	-5.02470144445149E-04 
1777	-1.91246831921857E-04 
1778	-5.65208172677977E-05 
1779	 1.19400482494608E-03 
1780	 1.1579291977112E-03 
1781	-5.78266650034744E-04 
1782	-5.21832526465147E-04 
1783	-1.01555442405264E-04 
1784	 2.98074199320354E-04 
1785	 2.75609682179369E-03 
1786	 2.93698051123962E-03 
1787	 1.03186109927772E-03 
1788	 3.70734986599089E-04 
1789	-1.2278010804113E-03 
1790	-7.500857627745E-04 
1791	 1.00996512445436E-03 
1792	 2.68385416121243E-03 
1793	 3.12612624791766E-03 
1794	 8.80979713591482E-05 
1795	-1.94156558750025E-03 
1796	-1.79645115361237E-03 
1797	-2.41585033868975E-03 
1798	 2.5698887821983E-04 
1799	 2.26017048492567E-03 
1800	-4.37067180711036E-04 
1801	-9.93450789507861E-05 
1802	 5.02025049426629E-03 
1803	 5.81491257249309E-03 
1804	 4.77589660289461E-03 
1805	 3.75313798607056E-03 
1806	-8.8116364786998E-03 
1807	-1.25892093909421E-02 
1808	-9.67866160221248E-04 
1809	 1.09106254509286E-03 
1810	 2.53768824304304E-03 
1811	 8.79716075360837E-03 
1812	 6.98182251290677E-03 
1813	 1.20950955092755E-02 
1814	 4.23078918661782E-02 
1815	 4.22294854395894E-02 
1816	 1.15103846358943E-02 
1817	-4.77892139232179E-02 
1818	-9.27738053815979E-02 
1819	-7.70851207204555E-02 
1820	-3.84668442790232E-02 
1821	 7.52072153945633E-02 
1822	 0.1601194947893 
1823	 0.285030689399376 
1824	 0.335649531664924 
1825	 0.322150135621427 
1826	 0.269081229785579 
1827	-0.154703176992294 
1828	-0.284453444987711 
1829	-0.182013236957881 
1830	-5.96220421683488E-02 
1831	-4.44876393200456 
1832	-5.66136243672754 
1833	-3.89431196124508 
1834	-1.87890883167394 
1835	 0.299249552646091 
1836	 0.538416749895449 
1837	 0.260163861802178 
1838	 0.275788376626531 
1839	-3.49625583754457E-02 
1840	-0.155672131570529 
1841	-0.320715829954973 
1842	-5.42213054609752 
1843	-0.50329273013702 
1844	 0.149097138648249 
1845	 0.435366109118436 
1846	 2.58544393126409 
1847	 4.47868153863528 
1848	-24.5147222159498 
1849	 0.267891756896965 
1850	 2.6406736315473 
1851	 0.208608210279368 
1852	 0.259280510067185 
1853	-8.49597756826163E-02 
1854	-0.156958016145067 
1855	 0.159619459908501 
1856	 0.225914033829079 
1857	-30.3368936617219 
1858	 0.953095905813653 
1859	 0.419317900191259 
1860	 0.412689932093829 
1861	 0.99871974128186 
1862	 1.66698423945175 
1863	-1.48983230036077 
1864	-2.02003731370228 
1865	-2.56395713221466 
1866	 11.1068545102926 
1867	 9.58968824572184 
1868	 2.24165198209795 
1869	-5.93373059207925 
1870	-2.94108293740435E-02 
1871	-5.41434364950978E-02 
1872	-0.534868226897952 
1873	-0.899598682429503 
1874	-0.872367931206549 
1875	-1.09282618483325 
1876	-1.01906492320411 
1877	-0.414502292894091 
1878	-0.276840730690364 
1879	-0.194516234989508 
1880	 0.704625340056209 
1881	-1.6103083479056 
1882	-0.566596660319545 
1883	-6.48940395374556E-02 
1884	-6.53701560042096E-03 
1885	 1.33768378381927 
1886	 3.98284282445998 
1887	-0.975684040117543 
1888	-0.947917650222129 
1889	-0.887240888293043 
1890	-0.256033827143654 
1891	-0.158671223036174 
1892	-0.353981328554226 
1893	-1.29124788314958 
1894	-1.42520060415443 
1895	-1.21288384086046 
1896	 9.72065403822818 
1897	 1.57013600982676 
1898	 3.54792973254401 
1899	-2.59547800343442 
1900	-1.0097699373561 
1901	-0.299521728458887 
1902	-0.244025856689642 
1903	 5.87657509306237E-04 
1904	-0.348132319316578 
1905	 3.62090538853735 
1906	 1.56141771205374 
1907	 1.32922472414299 
1908	-0.307731274073852 
1909	-0.166659624607381 
1910	-0.361116011521662 
1911	-0.638377038833689 
1912	-1.59449773195952 
1913	-1.82687664757451 
1914	-0.918316748648497 
1915	 0.890325154609405 
1916	 1.28511544441091 
1917	 1.14129803881043 
1918	 0.659101107869404 
1919	 7.66103566569655E-03 
1920	-0.349844612488153 
1921	-1.46835361904677 
1922	-2.49623453626461 
1923	-1.09672851157394 
1924	-0.547757069233544 
1925	-0.123607214741215 
1926	 7.01232733551926E-02 
1927	 0.390285327900535 
1928	 0.558776766914928 
1929	 0.286208726822654 
1930	 7.25439493588693E-02 
1931	-6.50121799245741E-02 
1932	-2.92650681679056E-02 
1933	-4.65401345937158E-02 
1934	-7.56249437945989E-02 
1935	-4.73387179795017E-02 
1936	-0.06904530715043 
1937	-7.04446526897618E-02 
1938	-2.01965741920375E-02 
1939	 1.40354247518665E-03 
1940	 2.39141878739445E-02 
1941	 0.026039861825761 
1942	 2.83567516424914E-02 
1943	 2.71757564795984E-02 
1944	 1.98095533873139E-02 
1945	 6.26915193890722E-03 
1946	-8.86330100673289E-04 
1947	 4.1860165941936E-03 
1948	-3.30243756135803E-03 
1949	-8.42658777696093E-03 
1950	-3.63143327396437E-03 
1951	-8.34544712503899E-03 
1952	-9.47381039759498E-03 
1953	-9.9995618575335E-03 
1954	 1.53509690619337E-03 
1955	 5.56683198501679E-03 
1956	-1.32916274957996E-03 
1957	-1.35462868674051E-03 
1958	-1.51854918533978E-03 
1959	-3.2559425511519E-03 
1960	-2.93220123837703E-03 
1961	-4.55013739454805E-03 
1962	-4.07948605965595E-03 
1963	-4.15455281940454E-03 
1964	-4.66223235952701E-03 
1965	-4.38720852912739E-03 
1966	-4.6475030281108E-03 
1967	-6.27176756629694E-03 
1968	-6.42611691197778E-03 
1969	-4.54378401947015E-03 
1970	-3.10986814851672E-03 
1971	-1.60900885975267E-03 
1972	-5.32578708032685E-04 
1973	-1.09035673063403E-03 
1974	-2.97539067713179E-03 
1975	-3.77654820052127E-03 
1976	-2.23071061747558E-03 
1977	-5.34955623162402E-04 
1978	 5.45714470412411E-04 
1979	 1.05783422390542E-03 
1980	 1.41876301947558E-03 
1981	 5.71168409030298E-04 
1982	-7.25029208411803E-05 
1983	 4.96026026536717E-04 
1984	 1.50444180081757E-03 
1985	 1.51322077625409E-03 
1986	 3.66360256600744E-04 
1987	-6.17331537905527E-04 
1988	-1.07997998115601E-03 
1989	-1.67382768229811E-03 
1990	-1.27979546114771E-03 
1991	-7.48524024177806E-04 
1992	-9.92897682716249E-04 
1993	-1.05999736909254E-04 
1994	 2.77430861425502E-04 
1995	 6.08052971290368E-04 
1996	 4.80546691867981E-04 
1997	 2.6711759018931E-04 
1998	-1.32994305030151E-03 
1999	-9.81450304354413E-04 
2000	 7.43076494200419E-04 
2001	 1.32862770839096E-03 
2002	 2.64652586132397E-03 
2003	 2.72219091930894E-03 
2004	 1.46516715106914E-03 
2005	 2.4746172070412E-03 
2006	 2.97797586471366E-03 
2007	-1.18124764725844E-03 
2008	-6.67670458514956E-03 
2009	-8.49720471586174E-03 
2010	-8.63649031100011E-03 
2011	-7.93967676179115E-03 
2012	-4.44018280788408E-03 
2013	-1.99404850482358E-03 
2014	 1.5596125034697E-04 
2015	 3.85793510180067E-04 
2016	-2.34328526469123E-04 
2017	 7.87596852915831E-05 
2018	 7.11288101655285E-05 
2019	-1.61091480014817E-03 
2020	-3.3492858735842E-03 
2021	-3.63488041297351E-03 
2022	-2.63156639831997E-03 
2023	-1.80038645998483E-03 
2024	-1.62881592754842E-03 
2025	-1.24079129993769E-03 
2026	-6.93979977113679E-04 
2027	-6.29959525437989E-04 
2028	-5.46183225895121E-04 
2029	 6.66113941986668E-05 
2030	-2.82961967154986E-05 
2031	-5.54258189215972E-04 
2032	-6.51629040742375E-04 
2033	-7.09016114862958E-04 
2034	-5.78926985770706E-04 
2035	-0.000607759436973 
2036	-1.45978140509069E-03 
2037	-1.79281140838552E-03 
2038	-1.24780753012658E-03 
2039	-8.64291966268316E-04 
2040	 8.76807173336815E-05 
2041	 5.5401299165832E-04 
2042	 1.02286942734262E-03 
2043	 1.02614551185852E-03 
2044	 5.76348378361613E-04 
2045	 4.96889646155753E-05 
2046	-2.75755621335777E-05 
2047	-1.31255405128002E-04 
2048	-9.91808452232182E-05 
2049	-3.25833542266348E-04 
2050	-6.78209240599647E-04 
2051	-7.12400175425713E-04 
2052	-1.44984886158731E-03 
2053	-7.77596747616216E-04 
2054	 2.61829384294084E-04 
2055	-5.99703600612264E-04 
2056	-6.6855859286899E-04 
2057	-2.25883737839824E-04 
2058	-8.07884356371763E-05 
2059	 1.9464483274968E-04 
2060	 1.00910354522158E-04 
2061	-1.9287093525762E-04 
2062	-7.09260178402922E-04 
2063	-8.71432905591936E-04 
2064	-1.20163552196432E-03 
2065	-9.03483263271624E-04 
2066	-8.02102152707434E-04 
2067	-2.34303066413221E-03 
2068	-3.45304051864486E-03 
2069	-3.24537479993505E-03 
2070	-2.96180854143044E-03 
2071	-2.3337461304072E-03 
2072	-1.05905166278735E-03 
2073	-3.07098546999956E-04 
2074	-4.29024628396139E-05 
2075	-3.63162864659301E-05 
2076	-1.8818504612498E-04 
2077	-9.04782366624598E-05 
2078	-1.24923447798032E-04 
2079	-3.48871966111328E-04 
2080	-5.17013447077263E-04 
2081	-4.56686716015597E-04 
2082	-7.99101962811253E-04 
2083	-8.65244879822403E-04 
2084	-6.4872027589716E-06 
2085	 1.45577702169213E-04 
2086	-5.2986800779841E-04 
2087	-5.0903810810608E-04 
2088	-6.40159675972225E-04 
2089	-1.02838820086334E-03 
2090	-7.24561818012165E-04 
2091	-6.46348617307569E-04 
2092	-4.62271441118514E-04 
2093	-1.09503866650089E-04 
2094	-6.01146381179922E-05 
2095	-7.80017589806099E-05 
2096	 8.334381033109E-05 
2097	 1.45067581417781E-05 
2098	-1.58700035462099E-04 
2099	-1.69686497759277E-04 
2100	-2.31326084843322E-04 
2101	-3.90866013279274E-04 
2102	-5.76744763463349E-04 
2103	-2.57981055785881E-04 
2104	-2.05790224390749E-05 
2105	-5.14236731615637E-04 
2106	-5.44009982029482E-04 
2107	-4.65026364447285E-04 
2108	-2.76116896329861E-04 
2109	-1.2818413209567E-04 
2110	 6.85628889521881E-05 
2111	 1.08856513138644E-03 
2112	 1.09776033031397E-03 
2113	 6.46048903670397E-04 
2114	-4.67684204002889E-04 
2115	-7.49425126489715E-04 
2116	-1.49041771884386E-03 
2117	-1.72030131912441E-03 
2118	-1.04217177210403E-03 
2119	-6.83850289727008E-04 
2120	-5.00444968437898E-04 
2121	-2.81244207056736E-04 
2122	 1.14900881295081E-04 
2123	 3.53168625597958E-04 
2124	 1.77920435134423E-04 
2125	-2.58021748152488E-04 
2126	-6.26636530427976E-04 
2127	-4.76656756926689E-04 
2128	-6.81575532112775E-04 
2129	-1.12454064124835E-03 
2130	-1.09346906476065E-03 
2131	-1.55102148959464E-03 
2132	-1.34281200850903E-03 
2133	-3.1714398108205E-04 
2134	-2.23550811672101E-04 
2135	-6.29756205213666E-04 
2136	-4.36299369594906E-04 
2137	-4.47905374759017E-04 
2138	-4.78184269471021E-04 
2139	 1.57511451134909E-04 
2140	 3.2545619546077E-04 
2141	-1.63355845302855E-04 
2142	-3.76057669686082E-04 
2143	-5.55376232738373E-04 
2144	-5.44921491632247E-04 
2145	-5.11112805582884E-04 
2146	-4.08096978253907E-04 
2147	-3.31730596197658E-04 
2148	-9.31111376224372E-04 
2149	-1.55696938180595E-03 
2150	-1.79738335058219E-03 
2151	-2.07133650713413E-03 
2152	-1.73791031323214E-03 
2153	-5.00198171876345E-04 
2154	-2.89466449043793E-04 
2155	-9.43407192723242E-04 
2156	-9.11244755943188E-04 
2157	-6.06884871015531E-04 
2158	-4.01305815860803E-04 
2159	-1.67989826666585E-04 
2160	 5.02630916718425E-04 
2161	 1.15980976205966E-03 
2162	 2.07921593303797E-03 
2163	 1.57840770889469E-03 
2164	 1.4212081505856E-04 
2165	 1.36641923775731E-04 
2166	-1.54962000837141E-04 
2167	-5.55883127684362E-04 
2168	 3.76148421321403E-04 
2169	 6.36610586410422E-04 
2170	 2.90894739187359E-05 
2171	-1.14138722791336E-03 
2172	-1.10150290206661E-03 
2173	-2.04429987690634E-04 
2174	 7.09114852512878E-04 
2175	 9.1731918869273E-04 
2176	 2.80224360308065E-04 
2177	 6.06097756734207E-04 
2178	 3.30664502280171E-04 
2179	-1.01947173875565E-03 
2180	-7.41373744801264E-04 
2181	-6.21814341835668E-04 
2182	-1.72911776843519E-03 
2183	-1.87866639219849E-03 
2184	-1.64492630195325E-03 
2185	-9.24071740187986E-04 
2186	-5.57065877177074E-04 
2187	 3.78618865574216E-04 
2188	 1.21147823950494E-03 
2189	 1.76933400269144E-03 
2190	 1.39364133317038E-03 
2191	 1.11396815041409E-03 
2192	 9.85633300764502E-04 
2193	-1.84442546482182E-04 
2194	-9.03369080619625E-04 
2195	-8.59425381438632E-04 
2196	-1.17037191960908E-03 
2197	-2.75842905645633E-03 
2198	-3.19285541194979E-03 
2199	-2.55656782031599E-03 
2200	-2.09981631815711E-03 
2201	-2.22277559307829E-03 
2202	-7.36790189959904E-04 
2203	-1.84791954739896E-04 
2204	-6.17145518449368E-04 
2205	-1.1314818036146E-04 
2206	 3.99568084561384E-04 
2207	-4.40579176811196E-04 
2208	-1.13753940287784E-03 
2209	-9.76719286314854E-04 
2210	-1.74497968141781E-03 
2211	-1.46448945544776E-03 
2212	-6.81564781991295E-04 
2213	-1.4176385898937E-03 
2214	-1.56661816328672E-03 
2215	-5.91062996035176E-04 
2216	 8.60449216048951E-04 
2217	 1.27860182521235E-03 
2218	 1.80061363772061E-03 
2219	 1.36234601554192E-03 
2220	-9.01861674691593E-04 
2221	-1.38372288614448E-03 
2222	-5.99398943797136E-04 
2223	-8.0762914867028E-04 
2224	-1.37544311177246E-03 
2225	-1.75761143001592E-03 
2226	-2.99452788022569E-03 
2227	-3.02253433031762E-03 
2228	-1.19918970968217E-03 
2229	-8.84367697597491E-04 
2230	-1.64677068184071E-03 
2231	-1.52450812155855E-03 
2232	-1.48769514960082E-03 
2233	-1.28176255192588E-03 
2234	-2.55506132073017E-04 
2235	 9.5891493055197E-04 
2236	 6.80075979418559E-04 
2237	-1.03171191824807E-03 
2238	-1.1925011762931E-03 
2239	 1.11244552292032E-04 
2240	 1.7011371037407E-03 
2241	 2.56797766952845E-03 
2242	 1.05381951304696E-03 
2243	-9.21212689278487E-04 
2244	-2.02075718345538E-03 
2245	-2.86899734918952E-03 
2246	-2.12652816390456E-03 
2247	-8.62514289135463E-04 
2248	-1.23336012231578E-03 
2249	-5.28330038260787E-05 
2250	 2.24958681393275E-03 
2251	 2.23008590646303E-03 
2252	 0.001325901908005 
2253	 8.72896856300463E-04 
2254	 2.53006665890143E-03 
2255	 2.86519019629158E-03 
2256	 1.24593973116943E-03 
2257	 1.74386639051851E-03 
2258	-2.65448013467082E-04 
2259	-1.92496772756312E-03 
2260	-3.02414307075903E-03 
2261	-3.15978838076619E-03 
2262	-3.78788987527618E-03 
2263	-4.8880673033725E-03 
2264	-4.93309854756031E-03 
2265	-3.29914646273236E-03 
2266	-2.81921883973699E-03 
2267	-3.03240651613345E-03 
2268	-2.71257241140375E-03 
2269	-2.29966446632811E-03 
2270	-1.50932819386348E-03 
2271	 2.20138809880557E-04 
2272	 5.23683804643025E-04 
2273	 4.13021151279859E-08 
2274	-2.00913887156624E-04 
2275	-1.47916820803184E-03 
2276	-1.63876039615467E-03 
2277	 2.95930658682083E-04 
2278	-4.82375505894813E-04 
2279	-3.2070340076878E-03 
2280	-4.13885706263007E-03 
2281	-5.97999991591144E-03 
2282	-6.93648929641202E-03 
2283	-0.004293735390892 
2284	-1.52053999743799E-03 
2285	 7.81489618044471E-04 
2286	 4.95569682948115E-04 
2287	-3.2847240054554E-03 
2288	-7.2835925698467E-03 
2289	-9.25208286547532E-03 
2290	-8.81828301563891E-03 
2291	-6.88946177903078E-03 
2292	-3.70697613493614E-03 
2293	-1.59376933101023E-03 
2294	-2.49901533586031E-03 
2295	-4.71318593712888E-03 
2296	-6.72476956335675E-03 
2297	-9.35697603095082E-03 
2298	-0.010611242973317 
2299	-7.80803133965837E-03 
2300	-3.85087373543563E-03 
2301	 9.59763716758774E-04 
2302	 2.91239552818514E-03 
2303	 2.4061308971542E-04 
2304	 2.07370165963051E-04 
2305	-1.80585015918523E-03 
2306	-4.31827520060947E-03 
2307	-4.29212023901843E-03 
2308	-5.73840588184262E-03 
2309	-3.72976472093117E-03 
2310	-3.2243780333618E-03 
2311	-3.87507534631579E-03 
2312	-2.66462431732576E-03 
2313	-5.18473461469538E-03 
2314	-4.82959483952888E-03 
2315	-1.49932189454357E-03 
2316	-6.67657664981139E-04 
2317	-3.35304234662401E-04 
2318	 1.35828945911415E-03 
2319	 1.60991111241298E-03 
2320	-2.25669882431049E-03 
2321	-4.23008039771584E-03 
2322	-6.39895851913132E-03 
2323	-6.46992887256644E-03 
2324	 1.0248628583282E-03 
2325	 4.6783044849773E-03 
2326	 3.17423739132264E-03 
2327	 1.45298527830864E-03 
2328	-1.77955695797277E-03 
2329	-2.29803149343833E-03 
2330	 4.50851261442354E-04 
2331	 3.62981342193683E-03 
2332	 3.25379996060865E-03 
2333	-2.54148698652395E-03 
2334	-2.88333526623458E-03 
2335	-1.94330107123957E-03 
2336	-5.49863249288752E-03 
2337	-2.68164572269287E-03 
2338	-8.60055797493298E-04 
2339	-2.91416949029488E-03 
2340	 1.9799932342264E-04 
2341	 1.19293332787957E-03 
2342	-2.68276171920764E-03 
2343	-5.55282352012829E-03 
2344	-7.78623846704472E-03 
2345	-6.7579460965126E-03 
2346	-3.62530165731567E-03 
2347	-5.06627519879326E-03 
2348	-6.23041556880742E-03 
2349	-5.69944215045088E-03 
2350	-7.83505543714914E-03 
2351	-5.25751340384668E-03 
2352	 2.24210838115349E-03 
2353	-7.62771621347052E-04 
2354	-5.8238625284313E-03 
2355	-7.13128431490896E-04 
2356	-2.41778093590112E-03 
2357	-8.19584155291884E-03 
2358	-9.64479901057155E-03 
2359	-0.010874381640411 
2360	-7.60352531560206E-03 
2361	-5.08305940285452E-03 
2362	-6.24331260502929E-03 
2363	-1.37773541189737E-02 
2364	-2.55550216191303E-02 
2365	-2.65044363848895E-02 
2366	-2.35520205499896E-02 
2367	-2.35619466220023E-02 
2368	-2.28435316514998E-02 
2369	-2.65496087726874E-02 
2370	-3.00217312739718E-02 
2371	-2.16271004230035E-02 
2372	-1.22219711564264E-02 
2373	-1.50969253049209E-02 
2374	-1.30300428782072E-02 
2375	-1.37052670861469E-02 
2376	-2.51465218889331E-02 
2377	-2.48032608258017E-02 
2378	-1.85268208106456E-02 
2379	-2.18869509510046E-02 
2380	-2.77645116626944E-02 
2381	-3.07363985148738E-02 
2382	-3.48597817578301E-02 
2383	-0.037511002875807 
2384	-0.051714855972158 
2385	-5.76550216468819E-02 
2386	-4.69908413532612E-02 
2387	-4.83378631997033E-02 
2388	-3.46325369512258E-02 
2389	-2.13951011735113E-02 
2390	-3.19883938839761E-02 
2391	-3.75769111851848E-02 
2392	-3.29520816432082E-02 
2393	-2.79440715643429E-02 
2394	-3.19925295132112E-02 
2395	-2.98058546629163E-02 
2396	-2.19944970315166E-02 
2397	-1.51157963861062E-02 
2398	 4.87317125082383E-03 
2399	 2.40756312780723E-02 
2400	 2.54404076884279E-02 
2401	 1.30883806409413E-02 
2402	 4.72257767850507E-03 
2403	-8.91373129501692E-03 
2404	-4.11583777252632E-02 
2405	-6.41978945232222E-02 
2406	-7.03485976292906E-02 
2407	-7.66033169669327E-02 
2408	-0.060539653186584 
2409	-2.41473207514369E-02 
2410	-2.15174556236238E-02 
2411	-2.54299714149376E-02 
2412	-2.79594398641206E-02 
2413	-4.69790062406589E-02 
2414	-5.78878618042822E-02 
2415	-7.29227682305003E-02 
2416	-8.68212816744778E-02 
2417	-7.37455674273644E-02 
2418	-0.090698356923743 
2419	-0.126205388043193 
2420	-0.100697406205772 
2421	-8.64554860602776E-02 
2422	-6.39007069535535E-02 
2423	-8.85748994765286E-03 
2424	-3.73622159941963E-02 
2425	-7.03493124834649E-02 
2426	-5.73638091248722E-02 
2427	-0.085799874746771 
2428	-0.105663920711649 
2429	-0.088425167454139 
2430	-7.89330263559524E-02 
2431	-7.71183796597353E-02 
2432	-4.01894764719169E-02 
2433	 6.68209708497953E-03 
2434	-3.02126728324092E-02 
2435	-5.37490900688105E-02 
2436	-2.14170128698927E-02 
2437	 6.77727125841564E-05 
2438	-3.78342629218713E-03 
2439	-9.79189022292666E-03 
2440	 3.98339776897031E-03 
2441	-5.88052218513907E-02 
2442	-0.155200825793022 
2443	-0.186773779254092 
2444	-0.196859679109283 
2445	-0.161237288460527 
2446	-9.91647123032587E-02 
2447	-4.36794868378571E-02 
2448	-0.062393752064727 
2449	-0.241772026227269 
2450	-0.287853677130135 
2451	-0.345906429204141 
2452	-0.433645714295104 
2453	-0.368122393837105 
2454	-0.252708443342339 
2455	-0.155346644764308 
2456	-0.156289346690468 
2457	-0.183317505946089 
2458	-0.169486768466937 
2459	-0.159989453234651 
2460	-0.141175296433067 
2461	-0.157134402649283 
2462	-0.27874784582112 
2463	-0.412328268345306 
2464	-0.398750893091107 
2465	-0.254780527904794 
2466	-6.71871833668458E-02 
2467	 4.66536890725622E-02 
2468	 7.76957327432185E-02 
2469	-0.174942208343165 
2470	-0.317952691691181 
2471	-0.345655920153593 
2472	-0.587933737389795 
2473	-0.385541125224504 
2474	-0.32560478486767 
2475	-0.651952821022933 
2476	-0.90497072991055 
2477	-0.905647538941834 
2478	-0.775362754385923 
2479	-0.516444732961261 
2480	-0.091031263814203 
2481	-0.412696048712083 
2482	-0.620939259755282 
2483	-0.519929528609715 
2484	-3.96242904868377E-02 
2485	 0.281122175886988 
2486	-2.73759542996037 
2487	-6.81292024835873 
2488	-3.26827349112016 
2489	-8.82556856177762 
2490	-7.87403166316566 
2491	-1.59272800827382 
2492	-0.991788584436195 
2493	 0.421961993101377 
2494	-5.95750201511687 
2495	-1.95561336343629 
2496	-1.15957447045395 
2497	-0.770211600053685 
2498	-0.756572528914053 
2499	-25.5003967869726 
2500	 0.937814849872175 
