Wavelength	rt0715far00004.asd
350	 1.45999652184169E-02 
351	 1.49143528125268E-02 
352	 1.46258289397429E-02 
353	 1.45253822108564E-02 
354	 1.49227477681234E-02 
355	 1.45152279025169E-02 
356	 1.45885902003658E-02 
357	 1.48065456969743E-02 
358	 1.46319027463687E-02 
359	 1.49144995195115E-02 
360	 1.50909980531433E-02 
361	 1.50051000675925E-02 
362	 1.48804361236204E-02 
363	 1.55940246635793E-02 
364	 0.015627622534905 
365	 1.48101969013568E-02 
366	 1.53778490842979E-02 
367	 1.56158672598926E-02 
368	 1.56232907900534E-02 
369	 1.57989820822582E-02 
370	 1.58879937008175E-02 
371	 1.59679630177411E-02 
372	 1.60844386451949E-02 
373	 1.62788390023132E-02 
374	 1.67771275869117E-02 
375	 1.68483734513992E-02 
376	 1.64998545848626E-02 
377	 0.016823164720555 
378	 1.68191191338796E-02 
379	 1.66922611132764E-02 
380	 1.68702033656779E-02 
381	 1.76557054513501E-02 
382	 0.017702144583382 
383	 1.73838805850242E-02 
384	 1.77364064577762E-02 
385	 1.78986720558314E-02 
386	 1.79887884783266E-02 
387	 1.81718535559068E-02 
388	 1.85608491720938E-02 
389	 1.88070837044272E-02 
390	 1.90038415150708E-02 
391	 1.92103343955452E-02 
392	 1.91459084068241E-02 
393	 1.92816208790141E-02 
394	 1.95360424328984E-02 
395	 1.96803438490598E-02 
396	 1.99256880796117E-02 
397	 2.01517952538973E-02 
398	 2.02697339674412E-02 
399	 2.02531409113727E-02 
400	 2.04815189262327E-02 
401	 2.07149075341618E-02 
402	 2.07459805243236E-02 
403	 2.05901462654504E-02 
404	 2.08355753457495E-02 
405	 2.11855546631278E-02 
406	 2.11631635084581E-02 
407	 2.13508568712283E-02 
408	 2.15892880083944E-02 
409	 2.17819153536594E-02 
410	 2.19403212463992E-02 
411	 2.20343476769537E-02 
412	 2.21070171450039E-02 
413	 2.22113014843666E-02 
414	 2.23920214522454E-02 
415	 2.26291871629695E-02 
416	 0.022848817653761 
417	 2.29889395121739E-02 
418	 2.31948906796947E-02 
419	 2.34268015320057E-02 
420	 2.36319105131007E-02 
421	 2.37664861325564E-02 
422	 2.40837118655062E-02 
423	 2.43630341026788E-02 
424	 2.44718127546519E-02 
425	 2.48079890787538E-02 
426	 2.50832273638046E-02 
427	 2.52746848472784E-02 
428	 0.025486271476675 
429	 2.57140779037121E-02 
430	 2.60933800920842E-02 
431	 2.65417827345118E-02 
432	 0.026727431350979 
433	 2.69057441797624E-02 
434	 2.71914349620192E-02 
435	 2.75856452718761E-02 
436	 2.78759790447233E-02 
437	 2.80895410736553E-02 
438	 2.83698249298335E-02 
439	 0.028859989728833 
440	 2.91293120336185E-02 
441	 0.029354884819414 
442	 2.96478549591104E-02 
443	 2.99233613953738E-02 
444	 3.01641464754712E-02 
445	 3.04176815676156E-02 
446	 3.07292772735866E-02 
447	 3.10783283219525E-02 
448	 3.13254224689287E-02 
449	 3.14737917357833E-02 
450	 3.16420252333794E-02 
451	 3.19414881396269E-02 
452	 3.21969849129446E-02 
453	 3.23432471248292E-02 
454	 3.26272070039575E-02 
455	 0.032882155084245 
456	 3.30544831282055E-02 
457	 3.31595949644284E-02 
458	 3.33490943724333E-02 
459	 3.35110569846754E-02 
460	 3.36474169265349E-02 
461	 3.38763255260367E-02 
462	 3.39941084039504E-02 
463	 3.41244445580776E-02 
464	 3.43471288378651E-02 
465	 3.44204870442821E-02 
466	 3.46574296279392E-02 
467	 3.49602976482514E-02 
468	 3.50713646789075E-02 
469	 3.51725664981089E-02 
470	 3.53939422375378E-02 
471	 3.56840533337222E-02 
472	 3.57628463691858E-02 
473	 3.58820698370721E-02 
474	 3.60682444915427E-02 
475	 3.62829734702565E-02 
476	 3.64765349206372E-02 
477	 3.67012865774825E-02 
478	 0.036924290921525 
479	 3.70688938165019E-02 
480	 3.72494915975022E-02 
481	 3.74638065984616E-02 
482	 3.77117291666417E-02 
483	 3.80379437148946E-02 
484	 3.83168013801981E-02 
485	 3.85426527273424E-02 
486	 3.87527535486864E-02 
487	 3.89075027225279E-02 
488	 3.91935093453909E-02 
489	 3.96007367313742E-02 
490	 3.99286345375053E-02 
491	 4.01701346451942E-02 
492	 4.04067763070739E-02 
493	 4.07022109979628E-02 
494	 4.10197699321331E-02 
495	 4.13504640229577E-02 
496	 4.16593779505261E-02 
497	 4.19260731818621E-02 
498	 4.23474221462015E-02 
499	 4.27383033271558E-02 
500	 4.30226582800211E-02 
501	 4.33500172206061E-02 
502	 4.36762010786773E-02 
503	 4.40389055660255E-02 
504	 4.44472384010967E-02 
505	 4.47068832770201E-02 
506	 4.50294115815518E-02 
507	 4.54409135477254E-02 
508	 4.58114949231585E-02 
509	 4.61168641948274E-02 
510	 4.64256223217171E-02 
511	 0.046789050072849 
512	 4.71932194621988E-02 
513	 4.75309743326501E-02 
514	 4.78597796642543E-02 
515	 4.82868493114119E-02 
516	 4.86961926104826E-02 
517	 4.91355821564973E-02 
518	 4.96092695193392E-02 
519	 5.00551795375713E-02 
520	 5.04432614109189E-02 
521	 5.08507025015158E-02 
522	 0.051332883356098 
523	 5.17777885615902E-02 
524	 5.22036117833472E-02 
525	 5.26181454535933E-02 
526	 5.30333756365706E-02 
527	 0.053584012560234 
528	 5.40688408830309E-02 
529	 5.44150058997419E-02 
530	 5.48933668363141E-02 
531	 5.53562346058467E-02 
532	 5.58308706619072E-02 
533	 5.63663997411673E-02 
534	 5.67816874470964E-02 
535	 5.72197331174706E-02 
536	 5.77256774504198E-02 
537	 5.82091871055065E-02 
538	 0.058716944726533 
539	 5.92132001050707E-02 
540	 5.96787321981345E-02 
541	 6.02122779883872E-02 
542	 6.06999734450637E-02 
543	 6.11508740537557E-02 
544	 6.16467809493087E-02 
545	 6.21389280503984E-02 
546	 6.26344509875088E-02 
547	 6.31347235313293E-02 
548	 6.36204665239786E-02 
549	 0.064076062289184 
550	 6.45336218259292E-02 
551	 6.50271238809147E-02 
552	 6.54793436137203E-02 
553	 6.59663840508968E-02 
554	 6.64816552900517E-02 
555	 0.066917221628285 
556	 6.74513418932795E-02 
557	 6.79664293433786E-02 
558	 6.83578314737262E-02 
559	 6.88205511424407E-02 
560	 0.069260934151772 
561	 6.96483844923052E-02 
562	 7.00077071578216E-02 
563	 7.04858535551016E-02 
564	 7.09050790177911E-02 
565	 7.11964149476803E-02 
566	 7.15866608680319E-02 
567	 7.19421390377857E-02 
568	 7.22610499320308E-02 
569	 7.25717176472793E-02 
570	 7.28108624168851E-02 
571	 7.30485673723256E-02 
572	 7.33075878118878E-02 
573	 7.35503125318331E-02 
574	 7.37218492517082E-02 
575	 7.38597241001398E-02 
576	 7.40102184176043E-02 
577	 7.41727980841881E-02 
578	 7.43289764120364E-02 
579	 7.44383644686269E-02 
580	 0.074465049180444 
581	 7.45356756662757E-02 
582	 0.074617453178517 
583	 7.46603794916094E-02 
584	 7.46155017441512E-02 
585	 7.45916332901728E-02 
586	 7.45671037981855E-02 
587	 7.44803973610049E-02 
588	 7.43443819328856E-02 
589	 7.42055287648765E-02 
590	 0.074073525723598 
591	 7.39081058631479E-02 
592	 7.37201228606718E-02 
593	 7.34799799499224E-02 
594	 7.31603518616557E-02 
595	 7.27490169809317E-02 
596	 7.22831219612769E-02 
597	 7.17419155492703E-02 
598	 7.10967977893766E-02 
599	 7.05495073879475E-02 
600	 0.070064990865238 
601	 6.96501125361665E-02 
602	 6.94443989713795E-02 
603	 6.92495039399647E-02 
604	 6.90950483143906E-02 
605	 6.90607426549177E-02 
606	 6.90628655211573E-02 
607	 6.91062197835005E-02 
608	 6.91548459656743E-02 
609	 0.069135845902328 
610	 6.92613280852435E-02 
611	 6.93580942903941E-02 
612	 0.069303655615613 
613	 6.93684811348413E-02 
614	 6.94230761270646E-02 
615	 6.94310161593422E-02 
616	 6.94162212779586E-02 
617	 6.94624417258312E-02 
618	 6.95045476365263E-02 
619	 6.95174765622662E-02 
620	 6.95687568944706E-02 
621	 6.95772271904688E-02 
622	 6.95731876149595E-02 
623	 6.95951912925219E-02 
624	 6.95320466539008E-02 
625	 0.069495688014911 
626	 6.95087123590624E-02 
627	 6.95028671002317E-02 
628	 6.94885784554474E-02 
629	 6.95239097198306E-02 
630	 6.96062778476307E-02 
631	 6.95450794233312E-02 
632	 6.95126823277804E-02 
633	 6.95405011083098E-02 
634	 6.95803540100279E-02 
635	 6.95405887008262E-02 
636	 6.94954008293114E-02 
637	 6.94734142190369E-02 
638	 6.94136283142565E-02 
639	 6.93376997612376E-02 
640	 6.93015266926669E-02 
641	 6.93239375253937E-02 
642	 0.069235798577756 
643	 6.91471723427917E-02 
644	 6.90707853280906E-02 
645	 6.89439978692825E-02 
646	 6.88716500554749E-02 
647	 6.87947482208757E-02 
648	 6.86820590544469E-02 
649	 6.86567193232114E-02 
650	 6.84398723567279E-02 
651	 6.81599087448456E-02 
652	 6.80365959475646E-02 
653	 6.77218130072501E-02 
654	 6.72846657017795E-02 
655	 6.68013194586976E-02 
656	 6.63832107538168E-02 
657	 6.59883259580493E-02 
658	 6.55821767531911E-02 
659	 6.51896807549006E-02 
660	 6.50799271133216E-02 
661	 6.48533559281353E-02 
662	 6.45452664008071E-02 
663	 6.44425938400418E-02 
664	 6.43151662707542E-02 
665	 6.41576351515802E-02 
666	 6.40076185208225E-02 
667	 6.39346342386274E-02 
668	 6.38295003683525E-02 
669	 6.37576340038139E-02 
670	 0.063780411982257 
671	 6.36248612848378E-02 
672	 0.063563962253368 
673	 6.36336700791419E-02 
674	 6.36328534974898E-02 
675	 6.36480270516372E-02 
676	 6.36018845817781E-02 
677	 6.34893567634416E-02 
678	 6.35603283914356E-02 
679	 6.36144907786819E-02 
680	 6.36567141778547E-02 
681	 6.37556953516702E-02 
682	 6.37422797332427E-02 
683	 6.37109879370948E-02 
684	 6.37434974193574E-02 
685	 6.38843241601634E-02 
686	 6.38648892925812E-02 
687	 6.37193368161786E-02 
688	 6.36035080744983E-02 
689	 6.35891709838139E-02 
690	 6.35116380716476E-02 
691	 6.33118766567782E-02 
692	 6.30037742153299E-02 
693	 6.27210401670801E-02 
694	 6.24101987704704E-02 
695	 6.20100109015501E-02 
696	 6.14525737188221E-02 
697	 6.09145362491604E-02 
698	 6.03891098880298E-02 
699	 5.98215823224733E-02 
700	 5.91030032303674E-02 
701	 5.84037956041566E-02 
702	 5.77294611806543E-02 
703	 5.69370573075779E-02 
704	 5.61695470365746E-02 
705	 5.53697588417292E-02 
706	 5.44858579028284E-02 
707	 5.34978908720127E-02 
708	 5.24562010747121E-02 
709	 5.13796490654996E-02 
710	 0.05024153156139 
711	 4.88668636561286E-02 
712	 4.75103282912014E-02 
713	 4.62080589220494E-02 
714	 4.47176561077299E-02 
715	 4.33868285159845E-02 
716	 4.19846568242927E-02 
717	 4.03462747767867E-02 
718	 3.88088102906232E-02 
719	 3.72451975815164E-02 
720	 3.58195956860563E-02 
721	 3.45050719167841E-02 
722	 3.31840939070564E-02 
723	 0.031709388347307 
724	 3.01904419339647E-02 
725	 2.87137844016517E-02 
726	 2.71675079614873E-02 
727	 2.56524310903117E-02 
728	 2.41999300255188E-02 
729	 2.23893968799477E-02 
730	 2.06755070471387E-02 
731	 0.019225684606262 
732	 1.79808516735614E-02 
733	 1.69246716419344E-02 
734	 1.60166288635523E-02 
735	 1.52475840503271E-02 
736	 1.46324646251272E-02 
737	 0.014194143335187 
738	 1.38753436420893E-02 
739	 1.36297749741747E-02 
740	 1.35027191782729E-02 
741	 1.33207802172247E-02 
742	 1.31439764956794E-02 
743	 1.31240211590959E-02 
744	 1.30564130770801E-02 
745	 0.013022677819239 
746	 1.30289832654777E-02 
747	 1.29432696155517E-02 
748	 0.01287803804543 
749	 1.28449283096204E-02 
750	 1.28382132369628E-02 
751	 1.28913949198151E-02 
752	 1.28960184847413E-02 
753	 1.28527088766324E-02 
754	 0.012825343095469 
755	 1.28272898900733E-02 
756	 1.28573995321125E-02 
757	 1.28598397355559E-02 
758	 1.26506400911206E-02 
759	 1.27672805702359E-02 
760	 1.30412152644209E-02 
761	 1.28337327346048E-02 
762	 1.27562501657014E-02 
763	 1.29039728617609E-02 
764	 1.30375634103738E-02 
765	 1.29584119844772E-02 
766	 1.30435028482963E-02 
767	 1.31472656118314E-02 
768	 1.32009777095233E-02 
769	 1.32144102034303E-02 
770	 1.33358023952822E-02 
771	 1.34341821929951E-02 
772	 1.34341662524815E-02 
773	 1.35629876030744E-02 
774	 1.37812724383452E-02 
775	 1.39561894738779E-02 
776	 1.39872610302606E-02 
777	 1.42466706921048E-02 
778	 1.44354159466722E-02 
779	 0.014478445848369 
780	 1.45792053876002E-02 
781	 1.48807169740205E-02 
782	 1.50913395932808E-02 
783	 1.50975205232258E-02 
784	 1.53735648252432E-02 
785	 1.55971008857134E-02 
786	 1.58309356223447E-02 
787	 1.61795349509433E-02 
788	 0.016251913936933 
789	 1.64995025525173E-02 
790	 1.69390625520286E-02 
791	 1.72179143436443E-02 
792	 1.73399307877079E-02 
793	 1.75035799417574E-02 
794	 1.77956219026443E-02 
795	 1.80691402969229E-02 
796	 1.83510668852075E-02 
797	 1.86283695378812E-02 
798	 0.018888104230905 
799	 1.91238274535622E-02 
800	 1.93069140192665E-02 
801	 1.94876167490626E-02 
802	 1.97313397992977E-02 
803	 1.98567517807548E-02 
804	 1.99811129978263E-02 
805	 2.01042669793714E-02 
806	 2.00809262122223E-02 
807	 2.01796442347197E-02 
808	 2.02625092484743E-02 
809	 2.01796419647469E-02 
810	 1.99356457058444E-02 
811	 1.99013348527553E-02 
812	 1.99082284283284E-02 
813	 1.96462016688043E-02 
814	 0.01949436985589 
815	 1.91072884480204E-02 
816	 1.86332097834268E-02 
817	 1.85345350397127E-02 
818	 1.82844613678319E-02 
819	 1.78395333498382E-02 
820	 1.73000800613836E-02 
821	 0.016889841944191 
822	 1.62316820882693E-02 
823	 1.53574233275998E-02 
824	 0.014484105366321 
825	 1.39254135575413E-02 
826	 1.29898148394089E-02 
827	 1.19615085676738E-02 
828	 1.13868005125798E-02 
829	 1.05767931008653E-02 
830	 9.72766212852667E-03 
831	 9.1063294478283E-03 
832	 8.91282915480883E-03 
833	 8.39934660128245E-03 
834	 8.03327542234697E-03 
835	 7.92744150270914E-03 
836	 7.54998945812103E-03 
837	 7.48452666490286E-03 
838	 7.52872140215146E-03 
839	 7.39906257443643E-03 
840	 7.02400710658922E-03 
841	 6.94716444997862E-03 
842	 7.03951530111501E-03 
843	 6.95723114168684E-03 
844	 6.71124924046593E-03 
845	 6.64584969205348E-03 
846	 6.65242653424004E-03 
847	 6.37841642440315E-03 
848	 6.40898165033553E-03 
849	 6.36783238003076E-03 
850	 6.13413051315441E-03 
851	 6.03709895643405E-03 
852	 5.95742676935656E-03 
853	 5.93217119719352E-03 
854	 5.95902605888997E-03 
855	 5.89879676323719E-03 
856	 5.9009962449785E-03 
857	 5.79958929543915E-03 
858	 5.52756879619104E-03 
859	 5.70590390351163E-03 
860	 5.61578427344771E-03 
861	 5.34607605749062E-03 
862	 5.31909423092384E-03 
863	 5.14545263377972E-03 
864	 5.23816804422824E-03 
865	 5.46255507428584E-03 
866	 5.22184251033024E-03 
867	 5.02903232893204E-03 
868	 4.82056731354347E-03 
869	 4.70188216453853E-03 
870	 5.06166434173477E-03 
871	 4.95405596311552E-03 
872	 4.77664650508324E-03 
873	 4.86669730935178E-03 
874	 4.7518747410142E-03 
875	 4.50878315191208E-03 
876	 4.35883474180868E-03 
877	 4.42976230339282E-03 
878	 4.33499529823854E-03 
879	 4.28512654961039E-03 
880	 4.21948397557843E-03 
881	 4.0065737138445E-03 
882	 3.85637108788421E-03 
883	 3.88253468795056E-03 
884	 3.87118192417362E-03 
885	 3.51030889831042E-03 
886	 3.77346453654736E-03 
887	 3.94590074598911E-03 
888	 3.73925350238769E-03 
889	 3.5645613924717E-03 
890	 3.55919994491781E-03 
891	 3.55358138691608E-03 
892	 3.41652083986081E-03 
893	 3.20795937311269E-03 
894	 3.28652061612051E-03 
895	 3.2157723239299E-03 
896	 2.79824082509306E-03 
897	 3.26234452043786E-03 
898	 3.3055677659901E-03 
899	 3.02593764664049E-03 
900	 2.96348030367135E-03 
901	 3.24177930396504E-03 
902	 3.32077004951162E-03 
903	 3.12550721363657E-03 
904	 2.88558331292778E-03 
905	 3.2735988775918E-03 
906	 3.32971710345009E-03 
907	 3.07143194319684E-03 
908	 3.1131315255123E-03 
909	 2.53895592530104E-03 
910	 2.54240003147853E-03 
911	 2.99110195333169E-03 
912	 2.57544295630206E-03 
913	 1.94296325579415E-03 
914	 1.71252473124221E-03 
915	 2.03713789044959E-03 
916	 2.47287125265548E-03 
917	 2.21971689414984E-03 
918	 1.97259399996708E-03 
919	 2.19815173599766E-03 
920	 2.69491665819595E-03 
921	 2.51879125419016E-03 
922	 1.97692542504717E-03 
923	 1.64069765854059E-03 
924	 2.05200846372397E-03 
925	 1.9694095779735E-03 
926	 1.50744107632127E-03 
927	 1.4203682086858E-03 
928	 3.2425527583238E-03 
929	 2.68881672443198E-03 
930	 6.34674994950986E-04 
931	 5.53950940518068E-04 
932	 1.75959337678197E-03 
933	 2.0679489846534E-03 
934	 2.16177196183219E-03 
935	 2.94544941847756E-03 
936	-7.40275412508876E-04 
937	 2.27696465643338E-04 
938	 2.80827442613088E-03 
939	 1.68203167275927E-03 
940	-1.13306061447182E-03 
941	-1.31078678174989E-03 
942	 2.9684616965639E-04 
943	 6.46139646896595E-04 
944	 1.40857234907858E-03 
945	 2.74916542771749E-03 
946	 2.39203014385975E-03 
947	-1.57007545874833E-03 
948	-2.18862001853951E-03 
949	-1.05881568106266E-04 
950	 1.56771761335953E-03 
951	-7.35865799529116E-05 
952	 5.81865343613778E-04 
953	 1.12270177867684E-03 
954	 1.11350289220006E-03 
955	 1.75700291437667E-03 
956	 2.41172343998448E-03 
957	 2.00064743442254E-03 
958	 7.17237406530589E-04 
959	-1.77308620672062E-04 
960	 1.03243541609065E-03 
961	 1.26490123531999E-03 
962	 4.30677189148896E-04 
963	 6.92794458049088E-04 
964	 8.78565769344216E-04 
965	 1.24526394718068E-03 
966	 9.91907413560144E-04 
967	-8.79679715615686E-04 
968	 3.81397480189728E-05 
969	 1.33879131059623E-04 
970	-6.30187726945948E-04 
971	 8.79687751031322E-04 
972	 1.26926955257442E-03 
973	 5.25090306217195E-04 
974	 2.15695614454689E-04 
975	 2.17091148009162E-03 
976	 6.62357150709937E-04 
977	 6.13798242224066E-04 
978	 1.78273998051637E-03 
979	-5.36005484704906E-04 
980	 4.03556475004121E-05 
981	 2.02600207942321E-04 
982	-3.29755447011431E-04 
983	 9.1343581896802E-04 
984	 6.98600910509552E-04 
985	 6.34313545972066E-04 
986	 1.55424736338705E-03 
987	 2.87093400495594E-03 
988	 1.86369094392787E-03 
989	 8.59383008188702E-04 
990	 6.50583471746958E-04 
991	 6.04142401692725E-04 
992	 2.0500367131662E-03 
993	 2.55771827582053E-03 
994	 1.39126728516052E-03 
995	-2.51533335235533E-04 
996	 6.26516068030944E-04 
997	 1.11666283661856E-03 
998	 8.67324716040203E-04 
999	 1.10787458763475E-03 
1000	 3.52823739197239E-04 
1001	 6.5735744510349E-04 
1002	 6.9762877277073E-04 
1003	 5.9853328835472E-04 
1004	 3.94078178251454E-04 
1005	 4.91880141268433E-04 
1006	 7.96510548947721E-04 
1007	 8.94767261775475E-04 
1008	 1.04453207144916E-03 
1009	 9.9733230531955E-04 
1010	 8.09873838351241E-04 
1011	 8.54358701288142E-04 
1012	 1.1257499000263E-03 
1013	 1.23016420540241E-03 
1014	 1.2725592886378E-03 
1015	 1.13949259708201E-03 
1016	 1.13284066104742E-03 
1017	 1.11996055578825E-03 
1018	 1.19687694731187E-03 
1019	 1.35143904702302E-03 
1020	 1.44752877705237E-03 
1021	 1.62747710865086E-03 
1022	 1.68165237717421E-03 
1023	 1.48118596551941E-03 
1024	 1.61700787994225E-03 
1025	 1.73524223952718E-03 
1026	 1.7079043285115E-03 
1027	 1.77719239710114E-03 
1028	 2.02134874397957E-03 
1029	 1.95264993624563E-03 
1030	 1.78137724973146E-03 
1031	 1.57148025292125E-03 
1032	 9.84612904211471E-04 
1033	 8.44272134375484E-04 
1034	 8.70407023315474E-04 
1035	 9.18844311472964E-04 
1036	 1.34361053078243E-03 
1037	 1.54132533660291E-03 
1038	 1.69371625306888E-03 
1039	 1.71013767635171E-03 
1040	 1.70387155201092E-03 
1041	 1.42584812911993E-03 
1042	 1.42056254607283E-03 
1043	 1.41990107037004E-03 
1044	 1.50056920873977E-03 
1045	 1.85846362390272E-03 
1046	 1.85407276471889E-03 
1047	 1.7200846304967E-03 
1048	 1.53105954235361E-03 
1049	 9.48659619818208E-04 
1050	 8.21390534735733E-04 
1051	 8.93132424044576E-04 
1052	 9.28864528363608E-04 
1053	 1.22401144385961E-03 
1054	 1.41266799790984E-03 
1055	 1.54820024329908E-03 
1056	 1.65788076805477E-03 
1057	 1.74895966717403E-03 
1058	 1.90569767400324E-03 
1059	 1.85105282645552E-03 
1060	 1.58189225372955E-03 
1061	 1.53790631382311E-03 
1062	 1.48483233241446E-03 
1063	 1.45170692159692E-03 
1064	 0.001555762200575 
1065	 1.59546586524196E-03 
1066	 1.59508786195873E-03 
1067	 1.56379000051913E-03 
1068	 1.47248313477618E-03 
1069	 1.4834822120737E-03 
1070	 1.50139056907197E-03 
1071	 1.53277106741993E-03 
1072	 1.66080724292524E-03 
1073	 1.88731973448627E-03 
1074	 1.78858879112557E-03 
1075	 1.38084462667008E-03 
1076	 1.38173126779683E-03 
1077	 1.37858138419254E-03 
1078	 1.44825384169846E-03 
1079	 1.95830182071886E-03 
1080	 2.01030135569101E-03 
1081	 1.68926936472272E-03 
1082	 1.62336271878396E-03 
1083	 1.57596084355378E-03 
1084	 1.46389673698066E-03 
1085	 1.38456155022641E-03 
1086	 1.35690725127704E-03 
1087	 1.15967748165025E-03 
1088	 1.15966386254793E-03 
1089	 1.51203005927156E-03 
1090	 1.62227632352894E-03 
1091	 1.70390639315013E-03 
1092	 1.83500155494461E-03 
1093	 1.77477441898749E-03 
1094	 1.48517555565857E-03 
1095	 1.39868511159675E-03 
1096	 1.26957389057024E-03 
1097	 1.19072442553929E-03 
1098	 1.17126491348577E-03 
1099	 1.23757332644285E-03 
1100	 1.42058300752776E-03 
1101	 1.49457360376194E-03 
1102	 1.78168386747199E-03 
1103	 1.7528122298498E-03 
1104	 1.28152308770075E-03 
1105	 1.0163624389304E-03 
1106	 1.06449286653542E-03 
1107	 1.12331478114499E-03 
1108	 1.35102446289931E-03 
1109	 1.65215220629388E-03 
1110	 1.56148694685592E-03 
1111	 6.76028359282689E-04 
1112	 5.74610434589846E-04 
1113	 8.87254790436411E-04 
1114	 1.08413428841028E-03 
1115	 2.07628422868116E-03 
1116	 2.21142664417388E-03 
1117	 7.89271080533748E-04 
1118	 7.1618239753839E-04 
1119	 1.49047608707488E-03 
1120	 1.90019107452704E-03 
1121	 3.78472683128683E-03 
1122	 4.86882835095907E-03 
1123	 3.41316184708514E-03 
1124	 1.32343214055987E-03 
1125	 9.11732375794106E-04 
1126	 2.59914726780685E-03 
1127	 3.22545466809126E-03 
1128	 2.96503481336566E-03 
1129	 2.73576471777013E-03 
1130	 7.73797690793926E-04 
1131	 2.18391984431615E-04 
1132	 1.00137682160528E-03 
1133	 1.51534564440824E-03 
1134	 2.07264008973194E-03 
1135	 2.23189582768079E-03 
1136	 1.93975800631962E-03 
1137	 1.83980475698269E-03 
1138	 1.34767221045515E-03 
1139	 2.22566343583508E-03 
1140	 2.31965738863077E-03 
1141	 2.24616814471049E-03 
1142	 2.12033544968337E-03 
1143	 1.59899419355916E-03 
1144	 1.80834841251967E-03 
1145	 2.99900741000759E-03 
1146	 3.35728894512995E-03 
1147	 1.74942531741141E-03 
1148	 6.84224600794382E-04 
1149	 3.50251298896072E-04 
1150	-2.20152751133664E-05 
1151	 2.57877151454998E-04 
1152	 6.54783829268198E-04 
1153	 8.64805194756894E-04 
1154	 8.15389649564254E-04 
1155	 8.45807851135667E-04 
1156	 0.001216054052102 
1157	 6.44244058790663E-04 
1158	 4.28433327348262E-04 
1159	 8.73149859755618E-04 
1160	 9.45298354186132E-04 
1161	 6.9857442367187E-04 
1162	 7.33136413200264E-04 
1163	 6.35414137410086E-04 
1164	 3.42913814243401E-04 
1165	 4.36196819202822E-04 
1166	 5.26538617332917E-04 
1167	 4.95423397289656E-04 
1168	 5.82471849388018E-04 
1169	 6.22174380437089E-04 
1170	 7.20439897150282E-04 
1171	 7.41979851818285E-04 
1172	 5.15264775851857E-04 
1173	 4.94707745604411E-04 
1174	 5.97274756808643E-04 
1175	 6.93600774460076E-04 
1176	 5.81174896322473E-04 
1177	 4.60226246558922E-04 
1178	 3.24196699009643E-04 
1179	 3.43324859749237E-04 
1180	 4.85015125725071E-04 
1181	 5.65698892682662E-04 
1182	 6.09643422194491E-04 
1183	 5.72967576788902E-04 
1184	 5.54933261507638E-04 
1185	 6.50218576934547E-04 
1186	 5.94130295033473E-04 
1187	 4.84757305036788E-04 
1188	 4.4766699321941E-04 
1189	 4.34058430195406E-04 
1190	 5.48071956973242E-04 
1191	 6.09222105591551E-04 
1192	 5.80377536928201E-04 
1193	 4.08729722856308E-04 
1194	 3.39594771020326E-04 
1195	 5.41211301835696E-04 
1196	 7.47878452177927E-04 
1197	 8.24119257212915E-04 
1198	 9.00527047990617E-04 
1199	 7.55166143655519E-04 
1200	 4.28027047986238E-04 
1201	 3.84614007964463E-04 
1202	 5.43588487105344E-04 
1203	 4.53797781140046E-04 
1204	 3.95836069632151E-04 
1205	 7.32355652284494E-04 
1206	 8.78928599479015E-04 
1207	 6.87741592388436E-04 
1208	 7.19376559069272E-04 
1209	 8.43110618291534E-04 
1210	 6.81201463588654E-04 
1211	 5.51792676952488E-04 
1212	 6.71985669422745E-04 
1213	 5.7741762495348E-04 
1214	 5.44377121544681E-04 
1215	 5.33684929156945E-04 
1216	 8.73900000591947E-04 
1217	 8.75780371720393E-04 
1218	 6.32535752950286E-04 
1219	 6.10199434405537E-04 
1220	 7.56051742556995E-04 
1221	 7.72127431205288E-04 
1222	 8.16071459829979E-04 
1223	 9.66160758803933E-04 
1224	 8.2938305682973E-04 
1225	 6.78350465570216E-04 
1226	 8.42273877209481E-04 
1227	 8.05708129805552E-04 
1228	 6.19365969013353E-04 
1229	 6.81188886711571E-04 
1230	 7.21460891801838E-04 
1231	 7.0465144463509E-04 
1232	 7.09639400503624E-04 
1233	 6.8823159719702E-04 
1234	 6.91620359680919E-04 
1235	 6.74977666398119E-04 
1236	 6.17687431918217E-04 
1237	 6.83111839899337E-04 
1238	 8.76927262265727E-04 
1239	 8.18060095625377E-04 
1240	 6.8933459851539E-04 
1241	 7.45812881014677E-04 
1242	 6.54369459214311E-04 
1243	 5.33996464783189E-04 
1244	 7.33825762294368E-04 
1245	 8.30235825246062E-04 
1246	 5.59077143477025E-04 
1247	 5.585478129096E-04 
1248	 8.69165658730857E-04 
1249	 8.7954049991191E-04 
1250	 8.1748374987334E-04 
1251	 1.00638275833967E-03 
1252	 9.4815797188501E-04 
1253	 7.10092643291399E-04 
1254	 8.05337644089613E-04 
1255	 8.69690416845657E-04 
1256	 8.19130547119438E-04 
1257	 5.98758704230106E-04 
1258	 5.59428666362285E-04 
1259	 5.55929315350605E-04 
1260	 5.64986250007444E-04 
1261	 6.39750913888325E-04 
1262	 6.94562325005504E-04 
1263	 7.87894048408285E-04 
1264	 8.24522369934692E-04 
1265	 7.31305315210426E-04 
1266	 5.99686049267895E-04 
1267	 5.40558168006705E-04 
1268	 4.98947431373628E-04 
1269	 5.54772167238891E-04 
1270	 6.28353311173284E-04 
1271	 5.61118234096196E-04 
1272	 5.61929868978442E-04 
1273	 6.95575410095166E-04 
1274	 7.86921438478059E-04 
1275	 6.71147590932232E-04 
1276	 4.3961919932769E-04 
1277	 3.90980493763918E-04 
1278	 4.92653362653475E-04 
1279	 5.78426755915699E-04 
1280	 7.27355382637372E-04 
1281	 7.61600627685276E-04 
1282	 3.84516306387522E-04 
1283	 3.43929300475448E-04 
1284	 6.32883599269251E-04 
1285	 6.85093907736732E-04 
1286	 6.30958666130348E-04 
1287	 6.76488980613195E-04 
1288	 7.58758042121943E-04 
1289	 7.17835855359451E-04 
1290	 6.11639773599902E-04 
1291	 6.20284401783912E-04 
1292	 6.70819060438711E-04 
1293	 5.95122539096953E-04 
1294	 4.93463695791399E-04 
1295	 4.68465699861891E-04 
1296	 4.40272066430262E-04 
1297	 4.34175426604892E-04 
1298	 5.59102447465117E-04 
1299	 5.524400215383E-04 
1300	 4.18772421396664E-04 
1301	 3.97553465580124E-04 
1302	 4.36020026303469E-04 
1303	 5.78459430560163E-04 
1304	 5.66112048887402E-04 
1305	 3.76795128477824E-04 
1306	 3.50671344091728E-04 
1307	 2.3861185936733E-04 
1308	 3.18304388132976E-04 
1309	 7.61619870082054E-04 
1310	 8.35742101204464E-04 
1311	 6.41289450222443E-04 
1312	 7.57176800518702E-04 
1313	 9.82599910254731E-04 
1314	 1.02663999265724E-03 
1315	 1.24209942933815E-03 
1316	 1.34216351115123E-03 
1317	 9.83286437885193E-04 
1318	 9.23680027518426E-04 
1319	 1.27256212349408E-03 
1320	 1.22704578397405E-03 
1321	 8.46332028968438E-04 
1322	 9.17674938523557E-04 
1323	 1.07154501936617E-03 
1324	 9.91226365027185E-04 
1325	 1.01600724091506E-03 
1326	 9.98406466862662E-04 
1327	 1.04233560717636E-03 
1328	 1.39900849504525E-03 
1329	 1.53563988058866E-03 
1330	 1.31170253722562E-03 
1331	 7.8546348588261E-04 
1332	-1.29364461215972E-05 
1333	 9.57340122281691E-05 
1334	 1.17405587501232E-03 
1335	 1.32010397167943E-03 
1336	 1.03481967592074E-03 
1337	 1.19271454842601E-03 
1338	 1.34214529043961E-03 
1339	 1.27522214503177E-03 
1340	 1.36236442968634E-03 
1341	 1.45463594241199E-03 
1342	 1.01671626071891E-03 
1343	 7.84538050070945E-04 
1344	 1.19997298034334E-03 
1345	 1.55747826698894E-03 
1346	 1.76610197948606E-03 
1347	 1.78685429770934E-03 
1348	 1.3791466243009E-03 
1349	 1.81255259823377E-03 
1350	 2.93891600136115E-03 
1351	 4.39556529680233E-03 
1352	 1.01949981228946E-02 
1353	 1.58354655271552E-02 
1354	 2.31583997655112E-02 
1355	 1.88255548574757E-02 
1356	 2.77546472957627E-02 
1357	 5.88077849820983E-02 
1358	 7.67631500010678E-02 
1359	 8.66415584344057E-02 
1360	 0.11098078589999 
1361	 0.113437953315203 
1362	 0.147233821418525 
1363	 0.288516321906567 
1364	 0.279769833882563 
1365	 0.131496679105664 
1366	 0.129523950521163 
1367	 0.159230204586392 
1368	 0.172763871291224 
1369	 0.322111422403463 
1370	 0.292605166513948 
1371	 3.23274606450917E-02 
1372	 8.1701822762447E-05 
1373	-8.18277494221406E-02 
1374	-6.87659037699247E-02 
1375	 0.346755964805563 
1376	 0.416797002798954 
1377	 0.281553282073212 
1378	 0.286336801055577 
1379	 0.180909308037097 
1380	 0.119584214139425 
1381	 0.207687085947745 
1382	 0.151026161904933 
1383	-0.288465233701416 
1384	-0.273409342456402 
1385	 4.53881856212496E-02 
1386	 2.31657349540359E-02 
1387	-1.69028940327032E-02 
1388	 0.112795689875364 
1389	 0.176016165766912 
1390	-7.99304727400353E-02 
1391	-0.192925593432034 
1392	-9.52474727217961E-02 
1393	 5.32513310132081E-02 
1394	-2.28338159826468E-02 
1395	-0.120301682101303 
1396	 9.14797442723449E-02 
1397	 7.12430832285601E-02 
1398	-0.119960377104792 
1399	-0.12018703351326 
1400	 5.98755110533431E-02 
1401	 0.172509477412271 
1402	 7.24158100840753E-02 
1403	-4.04261322454724E-02 
1404	-4.23228946106448E-02 
1405	-3.79990089989862E-02 
1406	-6.50948292402063E-02 
1407	-3.58773112959889E-02 
1408	 0.056911062284881 
1409	 5.33789354705045E-02 
1410	 1.89517041877512E-02 
1411	 1.53498590497511E-02 
1412	 6.31202824636373E-03 
1413	 3.78470048174356E-03 
1414	 6.44449892704823E-03 
1415	 1.61902626240695E-02 
1416	 3.37941485637513E-02 
1417	 2.85983194593597E-02 
1418	 2.19805382391895E-02 
1419	 1.59698875054787E-02 
1420	-2.66414986442901E-03 
1421	-4.99851839641305E-03 
1422	 2.11865235893041E-03 
1423	 2.41080003460573E-03 
1424	 2.82353583470325E-03 
1425	 3.46802648425646E-03 
1426	 1.5247435914028E-03 
1427	 2.42984723617155E-03 
1428	 0.007275787016959 
1429	 7.1662024955889E-03 
1430	 4.0526136891198E-03 
1431	 4.27136312362479E-03 
1432	 5.56528472883794E-03 
1433	 4.29283810770904E-03 
1434	 1.4020366445702E-03 
1435	 1.97668214197715E-03 
1436	 4.93649257480851E-03 
1437	 3.66493424117858E-03 
1438	-2.26476838486759E-03 
1439	-4.58589328907231E-03 
1440	-3.19035367939068E-03 
1441	-3.24915432943792E-03 
1442	-2.85104955519151E-03 
1443	-1.58691198693439E-04 
1444	 8.01798388514009E-06 
1445	-2.69510466542156E-03 
1446	-3.11168052045925E-03 
1447	-9.20965446598234E-04 
1448	 3.98584015862366E-04 
1449	-5.43456482609792E-05 
1450	-4.06224127005457E-04 
1451	-6.51246034510043E-05 
1452	-7.33927785528015E-04 
1453	-1.54346222340861E-03 
1454	-1.10681771537221E-03 
1455	 1.20703477611815E-03 
1456	 1.32771125234793E-03 
1457	 3.758935032141E-04 
1458	 6.84347902704267E-04 
1459	 1.2698514939788E-03 
1460	 1.22041623274557E-03 
1461	 1.41921001610357E-03 
1462	 1.68400127005681E-03 
1463	 1.29090516813352E-03 
1464	 1.30919162019239E-03 
1465	 2.25556078103265E-03 
1466	 2.17921729264573E-03 
1467	 8.5872116357694E-04 
1468	 9.98107328544842E-04 
1469	 2.27338860737235E-03 
1470	 2.14434433903381E-03 
1471	 1.93239856708259E-03 
1472	 1.61492307139182E-03 
1473	 1.87011043059568E-05 
1474	-5.61092710399528E-04 
1475	-1.48524138583085E-04 
1476	-2.00642143788443E-04 
1477	-7.70342994551951E-04 
1478	-7.01311881203802E-04 
1479	-1.28890638589333E-04 
1480	 2.7597528348472E-04 
1481	 0.001144993424844 
1482	 1.05487175743567E-03 
1483	 1.69602157037934E-04 
1484	 3.00451512992263E-05 
1485	 4.52991906700799E-05 
1486	-1.89210497032559E-04 
1487	-4.93365532727492E-04 
1488	-2.76289117060159E-04 
1489	 1.17193915751725E-05 
1490	 8.32405508105174E-05 
1491	 4.85462281085349E-04 
1492	 7.49264430635491E-04 
1493	 7.24280702549415E-04 
1494	 7.31060516651695E-04 
1495	 9.57560454735758E-04 
1496	 1.00418099340254E-03 
1497	 7.09344227535742E-04 
1498	 6.1270693755623E-04 
1499	 6.06818539568235E-04 
1500	 6.47757778904621E-04 
1501	 9.4430526756073E-04 
1502	 9.37991409886963E-04 
1503	 6.14549800762882E-04 
1504	 5.6367186571824E-04 
1505	 6.02174982448518E-04 
1506	 4.89382444761143E-04 
1507	 3.30248921863263E-04 
1508	 4.24620209867612E-04 
1509	 7.07543507407838E-04 
1510	 7.19439254031526E-04 
1511	 5.18074781947933E-04 
1512	 6.03097773427714E-04 
1513	 4.71387672170193E-04 
1514	 1.52204483407366E-04 
1515	 3.75323821677709E-04 
1516	 6.06351934638904E-04 
1517	 4.23830045818757E-04 
1518	 3.59920027067858E-04 
1519	 6.02631782851592E-04 
1520	 6.15184363097986E-04 
1521	 3.82605980042172E-04 
1522	 4.27139035333973E-04 
1523	 3.9656121866829E-04 
1524	 3.71811527836362E-04 
1525	 6.81989340390266E-04 
1526	 7.66480033007165E-04 
1527	 6.53684682899452E-04 
1528	 6.07173704937247E-04 
1529	 4.6579046595652E-04 
1530	 2.44597655990682E-04 
1531	 1.17036017210484E-04 
1532	 9.78759376188519E-05 
1533	 9.61730087531247E-05 
1534	 1.56160027471615E-04 
1535	 2.49778174283822E-04 
1536	 2.56489008495377E-04 
1537	 1.68505899964111E-04 
1538	 1.67032743019421E-04 
1539	 2.78831301870164E-04 
1540	 2.96033327870879E-04 
1541	 3.17516506806115E-04 
1542	 3.36247413377442E-04 
1543	 1.78448263090072E-04 
1544	 3.77575267378816E-05 
1545	 3.80035360019376E-05 
1546	 1.62475333937561E-04 
1547	 1.74027640770213E-04 
1548	 8.23438670852762E-05 
1549	 1.71291568048871E-04 
1550	 2.52675252659213E-04 
1551	 3.22865120495699E-04 
1552	 4.6794490387423E-04 
1553	 5.34386165184821E-04 
1554	 4.92660092115219E-04 
1555	 4.7149620493151E-04 
1556	 5.33511667859242E-04 
1557	 5.70582408418181E-04 
1558	 5.8353019812421E-04 
1559	 6.82003705526835E-04 
1560	 7.02286729892741E-04 
1561	 4.42896133494133E-04 
1562	 2.99006789594287E-04 
1563	 3.97254534138936E-04 
1564	 4.11023466442069E-04 
1565	 4.62911092793199E-04 
1566	 6.11221694423837E-04 
1567	 6.64094992888407E-04 
1568	 5.05353411962539E-04 
1569	 3.98989272387479E-04 
1570	 4.65368074364408E-04 
1571	 3.7167008557142E-04 
1572	 4.55574151672701E-04 
1573	 6.26249495969642E-04 
1574	 4.21984105819346E-04 
1575	 2.48741089633225E-04 
1576	 1.06040211785704E-04 
1577	 1.38778559593038E-04 
1578	 3.74868001519808E-04 
1579	 2.00655973909166E-04 
1580	 1.10406603312585E-04 
1581	 3.56346768176063E-04 
1582	 2.3578207617627E-04 
1583	 1.35922435546743E-04 
1584	 3.48235942554646E-04 
1585	 3.37013749201599E-04 
1586	 2.36729239698853E-04 
1587	 3.85828094394362E-04 
1588	 5.88848950854523E-04 
1589	 4.41388258335434E-04 
1590	 3.76464363868171E-04 
1591	 6.57205566855112E-04 
1592	 6.78091677179537E-04 
1593	 5.84191452881906E-04 
1594	 5.51935651052139E-04 
1595	 4.53702672160961E-04 
1596	 3.98407398202706E-04 
1597	 4.12150244076331E-04 
1598	 4.81536856492795E-04 
1599	 4.08433104470156E-04 
1600	 2.789158942629E-04 
1601	 1.84532996993338E-04 
1602	 1.50155001124274E-04 
1603	 3.31426491521061E-04 
1604	 3.27719032264218E-04 
1605	 3.26090460369248E-05 
1606	 3.90587253468471E-05 
1607	 1.29412810797018E-04 
1608	 4.06913433067808E-06 
1609	 1.7324828030343E-04 
1610	 3.527063764398E-04 
1611	 2.6676458295981E-04 
1612	 2.57309326756984E-04 
1613	 4.34037557373442E-04 
1614	 4.40036985639486E-04 
1615	 1.58542039667086E-04 
1616	 2.1912291276014E-04 
1617	 4.6807063273782E-04 
1618	 3.86611580355148E-04 
1619	 2.40692951024911E-04 
1620	 2.95884964796033E-04 
1621	 4.02497073116642E-04 
1622	 4.89047453317356E-04 
1623	 6.23695111464319E-04 
1624	 6.84651632589402E-04 
1625	 5.84713261939967E-04 
1626	 5.26101273836606E-04 
1627	 5.86821346380499E-04 
1628	 5.480300792963E-04 
1629	 4.132418163386E-04 
1630	 2.86275104371976E-04 
1631	 2.50805666355341E-04 
1632	 4.50350033790278E-04 
1633	 5.86664159239458E-04 
1634	 5.08028576660111E-04 
1635	 5.68577525951988E-04 
1636	 6.0529093215927E-04 
1637	 5.1226519268019E-04 
1638	 6.30782131588637E-04 
1639	 7.65999018448993E-04 
1640	 6.39717657939916E-04 
1641	 4.08009338218856E-04 
1642	 2.97785466865533E-04 
1643	 4.46957198385765E-04 
1644	 5.03255148713496E-04 
1645	 4.11013609833323E-04 
1646	 6.66661408158367E-04 
1647	 7.2549833406446E-04 
1648	 5.2342698828954E-04 
1649	 6.82408140380431E-04 
1650	 6.23090015299885E-04 
1651	 3.42273954357345E-04 
1652	 4.5794630598225E-04 
1653	 5.8191170557448E-04 
1654	 5.64019161492758E-04 
1655	 5.12170522284289E-04 
1656	 5.11043506637077E-04 
1657	 4.33612623378127E-04 
1658	 5.3994972614199E-04 
1659	 8.2184908057319E-04 
1660	 7.82050074645796E-04 
1661	 7.18188980062049E-04 
1662	 7.79287567841552E-04 
1663	 6.33788011474003E-04 
1664	 5.51670385197624E-04 
1665	 6.08054018320664E-04 
1666	 6.71719618792727E-04 
1667	 7.66984456053407E-04 
1668	 1.18371114823385E-03 
1669	 1.08116217613083E-03 
1670	 8.67448196937323E-04 
1671	 8.48941273548512E-04 
1672	 6.91252613106496E-04 
1673	 5.15689094898825E-04 
1674	 7.09797828359303E-04 
1675	 8.22709425526121E-04 
1676	 4.11421160502522E-04 
1677	 4.50046082262342E-04 
1678	 7.48461233503845E-04 
1679	 4.6129358376691E-04 
1680	 3.11970521216247E-04 
1681	 2.5885967313095E-04 
1682	-1.29093786382318E-04 
1683	-3.40588661475651E-05 
1684	 5.52093201877634E-04 
1685	 5.97730119638163E-04 
1686	 5.70995132677569E-04 
1687	 6.50356986663868E-04 
1688	 4.00678456895671E-04 
1689	 6.75019951414855E-04 
1690	 1.11031045165115E-03 
1691	 8.52414074525729E-04 
1692	 7.37144893606376E-04 
1693	 8.95695916911753E-04 
1694	 6.49473243280543E-04 
1695	 6.50504429113839E-04 
1696	 7.47546459646711E-04 
1697	 3.66376079128128E-04 
1698	 1.12886363629084E-04 
1699	 4.61729736997258E-05 
1700	 1.50821335433676E-04 
1701	 3.02253208974453E-04 
1702	 4.7014174679583E-04 
1703	 8.358801885166E-04 
1704	 8.9657678106047E-04 
1705	 7.14593132185474E-04 
1706	 7.95908366888614E-04 
1707	 9.08007878370767E-04 
1708	 6.65035837028334E-04 
1709	 6.94084850503642E-04 
1710	 1.01773666830939E-03 
1711	 7.03870795525549E-04 
1712	 4.75719884227909E-04 
1713	 6.53621121729518E-04 
1714	 6.78866729409775E-04 
1715	 9.78824753603487E-04 
1716	 7.09547238976598E-04 
1717	 4.02291307982112E-04 
1718	 2.88969480170989E-04 
1719	 2.20603924796381E-04 
1720	 2.23856503218328E-04 
1721	 4.08828027853827E-04 
1722	 1.6801381649279E-04 
1723	-3.69682264486196E-04 
1724	-1.99520410960157E-04 
1725	 6.51601372335055E-05 
1726	-3.59103309634015E-05 
1727	 1.89683690181144E-04 
1728	 3.5136305558919E-04 
1729	 1.44776788678134E-04 
1730	 2.63787355284675E-05 
1731	 3.41578960952443E-04 
1732	 4.10830938222456E-04 
1733	 2.56581538359352E-05 
1734	 1.67651005828675E-04 
1735	 3.17245089253414E-04 
1736	 4.31067373263591E-04 
1737	 1.05671519257064E-03 
1738	 8.72723404041397E-04 
1739	 3.58691211189829E-04 
1740	 5.11238925860113E-04 
1741	 3.43235745646728E-04 
1742	 5.6504158139651E-04 
1743	 1.12739756423856E-03 
1744	 7.19154332633862E-04 
1745	 4.16562267924768E-04 
1746	 1.14319997197049E-03 
1747	 1.05878008110011E-03 
1748	 8.19392540945188E-04 
1749	 8.78518361134838E-04 
1750	 2.91964594936681E-04 
1751	 1.55083754735975E-04 
1752	 1.0122645713601E-03 
1753	 1.10053649384315E-03 
1754	 5.87204002444911E-04 
1755	 5.98181646309088E-04 
1756	 4.57953204010041E-04 
1757	 4.56178494030965E-04 
1758	 1.09795529499682E-03 
1759	 8.75225115179834E-04 
1760	 8.94689843926127E-04 
1761	 1.40852678952792E-03 
1762	 1.07098869157491E-03 
1763	 8.46166708033585E-04 
1764	 1.28905467985492E-03 
1765	 1.06163334252099E-03 
1766	 9.59008139565435E-04 
1767	 1.28495484889273E-03 
1768	 8.08405749715304E-04 
1769	 6.24107967244172E-04 
1770	 8.28368887202339E-04 
1771	 9.69884932591568E-04 
1772	 1.71980584833166E-03 
1773	 0.00188894096413 
1774	 9.78230643383253E-04 
1775	 2.71367490123368E-04 
1776	-7.88718694459818E-06 
1777	 5.50314093731486E-05 
1778	 2.17493296255521E-04 
1779	 7.61209787768827E-04 
1780	 8.83812002024442E-04 
1781	 1.02021156207894E-03 
1782	 1.01590708839684E-03 
1783	 4.73103015946491E-04 
1784	 6.24739188038861E-04 
1785	 1.12669903099492E-03 
1786	 1.01902081042845E-03 
1787	 1.31934813899812E-03 
1788	 1.03952973676708E-03 
1789	-7.65716525062426E-04 
1790	 2.60772882931073E-04 
1791	 1.08653296204581E-03 
1792	 2.55276957508832E-03 
1793	 4.32157316122299E-03 
1794	 4.77352362660054E-03 
1795	 4.78539715007955E-03 
1796	 4.73142384793573E-03 
1797	 6.39563574710296E-03 
1798	 6.90752190138858E-03 
1799	 7.80838278253606E-03 
1800	 7.16113506019464E-03 
1801	 6.57069743369168E-03 
1802	 5.88487955976434E-03 
1803	 5.74648153894431E-03 
1804	 6.34466243447283E-03 
1805	 8.90262146039811E-03 
1806	 1.62989340706065E-02 
1807	 1.94392227923572E-02 
1808	 1.98327474532443E-02 
1809	 1.79829979619506E-02 
1810	 5.59957490223148E-03 
1811	-8.73291666478203E-04 
1812	-5.27425675479012E-04 
1813	-8.7132143667163E-03 
1814	-2.93151073881645E-02 
1815	-0.035976942680808 
1816	-3.66969413620628E-02 
1817	-0.036800781004202 
1818	-6.53750567368007E-03 
1819	-7.07164151488336E-02 
1820	-0.151780171251361 
1821	-6.67841565662945E-02 
1822	-1.69679869247279E-02 
1823	 0.238798349759834 
1824	 0.348951764255553 
1825	 0.264576921544959 
1826	 0.151062724063056 
1827	-0.390305121848084 
1828	-0.55934170606731 
1829	-0.487540329467436 
1830	-0.259433327436527 
1831	-0.611335342973736 
1832	 0.812093245429319 
1833	 2.09046204799306 
1834	 1.4766771954879 
1835	 0.307087044293371 
1836	 3.14234476858958E-02 
1837	-0.185946452584061 
1838	-0.234025099048592 
1839	-1.12856814891213E-02 
1840	-1.98132458601807E-02 
1841	-0.314695817888605 
1842	 12.0498600451738 
1843	 0.957834099424398 
1844	-9.76292166007914E-02 
1845	-0.380655062302246 
1846	-2.49428087384496 
1847	-4.70753120881479 
1848	 30.2021842868467 
1849	 1.81439423288167 
1850	-10.6712316316553 
1851	-2.22365819630992 
1852	-1.08505510185817 
1853	-0.771765662279696 
1854	-0.549609443816211 
1855	 0.258060276702115 
1856	 0.373793761591913 
1857	-10.0888913895273 
1858	 0.430824407108233 
1859	 0.424133260189117 
1860	 0.85662260809331 
1861	 2.13057680048938 
1862	 3.57442709461005 
1863	-2.18362615644724 
1864	-1.01437682825878 
1865	-1.3673031479556 
1866	 9.1798826409737 
1867	 6.920825561445 
1868	 1.13182097051037 
1869	-2.87584672245223 
1870	 0.242788200237679 
1871	 0.58677492781843 
1872	 0.189991349731804 
1873	-0.35721179153027 
1874	-0.246429851341618 
1875	 2.02715573579756E-03 
1876	 5.37382007264355E-02 
1877	 2.06558524348593E-02 
1878	 0.11096849815195 
1879	 0.846632417628801 
1880	 2.5952875228826 
1881	-0.34988551964041 
1882	-0.139564167536481 
1883	-0.610175273365365 
1884	-0.355131726928899 
1885	 0.626406522066954 
1886	 1.22124945379837 
1887	-0.371600952434491 
1888	-0.326998918020186 
1889	-0.699088399388234 
1890	-0.398417620856751 
1891	-0.285410387723855 
1892	-0.847468084143126 
1893	-1.44442665013532 
1894	-0.273517406741583 
1895	-0.527905997755148 
1896	 20.5069569160179 
1897	 0.545730168303116 
1898	 4.30524468657411 
1899	-2.51873298900448 
1900	-0.564889923833025 
1901	 0.250532690774388 
1902	 0.228374222948058 
1903	 1.56531982915158E-02 
1904	 0.375240714778838 
1905	-3.40021512237894 
1906	-0.662580951250418 
1907	-0.402134888076803 
1908	-0.332970138892654 
1909	-0.279542080576388 
1910	-0.121899336315985 
1911	-0.104136849192406 
1912	-0.147868223662281 
1913	-0.055855945502132 
1914	-1.15953924451124 
1915	-0.848910508134536 
1916	 0.139225439359783 
1917	 0.22376191180827 
1918	 4.25493399557516E-02 
1919	-0.40512552440465 
1920	-0.718897501334777 
1921	-0.998774557327795 
1922	-2.21478759548139E-03 
1923	 0.250973178616627 
1924	-0.3630200439209 
1925	-0.655925905843924 
1926	-0.533071812254389 
1927	-0.342937317989321 
1928	-0.176676172337372 
1929	 8.83248877459548E-02 
1930	 0.132514136632148 
1931	-2.52194075814551E-03 
1932	-5.31201275674883E-02 
1933	-1.74015598656287E-02 
1934	 7.69756855183049E-03 
1935	 7.3198098900705E-05 
1936	 2.60942321206787E-02 
1937	 4.00839032343321E-02 
1938	 6.04856686763127E-02 
1939	 6.22480626930676E-02 
1940	 8.11599207275034E-02 
1941	 5.86801278312959E-02 
1942	 2.23057112500268E-02 
1943	-4.66229191533125E-03 
1944	-2.11106466800464E-02 
1945	-1.54891527658296E-02 
1946	-1.20260781398356E-02 
1947	-2.07040199561392E-02 
1948	-1.68589576714672E-02 
1949	-1.73222353692984E-02 
1950	-1.83705831375037E-02 
1951	-1.49217151019022E-02 
1952	-9.63727618792409E-03 
1953	-6.1229491787666E-03 
1954	 4.92661360669563E-03 
1955	 1.14140834583767E-02 
1956	 1.20205334069109E-02 
1957	 1.07087350340376E-02 
1958	-1.00934091689134E-03 
1959	-7.77704058669417E-03 
1960	-2.03626773709037E-03 
1961	 2.88462060716136E-03 
1962	 4.26086006049801E-03 
1963	 5.72853662454503E-03 
1964	 5.44700967097157E-03 
1965	 5.20722913452974E-03 
1966	 4.72380031353227E-03 
1967	 4.96410326511286E-03 
1968	 3.4393617711946E-03 
1969	 3.14833004159223E-03 
1970	 3.81359472326274E-03 
1971	 2.74705203505677E-03 
1972	 2.44835807349832E-03 
1973	 1.87847714685386E-03 
1974	-3.43031448361141E-04 
1975	-1.27790437196372E-03 
1976	-5.14856129876074E-04 
1977	 5.65975835116266E-05 
1978	-2.14631649061037E-04 
1979	-1.83311212716109E-04 
1980	-4.40825922401699E-05 
1981	 2.26956368849319E-04 
1982	-3.42520580000162E-04 
1983	-8.82142642682103E-04 
1984	-9.46254628326435E-04 
1985	-1.06281129484846E-03 
1986	-6.21526756865818E-04 
1987	 4.71088928130963E-04 
1988	 1.10143244070012E-03 
1989	 6.30703448046176E-04 
1990	 2.66911523630192E-04 
1991	 4.94336905697033E-04 
1992	 6.25985746412514E-04 
1993	 8.35571074619116E-04 
1994	 7.53651292437023E-04 
1995	 2.65763347741126E-04 
1996	-6.3957843576786E-04 
1997	-2.04536112114292E-04 
1998	 1.00894049648138E-03 
1999	 2.08805875183007E-03 
2000	 2.31576868778909E-03 
2001	 8.31126748762749E-04 
2002	-6.90368200971515E-04 
2003	-7.6853012581598E-04 
2004	 1.53647755859509E-03 
2005	 4.68426026075765E-03 
2006	 3.86416297035345E-03 
2007	-6.99136633502138E-04 
2008	-3.27081952910525E-03 
2009	-3.22460779651652E-03 
2010	-1.64749274667359E-04 
2011	 2.22615377676979E-04 
2012	 1.86243600042665E-03 
2013	 2.91546877421525E-03 
2014	 2.2535186326136E-03 
2015	 8.61918021524417E-05 
2016	-3.97429185838823E-04 
2017	-1.78918744351922E-03 
2018	-4.30979847029469E-03 
2019	-4.7519209448982E-03 
2020	-3.36359716339356E-03 
2021	-1.92508215748737E-03 
2022	-1.62574227120986E-03 
2023	-1.57759777164694E-03 
2024	-1.37690749785642E-03 
2025	-1.78621889438246E-03 
2026	-1.59092070521485E-03 
2027	-1.06491060252256E-03 
2028	-2.98461281585055E-04 
2029	 4.40369129479592E-04 
2030	 9.6750632952909E-04 
2031	 9.96157974354829E-04 
2032	 1.45414204496076E-04 
2033	-6.59565560133507E-04 
2034	-5.98067351940703E-04 
2035	-7.0587392948614E-05 
2036	 6.17634791145902E-04 
2037	 1.02065412890309E-03 
2038	 9.27567169131872E-04 
2039	 7.90436444323573E-04 
2040	 1.36204535094076E-04 
2041	 1.50934937428694E-04 
2042	 2.23229675881392E-04 
2043	 3.62500143973554E-04 
2044	 7.99894144837044E-04 
2045	 1.70208080975237E-03 
2046	 1.53568031624158E-03 
2047	 1.26266067771792E-03 
2048	 8.53682422673127E-04 
2049	 5.39477571798571E-04 
2050	 9.13176128590838E-04 
2051	 9.01032843171701E-04 
2052	 1.09205264137375E-03 
2053	 6.04534618549513E-04 
2054	-3.21138216049724E-04 
2055	 1.53211526432016E-04 
2056	-3.89602701296411E-05 
2057	-6.25839625731844E-04 
2058	-6.85408146196624E-04 
2059	-5.84311582265285E-04 
2060	-6.70663458088309E-04 
2061	-3.47859731813311E-04 
2062	-3.42775958277977E-04 
2063	-5.73873844739911E-04 
2064	-7.22622646933247E-05 
2065	 2.59356123542595E-04 
2066	 8.83367763374915E-04 
2067	 5.18173760866553E-04 
2068	-4.76684517801099E-04 
2069	-7.41086820951415E-04 
2070	-1.10981726327963E-03 
2071	-1.50669593930196E-03 
2072	-1.8913163288761E-03 
2073	-1.64343242526841E-03 
2074	-1.31666795108906E-03 
2075	-1.16183638377851E-03 
2076	-1.69726988690422E-05 
2077	 3.60209903505495E-04 
2078	-5.36328722764655E-04 
2079	-3.54814280055813E-04 
2080	 7.20691380624644E-04 
2081	 8.70251654844174E-04 
2082	 3.61154741887742E-04 
2083	-7.4232463229681E-05 
2084	-1.02953847878154E-03 
2085	-1.32681621587922E-03 
2086	-8.70976771638848E-04 
2087	 9.75196159856695E-06 
2088	 8.20256892178318E-04 
2089	 5.67860237054788E-04 
2090	 7.09566624254554E-04 
2091	 1.34257702540347E-03 
2092	 1.63169423455692E-03 
2093	 2.29210112566643E-03 
2094	 2.31071034393202E-03 
2095	 1.6814567804763E-03 
2096	 1.21512927174469E-03 
2097	 3.44591953412285E-04 
2098	-1.31061314535878E-04 
2099	-6.02346289304074E-04 
2100	-6.05707670111221E-04 
2101	-1.67406787879675E-04 
2102	 1.65405623854559E-04 
2103	 2.98549835389545E-04 
2104	 1.99387120873124E-05 
2105	-4.74252810118822E-04 
2106	-8.92602569311578E-04 
2107	-1.41097425758979E-03 
2108	-1.58388402126022E-03 
2109	-9.14192463321291E-04 
2110	-7.64626740984788E-04 
2111	-1.05409649748971E-03 
2112	-4.698813026729E-04 
2113	-6.1269051622839E-04 
2114	-2.1334368948867E-03 
2115	-2.42032236012494E-03 
2116	-1.96900393373364E-03 
2117	-1.82438952914213E-03 
2118	-1.34383428332118E-03 
2119	-1.08043130518906E-03 
2120	-8.54981335101275E-04 
2121	-1.01649768827338E-03 
2122	-4.76990171532279E-04 
2123	 1.51549346323451E-05 
2124	-6.70317563125879E-05 
2125	 1.98548801428349E-04 
2126	-1.34010686829464E-04 
2127	 1.1585193359319E-05 
2128	 9.75156255642993E-04 
2129	 9.05742090927541E-04 
2130	 6.30505930110447E-04 
2131	 4.67442017938684E-04 
2132	 4.25584511810775E-05 
2133	 1.63499981721065E-04 
2134	 2.380590725362E-04 
2135	 3.06715773276706E-04 
2136	 4.83063532752292E-04 
2137	 1.23934357266198E-03 
2138	 1.20841286144172E-03 
2139	 6.91176849885969E-04 
2140	 3.51508416549311E-04 
2141	-6.78168987701617E-04 
2142	-1.05762162001412E-03 
2143	-1.21174926663856E-03 
2144	-5.4709938257627E-04 
2145	-3.45036064577387E-04 
2146	-1.75591201070559E-04 
2147	 6.51237638691199E-05 
2148	-2.15808618883886E-04 
2149	 2.88905159808399E-04 
2150	 1.12597158588987E-03 
2151	 1.43197492854744E-03 
2152	 1.80001404674995E-03 
2153	 1.80920151007473E-03 
2154	 1.27414302831496E-03 
2155	 1.64614844796113E-04 
2156	-6.08320068454915E-04 
2157	-4.4806742655616E-04 
2158	 5.96568685976499E-04 
2159	 6.47148209514454E-04 
2160	 1.27336153213361E-03 
2161	 1.24739243927233E-03 
2162	-7.25370267953835E-04 
2163	-7.87878520324384E-04 
2164	 1.13084769062057E-03 
2165	 1.33045362717219E-03 
2166	 1.19513763845945E-03 
2167	 1.39825908188641E-03 
2168	 5.22810157751259E-04 
2169	-9.03618238899968E-05 
2170	-1.09473563232044E-04 
2171	-3.95490509926883E-05 
2172	-6.18655057350785E-04 
2173	-3.2932550102176E-04 
2174	-3.42718867891764E-04 
2175	-7.68097611585634E-05 
2176	 3.65352073676885E-04 
2177	 2.22110174985358E-04 
2178	 4.27327555638017E-04 
2179	 1.91898026062818E-04 
2180	-3.65742383329506E-04 
2181	-4.38811949221032E-04 
2182	-4.38369099665241E-04 
2183	-3.72396785639744E-04 
2184	-9.67760957395152E-05 
2185	 4.7563196608303E-04 
2186	 3.91423228916263E-04 
2187	 1.94372134483163E-05 
2188	-1.75552180584062E-05 
2189	-6.05227452605625E-04 
2190	-1.07960077946462E-03 
2191	-9.46950187277758E-04 
2192	-1.17395739800948E-03 
2193	-2.10169025929494E-03 
2194	-1.85274143008386E-03 
2195	-9.62241341943172E-04 
2196	-5.06476065880431E-04 
2197	 1.35596484524787E-03 
2198	 1.72969597955516E-03 
2199	 8.26356943093918E-04 
2200	-2.55053464410448E-04 
2201	-1.86206358834691E-04 
2202	-1.98822931708338E-03 
2203	-2.92625338621605E-03 
2204	-2.87469717305749E-03 
2205	-2.86391134603692E-03 
2206	-1.87178365923034E-03 
2207	-9.98814862229059E-04 
2208	-2.36508203768804E-04 
2209	-8.58821800211766E-04 
2210	-1.87680462591165E-03 
2211	-1.51536355773995E-03 
2212	-1.15959128130512E-03 
2213	-2.30047666300328E-04 
2214	 4.52865647398742E-04 
2215	 8.63404792972884E-05 
2216	-1.42064730383284E-04 
2217	-1.69432588707703E-04 
2218	 6.91477649532374E-04 
2219	 8.12284631383824E-04 
2220	 1.17016546489639E-04 
2221	-2.02613907741004E-04 
2222	-5.72397676950206E-04 
2223	-9.10433715624377E-04 
2224	-1.52151058148473E-03 
2225	-8.08680106804721E-04 
2226	 1.3118315370612E-03 
2227	 1.73380380413431E-03 
2228	 2.0994801007688E-03 
2229	 2.34635558319394E-03 
2230	 9.79608102213855E-04 
2231	 5.5481817915108E-04 
2232	 1.36977542497834E-03 
2233	 1.45786244564979E-03 
2234	 1.04948915295511E-03 
2235	 1.14228027218619E-03 
2236	 1.18309187291269E-03 
2237	-3.24847344951154E-04 
2238	-1.25016827095754E-03 
2239	-1.46480467849782E-03 
2240	-1.33648369926375E-03 
2241	 7.67505265849686E-04 
2242	 1.83178313259089E-03 
2243	 1.28020053978766E-03 
2244	 6.39904058030978E-04 
2245	-1.97705347734794E-03 
2246	-2.57835391407093E-03 
2247	 1.77393570501918E-04 
2248	 1.38840916446848E-03 
2249	 1.9237218935089E-03 
2250	 1.97374331239807E-03 
2251	-9.63841027196808E-05 
2252	-1.49357057413875E-03 
2253	-6.5183758872916E-04 
2254	 1.78676254341262E-04 
2255	-3.08314380875427E-04 
2256	-1.01939935453649E-03 
2257	-1.81463208890963E-03 
2258	-3.53814967429492E-03 
2259	-4.61073036666977E-03 
2260	-4.48839116115391E-03 
2261	-2.96147771453518E-03 
2262	-2.23634234874906E-03 
2263	-4.23424456533389E-04 
2264	 4.7812802135835E-04 
2265	-2.45457782234559E-04 
2266	 4.97070425469647E-04 
2267	 3.13696334321293E-03 
2268	 2.86360653477736E-03 
2269	 1.22441049932261E-03 
2270	 1.0026513719241E-03 
2271	-1.15660217348971E-03 
2272	-1.59309283028272E-03 
2273	 5.99449254911318E-04 
2274	 1.69225975585625E-03 
2275	 2.74742605795245E-03 
2276	 3.09596107215931E-03 
2277	 3.47187654426042E-03 
2278	 3.06291808700297E-03 
2279	 9.34367284579025E-04 
2280	-3.96315026699752E-05 
2281	-1.30724999056835E-03 
2282	-9.54768300679323E-04 
2283	-2.17944601169749E-04 
2284	-4.00237011634583E-04 
2285	-3.94492898818179E-04 
2286	-1.12797788752363E-03 
2287	-1.31279124641309E-03 
2288	-1.5391783762543E-03 
2289	-2.06447613733573E-03 
2290	-2.49745496834894E-03 
2291	-3.95433741408067E-03 
2292	-3.4946909086025E-03 
2293	-3.41779727924605E-03 
2294	-3.41384527264079E-03 
2295	-3.6191901312509E-03 
2296	-5.66672265272569E-03 
2297	-5.87833464662875E-03 
2298	-4.27648712234214E-03 
2299	-3.63911955618245E-03 
2300	-2.96124736877882E-03 
2301	 8.06594382038673E-04 
2302	 1.32466559099376E-03 
2303	 8.4611844103171E-04 
2304	 3.92712571644536E-03 
2305	 3.35415811164345E-03 
2306	 1.85503644986625E-03 
2307	 2.50260275628525E-03 
2308	 9.99815888588606E-04 
2309	-1.42295914861694E-03 
2310	-1.63587281487391E-03 
2311	-6.36978604471457E-04 
2312	 1.64710408232581E-04 
2313	-6.08948518211754E-04 
2314	-2.87826287934256E-03 
2315	-4.14660607218804E-03 
2316	-4.55615320511935E-03 
2317	-4.87411443337068E-03 
2318	-5.02983126406582E-03 
2319	-5.39929160648311E-03 
2320	-8.75281862089549E-03 
2321	-9.84072374977233E-03 
2322	-3.77678720581167E-03 
2323	-3.184556763746E-04 
2324	 1.75911017604522E-03 
2325	 5.00298521185329E-03 
2326	 3.78845442529095E-03 
2327	 2.55817737739969E-03 
2328	 1.99071625095621E-03 
2329	 5.20393792878043E-04 
2330	 2.9036376073044E-03 
2331	 3.48503967303906E-03 
2332	 1.64156300204615E-04 
2333	 2.48584312727445E-03 
2334	 2.65349861788562E-03 
2335	-9.99949483453663E-04 
2336	 4.8330807265968E-04 
2337	-2.41406795544437E-03 
2338	-8.24334864233376E-03 
2339	-6.1778070797099E-03 
2340	-2.27566102885294E-03 
2341	-2.8049502072921E-03 
2342	-3.10595799431319E-03 
2343	-5.08536555306995E-03 
2344	-1.42321021905838E-02 
2345	-1.85631597446565E-02 
2346	-1.13898025124551E-02 
2347	-6.52905650655565E-03 
2348	-4.92613742916287E-03 
2349	-4.85476859351154E-03 
2350	-6.5923055651519E-03 
2351	-1.79500131179843E-03 
2352	 8.18888909334546E-04 
2353	-2.91285418230547E-03 
2354	-8.62671322467296E-03 
2355	-0.016789751671825 
2356	-1.94985626480564E-02 
2357	-1.32709535982959E-02 
2358	-5.8965777384366E-03 
2359	-5.02508766779161E-03 
2360	-4.57974912773968E-03 
2361	-1.91314745456432E-03 
2362	-5.43925304801701E-03 
2363	-5.57387462554808E-03 
2364	 2.95303674846975E-03 
2365	 1.13034552338342E-02 
2366	 1.80373394086943E-02 
2367	 1.87250970630643E-02 
2368	 1.18058720629087E-02 
2369	 3.87535112255123E-03 
2370	 2.88622914396704E-03 
2371	 8.44262021354197E-03 
2372	 1.30101851876167E-02 
2373	 8.68078362448486E-03 
2374	 4.34410424240709E-03 
2375	 3.72084291194019E-03 
2376	 1.76591402558034E-03 
2377	 1.00047505480992E-03 
2378	-3.75350594922867E-03 
2379	 3.29961010735492E-03 
2380	 2.20849597324826E-03 
2381	-1.42363305544424E-02 
2382	-9.90615074364327E-03 
2383	-1.26651480663096E-02 
2384	-3.18571881743732E-02 
2385	-3.51836636292283E-02 
2386	-2.86836518710133E-02 
2387	-2.66613493186563E-02 
2388	-9.69326289034701E-03 
2389	 1.24403272350861E-02 
2390	 2.7756640919368E-03 
2391	-2.24841616659351E-02 
2392	-4.10248330943273E-02 
2393	-4.56045729370536E-02 
2394	-3.74286191168895E-02 
2395	-1.78558322744377E-02 
2396	 1.82476338844955E-02 
2397	 0.0379821666725 
2398	 3.35410302347357E-02 
2399	 3.06684508486205E-02 
2400	 2.00388878132401E-02 
2401	 5.35941489231846E-03 
2402	-5.92989947668543E-05 
2403	 5.48227003361579E-04 
2404	 4.21472749547305E-03 
2405	-2.34073078965929E-03 
2406	 5.05821337034115E-03 
2407	 2.32996111184132E-02 
2408	 2.05625320615802E-02 
2409	 2.79283999162025E-02 
2410	 2.76133130949385E-02 
2411	 1.25391324897363E-02 
2412	 2.3172027975637E-03 
2413	-2.06213727448796E-02 
2414	-1.08449486377281E-02 
2415	 3.3954625707408E-03 
2416	-4.55638428264684E-02 
2417	-5.13989396011399E-02 
2418	-8.10847283110032E-04 
2419	 0.024087906566582 
2420	 6.35674331817354E-02 
2421	 0.108460817723996 
2422	 7.65660757986039E-02 
2423	-3.28853068633487E-03 
2424	-7.08919286778392E-02 
2425	-8.46635748241974E-02 
2426	-6.48658116878591E-02 
2427	-0.03189111824177 
2428	 3.07299394309756E-02 
2429	 0.051395626034247 
2430	 4.59294729078748E-02 
2431	 6.80383783921971E-02 
2432	 8.08872007526382E-02 
2433	 0.121274888012056 
2434	 0.110770957779176 
2435	 2.75238677723472E-02 
2436	 1.42152177369724E-02 
2437	-2.23409667267386E-02 
2438	-4.51528865089896E-02 
2439	 7.86041677728809E-03 
2440	-6.1351781343687E-04 
2441	-5.57097112313289E-02 
2442	-0.104845371114739 
2443	-0.152779728219711 
2444	-0.173425783377463 
2445	-0.103449126318539 
2446	 0.041716784762525 
2447	 1.29834182937897E-02 
2448	 1.92868328661607E-02 
2449	 0.016268358396223 
2450	-1.96215832506298E-02 
2451	-0.112453187387146 
2452	-6.73484475266391E-02 
2453	-8.18974083815471E-02 
2454	-7.77214000600948E-02 
2455	-4.70457296726635E-02 
2456	-5.96035473995418E-02 
2457	-5.51919524765456E-02 
2458	-0.08104829574217 
2459	-0.132685716115515 
2460	-6.86899284506111E-02 
2461	-6.15731508089946E-02 
2462	-0.146928596907473 
2463	-0.163709456562385 
2464	-0.242881132367279 
2465	-0.323326046924689 
2466	-0.394003446770857 
2467	-0.348915370579324 
2468	-0.170959881669259 
2469	-3.91350217243351E-02 
2470	 6.60011558916679E-02 
2471	 4.08104973087977E-02 
2472	-0.228257296990954 
2473	-0.348926453858933 
2474	-0.187097031900645 
2475	 1.75799704510858E-02 
2476	 0.205895555274713 
2477	 0.544985406076245 
2478	 0.15415201273928 
2479	-0.816798019746468 
2480	-1.2258652168496 
2481	-1.08326398796288 
2482	-1.18504996005702 
2483	-1.46835513915944 
2484	-1.2089575060982 
2485	-1.98214811010878 
2486	 15.42700141951 
2487	-28.8801649175842 
2488	-1.57904115003825 
2489	-3.61929010339104 
2490	-12.3512524551661 
2491	-5.61182665832023 
2492	 3.47012263736701 
2493	 1.88513757977424 
2494	-6.86967409472014 
2495	-1.49489405561364 
2496	-1.02005388762076 
2497	-1.28386944730115 
2498	-1.57636465070935 
2499	-27.7882789688224 
2500	 1.21979442380298 
