Wavelength	rt0715far00008.asd
350	 2.64983417573674E-02 
351	 0.027000142861256 
352	 0.026406928220997 
353	 2.59783992817616E-02 
354	 2.63977306618908E-02 
355	 2.61207213649091E-02 
356	 2.62746216485956E-02 
357	 2.62961634422461E-02 
358	 2.55768534738847E-02 
359	 2.54365400114409E-02 
360	 2.56779676428241E-02 
361	 2.58926433527933E-02 
362	 0.02565763607066 
363	 2.55369597669053E-02 
364	 2.51879780690932E-02 
365	 2.47455399814397E-02 
366	 2.52254030286317E-02 
367	 2.51215192866077E-02 
368	 2.49611385187747E-02 
369	 2.53919786825385E-02 
370	 0.025554838960142 
371	 2.55107581076245E-02 
372	 2.52983371974134E-02 
373	 2.50209497152324E-02 
374	 2.53360014770691E-02 
375	 2.54529053915676E-02 
376	 2.51639260413598E-02 
377	 2.52375869169184E-02 
378	 2.48636864535069E-02 
379	 2.45484323206572E-02 
380	 2.47718043870961E-02 
381	 2.50401372043739E-02 
382	 2.48287684633733E-02 
383	 2.46564331777683E-02 
384	 2.52502184372715E-02 
385	 2.49607780277715E-02 
386	 2.46452913727958E-02 
387	 2.47649511820022E-02 
388	 2.50863464400016E-02 
389	 2.51843961142708E-02 
390	 2.52415368280582E-02 
391	 2.53848874841581E-02 
392	 2.53114241422989E-02 
393	 2.48931748260176E-02 
394	 2.47669506651004E-02 
395	 2.54407603327018E-02 
396	 2.53769234079476E-02 
397	 2.52527425597337E-02 
398	 2.52832735119218E-02 
399	 2.51917664265858E-02 
400	 2.53635351940912E-02 
401	 2.54933344954051E-02 
402	 2.53992815088085E-02 
403	 2.53902287310591E-02 
404	 2.53161806774244E-02 
405	 2.53148204562096E-02 
406	 2.55319091251325E-02 
407	 2.55633777179783E-02 
408	 2.56314602267707E-02 
409	 2.57377411010052E-02 
410	 2.56517213670635E-02 
411	 2.56904787056412E-02 
412	 2.57300755424237E-02 
413	 2.57035186390163E-02 
414	 2.58938387859509E-02 
415	 2.59529270766821E-02 
416	 2.59661982158288E-02 
417	 2.61433530758068E-02 
418	 2.63067494744593E-02 
419	 2.63307114789124E-02 
420	 2.62787556281053E-02 
421	 2.63991843432192E-02 
422	 2.65479145110257E-02 
423	 2.66956511404319E-02 
424	 2.68234248566155E-02 
425	 2.68588692411979E-02 
426	 2.70390162102576E-02 
427	 2.72581994213428E-02 
428	 2.72839549847837E-02 
429	 2.72699300464319E-02 
430	 2.74407468766527E-02 
431	 2.77441153121775E-02 
432	 2.78127831857883E-02 
433	 2.78579359143212E-02 
434	 0.028020963822075 
435	 2.83074031364034E-02 
436	 2.83704000431712E-02 
437	 2.85198792783256E-02 
438	 2.87313543543669E-02 
439	 0.028823550675548 
440	 2.89787102442149E-02 
441	 2.91638611572315E-02 
442	 2.93208964489459E-02 
443	 2.93863726356708E-02 
444	 2.95232048976652E-02 
445	 0.029745378543308 
446	 2.99872042459592E-02 
447	 3.00648362932035E-02 
448	 3.01608521046464E-02 
449	 3.02902746145633E-02 
450	 3.03524821041706E-02 
451	 3.05035356808758E-02 
452	 3.06383967202081E-02 
453	 3.07058785681644E-02 
454	 3.08407540157319E-02 
455	 3.09721088482888E-02 
456	 0.031028277429104 
457	 3.09918274956782E-02 
458	 3.11215715161061E-02 
459	 0.031272973222399 
460	 3.13594216232831E-02 
461	 3.13815678882028E-02 
462	 3.15063834591643E-02 
463	 3.16374997157293E-02 
464	 3.16865585051909E-02 
465	 3.17338769680583E-02 
466	 3.18128115198276E-02 
467	 3.19206592548591E-02 
468	 3.20249863439528E-02 
469	 3.20466758881176E-02 
470	 3.21218626887819E-02 
471	 3.22774479634158E-02 
472	 3.23722433568298E-02 
473	 3.23462426682499E-02 
474	 3.23680921315095E-02 
475	 3.25598034574576E-02 
476	 3.26512658027677E-02 
477	 3.27614278196404E-02 
478	 3.29074042545785E-02 
479	 3.30318044591415E-02 
480	 3.30716857817806E-02 
481	 3.31788460353891E-02 
482	 3.34079003439337E-02 
483	 3.35643172143221E-02 
484	 3.36867843636688E-02 
485	 3.38055622202292E-02 
486	 3.39381302159217E-02 
487	 3.39922328091961E-02 
488	 3.41977622363245E-02 
489	 3.44907704941872E-02 
490	 3.45383068211171E-02 
491	 3.47528381811806E-02 
492	 3.49690609304462E-02 
493	 0.035054464577111 
494	 3.52802151099925E-02 
495	 3.55078217189243E-02 
496	 3.56916234413845E-02 
497	 3.58441989969229E-02 
498	 3.60591473175597E-02 
499	 3.62641725840977E-02 
500	 3.64370133935581E-02 
501	 3.66588644219084E-02 
502	 3.68669366895306E-02 
503	 3.70562144247066E-02 
504	 3.72483151080292E-02 
505	 3.74971612759218E-02 
506	 3.77534661568916E-02 
507	 3.80008962457306E-02 
508	 0.038244988098662 
509	 3.83622954332161E-02 
510	 3.85079005583594E-02 
511	 0.038784755365262 
512	 3.90880739588148E-02 
513	 3.93198117261484E-02 
514	 3.95290343706958E-02 
515	 3.98089801521248E-02 
516	 4.00174977338596E-02 
517	 4.02630651618741E-02 
518	 4.05671147045469E-02 
519	 0.040821036476205 
520	 4.10388793874124E-02 
521	 4.13185372926922E-02 
522	 0.041704768518711 
523	 4.19967500684286E-02 
524	 4.22531615763119E-02 
525	 4.25053441418185E-02 
526	 4.27695381906169E-02 
527	 4.31105173228795E-02 
528	 4.34380576027678E-02 
529	 4.37038674482556E-02 
530	 4.39809797142369E-02 
531	 4.42724032257395E-02 
532	 4.46055501750455E-02 
533	 4.49824580037688E-02 
534	 4.52351858311907E-02 
535	 4.55002991806153E-02 
536	 4.58313766172789E-02 
537	 4.61645166443767E-02 
538	 4.65156658041169E-02 
539	 4.68386242763687E-02 
540	 4.71159452668161E-02 
541	 4.74679234760976E-02 
542	 4.77823299042579E-02 
543	 4.80489852250051E-02 
544	 4.83246973634508E-02 
545	 4.86337020729684E-02 
546	 4.89148875435126E-02 
547	 4.91534683437534E-02 
548	 4.94503131542643E-02 
549	 4.96947794883737E-02 
550	 0.049926313931047 
551	 5.02179613238793E-02 
552	 0.050495222759106 
553	 5.08328556446089E-02 
554	 5.12206083508269E-02 
555	 5.15471035625707E-02 
556	 5.20618519331295E-02 
557	 5.25544604139219E-02 
558	 0.052846456042762 
559	 5.32590448860222E-02 
560	 5.36170998095852E-02 
561	 5.38571822619265E-02 
562	 5.40044953805803E-02 
563	 5.42084678183876E-02 
564	 5.43884066582106E-02 
565	 5.45040408600184E-02 
566	 5.46539448187588E-02 
567	 5.48388806380423E-02 
568	 5.49825430912682E-02 
569	 0.055004884039194 
570	 5.49863653721239E-02 
571	 5.50347535572025E-02 
572	 0.055195962993452 
573	 5.54461484311669E-02 
574	 5.56962735709847E-02 
575	 5.59352764890121E-02 
576	 5.61441339676943E-02 
577	 5.62036109568151E-02 
578	 5.62920720214659E-02 
579	 0.056426731290349 
580	 5.65349510296947E-02 
581	 5.67698143701648E-02 
582	 5.68885579470583E-02 
583	 0.056802696932916 
584	 5.67810283524789E-02 
585	 5.67884601011545E-02 
586	 5.67756870392627E-02 
587	 0.056687888237292 
588	 5.65431792769389E-02 
589	 5.63525396911918E-02 
590	 5.61804302802959E-02 
591	 5.61222279573204E-02 
592	 5.60859203234522E-02 
593	 5.59127630293939E-02 
594	 5.55625590285246E-02 
595	 5.53895694168577E-02 
596	 5.50868328059999E-02 
597	 5.46478023359614E-02 
598	 5.42384218427056E-02 
599	 5.38385108244343E-02 
600	 0.053472127329449 
601	 5.31914707038272E-02 
602	 5.31023264486987E-02 
603	 5.29227813640965E-02 
604	 5.27557726956957E-02 
605	 5.27728270857036E-02 
606	 5.27890320070101E-02 
607	 5.27911940190993E-02 
608	 5.27663159462972E-02 
609	 5.27032478507106E-02 
610	 5.28462570044918E-02 
611	 5.29549262788678E-02 
612	 5.28648980821605E-02 
613	 5.29499405694456E-02 
614	 5.29995229514519E-02 
615	 5.29669567541258E-02 
616	 5.29112852400587E-02 
617	 5.29627171067629E-02 
618	 0.053001300518379 
619	 5.29863299427601E-02 
620	 5.30500964389366E-02 
621	 5.31130235003193E-02 
622	 5.30956965030851E-02 
623	 5.29715391222919E-02 
624	 5.29510290520795E-02 
625	 5.30098669204413E-02 
626	 5.30697626644851E-02 
627	 5.30214336080234E-02 
628	 5.29923594885198E-02 
629	 5.30044832813151E-02 
630	 5.30263428478264E-02 
631	 5.29298878043403E-02 
632	 0.052953225756728 
633	 5.30522378001283E-02 
634	 5.30557729568314E-02 
635	 5.29795723809565E-02 
636	 0.05293028209052 
637	 5.29490494465463E-02 
638	 5.29746524279111E-02 
639	 5.28770164927752E-02 
640	 5.27667399219448E-02 
641	 5.27737470741252E-02 
642	 5.27874030925903E-02 
643	 5.27365558419277E-02 
644	 5.26218068033672E-02 
645	 5.25074239053312E-02 
646	 5.24785969505206E-02 
647	 5.24092946049079E-02 
648	 5.22599306112309E-02 
649	 5.23026753880368E-02 
650	 5.21794678977745E-02 
651	 5.19795915749589E-02 
652	 5.19175548135555E-02 
653	 5.17818786474674E-02 
654	 5.14928703696654E-02 
655	 5.10645320245541E-02 
656	 5.06916081916107E-02 
657	 0.050366770512439 
658	 0.050148670207364 
659	 5.00325857809961E-02 
660	 4.98155626347572E-02 
661	 0.049616586477678 
662	 4.94812419849911E-02 
663	 4.94014065481699E-02 
664	 4.92910350757418E-02 
665	 4.91783705200833E-02 
666	 4.90908896243007E-02 
667	 4.90330308229138E-02 
668	 4.89173528957508E-02 
669	 4.88173460742449E-02 
670	 4.88159257729947E-02 
671	 4.87440144265493E-02 
672	 4.87233586524441E-02 
673	 4.87552729222681E-02 
674	 4.87232638402998E-02 
675	 4.86985999247171E-02 
676	 4.86640474483189E-02 
677	 4.86268722948467E-02 
678	 4.87022642853442E-02 
679	 4.87686380230377E-02 
680	 4.88061161176697E-02 
681	 0.048842470430948 
682	 4.88786629274061E-02 
683	 0.048941175376003 
684	 4.90222915423544E-02 
685	 4.90729425130336E-02 
686	 4.89861869541132E-02 
687	 4.88664830320452E-02 
688	 4.88307247696803E-02 
689	 4.87081889790684E-02 
690	 4.86670944929243E-02 
691	 4.86591885706925E-02 
692	 4.85115873929851E-02 
693	 4.81958115511804E-02 
694	 4.79742628327127E-02 
695	 4.78891455118272E-02 
696	 4.75599840800871E-02 
697	 4.71277564078633E-02 
698	 4.66959361551519E-02 
699	 4.63257850373135E-02 
700	 4.57669373898641E-02 
701	 4.53289546832726E-02 
702	 4.49783734086305E-02 
703	 0.04439839815215 
704	 0.043768047691206 
705	 4.31943915036061E-02 
706	 4.26720904235791E-02 
707	 0.041944572534486 
708	 4.11716578830057E-02 
709	 4.04118166728636E-02 
710	 3.96552945923278E-02 
711	 3.87473945267692E-02 
712	 3.77890814834006E-02 
713	 3.68185191142063E-02 
714	 3.57705677879821E-02 
715	 3.48127321552598E-02 
716	 3.37297113573428E-02 
717	 3.24186219823278E-02 
718	 3.13563283192532E-02 
719	 3.03144978116332E-02 
720	 2.93439279979739E-02 
721	 2.84188103167782E-02 
722	 2.74272668863749E-02 
723	 2.63964649360017E-02 
724	 0.025372362187743 
725	 2.41544024288212E-02 
726	 2.30673367018758E-02 
727	 2.20501515065413E-02 
728	 2.09551518423129E-02 
729	 1.95557122502758E-02 
730	 1.83567850598613E-02 
731	 1.74014388737536E-02 
732	 1.64794151336336E-02 
733	 0.015678121790578 
734	 1.50267966700024E-02 
735	 1.45188695769964E-02 
736	 1.40925407858963E-02 
737	 1.37723442568764E-02 
738	 1.35152358107527E-02 
739	 1.33005642234533E-02 
740	 1.32145103316052E-02 
741	 1.31276454355273E-02 
742	 1.30149532738548E-02 
743	 1.29214327565667E-02 
744	 1.29525398787471E-02 
745	 1.29569956966385E-02 
746	 1.28782468183277E-02 
747	 0.012821533160437 
748	 1.28632141294001E-02 
749	 0.012880363106573 
750	 1.27926602168959E-02 
751	 1.28453634313273E-02 
752	 1.28689300103228E-02 
753	 1.28408694862631E-02 
754	 1.28142246208415E-02 
755	 1.27176134832477E-02 
756	 1.27132506320311E-02 
757	 1.27903157871863E-02 
758	 1.26205797757011E-02 
759	 1.27505090092641E-02 
760	 1.28623509421444E-02 
761	 1.24122102769461E-02 
762	 1.25349378744665E-02 
763	 1.26353644032814E-02 
764	 1.27208568827988E-02 
765	 1.29188886943818E-02 
766	 1.29163689345715E-02 
767	 1.29365045933583E-02 
768	 1.30188299789665E-02 
769	 1.30277731873393E-02 
770	 1.30879541111648E-02 
771	 1.31758381238095E-02 
772	 1.32574109392867E-02 
773	 1.33545137785777E-02 
774	 1.34588893671504E-02 
775	 1.35731269130536E-02 
776	 0.013704332999976 
777	 1.38603507288255E-02 
778	 1.39534025510659E-02 
779	 1.39945914681922E-02 
780	 1.40991746874161E-02 
781	 1.42943374541359E-02 
782	 1.43896241576199E-02 
783	 1.43718165417834E-02 
784	 1.47345568649948E-02 
785	 1.48953891480518E-02 
786	 1.49723341053571E-02 
787	 1.52327934330746E-02 
788	 1.53261907293345E-02 
789	 1.55041173555168E-02 
790	 1.57692125586669E-02 
791	 1.59194806769993E-02 
792	 1.60358732457536E-02 
793	 1.62120500893283E-02 
794	 1.64686080159464E-02 
795	 0.016705622019261 
796	 1.68580747202162E-02 
797	 1.70393001746469E-02 
798	 1.73230762768562E-02 
799	 1.74475260343865E-02 
800	 1.75887797025241E-02 
801	 1.77649226593597E-02 
802	 1.79007846483378E-02 
803	 1.79451074602662E-02 
804	 1.80528896428203E-02 
805	 1.81868084255386E-02 
806	 1.80989104339771E-02 
807	 1.81397306877487E-02 
808	 1.82204812376641E-02 
809	 1.82010524538478E-02 
810	 1.80334455642673E-02 
811	 0.017890187873068 
812	 1.77732714278198E-02 
813	 0.017614181387428 
814	 1.73863288492059E-02 
815	 1.71843982246329E-02 
816	 1.70144893392219E-02 
817	 1.68033604511978E-02 
818	 1.65672024699947E-02 
819	 0.016267208726765 
820	 1.59527357069421E-02 
821	 0.015806166654221 
822	 1.51982562265163E-02 
823	 1.44659829410693E-02 
824	 1.39556865928785E-02 
825	 1.33406357714892E-02 
826	 1.26461721119444E-02 
827	 1.19697132274364E-02 
828	 1.14375263635173E-02 
829	 1.08962775007005E-02 
830	 1.02160156659374E-02 
831	 9.69709260694901E-03 
832	 9.81536577263824E-03 
833	 9.45668455552919E-03 
834	 9.05796998807303E-03 
835	 8.86892937489208E-03 
836	 8.63339156128734E-03 
837	 8.60636918232733E-03 
838	 8.60772870566399E-03 
839	 8.46652244019686E-03 
840	 8.26284953385494E-03 
841	 8.2170964349362E-03 
842	 8.24785698977979E-03 
843	 8.19807102376531E-03 
844	 8.20060225261102E-03 
845	 8.09403549467526E-03 
846	 7.90626419015046E-03 
847	 7.79220853506419E-03 
848	 7.70390222163124E-03 
849	 7.70636876015898E-03 
850	 7.72468463096157E-03 
851	 7.52022403379531E-03 
852	 7.41019547187436E-03 
853	 7.44239889385492E-03 
854	 7.5298305548225E-03 
855	 7.44591431620935E-03 
856	 7.39738162057779E-03 
857	 7.3019495416576E-03 
858	 7.1127585077686E-03 
859	 7.23094605245629E-03 
860	 7.06757808023541E-03 
861	 6.84620362310502E-03 
862	 7.04465273202391E-03 
863	 6.88685254977396E-03 
864	 7.02986173547635E-03 
865	 7.34736482978574E-03 
866	 7.02714033418578E-03 
867	 6.76754952354897E-03 
868	 6.60328270098689E-03 
869	 6.55485617879037E-03 
870	 6.7325135656704E-03 
871	 6.69732989247118E-03 
872	 6.52753016518513E-03 
873	 6.42978420919272E-03 
874	 6.6364940343106E-03 
875	 6.46336764866159E-03 
876	 6.22090231047846E-03 
877	 6.30952526931128E-03 
878	 6.24863419959128E-03 
879	 6.08569334021262E-03 
880	 5.95411986513728E-03 
881	 5.97634355749292E-03 
882	 5.95039831172987E-03 
883	 6.01417635597363E-03 
884	 5.99634090726641E-03 
885	 5.61430895734583E-03 
886	 5.73468564733103E-03 
887	 5.92226119379079E-03 
888	 5.82617762037697E-03 
889	 5.42921366981243E-03 
890	 5.6337389828109E-03 
891	 5.67905870996442E-03 
892	 5.2518101596434E-03 
893	 5.39617639635853E-03 
894	 5.30637637260535E-03 
895	 5.08181928768862E-03 
896	 5.03680220178045E-03 
897	 0.00532398869951 
898	 5.58145327641732E-03 
899	 5.37984304591387E-03 
900	 4.75178469224821E-03 
901	 5.06605143700557E-03 
902	 5.43646162524581E-03 
903	 5.4120183106124E-03 
904	 4.93903294471812E-03 
905	 4.81225820880378E-03 
906	 4.88362378346154E-03 
907	 5.12508518012784E-03 
908	 5.45367890902329E-03 
909	 4.79193237714051E-03 
910	 4.5582157530978E-03 
911	 5.0381891091617E-03 
912	 5.26435494763107E-03 
913	 4.64828944832431E-03 
914	 4.31700508169477E-03 
915	 4.56736557265508E-03 
916	 4.52528905144356E-03 
917	 4.40748042121306E-03 
918	 4.2065292978506E-03 
919	 4.21631921923018E-03 
920	 5.07937569178005E-03 
921	 5.12009219085193E-03 
922	 4.40636969064672E-03 
923	 3.65533157267375E-03 
924	 4.10735256222591E-03 
925	 4.46770280361236E-03 
926	 4.40695929243494E-03 
927	 4.1775214361378E-03 
928	 5.07790779590392E-03 
929	 4.91551484424819E-03 
930	 4.26633290456097E-03 
931	 4.74556183533496E-03 
932	 4.28643389543692E-03 
933	 3.7893190444927E-03 
934	 4.5762793437594E-03 
935	 6.4254674058906E-03 
936	 4.42553198493659E-03 
937	 3.41668057044781E-03 
938	 3.72690058249582E-03 
939	 3.65708960679367E-03 
940	 1.09335114429147E-04 
941	 8.5755909651831E-04 
942	 3.81706320244143E-03 
943	 3.00322390154925E-03 
944	 2.46548875912506E-03 
945	 4.06707655023913E-03 
946	 4.86705363070169E-03 
947	 1.19860467629236E-03 
948	 1.40896334887796E-03 
949	 3.02560740501993E-03 
950	 3.91593323465476E-03 
951	 3.20888855558349E-03 
952	 2.8637517251982E-03 
953	 3.12187828451178E-03 
954	 3.42332152274241E-03 
955	 3.14690079860759E-03 
956	 4.63761364408779E-03 
957	 4.55475755863991E-03 
958	 3.15965405711197E-03 
959	 3.30131347991676E-03 
960	 4.16133710964431E-03 
961	 4.09565013930366E-03 
962	 3.18140639115374E-03 
963	 2.77205416198442E-03 
964	 2.9427059601348E-03 
965	 4.17668522633599E-03 
966	 4.55862112223029E-03 
967	 1.6008836124012E-03 
968	 2.25374339470077E-03 
969	 2.69965379728447E-03 
970	 0.002089666967795 
971	 2.75079007598189E-03 
972	 2.74050821893999E-03 
973	 2.76009964404213E-03 
974	 3.10281929051099E-03 
975	 3.34905040099028E-03 
976	 2.95202509971157E-03 
977	 3.85576371639439E-03 
978	 4.66490100245752E-03 
979	 2.04120927210855E-03 
980	 2.45628534876377E-03 
981	 3.09783490601894E-03 
982	 2.96754981786206E-03 
983	 3.26884888669186E-03 
984	 3.13577034462826E-03 
985	 2.86832346450471E-03 
986	 3.1431458395385E-03 
987	 4.44486632922904E-03 
988	 4.8366023615713E-03 
989	 3.76933600472183E-03 
990	 2.34959053148184E-03 
991	 2.54403517794076E-03 
992	 4.1913621549277E-03 
993	 4.77178439962598E-03 
994	 4.01256578505042E-03 
995	 3.38724097754974E-03 
996	 3.07565723287731E-03 
997	 3.47348283686129E-03 
998	 4.34311341546236E-03 
999	 4.89019126492358E-03 
1000	 3.72286884729232E-03 
1001	 1.67796088302351E-03 
1002	 1.37126562348746E-03 
1003	 1.37738379999468E-03 
1004	 1.74809482240003E-03 
1005	 1.91324468194766E-03 
1006	 2.19054873262533E-03 
1007	 2.2842616128019E-03 
1008	 2.09008389887444E-03 
1009	 2.24174073187681E-03 
1010	 1.97292374453008E-03 
1011	 1.8183523642379E-03 
1012	 1.83310487410843E-03 
1013	 1.6235846056528E-03 
1014	 1.6551215921309E-03 
1015	 2.0058671408661E-03 
1016	 1.98793025816932E-03 
1017	 1.6898778686213E-03 
1018	 1.81713029790324E-03 
1019	 2.25388828611132E-03 
1020	 2.22638576175621E-03 
1021	 2.15691101535126E-03 
1022	 2.21338671878492E-03 
1023	 1.65054916512889E-03 
1024	 1.10230874998366E-03 
1025	 1.2271880582405E-03 
1026	 1.40274747741029E-03 
1027	 1.54526955969919E-03 
1028	 1.90159055553746E-03 
1029	 2.07009777208099E-03 
1030	 2.11815973001949E-03 
1031	 2.18569536317808E-03 
1032	 2.26906316331581E-03 
1033	 2.28032135189237E-03 
1034	 2.26485725546097E-03 
1035	 2.21203365052227E-03 
1036	 1.95258712888182E-03 
1037	 1.94377271011911E-03 
1038	 2.17484313301891E-03 
1039	 2.16896440239176E-03 
1040	 2.24858808420107E-03 
1041	 2.14105648052816E-03 
1042	 2.02570583744686E-03 
1043	 1.55294363692522E-03 
1044	 1.62059203882784E-03 
1045	 2.03148432047718E-03 
1046	 2.15469565753292E-03 
1047	 2.51431449285949E-03 
1048	 2.47699209477698E-03 
1049	 1.86524032087953E-03 
1050	 1.79107313801796E-03 
1051	 1.8437699242069E-03 
1052	 1.90958538483988E-03 
1053	 2.34448575996705E-03 
1054	 2.54883509162867E-03 
1055	 2.6892394982767E-03 
1056	 2.67706543084871E-03 
1057	 2.5667445505972E-03 
1058	 2.23729753970984E-03 
1059	 2.30354972787247E-03 
1060	 2.4117724561562E-03 
1061	 2.51040905413502E-03 
1062	 3.02070336539266E-03 
1063	 3.05832842638507E-03 
1064	 2.63094571520263E-03 
1065	 2.57326425404173E-03 
1066	 2.60901871376704E-03 
1067	 2.54922387812721E-03 
1068	 2.61215789194918E-03 
1069	 2.60340516414312E-03 
1070	 2.34904725448708E-03 
1071	 2.28133625441111E-03 
1072	 2.38883391153093E-03 
1073	 2.46017853083356E-03 
1074	 2.45039562806745E-03 
1075	 2.43433680267793E-03 
1076	 2.45440281614626E-03 
1077	 2.34338018600077E-03 
1078	 2.42446590207527E-03 
1079	 2.81707700244009E-03 
1080	 2.80430215558015E-03 
1081	 2.59771746203142E-03 
1082	 2.53538082441123E-03 
1083	 2.19313569507352E-03 
1084	 2.14682681618885E-03 
1085	 2.48975412401574E-03 
1086	 2.60606530078563E-03 
1087	 2.67274967740209E-03 
1088	 2.76007968623605E-03 
1089	 2.89368380048205E-03 
1090	 2.86374434240213E-03 
1091	 2.72588665894281E-03 
1092	 2.50802201507764E-03 
1093	 2.35152802624484E-03 
1094	 1.92702534994292E-03 
1095	 1.91037098242186E-03 
1096	 2.22551954517905E-03 
1097	 2.39713424634951E-03 
1098	 2.74910138310489E-03 
1099	 2.79750447168186E-03 
1100	 2.70193976279887E-03 
1101	 2.65054554311885E-03 
1102	 2.34434440312277E-03 
1103	 2.26493395272684E-03 
1104	 2.59590509453488E-03 
1105	 2.22266527057406E-03 
1106	 2.08170032350146E-03 
1107	 2.63487098808534E-03 
1108	 2.32686143336028E-03 
1109	 1.99215536238777E-03 
1110	 2.08948384109103E-03 
1111	 2.11513192576949E-03 
1112	 2.09424893186749E-03 
1113	 2.94176692615324E-03 
1114	 3.10392854173861E-03 
1115	 2.31859207605968E-03 
1116	 2.11414274137137E-03 
1117	 1.63585190545799E-03 
1118	 1.8531219585073E-03 
1119	 3.93537649740233E-03 
1120	 4.16459494124493E-03 
1121	 3.37453394620729E-03 
1122	 3.06267140757438E-03 
1123	 1.84539523637872E-03 
1124	 7.50040116035509E-04 
1125	 1.98807582251715E-03 
1126	 2.98987770866232E-03 
1127	 2.75685947934582E-03 
1128	 2.03560366594098E-03 
1129	 1.94477276290131E-03 
1130	 2.51052862724039E-03 
1131	 2.36623317367412E-03 
1132	 1.68689061838374E-03 
1133	 1.58182006261411E-03 
1134	 1.36637958507718E-03 
1135	 1.4397023260395E-03 
1136	 2.32815060208236E-03 
1137	 2.53790710557957E-03 
1138	 2.55069714037039E-03 
1139	 2.22038924912411E-03 
1140	 2.11490479137182E-03 
1141	 1.45854506479153E-03 
1142	 1.20208508438639E-03 
1143	 1.69550066136378E-03 
1144	 1.72129791713429E-03 
1145	 1.94460917746346E-03 
1146	 2.83875114471704E-03 
1147	 2.6922839110211E-03 
1148	 1.62465594276247E-03 
1149	 1.52173359928598E-03 
1150	 1.33482107657246E-03 
1151	 5.73439126996425E-04 
1152	 4.58585358702921E-04 
1153	 1.04963806568729E-03 
1154	 1.26851761815035E-03 
1155	 1.35724662479565E-03 
1156	 1.68426206577289E-03 
1157	 1.85748931687263E-03 
1158	 1.69153999494136E-03 
1159	 1.15258097688775E-03 
1160	 9.67183907263616E-04 
1161	 1.22704837177213E-03 
1162	 1.2852055999587E-03 
1163	 1.64908767414359E-03 
1164	 2.04064445607426E-03 
1165	 1.71340109227013E-03 
1166	 1.26532014846376E-03 
1167	 1.30093847944956E-03 
1168	 1.40442416654468E-03 
1169	 1.43735466229978E-03 
1170	 1.84041268967482E-03 
1171	 1.91708621296899E-03 
1172	 1.41114987915956E-03 
1173	 1.29508419051207E-03 
1174	 1.35085547889965E-03 
1175	 1.45867848626701E-03 
1176	 1.27805419072019E-03 
1177	 1.27249734802313E-03 
1178	 1.34916031557725E-03 
1179	 1.28799076336895E-03 
1180	 1.31872542676801E-03 
1181	 1.34606144663213E-03 
1182	 1.32587384535274E-03 
1183	 1.39458745830051E-03 
1184	 1.47465855800202E-03 
1185	 1.71286715642311E-03 
1186	 1.7634034824882E-03 
1187	 1.43568688903822E-03 
1188	 1.29600455072818E-03 
1189	 1.45580276749321E-03 
1190	 1.56652919054503E-03 
1191	 1.66472200737034E-03 
1192	 1.6877314294857E-03 
1193	 1.65514848607516E-03 
1194	 1.29981726050225E-03 
1195	 1.1476295966659E-03 
1196	 1.31561543327478E-03 
1197	 1.36494410010757E-03 
1198	 1.46980824772474E-03 
1199	 1.66596193671473E-03 
1200	 1.58950771788682E-03 
1201	 1.32941365211924E-03 
1202	 1.25662057546986E-03 
1203	 1.31601562969295E-03 
1204	 1.35194042580198E-03 
1205	 1.46569836225474E-03 
1206	 1.50102510518824E-03 
1207	 1.30433420892382E-03 
1208	 1.16332329201343E-03 
1209	 1.23456187429724E-03 
1210	 1.35065266335601E-03 
1211	 1.38201901911001E-03 
1212	 1.29883197260156E-03 
1213	 1.30029500766542E-03 
1214	 1.35037329765019E-03 
1215	 1.47576128058232E-03 
1216	 1.52730192797177E-03 
1217	 1.45387212300223E-03 
1218	 1.27473128877887E-03 
1219	 1.26155241500299E-03 
1220	 1.4498286663395E-03 
1221	 1.62451616704323E-03 
1222	 1.89709474716448E-03 
1223	 1.83489486139292E-03 
1224	 1.36122814911018E-03 
1225	 1.26082638777398E-03 
1226	 1.39695723340504E-03 
1227	 0.001347402125519 
1228	 1.3665338679308E-03 
1229	 1.45742038143392E-03 
1230	 1.40088984266203E-03 
1231	 1.26276114969179E-03 
1232	 1.27363858350848E-03 
1233	 1.36742227652435E-03 
1234	 1.29962187708454E-03 
1235	 1.25339563792422E-03 
1236	 1.23846271715273E-03 
1237	 1.26820018176586E-03 
1238	 1.26205444319572E-03 
1239	 1.31101368993164E-03 
1240	 1.53219270247774E-03 
1241	 1.53722528015757E-03 
1242	 1.33745626179726E-03 
1243	 1.33066834365559E-03 
1244	 1.32445027177245E-03 
1245	 1.4022009106395E-03 
1246	 1.63352098117135E-03 
1247	 1.47927490337552E-03 
1248	 1.29468078668958E-03 
1249	 1.41004207580117E-03 
1250	 1.3865002679361E-03 
1251	 1.37002633656016E-03 
1252	 1.3862954607023E-03 
1253	 1.27304464278786E-03 
1254	 1.27323095655402E-03 
1255	 1.31484429040879E-03 
1256	 1.36866211598991E-03 
1257	 1.50926660677475E-03 
1258	 1.52175712751904E-03 
1259	 1.39951834227598E-03 
1260	 1.44347613838537E-03 
1261	 1.53920244795405E-03 
1262	 1.52962416142995E-03 
1263	 1.51319929561715E-03 
1264	 1.63081550966602E-03 
1265	 1.53523358204568E-03 
1266	 1.41619410760754E-03 
1267	 1.5749979891008E-03 
1268	 1.69092140802279E-03 
1269	 1.63748527433874E-03 
1270	 1.6216235249707E-03 
1271	 1.60767165735918E-03 
1272	 1.58584182100209E-03 
1273	 1.54538630216582E-03 
1274	 1.39831717040572E-03 
1275	 1.25562455468156E-03 
1276	 1.2688393202054E-03 
1277	 1.35514870071915E-03 
1278	 1.33679764789113E-03 
1279	 1.24915400083552E-03 
1280	 1.35085226767044E-03 
1281	 1.38634357335026E-03 
1282	 1.59785005402292E-03 
1283	 1.57561532153202E-03 
1284	 1.22896127573541E-03 
1285	 1.1993208692649E-03 
1286	 1.35399562121131E-03 
1287	 1.37834976303352E-03 
1288	 1.54539312724169E-03 
1289	 1.58648829061125E-03 
1290	 1.34352387701436E-03 
1291	 1.34673620053657E-03 
1292	 1.5321512983398E-03 
1293	 1.5339911153709E-03 
1294	 1.51543185779906E-03 
1295	 1.49138688855681E-03 
1296	 1.4052903434075E-03 
1297	 1.30144411649875E-03 
1298	 1.18678525237147E-03 
1299	 1.15762352255062E-03 
1300	 1.21737029091949E-03 
1301	 1.19005911029457E-03 
1302	 1.06311700401998E-03 
1303	 9.73906004045059E-04 
1304	 1.24310672507464E-03 
1305	 1.51101192347292E-03 
1306	 1.50663696954688E-03 
1307	 1.55816162152519E-03 
1308	 1.6882057450969E-03 
1309	 1.58736636558243E-03 
1310	 1.45673925665474E-03 
1311	 1.48679870369534E-03 
1312	 1.50919052904376E-03 
1313	 1.18334448300757E-03 
1314	 1.08342791232769E-03 
1315	 1.42806369126902E-03 
1316	 1.55667115011651E-03 
1317	 1.45730300607192E-03 
1318	 1.41042968145012E-03 
1319	 0.001385784986063 
1320	 1.49379813978344E-03 
1321	 1.71671333201937E-03 
1322	 1.7917102741127E-03 
1323	 1.72617836232499E-03 
1324	 1.72604920299203E-03 
1325	 1.80354186525139E-03 
1326	 1.41919282841444E-03 
1327	 1.2923578950362E-03 
1328	 1.6504451573875E-03 
1329	 1.43396985430956E-03 
1330	 1.12140781463615E-03 
1331	 1.2191895455359E-03 
1332	 1.20367512918315E-03 
1333	 8.90443252627664E-04 
1334	 6.01226464557294E-04 
1335	 8.88564599866007E-04 
1336	 1.73876833060635E-03 
1337	 1.46753874961983E-03 
1338	 7.76740027717114E-04 
1339	 1.15265022428113E-03 
1340	 1.58408394742323E-03 
1341	 1.22140901561773E-03 
1342	 1.38731850079306E-03 
1343	 1.60231986391361E-03 
1344	 1.11243921003503E-04 
1345	-7.22137576844892E-04 
1346	 7.42724300195712E-04 
1347	 1.2811606988273E-03 
1348	-7.40689570460841E-04 
1349	-1.80068116236196E-03 
1350	-3.07909761645536E-04 
1351	-1.51963457804677E-05 
1352	-1.60383130540776E-03 
1353	-2.25924626399128E-03 
1354	-1.96710186573527E-03 
1355	-6.64166814674504E-03 
1356	-3.78663739380985E-03 
1357	 3.21942195208195E-03 
1358	-2.52744279170766E-02 
1359	-0.055738882684432 
1360	-6.15816726411737E-02 
1361	-3.10318290792613E-02 
1362	 4.71478763461992E-02 
1363	 0.111767792609575 
1364	 0.125869693647423 
1365	 5.32071852570735E-02 
1366	-3.68478472906362E-02 
1367	-5.43842836696346E-02 
1368	-8.26410373674444E-02 
1369	-0.153469920350061 
1370	-0.212811400229873 
1371	-0.219168391593007 
1372	-0.212300888890351 
1373	-0.2190611029307 
1374	-0.219091548375865 
1375	-0.17507515177839 
1376	-9.45017138756221E-02 
1377	-2.05622039563711E-02 
1378	 9.64161485294803E-03 
1379	 0.104403226273949 
1380	 0.136527281116769 
1381	 5.17743241022998E-02 
1382	 2.97844165832189E-02 
1383	 9.26826660014718E-02 
1384	 4.67653311832551E-02 
1385	-8.42742351241381E-02 
1386	-5.53684691621691E-02 
1387	 0.195646823306759 
1388	 0.237437197352051 
1389	 0.388602226397893 
1390	 0.607749197708305 
1391	 0.407653545970481 
1392	 9.27751627556843E-03 
1393	 3.99135863460819E-02 
1394	 0.114897720981908 
1395	 2.53386213861874E-02 
1396	-2.33315083402433E-03 
1397	 5.15362877038343E-03 
1398	-2.18830849109768E-02 
1399	-0.112928704837943 
1400	-0.155568650258849 
1401	-0.152888610500232 
1402	-0.156150055403861 
1403	-2.30357991762332E-02 
1404	 6.90091778832951E-02 
1405	 7.38008896476591E-02 
1406	 2.77962627814583E-02 
1407	 5.56218833594746E-02 
1408	 8.40958976442629E-02 
1409	 6.20210299013737E-02 
1410	 5.00658920115228E-02 
1411	 4.37420749335316E-02 
1412	 1.27266847684226E-02 
1413	 5.90152650610886E-03 
1414	 1.48990671338126E-02 
1415	 2.14992418927537E-02 
1416	 3.09875617612124E-02 
1417	 2.44498058238088E-02 
1418	 1.57372917394917E-02 
1419	 1.50625437380663E-02 
1420	 7.51888258636537E-03 
1421	 4.77645906232321E-03 
1422	 1.10638145553317E-02 
1423	 1.12377719854977E-02 
1424	 7.62597570285487E-03 
1425	 5.3162915045294E-03 
1426	 2.00185843960527E-03 
1427	 2.30459128306789E-03 
1428	 5.73859023580865E-03 
1429	 4.34082617284298E-03 
1430	 8.13516901472772E-04 
1431	 1.00244496096286E-03 
1432	 1.29486608472784E-03 
1433	-1.0264654452473E-03 
1434	-3.61378664689218E-03 
1435	-2.31529149077097E-03 
1436	 1.75537782273576E-04 
1437	-6.62763754670791E-04 
1438	-3.90017441263812E-03 
1439	-2.2351842434496E-03 
1440	-8.78477324591966E-04 
1441	-3.89568876043364E-03 
1442	-1.78950393146037E-03 
1443	 1.56960143825741E-03 
1444	 1.90467024534072E-03 
1445	 2.84285853169692E-04 
1446	 4.74500351056255E-04 
1447	 2.5484439983819E-03 
1448	 1.25088686433493E-03 
1449	 1.03135358292291E-04 
1450	 8.41269067574443E-04 
1451	 2.1938266848253E-04 
1452	-9.82083826549539E-04 
1453	-1.70954986330562E-03 
1454	-1.67650128037395E-03 
1455	-1.7906032349314E-03 
1456	-1.47097070134055E-03 
1457	-2.39782747363709E-04 
1458	 1.04421567557062E-04 
1459	 1.43119245283604E-04 
1460	 2.75314344012783E-05 
1461	-3.03049434588592E-04 
1462	-2.83911626036557E-04 
1463	-3.8839335843032E-04 
1464	-6.2200874110403E-04 
1465	-6.71767481310154E-04 
1466	-5.74712801994506E-04 
1467	-4.24251832926116E-04 
1468	-7.80043916112765E-04 
1469	-1.63624078898964E-03 
1470	-1.3789847146734E-03 
1471	-7.79157355995426E-04 
1472	-7.55992859646225E-04 
1473	 7.94291932612308E-06 
1474	 2.66805345551343E-04 
1475	-5.86432609077181E-04 
1476	-7.17650750942246E-04 
1477	-3.37433603779347E-04 
1478	 2.82071299034827E-05 
1479	 5.33771029071991E-04 
1480	 5.66025296914085E-04 
1481	 7.42680191965534E-04 
1482	 6.55107613489055E-04 
1483	-3.72480593881662E-04 
1484	-3.11803822865068E-04 
1485	 6.69376385911793E-04 
1486	 6.46787464122211E-04 
1487	 3.30046069838847E-04 
1488	 4.01659175958317E-04 
1489	 4.08800927019692E-04 
1490	 1.53076700945992E-04 
1491	-1.29579354367286E-04 
1492	-3.795844215761E-05 
1493	-5.11542369986608E-05 
1494	-6.3987531598348E-05 
1495	 2.68428771481675E-04 
1496	 4.4096045318249E-04 
1497	 4.65687345902055E-04 
1498	 4.35321355877015E-04 
1499	 4.36036461307286E-04 
1500	 4.2546603190653E-04 
1501	 1.42565615563711E-04 
1502	 1.15944298781397E-04 
1503	 4.75427653631013E-04 
1504	 5.34569827432127E-04 
1505	 5.54667575139622E-04 
1506	 4.2835778289789E-04 
1507	 4.06489911713755E-04 
1508	 2.92368234153851E-04 
1509	 2.01485840827611E-04 
1510	 3.79870817327806E-04 
1511	 4.31475356856643E-04 
1512	 1.4910250046073E-04 
1513	 1.66205499713589E-04 
1514	 2.91542126054846E-04 
1515	 6.56147199233408E-05 
1516	 1.0272682835893E-04 
1517	 3.38993871839435E-04 
1518	 2.64378218867617E-04 
1519	 3.26035396978474E-04 
1520	 4.99041409595429E-04 
1521	 4.1449428073306E-04 
1522	 2.91618424943491E-04 
1523	 8.86519614484973E-05 
1524	 4.24300479029125E-05 
1525	 2.2759275206537E-04 
1526	 2.27957060662407E-04 
1527	 2.51622581661338E-04 
1528	 3.01262676645866E-04 
1529	 2.34877194045364E-04 
1530	 2.61390305700484E-04 
1531	 2.97406553812612E-04 
1532	 3.38685626207723E-04 
1533	 3.37914508679254E-04 
1534	 2.12600235578906E-04 
1535	 4.28483475112983E-04 
1536	 6.24653171992194E-04 
1537	 3.20926346596462E-04 
1538	 2.8962262914146E-04 
1539	 4.83501293037319E-04 
1540	 3.72340428787298E-04 
1541	 3.00989097872177E-04 
1542	 4.00715862179315E-04 
1543	 3.24650273671866E-04 
1544	 1.13876815986616E-04 
1545	 2.02057170024297E-04 
1546	 3.95383448993366E-04 
1547	 3.9202057237257E-04 
1548	 4.16800610740985E-04 
1549	 4.05839858896166E-04 
1550	 3.18931600334746E-04 
1551	 3.25348087442223E-04 
1552	 3.02347621036865E-04 
1553	 2.24136489987693E-04 
1554	 2.00736546674775E-04 
1555	 2.16663642577495E-04 
1556	 2.63550745646471E-04 
1557	 3.16423424569404E-04 
1558	 2.64410719406186E-04 
1559	 1.48972815071452E-04 
1560	 1.16666433465579E-04 
1561	 9.04979757681205E-05 
1562	 2.23054260396577E-04 
1563	 4.25592682832202E-04 
1564	 2.8567468180224E-04 
1565	 2.35036065612136E-04 
1566	 4.06467689870561E-04 
1567	 4.37715266393508E-04 
1568	 4.61011879792315E-04 
1569	 4.57995971634479E-04 
1570	 4.26113548496395E-04 
1571	 3.79846202318714E-04 
1572	 3.23332157000114E-04 
1573	 4.2796327351648E-04 
1574	 5.54175897450239E-04 
1575	 6.54824823813854E-04 
1576	 6.67677090384057E-04 
1577	 5.05169981781421E-04 
1578	 4.1815042984648E-04 
1579	 4.4260247092019E-04 
1580	 4.31189682351253E-04 
1581	 3.495477176131E-04 
1582	 2.70430947200919E-04 
1583	 2.32408205999568E-04 
1584	 3.04321613430748E-04 
1585	 4.53516738594248E-04 
1586	 5.67066785471425E-04 
1587	 6.25137988201639E-04 
1588	 5.99918383233302E-04 
1589	 5.69241664355519E-04 
1590	 4.2461531707249E-04 
1591	 3.23931241253364E-04 
1592	 3.65391529436249E-04 
1593	 2.22293829124598E-04 
1594	 3.01412857097513E-04 
1595	 5.39922265927153E-04 
1596	 4.89000817058452E-04 
1597	 5.19695340846664E-04 
1598	 5.40583984883179E-04 
1599	 3.10713743875231E-04 
1600	 2.48135858119042E-04 
1601	 4.46869783765839E-04 
1602	 4.77804470382004E-04 
1603	 5.43057768062738E-04 
1604	 7.55831423958742E-04 
1605	 7.45991274182753E-04 
1606	 7.12190550074336E-04 
1607	 6.4289990694168E-04 
1608	 4.15693716479539E-04 
1609	 3.32777370939904E-04 
1610	 4.26523710684702E-04 
1611	 5.40242190391037E-04 
1612	 4.1556729720507E-04 
1613	 1.26546507106075E-04 
1614	 7.97743306290159E-05 
1615	 3.78276324138814E-04 
1616	 6.75189847022689E-04 
1617	 5.18027426459435E-04 
1618	 2.31884285971484E-04 
1619	 1.20959053644199E-04 
1620	 1.41566218865074E-04 
1621	 5.69618960415423E-04 
1622	 9.47404120176904E-04 
1623	 6.27066213312176E-04 
1624	 3.34507455072992E-04 
1625	 4.84093692635306E-04 
1626	 5.55082052105586E-04 
1627	 6.18833281639904E-04 
1628	 7.35066660272087E-04 
1629	 6.45286264998642E-04 
1630	 6.7381791015384E-04 
1631	 9.75504653555342E-04 
1632	 1.00551349402989E-03 
1633	 8.18366960749787E-04 
1634	 6.90079052270333E-04 
1635	 5.5947973178075E-04 
1636	 6.24815181702933E-04 
1637	 7.087648467813E-04 
1638	 6.77479420757092E-04 
1639	 7.11307579761245E-04 
1640	 7.4363175861646E-04 
1641	 7.8617148045843E-04 
1642	 6.03037448576529E-04 
1643	 3.15111809773452E-04 
1644	 4.07743160909939E-04 
1645	 5.13004781271272E-04 
1646	 5.40315931539915E-04 
1647	 7.87052632492227E-04 
1648	 7.5141576648539E-04 
1649	 3.35954696818131E-04 
1650	 4.5537655497249E-04 
1651	 9.83531160773389E-04 
1652	 9.42598031807271E-04 
1653	 7.90059933281475E-04 
1654	 8.07880779886692E-04 
1655	 4.02007256773718E-04 
1656	 3.82131995786689E-04 
1657	 0.001068360414234 
1658	 1.08086462931335E-03 
1659	 5.26847116348054E-04 
1660	 5.49545588125126E-04 
1661	 8.06422271892821E-04 
1662	 6.54052288760869E-04 
1663	 5.43289099550892E-04 
1664	 4.8886994964837E-04 
1665	-2.74559861136748E-05 
1666	-9.13423045663633E-05 
1667	 5.03964493938946E-04 
1668	 5.69594183949184E-04 
1669	 3.34360621597767E-04 
1670	 4.32420412947202E-04 
1671	 4.25377642716495E-04 
1672	 2.47834123373033E-04 
1673	 3.9305091365584E-04 
1674	 4.04579136775946E-04 
1675	 2.60914640101412E-04 
1676	 4.17987482251724E-04 
1677	 5.943894497871E-04 
1678	 5.02343895721894E-04 
1679	 6.00491892661146E-04 
1680	 9.24016302737029E-04 
1681	 1.0522878091223E-03 
1682	 1.02079125807753E-03 
1683	 8.24578471280162E-04 
1684	 7.51679562882256E-04 
1685	 8.04866981010951E-04 
1686	 6.92739655420352E-04 
1687	 7.0030299144805E-04 
1688	 5.9956898576528E-04 
1689	 4.1856695456108E-04 
1690	 6.34773168977898E-04 
1691	 7.55000476607625E-04 
1692	 5.93526537494799E-04 
1693	 7.31745231059711E-04 
1694	 8.58033932316836E-04 
1695	 8.34780588257095E-04 
1696	 8.81818496215387E-04 
1697	 4.09238472628587E-04 
1698	-4.33434812399266E-05 
1699	 5.78253769639664E-06 
1700	 1.53263551881403E-04 
1701	 5.72470155516169E-04 
1702	 8.26448707411801E-04 
1703	 7.12118500608853E-04 
1704	 7.68201602542972E-04 
1705	 8.05138763503967E-04 
1706	 5.62335554638892E-04 
1707	 3.85103414371859E-04 
1708	 4.34613317061502E-04 
1709	 4.14782052500301E-04 
1710	 3.50207396286959E-04 
1711	 5.5589413587999E-04 
1712	 7.3361527395963E-04 
1713	 5.12428924072021E-04 
1714	 5.02985121721933E-04 
1715	 4.16610783984944E-04 
1716	 4.57545529254814E-04 
1717	 8.8154589296898E-04 
1718	 7.9014043463316E-04 
1719	 4.06561638760404E-04 
1720	 5.53091390259023E-04 
1721	 5.64232207607805E-04 
1722	 5.3656451599309E-04 
1723	 9.73330591401408E-04 
1724	 9.68273089519071E-04 
1725	 6.87344789094433E-04 
1726	 1.1014330929534E-03 
1727	 1.49171871567584E-03 
1728	 1.15075070599981E-03 
1729	 1.08118290629327E-03 
1730	 1.13098922086421E-03 
1731	 5.93272386236942E-04 
1732	 3.30413729065183E-04 
1733	 2.37780091312811E-04 
1734	 1.74133649988554E-04 
1735	 4.36168685583868E-04 
1736	 5.01180160634263E-04 
1737	 8.74670350543482E-04 
1738	 1.1286768255544E-03 
1739	 3.85403240092314E-04 
1740	 2.23812470539651E-04 
1741	 6.5032676919823E-04 
1742	 5.80225007162714E-04 
1743	 9.36670478547378E-04 
1744	 1.16242849140205E-03 
1745	 2.10922612636856E-04 
1746	-8.24158430332918E-05 
1747	 7.26669911908455E-06 
1748	 8.03950386031711E-04 
1749	 1.16650001655614E-03 
1750	 1.23092879814474E-03 
1751	 1.19871220470539E-03 
1752	 1.06541345338301E-03 
1753	 1.00282068980606E-03 
1754	 8.60786656206612E-04 
1755	 7.02536425544416E-04 
1756	 5.5695889623355E-04 
1757	 1.1279218685064E-03 
1758	 8.20226085634343E-04 
1759	 6.93504129411143E-04 
1760	 8.28442217609689E-04 
1761	 4.23449210797273E-04 
1762	 7.73909020574669E-04 
1763	 1.30620747959583E-03 
1764	 5.23582896758685E-04 
1765	-1.42887692837471E-04 
1766	-2.17006116142802E-05 
1767	-3.72956869050882E-05 
1768	 2.44436056478612E-04 
1769	 5.00772955289486E-04 
1770	-6.31202768249877E-05 
1771	-4.85837932664469E-04 
1772	 2.004135236604E-04 
1773	 6.13330335584885E-04 
1774	 5.18513954928618E-04 
1775	 8.72544402811027E-04 
1776	 8.43647352094147E-04 
1777	 1.14419538011816E-03 
1778	 1.33864799611559E-03 
1779	 7.73391714318161E-04 
1780	 4.60456768878343E-04 
1781	 1.09194399713996E-04 
1782	 1.55140695180175E-04 
1783	 8.37371195968542E-04 
1784	 1.24329805241519E-03 
1785	 1.97887926293467E-03 
1786	 1.73277998516859E-03 
1787	 1.61891943071783E-04 
1788	-1.22585492230319E-04 
1789	-4.87566223129235E-05 
1790	 1.30692407625647E-03 
1791	 2.27464472366782E-03 
1792	 1.45393592240875E-03 
1793	-6.32195910022218E-04 
1794	-1.33500861992873E-04 
1795	 9.37600424374283E-04 
1796	-4.29033577463334E-04 
1797	 5.67524168811581E-04 
1798	 2.35560480846962E-04 
1799	-2.65287938913386E-03 
1800	 4.90564423856798E-03 
1801	 8.40397528424635E-03 
1802	 1.00487381101777E-02 
1803	 1.05726030368519E-02 
1804	 3.12853348049501E-03 
1805	 1.00727331388448E-03 
1806	 8.62463474275688E-04 
1807	-1.06425628025262E-03 
1808	 5.05877279920897E-03 
1809	 4.49600679467553E-03 
1810	-7.75442330046133E-03 
1811	-1.22705498828619E-02 
1812	-1.76587756951711E-02 
1813	-2.09103451322702E-02 
1814	-4.57277157240093E-03 
1815	-5.23243900548025E-03 
1816	-2.70574233595287E-02 
1817	 4.04546456120111E-02 
1818	 2.13045725387414E-02 
1819	 2.43179483213188E-02 
1820	 4.78109961167428E-02 
1821	-8.01168001239668E-02 
1822	-0.151212545815676 
1823	-0.207604034723459 
1824	-0.252781052650344 
1825	-0.258147335321991 
1826	-0.320560303024066 
1827	-0.361528870023227 
1828	-0.352425619723665 
1829	-0.324639881502713 
1830	-0.325290468555463 
1831	 2.68143580656214 
1832	 2.87143470964437 
1833	 2.39015252976994 
1834	 1.73880423148855 
1835	 0.126556626116344 
1836	 2.28744152282653E-02 
1837	 0.777696450685578 
1838	 0.704104042716226 
1839	 8.25451504009267E-02 
1840	 0.124733769022699 
1841	 0.756364342984543 
1842	 1.43601657747223 
1843	-0.292109965462109 
1844	-1.665280056621 
1845	-1.75896574417464 
1846	-2.39705572364588 
1847	-4.31265874520569 
1848	 35.3698134678548 
1849	 6.10807457704667 
1850	 20.7527873223528 
1851	 2.18441431274845 
1852	 0.738521946798782 
1853	-2.73410362241118E-03 
1854	-0.166709525036164 
1855	-0.144121934358293 
1856	-0.218077371783424 
1857	-15.490799104707 
1858	 0.186512942744681 
1859	 2.59624456793747E-02 
1860	 5.54899561882357E-02 
1861	 0.307212081691556 
1862	-0.359832629378561 
1863	 1.36532985000662 
1864	 0.614993972331289 
1865	 0.143233456812953 
1866	 2.43948759123646 
1867	 3.39989798245207 
1868	 4.15863745273129 
1869	-14.2681481139888 
1870	-0.175268933409075 
1871	 0.290262799827393 
1872	 0.415665710258908 
1873	 0.496415852990426 
1874	 0.260090804234107 
1875	-5.58672798327585E-02 
1876	-0.1676182448489 
1877	-8.26838495308884E-02 
1878	-0.11176900837419 
1879	-0.204232447040631 
1880	 1.52469654540685 
1881	-2.64173210381202 
1882	-0.601761954154118 
1883	-1.57574405991728 
1884	-6.76030587240909 
1885	-2.33028642696039 
1886	-0.252227113887764 
1887	-0.377890915743794 
1888	-1.3343394762797 
1889	-1.42842157843005 
1890	 0.284002587636312 
1891	 0.568294963998677 
1892	 0.769995945850877 
1893	 0.294655159024615 
1894	 0.288169908619539 
1895	 9.65151484271054E-02 
1896	 2.13654113159673 
1897	-1.43764570720073 
1898	-8.14412501859642 
1899	 4.03434795166269 
1900	 1.70918489710841 
1901	 0.79741901049258 
1902	 0.563845499196046 
1903	-0.147891432457273 
1904	-5.89748566865339E-03 
1905	-3.19360669945715 
1906	-0.226042036145762 
1907	-1.87584649764235 
1908	 2.82078408403298 
1909	-0.175914185485779 
1910	 2.28960578489599E-02 
1911	 0.64270324290657 
1912	 0.42220412779551 
1913	 0.520978440313139 
1914	 3.08522637548805 
1915	 3.75905260783066 
1916	 1.90622179443646 
1917	 1.37080241824582 
1918	 1.50019598268458 
1919	 1.42139540233193 
1920	 0.776892200717184 
1921	 0.456659982065742 
1922	 0.369526422766448 
1923	 0.155543259358306 
1924	-0.550017696800091 
1925	-0.626900104699266 
1926	-0.58785098751382 
1927	-0.578214854238033 
1928	-0.675934938320481 
1929	-0.318139270677405 
1930	-0.077855486817704 
1931	 1.59933839752482E-02 
1932	 0.122924321098345 
1933	 0.145447778667233 
1934	 6.77686267795472E-02 
1935	 0.122571865885404 
1936	 0.146625939420615 
1937	 0.114543603449861 
1938	 0.100295657130602 
1939	 8.72490611544412E-02 
1940	 4.83508541713251E-02 
1941	 3.51127889719736E-02 
1942	 3.84084644345906E-02 
1943	 2.85349541213473E-02 
1944	 2.39468773756097E-02 
1945	 1.88855266264633E-04 
1946	-1.84309091678261E-02 
1947	-0.010512831704738 
1948	-1.24232038050121E-02 
1949	-1.70115544248097E-02 
1950	-1.73915084942157E-02 
1951	-2.08222374701245E-02 
1952	-1.90826261436651E-02 
1953	-1.42221279011859E-02 
1954	-1.03651040943642E-02 
1955	-4.73872523886875E-03 
1956	 1.46794722703566E-03 
1957	 1.90091754946802E-03 
1958	 5.92832538615477E-03 
1959	 7.79620586895695E-03 
1960	 6.75880718525461E-03 
1961	 6.19612253176888E-03 
1962	 3.42964314409767E-03 
1963	 2.38717387601749E-03 
1964	-2.74309545432428E-04 
1965	-2.92963256433624E-03 
1966	-2.31704289731372E-03 
1967	 1.99542089577895E-04 
1968	 5.20597953827673E-04 
1969	 2.11653210547875E-04 
1970	 8.55561289961639E-04 
1971	-8.55350759497675E-04 
1972	-0.002502503386324 
1973	-0.001036522603425 
1974	 8.73365678091632E-04 
1975	 1.31154540237939E-03 
1976	 1.23224073386447E-03 
1977	 9.4645016944431E-04 
1978	 7.39477367265409E-04 
1979	 3.13012368507475E-04 
1980	-8.74724456313724E-05 
1981	-1.66904392938292E-04 
1982	-4.24732750844806E-04 
1983	-8.85745599630167E-04 
1984	-5.71335339275606E-04 
1985	-1.89068556015766E-05 
1986	 7.21474476203342E-04 
1987	 7.75158708067639E-04 
1988	-3.71292000622831E-04 
1989	-6.61624343267379E-04 
1990	-9.47716259936679E-04 
1991	-1.62436383652976E-03 
1992	-7.59354835122426E-04 
1993	 2.49141549106865E-04 
1994	 6.423140393771E-04 
1995	 7.09717373491881E-04 
1996	 9.05055387980035E-04 
1997	 6.33857619942378E-04 
1998	 7.25508516901415E-04 
1999	 1.66047139609771E-03 
2000	 2.46081062230017E-03 
2001	 2.29591575429042E-03 
2002	 1.3409602251615E-03 
2003	 8.84963076436516E-04 
2004	 9.99482812977476E-04 
2005	-5.04233940957853E-04 
2006	-8.95979356428697E-04 
2007	-7.66699844426587E-05 
2008	-5.83620379545515E-04 
2009	-1.1059125378119E-03 
2010	 1.71758164976423E-04 
2011	-1.45883372587465E-04 
2012	-3.57918276667946E-03 
2013	-2.9284201093326E-03 
2014	 9.54191883803839E-04 
2015	 1.56790808710786E-03 
2016	 2.61704159657035E-03 
2017	 2.8150153234409E-03 
2018	 8.07245079246452E-04 
2019	 1.15220950787869E-03 
2020	 1.60956319216135E-03 
2021	 1.1924888829473E-03 
2022	 1.41301611398309E-03 
2023	 2.19355446011725E-03 
2024	 2.13532278286767E-03 
2025	 2.34246911013053E-03 
2026	 1.96546421018371E-03 
2027	 1.05278990364574E-03 
2028	-4.96298803294473E-04 
2029	-2.22057287686029E-04 
2030	-3.24186399167455E-04 
2031	-1.21856693800223E-03 
2032	-6.43251826640299E-04 
2033	-1.3357273565831E-04 
2034	 6.99267528784014E-05 
2035	 5.78700478266224E-04 
2036	 5.96558105797532E-04 
2037	 4.00828263574418E-04 
2038	 5.70536047122671E-04 
2039	 5.24280906952866E-04 
2040	 8.41831385760001E-04 
2041	 1.14786181525482E-03 
2042	 1.14327170756418E-03 
2043	 1.05669267684671E-03 
2044	 1.21965037834744E-03 
2045	 1.41157248963851E-03 
2046	 0.001166312748324 
2047	 5.04062931623521E-04 
2048	 2.2319757206284E-04 
2049	 3.21528839064285E-04 
2050	-4.20696406882183E-05 
2051	 4.45952843725122E-04 
2052	 8.51384212586999E-04 
2053	-1.8441071656107E-04 
2054	-9.31652729588251E-04 
2055	-1.30867369051765E-03 
2056	-1.30980041637443E-03 
2057	-4.93535189254177E-04 
2058	-1.00891149833093E-04 
2059	 5.17234199057701E-04 
2060	 5.7727138630587E-04 
2061	-9.33827750198122E-05 
2062	-6.70582651260615E-05 
2063	-9.18922413805211E-05 
2064	-2.67461396350528E-04 
2065	 1.21617482530906E-04 
2066	-4.68354795115142E-04 
2067	-1.41138660704069E-03 
2068	-1.47993816674361E-03 
2069	-1.75440861702276E-03 
2070	-1.73758789648584E-03 
2071	-5.27443450774201E-04 
2072	 1.3919814001664E-04 
2073	 1.41290278459899E-04 
2074	-1.55636072801769E-05 
2075	-3.99493659816401E-04 
2076	-2.22947810191006E-03 
2077	-2.42067977405615E-03 
2078	-1.78360002304414E-03 
2079	-1.42361840885469E-03 
2080	-4.21230951218507E-04 
2081	 2.74174779676397E-04 
2082	 2.82841834053415E-04 
2083	 6.94959649528533E-05 
2084	-6.76591265662615E-04 
2085	-3.73383582286319E-04 
2086	 7.39676825293506E-04 
2087	 6.58435576912692E-04 
2088	 5.48968666422987E-04 
2089	 7.43751234622548E-04 
2090	 4.74462459923604E-04 
2091	 8.14617251159403E-04 
2092	 9.31210566209507E-04 
2093	 1.17226520382881E-03 
2094	 1.42471815580139E-03 
2095	 1.64660993056922E-03 
2096	 1.78211664998835E-03 
2097	 2.36375323121573E-03 
2098	 2.2661100849748E-03 
2099	 1.65062406214365E-03 
2100	 1.09959500004387E-03 
2101	-3.25271105163779E-06 
2102	-7.72291162507134E-04 
2103	-7.56314943390318E-04 
2104	-9.56479894774015E-04 
2105	-6.53918503009486E-04 
2106	 2.23973668205354E-04 
2107	 6.86638095621464E-04 
2108	 5.95489643379857E-04 
2109	 1.77004914311406E-04 
2110	-1.01024793490712E-04 
2111	-1.2874529036712E-04 
2112	-3.91815245946215E-05 
2113	 1.44973767996075E-04 
2114	 9.35232472425954E-04 
2115	 8.65364846343519E-04 
2116	 1.86350435222493E-04 
2117	-8.79621701427501E-05 
2118	-5.4310553180088E-04 
2119	-8.401375143132E-04 
2120	-1.00835897842519E-03 
2121	-8.16449943559871E-04 
2122	-7.63262097097465E-04 
2123	-8.67583526311961E-04 
2124	-6.22726512870769E-04 
2125	-4.55024008210355E-04 
2126	-1.21167064829297E-04 
2127	-5.68294355483545E-05 
2128	-5.09283927679186E-04 
2129	-1.31766607221808E-04 
2130	 5.57690693114994E-04 
2131	 3.96982649874441E-04 
2132	 5.26448778845823E-04 
2133	 1.0195387323809E-03 
2134	 1.02866202756667E-03 
2135	 4.94907306144545E-04 
2136	 3.54686932844081E-04 
2137	 4.22883845659548E-05 
2138	-4.04936126749451E-05 
2139	 7.28801103434076E-06 
2140	 1.85482631818931E-04 
2141	 1.08655049235816E-03 
2142	 1.08243504125017E-03 
2143	 5.04585238270233E-04 
2144	 1.54700240602631E-04 
2145	-3.23924309381838E-04 
2146	-3.41187692610875E-04 
2147	 5.39055794358952E-04 
2148	 5.80873018548007E-04 
2149	 2.69873507698929E-05 
2150	-2.82540470823269E-05 
2151	-1.29683790210953E-04 
2152	-6.06710571977765E-04 
2153	-1.22720567050416E-03 
2154	-1.79250830339305E-03 
2155	-1.69727995299002E-03 
2156	-1.27826231048776E-03 
2157	-1.19845481264338E-03 
2158	-5.31094842258043E-04 
2159	-3.16268964517684E-04 
2160	-8.55666186610155E-04 
2161	-6.51882630263162E-04 
2162	 1.7051819429118E-04 
2163	 3.79655054866879E-04 
2164	 8.48012032434906E-05 
2165	 3.98923654527835E-05 
2166	 2.05575096474671E-04 
2167	 2.43426656377661E-04 
2168	 3.33522394695995E-04 
2169	 7.0343197411736E-04 
2170	 1.35445944126851E-03 
2171	 1.10164132963669E-03 
2172	 9.91488716334552E-04 
2173	 9.54954109133903E-04 
2174	 7.09113092895971E-04 
2175	 9.25023199210975E-04 
2176	 1.32746710004406E-03 
2177	 1.5117635893854E-03 
2178	 1.14436675950199E-03 
2179	 5.7376918298538E-04 
2180	 4.80377132404215E-04 
2181	 5.09653535078612E-04 
2182	 6.55929080719708E-04 
2183	 1.09222899690035E-03 
2184	 1.29647754026401E-03 
2185	 7.56248282505641E-04 
2186	 4.53859415816202E-04 
2187	-4.57202812275029E-04 
2188	-3.53528033360094E-04 
2189	 7.34512408467245E-04 
2190	 8.37741031982224E-04 
2191	 8.291171861529E-04 
2192	 9.86809958757437E-04 
2193	 3.81753817666347E-04 
2194	 6.03504540127822E-04 
2195	 2.3603073075211E-03 
2196	 2.64014915262533E-03 
2197	 1.37062817108909E-03 
2198	 1.43971911263863E-03 
2199	 1.73048810378664E-03 
2200	 2.22550661656059E-03 
2201	 2.38382647384647E-03 
2202	 1.93870906206164E-03 
2203	 1.29249342955539E-03 
2204	 3.25407913589049E-04 
2205	 1.23562050620887E-04 
2206	 1.15961731298062E-03 
2207	 2.13813618023656E-03 
2208	 2.71213442947572E-03 
2209	 2.22707889526547E-03 
2210	 0.002005692846429 
2211	 1.06741724863603E-03 
2212	-1.02238751800304E-03 
2213	-1.44043590514584E-03 
2214	-1.01793113006562E-03 
2215	-1.34594403542211E-03 
2216	-1.34389223729042E-03 
2217	-2.27730693110813E-04 
2218	 2.57540928238459E-03 
2219	 2.17080852029495E-03 
2220	 1.02955102077592E-03 
2221	 7.79458526256311E-04 
2222	-1.79776281479944E-03 
2223	-2.68292883361379E-03 
2224	-9.08377018671394E-04 
2225	-8.0659496358295E-04 
2226	-2.17232338794074E-03 
2227	-2.3967805543199E-03 
2228	-2.19473812638191E-03 
2229	-2.27824488642185E-03 
2230	-2.45707721184167E-03 
2231	-1.96256597682018E-03 
2232	-2.62011768334344E-04 
2233	 3.42598668650717E-04 
2234	 1.0219360027148E-03 
2235	 4.3340938222536E-04 
2236	 6.65139283454323E-04 
2237	-4.96881637638788E-05 
2238	-7.75674827867872E-04 
2239	-2.54992487209965E-04 
2240	-8.27537268801781E-05 
2241	 5.60938008833973E-04 
2242	 9.50171467287849E-04 
2243	 6.21602659864073E-04 
2244	 1.89791745277681E-04 
2245	 5.15813103094144E-04 
2246	 1.82419414828125E-03 
2247	 2.3398976725501E-03 
2248	 2.74117798541687E-03 
2249	 2.5732362074721E-03 
2250	 8.6408776691827E-05 
2251	 7.32832853222823E-04 
2252	 3.64630900112757E-03 
2253	 2.4527982883076E-03 
2254	 1.58471428070091E-03 
2255	 2.15705514099021E-03 
2256	 8.08115084908777E-04 
2257	-4.30773382547255E-04 
2258	-9.57320839406654E-05 
2259	 6.50659344771558E-04 
2260	 1.24571200678166E-03 
2261	 2.33549945865765E-03 
2262	 1.79853674307406E-03 
2263	 7.19356433504931E-04 
2264	-2.27418048107443E-04 
2265	-3.44148698984129E-03 
2266	-3.92230964201368E-03 
2267	-2.59394714478822E-03 
2268	-1.64929094540181E-03 
2269	 3.61328378229201E-04 
2270	 1.34206893182486E-03 
2271	 2.6578133462918E-03 
2272	 2.93058651899948E-03 
2273	 1.80760674067713E-03 
2274	 1.75901468590282E-03 
2275	 1.74815154481081E-03 
2276	 1.60135073833706E-03 
2277	 1.50091956409377E-03 
2278	 2.08411836047707E-03 
2279	 3.27142812123758E-03 
2280	 3.09051985459508E-03 
2281	 2.64555730438262E-03 
2282	 2.47767465632141E-03 
2283	 1.45918529047612E-03 
2284	 1.51391720585524E-03 
2285	 1.1603036545907E-03 
2286	 4.7057183003009E-05 
2287	-1.17423670280276E-03 
2288	-3.18680387537883E-03 
2289	-4.44092853604493E-03 
2290	-3.33456349254847E-03 
2291	-1.29658614402444E-03 
2292	-6.57347337520588E-04 
2293	-1.75396690099893E-03 
2294	-1.8909292373298E-03 
2295	-4.82721529586549E-04 
2296	 3.1420191264675E-04 
2297	 1.66155910014978E-03 
2298	 3.01266333762988E-03 
2299	 3.41242041596382E-03 
2300	 3.9422673570277E-03 
2301	 5.38799115612263E-03 
2302	 6.64216147040562E-03 
2303	 0.005433751841893 
2304	 4.51726090463743E-03 
2305	 2.19403418528295E-03 
2306	-1.43472147415234E-03 
2307	-2.55694140739367E-03 
2308	-4.46355846486503E-03 
2309	-4.21406682014232E-03 
2310	-2.61762204800914E-04 
2311	 4.13623127266613E-03 
2312	 7.55014309754931E-03 
2313	 7.57986180135901E-03 
2314	 9.56766391913444E-03 
2315	 1.20213744302777E-02 
2316	 8.54568907390585E-03 
2317	 8.63625910815548E-03 
2318	 1.11276642144917E-02 
2319	 6.79458135688219E-03 
2320	 4.88821144067619E-03 
2321	 0.0081595804023 
2322	 6.03873593257779E-03 
2323	 2.52673879678496E-03 
2324	 4.78264751863464E-03 
2325	 2.65503037222768E-03 
2326	 7.06990904218791E-04 
2327	 3.6457746173355E-03 
2328	 3.14512431837997E-03 
2329	 3.51233152074489E-03 
2330	 1.92886133274417E-04 
2331	-2.14420011432203E-03 
2332	 7.6751567477906E-04 
2333	 1.98617310017715E-03 
2334	 6.76496825836487E-03 
2335	 8.65164487233872E-03 
2336	 6.3003843544381E-03 
2337	 7.75947123974735E-03 
2338	 7.24940789509193E-03 
2339	 6.39813774159519E-03 
2340	 6.30101599491303E-03 
2341	-1.21560781546299E-03 
2342	-6.14393864323137E-03 
2343	-3.30835430097584E-03 
2344	 3.47622716893696E-04 
2345	 5.12500765725618E-03 
2346	 9.02877128838779E-03 
2347	 7.87123857387246E-03 
2348	 2.31541404764523E-03 
2349	 2.41006105979225E-03 
2350	 3.26131001794215E-03 
2351	 1.33955778979557E-03 
2352	 4.67667229684955E-03 
2353	 6.11973254041104E-03 
2354	 8.23188999437851E-03 
2355	 1.35234244702408E-02 
2356	 1.45984437131336E-02 
2357	 1.26031974012109E-02 
2358	 5.94193598313543E-03 
2359	-2.77521865451813E-03 
2360	-7.23625672709404E-03 
2361	-3.57346451025559E-03 
2362	 1.83904585842607E-03 
2363	 1.52254880178957E-03 
2364	-4.90550807991885E-04 
2365	-6.83843345995854E-03 
2366	-1.28470970609826E-02 
2367	-0.0157669076698 
2368	-1.46630691243854E-02 
2369	-8.81214080437643E-03 
2370	-6.70764534601712E-03 
2371	-3.5204086649522E-03 
2372	-9.21475650771676E-04 
2373	-1.30695883133593E-03 
2374	-4.46481733853068E-03 
2375	-4.79015898600387E-03 
2376	 6.63641255121147E-03 
2377	 9.07246675774899E-03 
2378	 1.08516181946209E-02 
2379	 2.42836020548597E-02 
2380	 2.05450969555336E-02 
2381	 1.33256003851184E-02 
2382	 1.69773660156806E-02 
2383	-5.00910902667501E-04 
2384	-3.09258531077551E-02 
2385	-3.20484982977302E-02 
2386	-2.74454642325911E-02 
2387	-3.10819727563262E-02 
2388	-1.1876394764036E-03 
2389	 1.13925781603304E-02 
2390	 1.05999520771725E-03 
2391	 1.26620273620871E-02 
2392	 0.011977345355325 
2393	-2.18288045174575E-03 
2394	-4.83554729042588E-03 
2395	-6.9846722959888E-04 
2396	 3.15026224368035E-03 
2397	 1.69227045033854E-02 
2398	 3.04331865353682E-02 
2399	 3.03894372610509E-02 
2400	 3.67431067784707E-02 
2401	 3.65652150494226E-02 
2402	 1.50639534034959E-02 
2403	-3.91647366443298E-04 
2404	-1.84998299913025E-02 
2405	-4.13829373085533E-02 
2406	-4.32001249360927E-02 
2407	-3.39647223665549E-02 
2408	-2.07867583393505E-02 
2409	 1.51525088253871E-02 
2410	 9.73625317777999E-03 
2411	-4.83388131684525E-02 
2412	-0.042899502991056 
2413	-1.11970055982919E-02 
2414	-6.30958535290219E-03 
2415	 4.67827694208133E-02 
2416	 6.64583947229817E-02 
2417	 6.12517196343246E-03 
2418	 1.39552437566107E-03 
2419	 3.99616390038111E-02 
2420	 5.20808057732422E-02 
2421	 2.39750611140369E-02 
2422	-2.20017943150823E-02 
2423	-3.24085997444488E-02 
2424	-4.60230803511007E-02 
2425	-6.20134915117342E-02 
2426	-9.09521995408173E-04 
2427	 5.51057244383492E-02 
2428	 2.18997621832849E-02 
2429	-6.56655941295102E-03 
2430	-1.56245017785165E-02 
2431	-7.82985673561755E-02 
2432	-9.73930745833949E-02 
2433	-6.67693875589122E-02 
2434	-0.112860356151586 
2435	-0.113462216827632 
2436	-0.10070419264932 
2437	-0.114898319185332 
2438	-7.80579239919023E-02 
2439	-6.39333177895882E-02 
2440	-7.77007927465431E-02 
2441	-9.09039563291762E-02 
2442	-0.068276290447769 
2443	-3.90254614840085E-02 
2444	 2.45148968982075E-02 
2445	 0.174619547681864 
2446	 0.176775451540371 
2447	 0.120869654944009 
2448	 7.17008572629052E-02 
2449	 0.010757798949204 
2450	-6.64202293523545E-02 
2451	-0.388253015922552 
2452	-0.305199950662558 
2453	-0.369067762964834 
2454	-0.495754959776172 
2455	-0.267035522255137 
2456	-0.198830538552032 
2457	-0.206423678130936 
2458	-6.16701511962651E-02 
2459	-0.012937144921043 
2460	-4.46380596801436E-02 
2461	 1.50728225656038E-02 
2462	 7.07683405330646E-02 
2463	 0.13827563708102 
2464	 0.186092722082519 
2465	 0.188638900535782 
2466	 0.197916641566052 
2467	 0.143836425503439 
2468	 9.37396796105434E-02 
2469	 0.14286474254857 
2470	 1.74929205443982E-02 
2471	-0.253764819971627 
2472	-0.348187569918638 
2473	-0.110929264248728 
2474	 0.202463319261497 
2475	 0.553298088048317 
2476	 0.691557571925462 
2477	 0.63139590184922 
2478	 2.73947608275602E-03 
2479	 0.192442166235218 
2480	 0.655888254024867 
2481	 0.268567793225163 
2482	 5.72373808813967E-02 
2483	 0.126314918186065 
2484	 0.125295940526822 
2485	 0.447971774225245 
2486	-8.63589517877922 
2487	 51.5632872906886 
2488	 2.88531807465777 
2489	 2.83052236464494 
2490	-3.16200373872192 
2491	-5.40880647992219 
2492	 5.82697745340312 
2493	 2.10661472210437 
2494	-5.01586243136728 
2495	-1.01071178861683 
2496	-0.686287032930951 
2497	-0.562075484522514 
2498	-0.588915253644117 
2499	-4.53347836003686 
2500	-0.583446903073993 
