Wavelength	rt0715far00001.asd
350	 1.32553313085687E-02 
351	 1.36796930121212E-02 
352	 1.36905851987076E-02 
353	 1.34780921535861E-02 
354	 0.01339635833858 
355	 0.013590071441205 
356	 0.014085418868329 
357	 1.42850028284111E-02 
358	 1.38499160048803E-02 
359	 1.43159437544717E-02 
360	 1.43569489230163E-02 
361	 1.40149483383915E-02 
362	 1.42276280970766E-02 
363	 1.45374810567252E-02 
364	 1.43284371848442E-02 
365	 1.38287657329606E-02 
366	 1.45379763019963E-02 
367	 1.46296537572812E-02 
368	 1.46874045301997E-02 
369	 1.53004933362139E-02 
370	 1.47213042473511E-02 
371	 1.46403649131065E-02 
372	 1.51470876204478E-02 
373	 1.54073153039086E-02 
374	 1.56719022054485E-02 
375	 1.57189849564506E-02 
376	 1.55541957308844E-02 
377	 1.55289779393533E-02 
378	 1.57395314994865E-02 
379	 1.57615235752957E-02 
380	 1.54768809182291E-02 
381	 1.61185628052974E-02 
382	 1.64524131461784E-02 
383	 1.65690522346132E-02 
384	 1.70520257678226E-02 
385	 1.70532425661306E-02 
386	 1.70752036503129E-02 
387	 1.73183977514944E-02 
388	 1.75259077668492E-02 
389	 1.74779461781512E-02 
390	 1.77618653932554E-02 
391	 1.84718058727571E-02 
392	 1.81381399763949E-02 
393	 1.81089888894812E-02 
394	 1.83842247683291E-02 
395	 1.85556211592872E-02 
396	 0.0190479166165 
397	 1.92045347652761E-02 
398	 1.90848025273736E-02 
399	 1.93492053278847E-02 
400	 1.94714309698834E-02 
401	 0.019496944035059 
402	 1.95496077900209E-02 
403	 0.019738579649751 
404	 1.98115405128917E-02 
405	 1.99184982652485E-02 
406	 2.02600036171815E-02 
407	 2.04308363723468E-02 
408	 2.04892339122875E-02 
409	 2.05490529887912E-02 
410	 2.07340844277125E-02 
411	 0.02092572464358 
412	 0.021055496651725 
413	 2.11224257473323E-02 
414	 2.12494633627377E-02 
415	 2.13941449880188E-02 
416	 2.15954953819928E-02 
417	 0.021883627132433 
418	 2.20504483369987E-02 
419	 2.22515211110213E-02 
420	 2.24922649629665E-02 
421	 2.26013589021803E-02 
422	 2.28482085104018E-02 
423	 2.30779260135332E-02 
424	 2.32060605226515E-02 
425	 2.36116595251115E-02 
426	 2.38885267010226E-02 
427	 2.40671521132575E-02 
428	 2.43552250101228E-02 
429	 0.02456138487771 
430	 2.48465616915862E-02 
431	 2.52062642946037E-02 
432	 2.54160885041183E-02 
433	 2.57194582830388E-02 
434	 2.59961361394246E-02 
435	 0.026159465886419 
436	 2.64566978731051E-02 
437	 2.67753922864187E-02 
438	 2.70744617490208E-02 
439	 2.73602143087683E-02 
440	 2.77134279405424E-02 
441	 2.79809737306106E-02 
442	 2.81545780400711E-02 
443	 2.84718466775084E-02 
444	 2.87331185355388E-02 
445	 2.89779221926693E-02 
446	 2.92745502820873E-02 
447	 2.95567812384315E-02 
448	 2.97658877818623E-02 
449	 2.99519883266203E-02 
450	 3.02300506523256E-02 
451	 3.04528725080353E-02 
452	 3.06190590872894E-02 
453	 3.07718914321222E-02 
454	 3.09944671842408E-02 
455	 3.12904532404275E-02 
456	 3.15087198009222E-02 
457	 3.15316834602891E-02 
458	 3.17300240609234E-02 
459	 3.19141635791532E-02 
460	 3.20459450855063E-02 
461	 0.032257138059061 
462	 3.23682234639424E-02 
463	 3.24804551623814E-02 
464	 3.26755680626703E-02 
465	 3.28261274054861E-02 
466	 3.29806919486231E-02 
467	 3.31964004972608E-02 
468	 3.34888172449835E-02 
469	 3.35247209259291E-02 
470	 0.033640100077852 
471	 3.39292812510198E-02 
472	 3.40874078179241E-02 
473	 3.41903861870562E-02 
474	 3.43059374926748E-02 
475	 3.44893133168318E-02 
476	 3.47476762937711E-02 
477	 3.49572957258408E-02 
478	 3.51029670137061E-02 
479	 3.52498632384673E-02 
480	 3.54181572496936E-02 
481	 3.56200732577099E-02 
482	 3.58601685393165E-02 
483	 3.61336468625479E-02 
484	 3.64345597649864E-02 
485	 3.66883726283739E-02 
486	 3.68430442198405E-02 
487	 3.70748466709796E-02 
488	 3.73753455106076E-02 
489	 3.76984316990859E-02 
490	 3.79801795032343E-02 
491	 3.82959208126337E-02 
492	 3.85367176759243E-02 
493	 0.038675739083036 
494	 3.90030076052794E-02 
495	 3.93619664647986E-02 
496	 3.96850598530389E-02 
497	 3.99640493412505E-02 
498	 4.03016264655008E-02 
499	 4.06379205910933E-02 
500	 4.09435016084084E-02 
501	 4.12615130950527E-02 
502	 4.15948524053879E-02 
503	 4.19264466102505E-02 
504	 4.22449064510252E-02 
505	 4.25828299320686E-02 
506	 4.29332137849544E-02 
507	 4.33056398525736E-02 
508	 4.37099771338717E-02 
509	 4.39291026944674E-02 
510	 4.42143668640558E-02 
511	 4.46813765666763E-02 
512	 0.044948131990374 
513	 4.52700542283068E-02 
514	 4.56592571865276E-02 
515	 4.60325671289142E-02 
516	 4.64203545164578E-02 
517	 4.68264837678518E-02 
518	 4.72440937358153E-02 
519	 4.76578452319502E-02 
520	 4.80473876423406E-02 
521	 4.84460270057579E-02 
522	 4.88894992693794E-02 
523	 4.93810387321541E-02 
524	 4.98079992291911E-02 
525	 5.01739084543463E-02 
526	 5.05729523902877E-02 
527	 5.10850423408458E-02 
528	 0.051534067396156 
529	 5.18599271236553E-02 
530	 5.22974157800914E-02 
531	 5.27623910021207E-02 
532	 5.32300402919769E-02 
533	 0.05368680336609 
534	 0.054102778464593 
535	 5.45231921343805E-02 
536	 5.49842962017514E-02 
537	 5.55026347993817E-02 
538	 5.59773398685263E-02 
539	 0.056432399903463 
540	 0.056909304515739 
541	 5.74002717646007E-02 
542	 0.057851791581482 
543	 5.82845699777637E-02 
544	 5.87611381870076E-02 
545	 5.92388421694613E-02 
546	 5.96999872699625E-02 
547	 6.01442851988148E-02 
548	 6.05975981124447E-02 
549	 6.10666981192124E-02 
550	 6.15484616910217E-02 
551	 6.20274101579242E-02 
552	 6.24391713261814E-02 
553	 6.28870621368481E-02 
554	 6.33757816054654E-02 
555	 6.37890208064712E-02 
556	 0.064256290692246 
557	 6.47356941045841E-02 
558	 6.51659424913712E-02 
559	 0.065578492392692 
560	 6.59774103767305E-02 
561	 6.63612637962732E-02 
562	 6.67283125137514E-02 
563	 6.70874663369295E-02 
564	 6.74707310317225E-02 
565	 6.78602492037816E-02 
566	 6.81340539604365E-02 
567	 6.84410903089183E-02 
568	 0.06876374187241 
569	 6.90393476198719E-02 
570	 6.93388802655599E-02 
571	 6.95439791044785E-02 
572	 6.96900684213264E-02 
573	 6.99792404446757E-02 
574	 7.01737622962428E-02 
575	 7.03073079352038E-02 
576	 7.04433801629306E-02 
577	 7.05260415379468E-02 
578	 7.06499124970143E-02 
579	 7.07844787866584E-02 
580	 7.08357959689196E-02 
581	 7.09258247579264E-02 
582	 7.09716404846659E-02 
583	 7.09390814493776E-02 
584	 7.09238482494126E-02 
585	 7.09385173952551E-02 
586	 7.09298680841811E-02 
587	 7.08378452129263E-02 
588	 7.07428171059167E-02 
589	 7.06169984764619E-02 
590	 7.04503295858331E-02 
591	 7.02511081853294E-02 
592	 7.00919220031971E-02 
593	 6.99048364032844E-02 
594	 6.96160324327856E-02 
595	 6.92203633174666E-02 
596	 6.87234378397646E-02 
597	 6.81800121969621E-02 
598	 6.76633629363041E-02 
599	 6.70776350673709E-02 
600	 6.66049733839663E-02 
601	 6.63296863560673E-02 
602	 6.61151106817058E-02 
603	 6.58904476411691E-02 
604	 6.57127707877025E-02 
605	 6.56699139130346E-02 
606	 6.57440714526739E-02 
607	 6.57842781115441E-02 
608	 6.57659596150832E-02 
609	 6.58023958422719E-02 
610	 6.59370644301683E-02 
611	 6.60119294022949E-02 
612	 6.59445963988991E-02 
613	 6.59984181948219E-02 
614	 6.60725706266063E-02 
615	 6.61078464833073E-02 
616	 0.066077769555909 
617	 6.60596771656459E-02 
618	 6.60652226485965E-02 
619	 6.60972048840302E-02 
620	 6.61635590128931E-02 
621	 6.61624897913499E-02 
622	 6.61284077080069E-02 
623	 6.61267755981213E-02 
624	 6.61246881344795E-02 
625	 6.61173353660155E-02 
626	 6.61076597490389E-02 
627	 6.61051374850298E-02 
628	 6.61100923119143E-02 
629	 6.61260519195799E-02 
630	 6.61447543577074E-02 
631	 6.61257770921013E-02 
632	 6.60960779047286E-02 
633	 6.61155105185482E-02 
634	 6.62182951992482E-02 
635	 6.61238957827425E-02 
636	 6.60158364826448E-02 
637	 6.59990938175022E-02 
638	 6.60045153940728E-02 
639	 0.065878657805498 
640	 6.58048752846052E-02 
641	 6.59287401933811E-02 
642	 6.58131255339993E-02 
643	 6.56889603680203E-02 
644	 6.56168319886938E-02 
645	 6.55155186819949E-02 
646	 6.54877375619295E-02 
647	 6.53780969303002E-02 
648	 6.51578414704263E-02 
649	 6.52186992943799E-02 
650	 6.50768794525542E-02 
651	 6.47966168954776E-02 
652	 6.46150510248536E-02 
653	 6.43517919040969E-02 
654	 6.39806413401213E-02 
655	 0.063525788706534 
656	 6.31293436827077E-02 
657	 6.27220187982495E-02 
658	 6.23401974809411E-02 
659	 6.20306517953032E-02 
660	 6.18752829818935E-02 
661	 6.16025555966012E-02 
662	 6.12952755159988E-02 
663	 6.12289780639207E-02 
664	 6.11132358056954E-02 
665	 6.09383479659159E-02 
666	 6.07595041963965E-02 
667	 6.06835805277582E-02 
668	 6.06438235525172E-02 
669	 6.06308655781682E-02 
670	 6.06287840316456E-02 
671	 0.060498098676025 
672	 6.04187264946754E-02 
673	 6.04346995501806E-02 
674	 6.04499168868604E-02 
675	 6.04742397715837E-02 
676	 6.04737174935519E-02 
677	 6.04477433794026E-02 
678	 6.04973325185848E-02 
679	 6.05231449846645E-02 
680	 6.05220331928982E-02 
681	 6.05355918594509E-02 
682	 0.060583502040363 
683	 6.06198304381489E-02 
684	 6.06559139926677E-02 
685	 6.07966990335119E-02 
686	 6.06447771683588E-02 
687	 6.04927007160077E-02 
688	 6.06281353363006E-02 
689	 6.04636090560309E-02 
690	 6.03507716199945E-02 
691	 6.02755495208908E-02 
692	 6.00240159560737E-02 
693	 5.97253780351526E-02 
694	 5.94172709809691E-02 
695	 5.90731923983538E-02 
696	 5.85489296838199E-02 
697	 5.79863845093936E-02 
698	 5.74753298958165E-02 
699	 5.70440272754825E-02 
700	 5.63790005390313E-02 
701	 5.57243915905178E-02 
702	 5.51052704018667E-02 
703	 0.05434278331943 
704	 5.34964265347941E-02 
705	 5.27264899035682E-02 
706	 5.20532581375596E-02 
707	 5.11186243622447E-02 
708	 5.01453654051494E-02 
709	 4.91671310132647E-02 
710	 4.81181033855916E-02 
711	 4.67878712913017E-02 
712	 4.55175364817049E-02 
713	 4.43530304991882E-02 
714	 4.29760220289107E-02 
715	 4.16619074165973E-02 
716	 4.03028861067695E-02 
717	 3.88215185761361E-02 
718	 3.72740109731297E-02 
719	 3.57979135856717E-02 
720	 3.45092920516669E-02 
721	 0.033256831817117 
722	 3.20290705210648E-02 
723	 3.06605188308565E-02 
724	 0.029228000978937 
725	 2.78078496695374E-02 
726	 2.64337085462411E-02 
727	 2.49731902414117E-02 
728	 2.33600515815722E-02 
729	 2.17321090213801E-02 
730	 2.01731313608391E-02 
731	 1.87475378058508E-02 
732	 1.74649209628675E-02 
733	 1.64983897252835E-02 
734	 1.56400649715858E-02 
735	 1.48378320995861E-02 
736	 1.42599196752314E-02 
737	 1.38520598113723E-02 
738	 1.35136921960947E-02 
739	 1.32065894141539E-02 
740	 1.31157163675189E-02 
741	 1.29983735695479E-02 
742	 1.28327128862496E-02 
743	 1.27249163644371E-02 
744	 1.27522578421584E-02 
745	 1.27613305692045E-02 
746	 0.012681638152719 
747	 1.25865839943262E-02 
748	 1.25763525035131E-02 
749	 1.25629768123762E-02 
750	 1.24913828921574E-02 
751	 1.26060354511217E-02 
752	 1.25919834508265E-02 
753	 1.24769100177457E-02 
754	 1.24653505227695E-02 
755	 1.24837284241891E-02 
756	 1.25109841230005E-02 
757	 1.25035150232688E-02 
758	 0.012337512805093 
759	 1.23450529452791E-02 
760	 0.01248186929428 
761	 1.24199979826355E-02 
762	 1.24514307421689E-02 
763	 1.25196454648532E-02 
764	 1.25976551715041E-02 
765	 1.26693073541887E-02 
766	 1.26939748188075E-02 
767	 0.012771716561854 
768	 1.28901092738691E-02 
769	 1.29299350290847E-02 
770	 1.30027458471056E-02 
771	 1.30568267675838E-02 
772	 1.30841980299225E-02 
773	 1.32933110033506E-02 
774	 1.34542458036274E-02 
775	 1.35327177126725E-02 
776	 1.36063579904756E-02 
777	 1.38309749742877E-02 
778	 1.40428598039291E-02 
779	 1.41707433465794E-02 
780	 0.014273161792079 
781	 1.45536387756453E-02 
782	 1.47485676863882E-02 
783	 0.014749921226353 
784	 1.49986566451377E-02 
785	 1.51725590725252E-02 
786	 1.53948283467683E-02 
787	 1.58188933938094E-02 
788	 1.59394151853948E-02 
789	 1.61753241278805E-02 
790	 1.65553002503808E-02 
791	 1.67784479519255E-02 
792	 1.69309505298389E-02 
793	 1.71115189983965E-02 
794	 1.73563585107441E-02 
795	 1.75915509058192E-02 
796	 1.78455016988307E-02 
797	 1.81000378632559E-02 
798	 1.83456286633081E-02 
799	 1.86292196960963E-02 
800	 0.01884062980416 
801	 1.90359535476932E-02 
802	 1.93178289994709E-02 
803	 1.93745964794425E-02 
804	 1.94146327583556E-02 
805	 1.95036325791495E-02 
806	 1.95041780701463E-02 
807	 1.95828521182649E-02 
808	 1.97033996882037E-02 
809	 1.97545244555337E-02 
810	 0.019532349249296 
811	 1.93615279687626E-02 
812	 1.92223433040896E-02 
813	 1.89872923217782E-02 
814	 1.87866066190186E-02 
815	 1.85387311591315E-02 
816	 1.82397210854293E-02 
817	 1.79519808896432E-02 
818	 1.77004338545206E-02 
819	 1.72579048199929E-02 
820	 1.66901614245309E-02 
821	 1.64794824242471E-02 
822	 1.57324583706317E-02 
823	 1.48551240841479E-02 
824	 1.42700192230553E-02 
825	 1.35508704541973E-02 
826	 1.26398415870389E-02 
827	 1.17282036909785E-02 
828	 1.10597971168479E-02 
829	 1.01684631025866E-02 
830	 9.45388247465912E-03 
831	 9.01135165756941E-03 
832	 8.66228593823252E-03 
833	 8.14213424335786E-03 
834	 7.79440306745653E-03 
835	 7.66647880114014E-03 
836	 7.33598191376665E-03 
837	 7.23633468260044E-03 
838	 7.16861007573756E-03 
839	 6.94261654392089E-03 
840	 6.73735542602426E-03 
841	 6.67431533385869E-03 
842	 6.65978146917865E-03 
843	 6.5551408036618E-03 
844	 6.47728606591794E-03 
845	 6.37396590285678E-03 
846	 6.18414068971496E-03 
847	 5.89361209570663E-03 
848	 5.89713857991148E-03 
849	 5.93800729159619E-03 
850	 5.86486227180555E-03 
851	 5.76365414907623E-03 
852	 5.59357817732663E-03 
853	 5.50048406423058E-03 
854	 5.53931282554994E-03 
855	 5.50008251021999E-03 
856	 5.4250415438645E-03 
857	 5.28591265307247E-03 
858	 5.11606857514191E-03 
859	 5.23480868287577E-03 
860	 5.23849305333283E-03 
861	 5.07493481400535E-03 
862	 4.9130614246959E-03 
863	 4.99635651565562E-03 
864	 5.00036448748976E-03 
865	 4.8744965458186E-03 
866	 4.83100640195602E-03 
867	 4.62622484067589E-03 
868	 4.4355465045495E-03 
869	 4.39472918008274E-03 
870	 4.50457779026467E-03 
871	 4.30747551520839E-03 
872	 4.15075404862098E-03 
873	 4.28352024890587E-03 
874	 4.34115613031986E-03 
875	 4.22025348091463E-03 
876	 4.03202181819428E-03 
877	 3.92663923205256E-03 
878	 3.88861703363237E-03 
879	 3.7747295289793E-03 
880	 3.61844295942406E-03 
881	 3.53148373155034E-03 
882	 3.51062740521722E-03 
883	 3.48810743788225E-03 
884	 3.44967549148587E-03 
885	 3.42774664243725E-03 
886	 3.45407165680801E-03 
887	 3.43638269713638E-03 
888	 3.30080085890135E-03 
889	 3.03274092490421E-03 
890	 2.91023776088449E-03 
891	 2.91606874315987E-03 
892	 2.98238615603988E-03 
893	 3.0567105051475E-03 
894	 2.78872595555554E-03 
895	 2.46939345351522E-03 
896	 2.44622838747836E-03 
897	 2.58428336356499E-03 
898	 2.93053840388218E-03 
899	 2.99166516555187E-03 
900	 2.50668602565174E-03 
901	 2.45221980551763E-03 
902	 2.63280658476424E-03 
903	 2.62174677451367E-03 
904	 2.19124624767201E-03 
905	 2.52265912899838E-03 
906	 2.57444158280296E-03 
907	 2.3052271343528E-03 
908	 2.3204506085779E-03 
909	 1.86545510116902E-03 
910	 2.05135178465718E-03 
911	 2.59159760154589E-03 
912	 2.05271476436774E-03 
913	 1.52311932757988E-03 
914	 1.43939643693425E-03 
915	 1.67427505433357E-03 
916	 1.6282148607312E-03 
917	 1.94271588742278E-03 
918	 0.002033328782227 
919	 1.70480973121759E-03 
920	 1.50635168298675E-03 
921	 1.67449418120745E-03 
922	 1.62764297347652E-03 
923	 1.12135239117607E-03 
924	 9.36199637230719E-04 
925	 1.1880851812885E-03 
926	 1.2872913519839E-03 
927	 1.02990444168158E-03 
928	 2.54953448471546E-03 
929	 1.39294674149072E-03 
930	 5.94761438651892E-06 
931	 2.88254055453094E-03 
932	 1.93569724888156E-03 
933	 7.04406559009658E-04 
934	 1.29223190075298E-03 
935	 2.86983455890243E-03 
936	-7.66145987946334E-04 
937	-8.39733658913622E-04 
938	 6.93689495580859E-04 
939	-3.54667299740767E-04 
940	-2.08776697863484E-03 
941	-1.87847144586563E-03 
942	-8.76131588567477E-04 
943	-1.35029431831126E-03 
944	 4.30578675378555E-04 
945	 1.76137406666617E-03 
946	 1.31256818378684E-03 
947	-5.13559002315509E-04 
948	-1.64769277240463E-03 
949	-9.62985295571406E-04 
950	 5.61380017653801E-04 
951	 1.00480880459744E-03 
952	 1.15869191522722E-03 
953	 3.77482735887344E-04 
954	-7.646888315939E-04 
955	-8.66533498188841E-04 
956	 8.98108020949137E-04 
957	 8.91021250816668E-04 
958	-6.36170396052652E-04 
959	-5.92251645001274E-04 
960	 1.07174930740203E-03 
961	 1.5493676199949E-03 
962	 7.10450762457164E-04 
963	 4.21956858246857E-04 
964	-2.76128424594777E-04 
965	 7.22475994191796E-04 
966	 1.66842069611511E-03 
967	-9.95559445741055E-04 
968	-4.20107174573434E-04 
969	-5.14789201688499E-04 
970	-1.15085810215928E-03 
971	 1.27909703842401E-03 
972	 9.25092869684781E-04 
973	-3.1151572561105E-04 
974	-3.0081035677424E-04 
975	 1.57001032235358E-03 
976	-5.22746423076374E-04 
977	-3.59446135053751E-04 
978	 1.8595450223519E-03 
979	 1.53850322093941E-04 
980	-5.04908554031356E-04 
981	-2.19141712977579E-04 
982	 5.4604322104344E-04 
983	 1.23326968638528E-03 
984	-4.64900585341488E-04 
985	-7.12952933444989E-04 
986	 5.96163673875262E-04 
987	 4.79343410419236E-04 
988	 5.36736766921747E-04 
989	 9.62247487758404E-04 
990	 1.28075234157586E-03 
991	 8.52539533281151E-04 
992	 9.16902723595456E-04 
993	 3.37341021330151E-04 
994	-4.44827716679426E-04 
995	-9.45665471184019E-05 
996	 4.10085066178401E-04 
997	-5.00768753485822E-04 
998	-1.04577667158981E-03 
999	 1.19826225856184E-03 
1000	 3.45088235073445E-04 
1001	 1.02028082152551E-03 
1002	 1.31576252896627E-03 
1003	 1.43872477073325E-03 
1004	 1.30941485110588E-03 
1005	 1.34882986499602E-03 
1006	 1.52889594914146E-03 
1007	 1.58545616126435E-03 
1008	 1.59331729117383E-03 
1009	 1.6235791559341E-03 
1010	 1.40516457286094E-03 
1011	 1.47022468513347E-03 
1012	 1.54741968819679E-03 
1013	 1.47343130803456E-03 
1014	 1.36453352724413E-03 
1015	 1.1125718492337E-03 
1016	 1.0045579993066E-03 
1017	 9.64056365594748E-04 
1018	 8.4019042337627E-04 
1019	 7.01616759617147E-04 
1020	 6.28935243888211E-04 
1021	 6.12535328002994E-04 
1022	 3.68577641605134E-04 
1023	 1.82390125620445E-04 
1024	 3.82286311609881E-04 
1025	 4.3369964084758E-04 
1026	 5.08328465506072E-04 
1027	 7.01306794241793E-04 
1028	 1.1487138162219E-03 
1029	 1.33911626453681E-03 
1030	 1.52046545614799E-03 
1031	 1.54980033291957E-03 
1032	 1.38490502901343E-03 
1033	 1.25375125354715E-03 
1034	 9.29618694029568E-04 
1035	 8.77169149229776E-04 
1036	 1.05283681663293E-03 
1037	 1.05263584189655E-03 
1038	 1.00712826858033E-03 
1039	 1.09352712151167E-03 
1040	 1.20206763107819E-03 
1041	 1.23629649171122E-03 
1042	 1.24239242785355E-03 
1043	 1.38584249204842E-03 
1044	 1.3618542975171E-03 
1045	 1.03301344812673E-03 
1046	 1.08545950751915E-03 
1047	 1.48094056031225E-03 
1048	 1.46475030079592E-03 
1049	 1.29325888605507E-03 
1050	 1.2658719134673E-03 
1051	 9.411815264259E-04 
1052	 9.45200997585348E-04 
1053	 1.54902506283968E-03 
1054	 1.68489833237853E-03 
1055	 1.6508031020095E-03 
1056	 1.58996246371676E-03 
1057	 1.4108805387043E-03 
1058	 8.07568697038671E-04 
1059	 8.02659234385406E-04 
1060	 1.0640081786766E-03 
1061	 1.18659212278863E-03 
1062	 1.64056213250328E-03 
1063	 1.69214715497465E-03 
1064	 1.33937093835966E-03 
1065	 1.33641627358401E-03 
1066	 1.40549854091384E-03 
1067	 1.41745062677796E-03 
1068	 1.69261434484424E-03 
1069	 1.70413916606374E-03 
1070	 1.30460916035225E-03 
1071	 1.21051555393091E-03 
1072	 1.2140829270415E-03 
1073	 1.19639919608042E-03 
1074	 1.26452042988063E-03 
1075	 1.61293697702696E-03 
1076	 1.61650442931606E-03 
1077	 1.42650927318222E-03 
1078	 1.37493695359354E-03 
1079	 1.22970002306346E-03 
1080	 1.17650652523597E-03 
1081	 1.26206248943549E-03 
1082	 1.24307622816794E-03 
1083	 1.17838055676202E-03 
1084	 1.14613047526914E-03 
1085	 1.08669872835554E-03 
1086	 1.0746582970421E-03 
1087	 1.16353838258874E-03 
1088	 1.12230510336472E-03 
1089	 1.14046419667076E-03 
1090	 8.73607220787769E-04 
1091	 7.5699916918161E-04 
1092	 6.10969984308205E-04 
1093	 5.10482920335282E-04 
1094	 2.92814185516711E-04 
1095	 4.5673487447091E-04 
1096	 9.50521343647668E-04 
1097	 1.07869217290419E-03 
1098	 1.50335069076752E-03 
1099	 1.54144813283418E-03 
1100	 7.03255180077627E-04 
1101	 6.253967158464E-04 
1102	 1.06274068365155E-03 
1103	 1.15483326556971E-03 
1104	 1.5229188273534E-03 
1105	 1.66642692598782E-03 
1106	 1.33363228822529E-03 
1107	 1.12604356829246E-03 
1108	 1.03320251626959E-03 
1109	 1.21745217285928E-03 
1110	 1.27379028491505E-03 
1111	 1.3545614456796E-03 
1112	 1.3328024759498E-03 
1113	 1.11787604439517E-03 
1114	 1.29596630134277E-03 
1115	 1.82523153542104E-03 
1116	 2.15152997642767E-03 
1117	 2.94180789210814E-03 
1118	 3.25436893827744E-03 
1119	 2.71015898660067E-03 
1120	 2.64136096557783E-03 
1121	 2.59028538269233E-03 
1122	 2.45496102383908E-03 
1123	 2.45238830459605E-03 
1124	 2.97498999730314E-03 
1125	 3.86641963646704E-03 
1126	 0.004177048809527 
1127	 4.35363178496467E-03 
1128	 3.7364068481105E-03 
1129	 2.99441839837934E-03 
1130	 1.2513034638334E-03 
1131	 1.21636673112988E-03 
1132	 1.77883521632325E-03 
1133	 1.75393768658672E-03 
1134	 2.30639878235605E-03 
1135	 1.93204355453853E-03 
1136	 7.30350379508695E-04 
1137	 8.54753316405745E-04 
1138	 1.35641503932257E-03 
1139	 1.28713465040757E-03 
1140	 3.20764493317737E-03 
1141	 3.12891750471879E-03 
1142	 1.34470542900077E-03 
1143	 1.00549923517011E-03 
1144	-1.77806315475838E-04 
1145	-9.73306410279273E-04 
1146	 3.84065258308804E-04 
1147	 1.08593475664977E-03 
1148	 6.69843376977013E-04 
1149	 6.89285737539891E-04 
1150	 9.15677538519862E-04 
1151	 8.64547921128326E-04 
1152	 8.76017816016265E-04 
1153	 1.68693106682343E-03 
1154	 1.45395420587042E-03 
1155	 3.76504614693856E-04 
1156	 6.1339773537895E-05 
1157	 2.92780072197473E-04 
1158	 2.17750526347766E-04 
1159	 7.02836003989869E-04 
1160	 1.16422126445381E-03 
1161	 7.61483232972468E-04 
1162	 6.60910377625653E-04 
1163	 9.60442125617233E-04 
1164	 7.7587351209181E-04 
1165	 7.35352647492019E-04 
1166	 1.05922488882396E-03 
1167	 8.70119786467049E-04 
1168	 6.73746205891831E-04 
1169	 1.00061357971405E-03 
1170	 9.37118305890947E-04 
1171	 8.08505706522475E-04 
1172	 6.57838673034963E-04 
1173	 6.75951067145754E-04 
1174	 6.31389783023689E-04 
1175	 5.04778296891137E-04 
1176	 4.81788539667961E-04 
1177	 2.22297240664724E-04 
1178	 6.91444582723043E-05 
1179	 2.01136130922131E-04 
1180	 4.13337024868446E-04 
1181	 6.31279505629336E-04 
1182	 3.48440526649775E-04 
1183	 1.16446636639123E-04 
1184	 5.71894598433026E-04 
1185	 8.0849831658235E-04 
1186	 7.72734624136052E-04 
1187	 7.55494774252589E-04 
1188	 4.47127633626044E-04 
1189	 2.93292543105232E-04 
1190	 5.66111876383078E-04 
1191	 7.51010094878134E-04 
1192	 7.14422070413332E-04 
1193	 4.28549548765711E-04 
1194	 1.44582431623864E-04 
1195	 2.52310944612238E-04 
1196	 4.87928241250801E-04 
1197	 5.34562458634919E-04 
1198	 5.48196161687826E-04 
1199	 3.79860117331657E-04 
1200	 1.60634859572614E-04 
1201	 3.81476386410654E-04 
1202	 6.95204841259199E-04 
1203	 6.66859626040083E-04 
1204	 6.15020232691095E-04 
1205	 6.74964433643828E-04 
1206	 6.99201950051182E-04 
1207	 6.20438990008058E-04 
1208	 3.79988190692183E-04 
1209	 3.31447408947635E-04 
1210	 5.51884296123347E-04 
1211	 6.78936781623214E-04 
1212	 6.52745961120387E-04 
1213	 5.70241099430663E-04 
1214	 6.19626507713983E-04 
1215	 5.51786207254432E-04 
1216	 5.7993375453075E-04 
1217	 6.57356211113571E-04 
1218	 7.86064420689952E-04 
1219	 8.33360882798516E-04 
1220	 8.3882102185621E-04 
1221	 9.36485618918202E-04 
1222	 8.9485749639343E-04 
1223	 5.66320246012017E-04 
1224	 4.29111984070972E-04 
1225	 6.18218955137025E-04 
1226	 7.67889485276493E-04 
1227	 8.98672971517728E-04 
1228	 9.63454989663275E-04 
1229	 9.50492979615036E-04 
1230	 9.33233869082979E-04 
1231	 8.08802462531287E-04 
1232	 6.93158897226087E-04 
1233	 6.81329816090863E-04 
1234	 6.60335190777699E-04 
1235	 6.36309671909322E-04 
1236	 7.30706130965747E-04 
1237	 7.54250811533492E-04 
1238	 7.05034996732665E-04 
1239	 6.0230982224188E-04 
1240	 5.90948242801304E-04 
1241	 6.64162808826721E-04 
1242	 8.62827494833629E-04 
1243	 8.60473561779382E-04 
1244	 7.53459138446329E-04 
1245	 6.63319677176054E-04 
1246	 4.37903913545923E-04 
1247	 3.93779040749232E-04 
1248	 4.8596820033608E-04 
1249	 4.44239330842442E-04 
1250	 4.46910973370024E-04 
1251	 5.20828170618816E-04 
1252	 6.48464228742648E-04 
1253	 8.02968686834013E-04 
1254	 7.8413275080925E-04 
1255	 7.57141282256637E-04 
1256	 7.43673636615379E-04 
1257	 7.39617753613418E-04 
1258	 6.92308186891089E-04 
1259	 5.92817249579969E-04 
1260	 5.41152278296046E-04 
1261	 4.90652471984558E-04 
1262	 5.26980288851666E-04 
1263	 6.70773829667872E-04 
1264	 7.15983735651614E-04 
1265	 6.36743065107976E-04 
1266	 5.93335952617939E-04 
1267	 6.3737287617346E-04 
1268	 5.72622736544064E-04 
1269	 6.61168311315766E-04 
1270	 9.04900021464963E-04 
1271	 7.76898748770207E-04 
1272	 6.46752879639007E-04 
1273	 8.95196015972791E-04 
1274	 9.12492899378841E-04 
1275	 5.79457132307898E-04 
1276	 5.62407608114292E-04 
1277	 7.44857217048388E-04 
1278	 5.86908762250888E-04 
1279	 5.480147034359E-04 
1280	 8.59598850948423E-04 
1281	 9.72979708525559E-04 
1282	 8.65157243153863E-04 
1283	 6.93447597564591E-04 
1284	 4.30555029674991E-04 
1285	 3.75299499127445E-04 
1286	 2.88736695458791E-04 
1287	 2.85834566261478E-04 
1288	 5.10832962090905E-04 
1289	 6.4729986821297E-04 
1290	 7.11160197576342E-04 
1291	 7.39739788478813E-04 
1292	 7.00955676288992E-04 
1293	 7.83003740748167E-04 
1294	 7.69571423684827E-04 
1295	 6.35533262962002E-04 
1296	 5.75724569044685E-04 
1297	 6.24150901476852E-04 
1298	 5.73823926827395E-04 
1299	 4.10689812819067E-04 
1300	 2.57577684708522E-04 
1301	 2.82452178817159E-04 
1302	 5.7476774050699E-04 
1303	 5.70030336228425E-04 
1304	 4.82359416204907E-04 
1305	 6.33750745493956E-04 
1306	 6.60053845703896E-04 
1307	 5.40953524128012E-04 
1308	 4.27723460269731E-04 
1309	 2.33741508053842E-04 
1310	 2.33331207640376E-04 
1311	 2.57915237972804E-04 
1312	 2.9390700198801E-04 
1313	 6.04284964759354E-04 
1314	 6.96203929596202E-04 
1315	 4.51169279869577E-04 
1316	 5.18534642764447E-04 
1317	 9.88925876624326E-04 
1318	 1.05978517969524E-03 
1319	 8.07973714372705E-04 
1320	 9.17734587716494E-04 
1321	 1.2082424192025E-03 
1322	 1.00653385324331E-03 
1323	 7.1238396090209E-04 
1324	 8.94765485005776E-04 
1325	 8.52843801230914E-04 
1326	 6.52504476458566E-04 
1327	 6.69639894784353E-04 
1328	 9.57280554698883E-04 
1329	 9.79292660911986E-04 
1330	 9.35424308635848E-04 
1331	 1.54018742644004E-03 
1332	 1.71070928274217E-03 
1333	 1.16320113112234E-03 
1334	 8.25907861937075E-04 
1335	 6.43849343468746E-04 
1336	 4.39709215813664E-04 
1337	 4.08159694713784E-04 
1338	 5.36361282474906E-04 
1339	 9.02681296259574E-04 
1340	 2.03052888081287E-03 
1341	 2.13022335561864E-03 
1342	 1.74252166547721E-03 
1343	 1.61115952207869E-03 
1344	 2.35579753058299E-04 
1345	-1.49270928631067E-04 
1346	 1.28929401506185E-03 
1347	 1.70287427176208E-03 
1348	 1.39840995355914E-03 
1349	 1.32466677612182E-03 
1350	 4.83365197159685E-04 
1351	 2.57522953749573E-04 
1352	 2.21298890262672E-03 
1353	 2.98841395520155E-03 
1354	 1.95275088707354E-03 
1355	 7.9656064273504E-04 
1356	 1.92329026566626E-03 
1357	 9.63922896777356E-03 
1358	 1.89472086904198E-02 
1359	 1.10135576885022E-02 
1360	 2.74052475462243E-02 
1361	 4.24456532698565E-02 
1362	-3.70046796450606E-02 
1363	-0.036450441308546 
1364	 2.50659054538577E-02 
1365	-6.52234522323213E-02 
1366	-0.125020535202302 
1367	-5.68756596961854E-02 
1368	-4.79601367917109E-02 
1369	-0.230977304619279 
1370	-0.272874736823907 
1371	-0.112344027710654 
1372	 2.01097975441546E-02 
1373	 0.132874764554322 
1374	 0.245302470244005 
1375	 0.58163387797465 
1376	 0.591694907297434 
1377	 0.264677687668979 
1378	 0.182326639098831 
1379	 0.11861285323088 
1380	 5.74491215546264E-02 
1381	-5.12385602717291E-03 
1382	 8.81704255261505E-03 
1383	 8.24952960591133E-02 
1384	 0.142939143430463 
1385	 0.235570352326988 
1386	 0.276029048116461 
1387	 0.253501152489266 
1388	 0.250056950373841 
1389	 0.374310758817495 
1390	 0.48711913814938 
1391	 0.575553548132648 
1392	 0.339763901017412 
1393	 0.194895374657091 
1394	 0.12229599042011 
1395	 0.241060835588257 
1396	 0.275437284104813 
1397	 0.133397923406449 
1398	 6.89241309630668E-02 
1399	 0.121319753976493 
1400	 0.174448359492512 
1401	 0.137222936790974 
1402	 0.136829227693417 
1403	 0.118885552772788 
1404	 4.22574146435911E-02 
1405	 1.48890946020235E-02 
1406	 6.49568242598146E-02 
1407	 0.031491590788444 
1408	-5.78754606615549E-02 
1409	-5.79527654013218E-02 
1410	-3.71281816025853E-02 
1411	-0.022031308398375 
1412	 1.00906046883195E-02 
1413	 0.014134569903355 
1414	 3.01002999773561E-03 
1415	 7.10197491314706E-04 
1416	 2.41119405121882E-03 
1417	 3.97823663664115E-03 
1418	 1.50736037257179E-03 
1419	 2.3121242399574E-03 
1420	 7.29880865706978E-03 
1421	 7.21551829462457E-03 
1422	 6.36441668242397E-03 
1423	 6.39831210429164E-03 
1424	 4.24481140928556E-03 
1425	 3.24005613775174E-03 
1426	 3.70456093245669E-03 
1427	 3.95150075704353E-03 
1428	 4.26819589152387E-03 
1429	 0.003492677962206 
1430	 1.97563942277133E-03 
1431	 1.90090236905956E-03 
1432	 1.39478863552954E-03 
1433	 1.60423865320943E-03 
1434	 0.00246810347208 
1435	 3.79044985746934E-03 
1436	 5.40231612290129E-03 
1437	 9.2684960339679E-03 
1438	 6.37539281826753E-03 
1439	 3.34092774650004E-03 
1440	 4.13102294787003E-03 
1441	 1.71612949286976E-03 
1442	 1.27057957935113E-03 
1443	 4.63266720779102E-03 
1444	 3.90017478087777E-03 
1445	 1.67543139004867E-03 
1446	 3.08026342950899E-03 
1447	 3.98092346584148E-03 
1448	 1.97493585564164E-03 
1449	 6.47261188369824E-04 
1450	 1.11265220889733E-03 
1451	 1.30178880806402E-03 
1452	 7.67926659283372E-04 
1453	 5.84495340536924E-04 
1454	 1.10969857899745E-03 
1455	 1.22050841202953E-03 
1456	 1.28673757423713E-03 
1457	 2.24370320499448E-03 
1458	 2.48080194809734E-03 
1459	 1.91329554350166E-03 
1460	 1.73187440389246E-03 
1461	 1.82012939764807E-03 
1462	 2.08647567976564E-03 
1463	 2.52626207744409E-03 
1464	 2.04144305767704E-03 
1465	 1.19362896296742E-03 
1466	 9.27463234318361E-04 
1467	-3.29033193192394E-05 
1468	-5.43105017481531E-04 
1469	-4.37183244826674E-04 
1470	 2.19333404491362E-04 
1471	 2.08044165170658E-03 
1472	 1.70201108215473E-03 
1473	-6.66825540575744E-05 
1474	 3.24565219519025E-04 
1475	 6.76256580683408E-04 
1476	 2.09517276481165E-04 
1477	 9.24066803798029E-04 
1478	 1.51539403718185E-03 
1479	 8.56833187261301E-04 
1480	 5.68076781646591E-04 
1481	 1.40573417991475E-03 
1482	 1.41814034951091E-03 
1483	 3.24384191248887E-04 
1484	 2.37553186889432E-05 
1485	 2.0391333931875E-04 
1486	 2.88386324629153E-04 
1487	 5.63833491136409E-04 
1488	 4.05812642934888E-04 
1489	-9.07547076667696E-05 
1490	-4.38549787444934E-05 
1491	 7.45791384792491E-06 
1492	 1.04896358523148E-04 
1493	 7.43740551249883E-04 
1494	 7.95523726757506E-04 
1495	 2.27568327627104E-04 
1496	 2.56551126647749E-04 
1497	 6.50857603063262E-04 
1498	 6.4608391215035E-04 
1499	 5.50540568976746E-04 
1500	 6.38135878485098E-04 
1501	 5.57546568511422E-04 
1502	 4.87160665212287E-04 
1503	 7.98999574029735E-04 
1504	 8.34880859336013E-04 
1505	 5.01983787924825E-04 
1506	 3.73230867655456E-04 
1507	 5.37704772658785E-04 
1508	 4.23013771739051E-04 
1509	 2.87597570766365E-04 
1510	 2.61943141991931E-04 
1511	 2.67201699222887E-04 
1512	 3.61144686952069E-04 
1513	 4.38395641065085E-04 
1514	 4.48874725321788E-04 
1515	 4.16882821025866E-04 
1516	 3.62146251457252E-04 
1517	 3.23765140063042E-04 
1518	 3.1934714322511E-04 
1519	 3.35158692270131E-04 
1520	 3.19663743539228E-04 
1521	 2.62570824186603E-04 
1522	 2.15744044365625E-04 
1523	 1.52588279739692E-04 
1524	 1.12832004335609E-04 
1525	 1.80309886582313E-04 
1526	 3.53243514117321E-04 
1527	 5.01371456778781E-04 
1528	 5.05385981959683E-04 
1529	 5.08188631719677E-04 
1530	 5.6803486789745E-04 
1531	 6.19430735142397E-04 
1532	 6.51986403332857E-04 
1533	 5.94084034137118E-04 
1534	 6.18469973152563E-04 
1535	 6.98839019034974E-04 
1536	 5.26983744665795E-04 
1537	 4.37452830497535E-04 
1538	 5.85090835101814E-04 
1539	 6.08748860006824E-04 
1540	 5.92933928155976E-04 
1541	 7.35547522220021E-04 
1542	 7.14899128393863E-04 
1543	 4.10117564952743E-04 
1544	 3.19269108892977E-04 
1545	 5.32618683274869E-04 
1546	 6.95091983067692E-04 
1547	 7.9317595034211E-04 
1548	 7.37864401217772E-04 
1549	 4.37418926077182E-04 
1550	 3.71388459197963E-04 
1551	 5.04586435717602E-04 
1552	 4.00925626151001E-04 
1553	 4.05989076601692E-04 
1554	 6.50215057450546E-04 
1555	 6.82503725665132E-04 
1556	 5.63601263213574E-04 
1557	 5.63148067787699E-04 
1558	 5.01874722921024E-04 
1559	 3.588199411775E-04 
1560	 3.6545334700013E-04 
1561	 3.94881814025771E-04 
1562	 2.6092255761937E-04 
1563	 1.75858251538446E-04 
1564	 3.20328975540489E-04 
1565	 4.11307681889757E-04 
1566	 2.70825448249458E-04 
1567	 2.63364972670855E-04 
1568	 4.45703410070511E-04 
1569	 3.16983798386648E-04 
1570	 1.31412288317522E-04 
1571	 2.94514726496057E-04 
1572	 3.0764507179205E-04 
1573	 2.14213729946243E-04 
1574	 4.07058809846566E-04 
1575	 6.02620114340563E-04 
1576	 5.37666384199824E-04 
1577	 3.9362158247141E-04 
1578	 4.87987289232797E-04 
1579	 6.32649250309663E-04 
1580	 5.56443315396267E-04 
1581	 6.68695977632522E-04 
1582	 9.20000186972185E-04 
1583	 8.49893200548145E-04 
1584	 7.99648495150472E-04 
1585	 8.21915540631268E-04 
1586	 6.40610974167163E-04 
1587	 5.49636633773426E-04 
1588	 7.03500126720405E-04 
1589	 8.05345153741297E-04 
1590	 7.33554909149763E-04 
1591	 6.61727091115944E-04 
1592	 6.91210382157838E-04 
1593	 6.78741237307021E-04 
1594	 6.52896891577416E-04 
1595	 7.8327324093315E-04 
1596	 5.82958066846473E-04 
1597	 2.50490465066764E-04 
1598	 4.78599530131267E-04 
1599	 7.42880219258512E-04 
1600	 6.47196868983346E-04 
1601	 5.94350435792182E-04 
1602	 6.69378565555415E-04 
1603	 6.6106313486813E-04 
1604	 7.07495277640926E-04 
1605	 7.65613666233476E-04 
1606	 6.47142185046181E-04 
1607	 4.88400534249803E-04 
1608	 4.47178614983568E-04 
1609	 4.17988757346298E-04 
1610	 4.54274393947992E-04 
1611	 6.64669833248304E-04 
1612	 6.84270352178823E-04 
1613	 7.9474691925837E-04 
1614	 9.18312360457417E-04 
1615	 6.02658925949439E-04 
1616	 2.92704960943758E-04 
1617	 2.49397621468331E-04 
1618	 4.78661633509321E-04 
1619	 5.45756910149596E-04 
1620	 3.84112534121973E-04 
1621	 5.41405898609681E-04 
1622	 6.65362300917575E-04 
1623	 3.66475518017082E-04 
1624	 3.08566997871381E-04 
1625	 6.55280909489018E-04 
1626	 7.14785746583298E-04 
1627	 6.92351379323998E-04 
1628	 9.73679949979012E-04 
1629	 1.05603176460298E-03 
1630	 6.75698378783315E-04 
1631	 3.7121207641259E-04 
1632	 6.53470534670907E-04 
1633	 9.40518185452553E-04 
1634	 6.19450489628334E-04 
1635	 4.50636274226764E-04 
1636	 7.09615911630329E-04 
1637	 6.32401375032061E-04 
1638	 5.49053535318929E-04 
1639	 9.89804813521959E-04 
1640	 1.20918486181029E-03 
1641	 8.35434510524275E-04 
1642	 5.47518370356558E-04 
1643	 6.2544454298256E-04 
1644	 4.63900271622745E-04 
1645	 2.13635639992392E-04 
1646	 2.67285511387776E-04 
1647	 1.96963806270737E-04 
1648	 1.28428350766454E-04 
1649	 6.78169722696592E-05 
1650	-7.48905365278918E-05 
1651	-5.16603679027475E-05 
1652	 6.71923481528027E-05 
1653	 4.22028887211506E-04 
1654	 5.309742142951E-04 
1655	 2.83038153652218E-04 
1656	 2.91955817309631E-04 
1657	 4.6023615781943E-04 
1658	 4.82616647361897E-04 
1659	 5.58944224538797E-04 
1660	 5.84947867563008E-04 
1661	 4.21314997728319E-04 
1662	 3.88218159596007E-04 
1663	 5.30637805162407E-04 
1664	 4.98550391361045E-04 
1665	 2.58570067643335E-04 
1666	 4.143936209034E-04 
1667	 7.81177003589406E-04 
1668	 5.25147229551313E-04 
1669	 5.63910247947961E-04 
1670	 3.8068777290626E-04 
1671	 2.96254312801946E-04 
1672	 6.37240662103251E-04 
1673	 7.58190326718689E-04 
1674	 6.87454467997379E-04 
1675	 5.88929489456484E-04 
1676	 3.90682109769452E-04 
1677	 3.97554952519946E-04 
1678	 6.90547651954065E-04 
1679	 9.03787777355872E-04 
1680	 9.66575509361581E-04 
1681	 8.96376891928326E-04 
1682	 5.49800017283731E-04 
1683	 3.35020124421688E-04 
1684	 3.49732574724677E-04 
1685	 3.65494423942522E-04 
1686	 6.73121819188273E-04 
1687	 7.46545682527138E-04 
1688	 2.4077790634065E-04 
1689	 2.94411105391739E-04 
1690	 6.41098290693382E-04 
1691	 4.19749161197137E-04 
1692	 6.05277305491078E-04 
1693	 8.68468449182604E-04 
1694	 5.19104005302127E-04 
1695	 6.28664313220171E-04 
1696	 1.16783213609247E-03 
1697	 1.23414027449874E-03 
1698	 8.75526413192801E-04 
1699	 7.7920190675772E-04 
1700	 7.40017793859162E-04 
1701	 6.1337300155483E-04 
1702	 1.06825917461124E-03 
1703	 1.2491159711565E-03 
1704	 7.42024681885645E-04 
1705	 7.91307925872009E-04 
1706	 1.04806931973861E-03 
1707	 6.02690544011166E-04 
1708	 4.78946494635401E-04 
1709	 8.28311215323316E-04 
1710	 5.21585523712925E-04 
1711	 4.20873346168952E-04 
1712	 7.00365498874745E-04 
1713	-2.49875562930005E-04 
1714	-3.65802290690602E-04 
1715	-1.22305555420369E-05 
1716	 9.657989748022E-06 
1717	 4.46779732097265E-04 
1718	 3.54342307380694E-04 
1719	 2.95683322497318E-04 
1720	 4.76557026438647E-04 
1721	 6.50913835426185E-04 
1722	 1.07524371529061E-03 
1723	 1.29727585198461E-03 
1724	 1.07736734601159E-03 
1725	 8.80404331034393E-04 
1726	 4.87664781961096E-04 
1727	 1.9496415383551E-04 
1728	 5.74978577137655E-04 
1729	 5.03583324313976E-04 
1730	 3.58330376944753E-04 
1731	 6.61138436927626E-04 
1732	 2.60472634512134E-04 
1733	-7.88049774224554E-05 
1734	 7.07416599102327E-05 
1735	 5.972384610928E-05 
1736	 3.68799372525187E-04 
1737	 6.91383878169355E-04 
1738	 5.02516851703834E-04 
1739	 2.84157496582392E-04 
1740	 7.66941254504572E-05 
1741	-5.74715395945933E-05 
1742	 2.00836257408555E-04 
1743	 3.67236406616832E-04 
1744	 2.1972340583774E-04 
1745	 5.13395586015268E-04 
1746	 2.52431810629147E-04 
1747	 1.51206584246514E-06 
1748	-1.70176358337763E-04 
1749	-7.93879798013E-05 
1750	 3.11752949542876E-04 
1751	 3.41760876611566E-04 
1752	 4.60419940060282E-04 
1753	 3.1586012008611E-04 
1754	-5.91435606387325E-04 
1755	-6.72210311556867E-04 
1756	-3.23979041195379E-04 
1757	-2.25550906712937E-04 
1758	 5.30184199864656E-04 
1759	 4.34792593565085E-04 
1760	 2.03153727993194E-04 
1761	 7.77219253305251E-04 
1762	 4.25960369220333E-04 
1763	-3.61167154694086E-04 
1764	-2.87943692561881E-04 
1765	-2.29435640618126E-05 
1766	 2.70830364512601E-04 
1767	 8.92096135137252E-04 
1768	 1.57736573665731E-03 
1769	 1.27874332865391E-03 
1770	 2.9466137604656E-04 
1771	 4.76217429108821E-04 
1772	 7.15631389389872E-04 
1773	 7.88897993285977E-04 
1774	 1.90666716986406E-03 
1775	 1.1368954774613E-03 
1776	 7.47468166100485E-04 
1777	-5.84158081733346E-04 
1778	-7.99213683359006E-04 
1779	 7.29043065177671E-04 
1780	 1.42874299347453E-03 
1781	 2.66496444116685E-03 
1782	 3.03187299136532E-03 
1783	 2.13042552294637E-03 
1784	 1.39775679224413E-03 
1785	-3.38846853460713E-05 
1786	-8.51005758837836E-04 
1787	-1.76568124693237E-03 
1788	-9.69662198511677E-04 
1789	 1.92008323189356E-03 
1790	 3.58626094336165E-03 
1791	 3.3895516506464E-03 
1792	 2.63436434903418E-04 
1793	-2.31245844633684E-03 
1794	-2.49380465451329E-03 
1795	-1.01850410010909E-03 
1796	 3.29125519660522E-03 
1797	 4.29965778883853E-03 
1798	 1.19466805341332E-03 
1799	-2.55208388134045E-03 
1800	-7.36528130464816E-03 
1801	-7.2799084387686E-03 
1802	 6.19719042041364E-03 
1803	 9.84412315552131E-03 
1804	 7.21977275627281E-03 
1805	 7.44347627466637E-03 
1806	-4.87336243532265E-03 
1807	-9.37071395302524E-03 
1808	 1.93557170785777E-03 
1809	 5.81760464628489E-03 
1810	 3.97023589656961E-03 
1811	 1.05124633991041E-02 
1812	 3.62973879253536E-02 
1813	 3.13953610332431E-02 
1814	-2.20337779797648E-04 
1815	-2.96253141309076E-02 
1816	-0.131570718163621 
1817	-9.91441916466762E-02 
1818	-2.55656006297979E-02 
1819	 5.23818247221138E-02 
1820	 7.80959143970954E-02 
1821	-9.99261673748919E-02 
1822	-0.175908213633509 
1823	-0.270986819725062 
1824	-0.241929888790901 
1825	 0.244985414556728 
1826	 0.531090016463876 
1827	 0.696665591915818 
1828	 0.619889744624591 
1829	-0.305931573333559 
1830	-0.403788157537386 
1831	 1.98421001105765 
1832	 2.72063536124606 
1833	 1.48300164885317 
1834	 0.549291866975107 
1835	-1.14621183058359 
1836	-1.3096175088818 
1837	-0.840858317814592 
1838	-0.680961140203156 
1839	-0.381517285866338 
1840	-3.95174159508071E-03 
1841	 1.42125894206979 
1842	-22.8659777892358 
1843	-2.46981651792397 
1844	-0.344893515817743 
1845	-0.275112043074011 
1846	-1.3997213182821 
1847	-1.77409050700247 
1848	 0.168916624722008 
1849	 0.223548794810556 
1850	 2.22844321839539 
1851	-0.373174681209223 
1852	 0.418352257964883 
1853	 0.844982159137404 
1854	 0.770274467631746 
1855	-6.7359195069042E-03 
1856	-4.36040168298027E-02 
1857	 38.8128396234123 
1858	-0.676376252477817 
1859	-0.311103527467141 
1860	-0.521270925844886 
1861	-0.999989236302539 
1862	 0.240791373373495 
1863	-1.10498120483915 
1864	-0.523671800906079 
1865	-0.518226557420332 
1866	 4.16768191592322 
1867	 2.19459884138943 
1868	-4.06309351041752 
1869	 18.547927654737 
1870	 1.18402072144941 
1871	 0.58970589487034 
1872	 0.598100454592271 
1873	 0.324705126412807 
1874	 0.463469098989465 
1875	 0.917286794589361 
1876	 0.842209380636483 
1877	 8.80302329271172E-02 
1878	 0.074257744381693 
1879	 0.947518415050867 
1880	 2.46118306325928 
1881	-0.834760242248182 
1882	 3.12627004593905E-02 
1883	 0.752534095995176 
1884	 2.91910065919473 
1885	 1.39621857284087 
1886	 1.8982365874792 
1887	-1.43569728564043 
1888	-1.83735940300427 
1889	-1.41982807593142 
1890	-0.560158476642859 
1891	-0.138010863005783 
1892	 0.621033347136112 
1893	 1.27099112156442 
1894	 1.12347128950734 
1895	 1.01513583244196 
1896	-1.75634197096482 
1897	 0.699865707098518 
1898	-0.212690941876649 
1899	 0.881348600909034 
1900	 0.285508132297297 
1901	 8.08666338252215E-02 
1902	-6.76811927066006E-02 
1903	-0.362290546689982 
1904	-1.36106695996358 
1905	 7.45692005101215 
1906	 0.78119177709896 
1907	-1.55264382499284 
1908	 2.88403473703301 
1909	 1.08670181317842 
1910	 0.973121468616872 
1911	 0.65061270826324 
1912	 0.593532833117963 
1913	 0.396178384444613 
1914	-2.50056455117313 
1915	-1.87799583944092 
1916	 9.09255422142162E-03 
1917	 0.605936641412455 
1918	 0.949624163806037 
1919	 1.34696074735788 
1920	 1.44038587706782 
1921	 2.46551208896268 
1922	 1.14072478620924 
1923	-0.154558515864335 
1924	-0.414181978803215 
1925	-0.294727496629726 
1926	-0.247612473459722 
1927	-6.60666522827228E-02 
1928	 0.224666882612032 
1929	 0.329342731436521 
1930	 0.217788178069941 
1931	 9.92972352222721E-02 
1932	 5.09292280221157E-02 
1933	-1.20940261599431E-03 
1934	-3.31809190758073E-02 
1935	-2.60759528944098E-02 
1936	 6.15520127077482E-03 
1937	 3.61442903184105E-03 
1938	-1.39160816483796E-02 
1939	-1.19300651570869E-02 
1940	-4.51624288295276E-04 
1941	-1.58190728133244E-03 
1942	 4.93647995174588E-03 
1943	 2.08377016148575E-02 
1944	 1.57600246110383E-02 
1945	 8.01515442458953E-03 
1946	 1.48773023355755E-02 
1947	 1.52179574137929E-02 
1948	 3.54482065228487E-03 
1949	-2.37381934215191E-03 
1950	-3.5073217180355E-03 
1951	-1.30998786081325E-02 
1952	-1.90502764440799E-02 
1953	-1.78774939514906E-02 
1954	-1.23843661781739E-02 
1955	-1.30802177071618E-02 
1956	-8.04342116971348E-03 
1957	-1.98010353569839E-03 
1958	 1.13178137522282E-03 
1959	 2.3823509733052E-03 
1960	 2.13296520093917E-05 
1961	-1.04998452979709E-03 
1962	 2.16734917261794E-03 
1963	 3.55107174111926E-03 
1964	 2.1802256470223E-03 
1965	 3.03064794812521E-03 
1966	 3.22220886605178E-03 
1967	 2.96282818462224E-03 
1968	 1.34987064497352E-03 
1969	 1.53679972025167E-03 
1970	 6.4613877421749E-04 
1971	-1.37028041373522E-03 
1972	-1.10192872915464E-03 
1973	-4.10666759657161E-04 
1974	-7.97956404859139E-04 
1975	-1.02254430399165E-03 
1976	-1.19447148299817E-03 
1977	-1.8873613015606E-03 
1978	-1.42709475440044E-03 
1979	-8.35182382287462E-04 
1980	 7.05229331672449E-04 
1981	 9.47391465683604E-04 
1982	 1.04258366830003E-03 
1983	 1.05805584176791E-03 
1984	 5.70071093496523E-04 
1985	 4.61253235249306E-04 
1986	 6.70804007920421E-04 
1987	 3.12846896242382E-04 
1988	-8.50007712493706E-04 
1989	-1.24266090652136E-03 
1990	-1.02764202389021E-03 
1991	-1.05148122338312E-03 
1992	-4.68976144068335E-04 
1993	 5.03681085119974E-04 
1994	 1.19013902153493E-03 
1995	 1.41516602292135E-03 
1996	 1.78528655763057E-03 
1997	 2.92957076820669E-03 
1998	 3.40657710854269E-03 
1999	 2.5926484361728E-03 
2000	 1.96171954576162E-03 
2001	 2.32606596230277E-03 
2002	 1.85100216897055E-03 
2003	-1.02669219871117E-03 
2004	-1.44851685383244E-03 
2005	-3.75235326578815E-04 
2006	-1.67748219349755E-03 
2007	 6.81850191713973E-04 
2008	 3.31097537095238E-03 
2009	 3.90362137013219E-03 
2010	 1.41076957722383E-03 
2011	 1.11608330414536E-03 
2012	 1.00922587857946E-03 
2013	 1.18909443106679E-03 
2014	 1.89346047483851E-03 
2015	 2.00745226627453E-03 
2016	 1.50915731543271E-03 
2017	 2.94259940680471E-04 
2018	-1.11403558088146E-03 
2019	-1.07099852685899E-03 
2020	 6.71632668273334E-04 
2021	 2.1185009278779E-03 
2022	 2.56858324044216E-03 
2023	 2.18911652118574E-03 
2024	 2.18856267330788E-03 
2025	 1.73982614199189E-03 
2026	 1.40025837898074E-03 
2027	 1.01598589161362E-03 
2028	 1.64978450697637E-03 
2029	 1.73337612497327E-03 
2030	 9.00676387331407E-04 
2031	 1.00034392808772E-03 
2032	 1.08226051577112E-03 
2033	 6.48786950470421E-04 
2034	 7.62243571245817E-04 
2035	 8.12974613344549E-04 
2036	 3.2360939214201E-04 
2037	-5.83030799368401E-05 
2038	-4.12102533732491E-04 
2039	-2.98644433976348E-04 
2040	 5.59285981109929E-04 
2041	 7.41587554979681E-04 
2042	 1.02815075000243E-03 
2043	 1.0520152756398E-03 
2044	 5.20388089116222E-04 
2045	 3.70726477253332E-05 
2046	-1.12364713739806E-04 
2047	-4.8457814876545E-04 
2048	 1.92341633023151E-04 
2049	 9.04060042996155E-04 
2050	 8.31166317678031E-04 
2051	 1.11324817626678E-03 
2052	 1.26343760033085E-03 
2053	 9.48383569615778E-04 
2054	 1.11599083175549E-03 
2055	 1.30590293217968E-03 
2056	 1.11226865708551E-03 
2057	 1.51035326688539E-05 
2058	-3.31562554562013E-04 
2059	-5.45426009797938E-04 
2060	-3.03800179395807E-04 
2061	 5.31142308831688E-04 
2062	 1.39678427722681E-03 
2063	 1.25871834151688E-03 
2064	 9.02911139846091E-04 
2065	 6.12116734057527E-04 
2066	 1.15163447143674E-04 
2067	 1.87088056742196E-04 
2068	 4.17772759124542E-04 
2069	 6.21666720931165E-05 
2070	-5.61181741057495E-04 
2071	-6.78207083999306E-04 
2072	-8.33870658914054E-04 
2073	-7.21444399139133E-04 
2074	 1.10986032233303E-04 
2075	 2.15132770139178E-05 
2076	-7.24115478930888E-04 
2077	-5.60077816147647E-04 
2078	-4.1250806914964E-05 
2079	-1.75679499222307E-04 
2080	-1.67031112377526E-04 
2081	-2.13250740714361E-04 
2082	-8.58483815900745E-04 
2083	-1.45260263383749E-03 
2084	-8.51673957759995E-04 
2085	-1.35898961501209E-04 
2086	 2.2061423124222E-05 
2087	 2.97217509898759E-04 
2088	 5.46445249754519E-04 
2089	 6.01724818162571E-04 
2090	 1.58954670853051E-04 
2091	-1.19122393997074E-04 
2092	-2.0151856569029E-04 
2093	-5.64084970823986E-04 
2094	-6.05386297960779E-04 
2095	-2.448011727831E-04 
2096	-1.20063686508755E-04 
2097	 1.34641711942957E-04 
2098	 2.62733162405631E-04 
2099	 3.00497364252087E-04 
2100	 5.31658392886297E-04 
2101	 5.47192187082695E-04 
2102	-4.52161940195096E-05 
2103	-5.81069922083482E-04 
2104	-4.89547288378647E-04 
2105	 5.41388610625364E-04 
2106	 1.16024609648365E-03 
2107	 8.86051261100866E-04 
2108	 6.8594872989404E-04 
2109	 4.13620029421088E-04 
2110	 5.45108163065675E-04 
2111	 5.96672479637954E-04 
2112	 3.79065610188886E-04 
2113	 4.32653834266087E-04 
2114	-9.27848099475661E-05 
2115	-3.58880957178138E-04 
2116	 4.34857059516127E-05 
2117	 3.13400724824549E-04 
2118	 4.06090326919298E-04 
2119	 4.114870146733E-04 
2120	 5.93456931232927E-04 
2121	 4.73097985013689E-04 
2122	 1.11700852022736E-04 
2123	 3.07037756236819E-04 
2124	 7.45609914901881E-04 
2125	 1.2286766587909E-03 
2126	 1.41526497248498E-03 
2127	 5.85284194307444E-04 
2128	-5.15497673789117E-05 
2129	-3.159656510274E-06 
2130	-3.63506183953899E-05 
2131	 2.41987071413046E-04 
2132	 4.53362339412509E-04 
2133	-5.78609246315993E-05 
2134	-2.86777261648612E-04 
2135	-3.58280149762552E-04 
2136	-6.91112583001146E-04 
2137	-1.46770821969451E-03 
2138	-1.25011847028074E-03 
2139	-5.53568936118427E-04 
2140	-2.01146169661955E-04 
2141	 9.83013524257473E-04 
2142	 1.12500839736417E-03 
2143	 1.8825337901287E-04 
2144	-1.00143970156014E-04 
2145	 3.30560631101542E-05 
2146	-4.00583988836235E-04 
2147	-3.20730792611405E-04 
2148	 4.89914965859072E-04 
2149	 1.22926359813111E-03 
2150	 2.04995466781303E-03 
2151	 2.14585868559025E-03 
2152	 1.44030789596769E-03 
2153	 9.79471334924212E-04 
2154	 7.80806780736493E-04 
2155	 8.33266076192538E-04 
2156	 4.5351168065484E-04 
2157	 4.01840038732985E-04 
2158	 2.84493800227035E-04 
2159	-3.09473388991646E-04 
2160	-1.00902684239162E-03 
2161	-7.44020647491728E-04 
2162	-7.41844780206762E-04 
2163	-6.67801091271005E-04 
2164	 5.57835888582146E-04 
2165	 9.51963105786194E-04 
2166	 8.85316401030324E-04 
2167	 4.79879066154693E-04 
2168	-7.74537492927491E-04 
2169	-7.91326419505861E-04 
2170	-5.31737418473059E-04 
2171	-4.48738744620152E-04 
2172	 2.1544004248368E-04 
2173	 1.34416765038738E-03 
2174	 1.76920809901995E-03 
2175	 1.39053789632173E-03 
2176	 9.9245526135782E-04 
2177	 8.18178245626675E-04 
2178	 9.03856787078914E-05 
2179	 6.9756189012799E-05 
2180	 1.12248690856479E-03 
2181	 7.81316689162126E-04 
2182	-5.38095546199011E-04 
2183	-1.29991610077081E-03 
2184	-1.78565520631353E-03 
2185	-1.56703203790273E-03 
2186	-1.34238932071141E-03 
2187	 1.07942126808666E-04 
2188	 9.19053932699047E-05 
2189	-7.24352994243868E-04 
2190	-1.06773680444658E-03 
2191	-2.53845829175365E-03 
2192	-1.8996456854155E-03 
2193	 9.62570452870221E-04 
2194	 1.6157629529328E-03 
2195	 2.19588035081558E-03 
2196	 2.78706024305443E-03 
2197	 1.67337290939115E-03 
2198	 1.16969163788486E-03 
2199	 1.2665288401648E-03 
2200	 2.33570053449208E-03 
2201	 1.58667916432903E-03 
2202	 9.75257882895509E-04 
2203	 9.32234502359765E-04 
2204	 8.31511695165748E-04 
2205	 3.97215606830281E-04 
2206	-9.61694495541477E-05 
2207	 6.89801056282246E-04 
2208	 1.05309868031756E-03 
2209	 1.60448540285436E-03 
2210	 2.29518041456708E-03 
2211	 1.18808170097804E-03 
2212	 1.71778655518826E-04 
2213	-6.58026950336789E-04 
2214	-1.89906518377461E-03 
2215	-2.14295260690267E-03 
2216	-8.30937306332019E-04 
2217	-4.37377917994265E-04 
2218	 8.2915550209144E-04 
2219	 3.3387016702742E-04 
2220	-2.19373060705653E-03 
2221	-3.42359781279593E-03 
2222	-4.79010048944437E-03 
2223	-4.95758590284039E-03 
2224	-4.13117992706391E-03 
2225	-2.95048624642959E-03 
2226	-2.95019868795474E-04 
2227	 2.47085645383776E-04 
2228	-1.41856846349893E-04 
2229	 1.45065681215832E-04 
2230	-9.38371969862751E-04 
2231	-1.04262363914289E-03 
2232	 1.34653232765544E-03 
2233	 1.41512820653188E-03 
2234	-1.50546431157123E-04 
2235	-1.24775392555584E-03 
2236	-1.27419394446453E-03 
2237	-1.97807076350111E-03 
2238	-2.2138910615393E-03 
2239	-1.7950752829968E-03 
2240	-2.65879556891629E-03 
2241	-3.73523750603202E-03 
2242	-2.40736988258129E-03 
2243	-6.60812033124433E-04 
2244	 3.8874690604274E-04 
2245	 6.92393346743094E-04 
2246	 1.20208278295761E-04 
2247	-3.21358070385651E-05 
2248	-1.23709476938123E-03 
2249	-1.77064353648565E-03 
2250	-2.61319886843526E-04 
2251	 1.62205843283096E-04 
2252	 1.74480403773942E-03 
2253	 4.16254716545612E-03 
2254	 2.61176347518998E-03 
2255	 5.55813926371588E-04 
2256	 6.91424987991115E-04 
2257	 9.95138456850554E-04 
2258	 0.001915138652533 
2259	 3.30602309937258E-03 
2260	 3.8996317579484E-03 
2261	 2.73729016858693E-03 
2262	 2.38642927914779E-03 
2263	 2.35169163039545E-03 
2264	 2.39115157623734E-03 
2265	 2.29448483283711E-03 
2266	 2.40000064752523E-03 
2267	 3.67537814389177E-03 
2268	 3.31256140829165E-03 
2269	 1.15285139214078E-03 
2270	-1.76537518718559E-04 
2271	-2.08801643739494E-03 
2272	-1.8901519731264E-03 
2273	 7.78019177557594E-04 
2274	 8.55212172186515E-04 
2275	-2.33749667895353E-04 
2276	-9.54650042722806E-05 
2277	-1.53428449919257E-03 
2278	-1.08157324090402E-03 
2279	 3.52067452796212E-03 
2280	 4.62995554393332E-03 
2281	 3.79879470778554E-03 
2282	 3.98076374850683E-03 
2283	 1.60279128658213E-03 
2284	-1.25546673755684E-03 
2285	-1.22434040005602E-03 
2286	-9.69276793397271E-04 
2287	 1.79591906796306E-04 
2288	 7.9592710710511E-04 
2289	-9.63043770637952E-04 
2290	-1.74240456296068E-03 
2291	-6.44574894222012E-04 
2292	-6.75067275912005E-04 
2293	-3.15396002912574E-04 
2294	-2.88740819946443E-04 
2295	-7.99900795954831E-04 
2296	 2.97433158914951E-04 
2297	-3.32246213140796E-04 
2298	-2.21455564922167E-03 
2299	-1.93601457274668E-03 
2300	-2.4853623328135E-03 
2301	-5.39970963206819E-03 
2302	-3.28085141890942E-03 
2303	-1.30508379409138E-03 
2304	-2.93973058804175E-03 
2305	 8.39615059298929E-04 
2306	 4.13095795827254E-03 
2307	 4.48995284937561E-03 
2308	 6.11530734603211E-03 
2309	 6.26311126095953E-03 
2310	 2.85149420813005E-03 
2311	 2.29313489421375E-04 
2312	 8.13454195344927E-05 
2313	 1.34678248542035E-03 
2314	 6.35765308322895E-03 
2315	 9.33432273758708E-03 
2316	 8.85164056064065E-03 
2317	 6.27476032027187E-03 
2318	 0.003590679453218 
2319	 3.64173820415659E-03 
2320	 5.00346698730791E-03 
2321	 7.67480279934177E-03 
2322	 6.91523029840995E-03 
2323	 5.85456343312844E-03 
2324	 5.16693884117437E-03 
2325	 3.20388668011426E-03 
2326	 4.23698165801875E-03 
2327	 6.07933289658441E-03 
2328	 7.0417165685104E-03 
2329	 3.62093934869316E-03 
2330	-7.04798650480331E-04 
2331	-8.25285081090364E-04 
2332	 6.58123497789246E-04 
2333	 4.30059408824609E-03 
2334	 6.87607025728432E-03 
2335	 3.02891813267258E-03 
2336	-2.96351803288375E-03 
2337	-1.60751355869958E-03 
2338	-1.89663279410597E-03 
2339	-2.56380522726187E-03 
2340	 4.02075913503639E-03 
2341	-1.46697768694655E-03 
2342	-6.7430653732304E-03 
2343	 6.44833562636102E-04 
2344	-1.17182822124414E-03 
2345	-3.78351726660443E-03 
2346	 4.13032890806856E-03 
2347	 3.2475803750273E-03 
2348	-5.08333071621971E-03 
2349	-3.72492752497972E-03 
2350	 4.25242711454529E-04 
2351	 5.4756388204342E-03 
2352	 1.17440683865491E-02 
2353	 1.13750667464971E-02 
2354	 0.012543507018724 
2355	 1.21945523113676E-02 
2356	 6.11803825746969E-03 
2357	 3.61047572920853E-03 
2358	-9.78684025282386E-04 
2359	-1.31411207338906E-02 
2360	-1.52047380130014E-02 
2361	-7.54316318275917E-03 
2362	-4.26709816728519E-03 
2363	 7.54430565199515E-03 
2364	 1.96415845048385E-02 
2365	 2.33421557644702E-02 
2366	 2.63453366447701E-02 
2367	 2.11298150786524E-02 
2368	 1.03938216707328E-02 
2369	-3.49120130550615E-03 
2370	-9.63612010346834E-03 
2371	-5.39028994767715E-03 
2372	-2.15553683827656E-03 
2373	 5.87556261646535E-03 
2374	 1.41028943425408E-03 
2375	-1.26799328910978E-02 
2376	-1.58571672690084E-02 
2377	-2.10140385076401E-02 
2378	-1.90558880567509E-02 
2379	-9.62341397435444E-03 
2380	-7.44883888047815E-03 
2381	-0.0155046631188 
2382	-2.69174903251599E-02 
2383	-3.15339181060735E-02 
2384	-4.22677918284317E-02 
2385	-3.81677733455963E-02 
2386	-2.13154653867848E-02 
2387	-3.37809645527945E-02 
2388	-4.63089783444646E-02 
2389	-4.25122018152448E-02 
2390	-0.042860118504567 
2391	-0.030882462704152 
2392	-1.25383770975987E-02 
2393	-6.21675910101174E-03 
2394	-1.33910519829494E-02 
2395	-1.64588214763026E-02 
2396	-3.13277794128734E-03 
2397	-5.4952456689463E-03 
2398	-1.94952544359292E-02 
2399	-3.17307868028154E-02 
2400	-5.07581002772989E-02 
2401	-4.86353471199992E-02 
2402	-3.02398498457365E-02 
2403	-1.32268162724432E-02 
2404	-5.99467921413325E-03 
2405	-2.63360050047317E-03 
2406	 1.54490869745494E-02 
2407	 1.58059828682061E-02 
2408	 0.035086843708711 
2409	 5.79712762179115E-02 
2410	 3.64118476323787E-02 
2411	 2.60803846447645E-02 
2412	 9.03758138105139E-03 
2413	-4.13842836267692E-02 
2414	-6.93523280746475E-02 
2415	-4.74043387703192E-02 
2416	-4.29326461693002E-02 
2417	-4.28527805515327E-02 
2418	-3.35149530355565E-02 
2419	-7.38852642367198E-02 
2420	-7.81770134872122E-02 
2421	-3.62433815943794E-02 
2422	-3.43809741373969E-02 
2423	-1.08561801242771E-02 
2424	 1.62866496036413E-02 
2425	-3.11073495496291E-03 
2426	-8.76090791247784E-03 
2427	 5.95830836700684E-03 
2428	 1.10797964103077E-02 
2429	 2.11436837777639E-02 
2430	 4.27390648165917E-02 
2431	 6.84414381886484E-02 
2432	 6.90871412847184E-02 
2433	 2.88658022668767E-02 
2434	-1.61021787470797E-03 
2435	-3.78431989414444E-02 
2436	-6.32325854918178E-02 
2437	-0.077079924622514 
2438	-0.06056403505225 
2439	-2.37192359123734E-02 
2440	-0.101726780432572 
2441	-0.152374596138914 
2442	-0.11866417227038 
2443	-0.165615201430177 
2444	-0.167467626605131 
2445	-0.043348240432576 
2446	-2.52056714455142E-03 
2447	-3.92619494301314E-02 
2448	-3.42819776778791E-02 
2449	-2.55376723312705E-02 
2450	-2.02577025488653E-02 
2451	-2.01648421446287E-02 
2452	-5.57194143294673E-02 
2453	-4.59000173522652E-02 
2454	-6.84567321459627E-03 
2455	 3.15046790957695E-02 
2456	 9.73133077625716E-02 
2457	 0.099120841229839 
2458	 0.05376191663383 
2459	 2.94278991569006E-02 
2460	-8.33099822593463E-03 
2461	-8.93540206540995E-02 
2462	-0.126236695165962 
2463	-0.120118052392109 
2464	-0.136370569886577 
2465	-1.01311160492713E-02 
2466	-3.69158570038677E-02 
2467	-0.275790729459871 
2468	-0.21435153121133 
2469	-0.202961167709375 
2470	-0.258246100069595 
2471	-0.12709083691307 
2472	 0.058804881590105 
2473	 0.17842099985862 
2474	 0.377973137869134 
2475	 0.714147264087638 
2476	 0.599631108472841 
2477	 0.36444342642033 
2478	 0.130778653660993 
2479	-0.40807753875602 
2480	-0.806732225990273 
2481	-0.924175085353705 
2482	-0.916374437971101 
2483	-1.02330670869982 
2484	-0.733442202087318 
2485	-0.354635551027828 
2486	-0.289432808148634 
2487	 14.6255920637668 
2488	-0.209567925626442 
2489	-1.80861269758118 
2490	-2.57813015072624 
2491	-3.84801671607683 
2492	 0.736564533625413 
2493	-0.238264131101192 
2494	 2.42524869554495 
2495	 0.254803573651923 
2496	-0.530227688202786 
2497	-0.954085125935684 
2498	-1.52006760564752 
2499	-32.4536647472257 
2500	 0.659328136064365 
