Wavelength	rt0715far00002.asd
350	 1.52781583105797E-02 
351	 1.45813561904349E-02 
352	 0.01485098678915 
353	 1.50253076698196E-02 
354	 0.014631739144972 
355	 1.52948933710665E-02 
356	 1.55488863539047E-02 
357	 1.51419027920959E-02 
358	 1.45243683233803E-02 
359	 1.53158434720703E-02 
360	 1.56231698738356E-02 
361	 1.53982557426904E-02 
362	 0.015773405370666 
363	 0.015608373864436 
364	 1.51331948195499E-02 
365	 1.48715598764829E-02 
366	 1.55392283528015E-02 
367	 1.57084235489584E-02 
368	 0.015578694253009 
369	 0.015657946605821 
370	 0.015896140518229 
371	 1.59931612563992E-02 
372	 1.60651881990512E-02 
373	 1.64060759829174E-02 
374	 0.01656288237541 
375	 1.65345921585363E-02 
376	 1.65355883787709E-02 
377	 0.016976228972565 
378	 1.70237647255256E-02 
379	 1.68204424436158E-02 
380	 1.67591586593635E-02 
381	 1.72323939457762E-02 
382	 1.75535978907919E-02 
383	 1.76352676832691E-02 
384	 1.76958073306625E-02 
385	 1.77458582026097E-02 
386	 1.78182211247822E-02 
387	 1.79966827256677E-02 
388	 1.84042518204033E-02 
389	 1.87810358211271E-02 
390	 1.89657701574705E-02 
391	 1.89648626498316E-02 
392	 1.91019867633588E-02 
393	 1.90975950370572E-02 
394	 1.91499552954086E-02 
395	 1.95155302748275E-02 
396	 1.98498287810743E-02 
397	 2.00870816668052E-02 
398	 0.020214758997614 
399	 2.02532468367572E-02 
400	 2.02499028192012E-02 
401	 0.020386745834141 
402	 2.06550240416765E-02 
403	 2.05709511873824E-02 
404	 2.07099136928878E-02 
405	 2.09537643236482E-02 
406	 2.10015918136332E-02 
407	 0.021086635057687 
408	 2.12572490504888E-02 
409	 2.15041164169298E-02 
410	 2.17677707398603E-02 
411	 2.18161271638953E-02 
412	 2.18486389403745E-02 
413	 2.20170263680848E-02 
414	 0.022173509677304 
415	 2.23107679073614E-02 
416	 2.24840632056091E-02 
417	 2.27434841495914E-02 
418	 2.29330759299927E-02 
419	 2.30936871809921E-02 
420	 0.023259755197164 
421	 2.34430062731165E-02 
422	 2.36607954027566E-02 
423	 2.38821384527277E-02 
424	 2.40943423666485E-02 
425	 2.43668021890415E-02 
426	 2.46422463071052E-02 
427	 2.48930282556827E-02 
428	 2.51132754823665E-02 
429	 2.53237096108802E-02 
430	 2.56494033053201E-02 
431	 2.60377436080892E-02 
432	 2.62313315313751E-02 
433	 2.64672693055459E-02 
434	 2.67367169055432E-02 
435	 2.70001081688436E-02 
436	 2.72970608838078E-02 
437	 2.76130589645524E-02 
438	 2.79082870739182E-02 
439	 2.81474120454949E-02 
440	 2.84709301135805E-02 
441	 2.87524768601074E-02 
442	 2.89593021193348E-02 
443	 2.92364299070033E-02 
444	 0.029482695436292 
445	 2.97539743802029E-02 
446	 3.00984118349975E-02 
447	 0.030390253604193 
448	 0.030589867970525 
449	 3.07521706898774E-02 
450	 3.09888978699902E-02 
451	 3.11898620674776E-02 
452	 3.13727177936844E-02 
453	 3.15757585424818E-02 
454	 3.18469102688404E-02 
455	 3.20804722289829E-02 
456	 3.22122288429026E-02 
457	 3.22487467348122E-02 
458	 3.24449693570052E-02 
459	 3.26498531795886E-02 
460	 3.27900356390893E-02 
461	 3.28962516227593E-02 
462	 3.30868242264657E-02 
463	 3.32982257890143E-02 
464	 3.34532281407344E-02 
465	 3.35344481799474E-02 
466	 3.36650420262168E-02 
467	 3.39129161677141E-02 
468	 3.42551145386427E-02 
469	 0.034274660193776 
470	 3.43682390099856E-02 
471	 3.46506156501784E-02 
472	 3.47647083313489E-02 
473	 3.48545770011024E-02 
474	 3.50084398521373E-02 
475	 0.035252533201182 
476	 3.54348680187121E-02 
477	 3.56418957014292E-02 
478	 3.58537738100832E-02 
479	 3.59961199896498E-02 
480	 3.62529768746824E-02 
481	 3.64716435176713E-02 
482	 3.65997335951184E-02 
483	 3.68801564368609E-02 
484	 3.71354375911259E-02 
485	 3.73694170393579E-02 
486	 3.76245708796572E-02 
487	 3.77608766033061E-02 
488	 0.038078300582299 
489	 3.85161894724145E-02 
490	 3.86762602225095E-02 
491	 3.89298116148671E-02 
492	 3.92024355259352E-02 
493	 3.94156620888268E-02 
494	 3.97167039380373E-02 
495	 4.00870210189224E-02 
496	 4.04485293469153E-02 
497	 4.07151034015144E-02 
498	 4.10292059732896E-02 
499	 4.13437112604866E-02 
500	 4.16320200666535E-02 
501	 4.19261092171739E-02 
502	 4.23296013337445E-02 
503	 4.27124834117089E-02 
504	 4.29567645190674E-02 
505	 4.32615490452758E-02 
506	 4.36264371013202E-02 
507	 4.40129910365816E-02 
508	 4.43556396878265E-02 
509	 4.46082400874282E-02 
510	 4.48944324272683E-02 
511	 4.52790361862203E-02 
512	 4.56304572312684E-02 
513	 4.60063115259346E-02 
514	 4.63951757916058E-02 
515	 4.67633763020078E-02 
516	 4.71471680816384E-02 
517	 4.75480961223081E-02 
518	 4.79735791476338E-02 
519	 4.84434862443091E-02 
520	 4.87915248236221E-02 
521	 4.91496163987878E-02 
522	 4.96329353527683E-02 
523	 0.05004833647926 
524	 5.04418976853025E-02 
525	 5.08334906807035E-02 
526	 5.12325093942487E-02 
527	 5.17380344372926E-02 
528	 5.22053448958602E-02 
529	 5.25764435711829E-02 
530	 5.30308197656447E-02 
531	 5.34751113911599E-02 
532	 5.39216748889688E-02 
533	 5.43979599494109E-02 
534	 5.48091826529392E-02 
535	 5.52272245482906E-02 
536	 5.56886100457188E-02 
537	 5.61748392748594E-02 
538	 5.66640755010219E-02 
539	 5.71296013550951E-02 
540	 5.75688066020574E-02 
541	 5.80523001795803E-02 
542	 5.85390977937261E-02 
543	 5.89969443026972E-02 
544	 5.94129384923746E-02 
545	 5.98915200618828E-02 
546	 6.03770138340402E-02 
547	 6.08240550759117E-02 
548	 6.12446278696085E-02 
549	 6.17041476084989E-02 
550	 6.21869632490623E-02 
551	 6.26458422000413E-02 
552	 6.30337212313435E-02 
553	 6.34991295034213E-02 
554	 6.40174037053401E-02 
555	 6.43624557582239E-02 
556	 6.48846879514893E-02 
557	 6.54195178763067E-02 
558	 6.57859641070244E-02 
559	 6.61878162100553E-02 
560	 6.65763140353934E-02 
561	 6.69576071858358E-02 
562	 6.73636087339591E-02 
563	 6.77120259495411E-02 
564	 6.80540071709684E-02 
565	 6.84227527485171E-02 
566	 6.87907089200477E-02 
567	 6.90797254070456E-02 
568	 6.93527827338427E-02 
569	 0.069688608660526 
570	 6.99293870401559E-02 
571	 7.01274822328729E-02 
572	 7.03344134034819E-02 
573	 7.05828418902117E-02 
574	 7.07610400235961E-02 
575	 7.09114372767451E-02 
576	 7.10695700896747E-02 
577	 7.11155860583411E-02 
578	 7.12472833831342E-02 
579	 7.14224814569347E-02 
580	 7.14661236074721E-02 
581	 7.15005130876887E-02 
582	 7.15353206099104E-02 
583	 7.15582378925959E-02 
584	 7.15406201469635E-02 
585	 7.15120684874408E-02 
586	 7.14798000695747E-02 
587	 7.14327419756415E-02 
588	 0.071314677404946 
589	 7.11572075754573E-02 
590	 0.070999837554374 
591	 7.08674804932192E-02 
592	 7.06906859577564E-02 
593	 7.04526587417692E-02 
594	 7.01463233894017E-02 
595	 6.97374948953451E-02 
596	 6.93099693135424E-02 
597	 6.88283350353196E-02 
598	 6.82121428792379E-02 
599	 0.067631737347043 
600	 6.71508633298757E-02 
601	 6.68008032620076E-02 
602	 6.65860035619379E-02 
603	 6.64280673731953E-02 
604	 6.63000069231524E-02 
605	 6.62135513209873E-02 
606	 6.62604403189542E-02 
607	 6.63542904644571E-02 
608	 6.63980009687591E-02 
609	 6.63074234418733E-02 
610	 6.64105267055755E-02 
611	 6.65027297643379E-02 
612	 6.64211608444187E-02 
613	 6.64678757113607E-02 
614	 6.65347999249977E-02 
615	 6.65808650415689E-02 
616	 6.66010680315028E-02 
617	 6.66099396795719E-02 
618	 0.066580926087532 
619	 6.65400599565666E-02 
620	 6.66070779820089E-02 
621	 6.66715795804436E-02 
622	 6.66643873945975E-02 
623	 6.65748534625336E-02 
624	 6.65974675772879E-02 
625	 6.66057270335797E-02 
626	 6.65725783015001E-02 
627	 6.65746337781502E-02 
628	 6.65870766849508E-02 
629	 6.66086563020625E-02 
630	 6.66234440402386E-02 
631	 6.65567720183445E-02 
632	 6.65626247004122E-02 
633	 6.66145794823943E-02 
634	 0.066605692149294 
635	 6.65616017128747E-02 
636	 6.64947704535343E-02 
637	 6.64454656323324E-02 
638	 0.066497991682051 
639	 6.63745008433996E-02 
640	 6.62371258786479E-02 
641	 6.62784864754754E-02 
642	 6.62502892540524E-02 
643	 6.61686753654142E-02 
644	 6.60613147293345E-02 
645	 6.59638987729093E-02 
646	 6.59109146881021E-02 
647	 6.58101192999079E-02 
648	 6.56386675562927E-02 
649	 6.55972611283309E-02 
650	 0.065478071037779 
651	 0.065258127296508 
652	 6.49940310597927E-02 
653	 6.47187933476216E-02 
654	 6.43974491149846E-02 
655	 0.064002780306142 
656	 6.35820245891197E-02 
657	 6.31415766269136E-02 
658	 6.27389868114614E-02 
659	 6.24286144229796E-02 
660	 6.23109673419602E-02 
661	 6.20562717219243E-02 
662	 6.17427025721201E-02 
663	 6.16764855432746E-02 
664	 6.15735724680222E-02 
665	 6.14463288145985E-02 
666	 0.061321455550872 
667	 6.11842776452622E-02 
668	 6.10451134791383E-02 
669	 6.09730383074559E-02 
670	 6.10054519354955E-02 
671	 6.09199305092758E-02 
672	 0.060928239335407 
673	 6.10048959242772E-02 
674	 6.09037215310766E-02 
675	 6.08693323287116E-02 
676	 0.060868327370953 
677	 6.08425974130121E-02 
678	 6.07981625812295E-02 
679	 6.08267936565063E-02 
680	 0.060928861044083 
681	 6.10437325471896E-02 
682	 6.10419930115371E-02 
683	 6.10553219702112E-02 
684	 6.11220382094111E-02 
685	 6.11289025530745E-02 
686	 6.10988092720481E-02 
687	 6.10262811406538E-02 
688	 6.09282725989055E-02 
689	 6.08652798704082E-02 
690	 6.07868626882971E-02 
691	 6.06376732059493E-02 
692	 6.03686803412002E-02 
693	 6.00842246256406E-02 
694	 5.98003901103438E-02 
695	 5.94769367139661E-02 
696	 5.89739948028462E-02 
697	 5.84687427224884E-02 
698	 0.057969445860901 
699	 0.057436273135596 
700	 5.67452293859554E-02 
701	 0.05606719915264 
702	 5.54328660401461E-02 
703	 5.47341394907137E-02 
704	 5.40027371205695E-02 
705	 5.32405098200369E-02 
706	 5.24420991275754E-02 
707	 5.15509115456466E-02 
708	 5.06304292524685E-02 
709	 4.96322261428299E-02 
710	 4.84896988993936E-02 
711	 4.73080712663649E-02 
712	 4.60746201107435E-02 
713	 4.47820088563627E-02 
714	 4.34076376473565E-02 
715	 4.21511797706864E-02 
716	 4.08715133819661E-02 
717	 0.039446308600252 
718	 3.78741480261679E-02 
719	 3.63291661805981E-02 
720	 3.50240534224328E-02 
721	 3.38585654335361E-02 
722	 3.26418394629702E-02 
723	 3.12978352424102E-02 
724	 2.99130049814979E-02 
725	 2.84491578631391E-02 
726	 2.70068443582567E-02 
727	 2.55696312523813E-02 
728	 2.40878582896287E-02 
729	 2.23969725268107E-02 
730	 2.07934720670422E-02 
731	 1.93721207645165E-02 
732	 1.80868694445789E-02 
733	 1.71399406054609E-02 
734	 1.62862526891503E-02 
735	 1.54752629962594E-02 
736	 1.49319545369182E-02 
737	 1.45363553159083E-02 
738	 1.41773437867375E-02 
739	 1.38370441497058E-02 
740	 1.37768064158398E-02 
741	 1.36245674847754E-02 
742	 1.34154440717064E-02 
743	 1.33818339894255E-02 
744	 1.34197401532565E-02 
745	 0.013382271741861 
746	 1.32490389375548E-02 
747	 1.31726080625542E-02 
748	 1.31786872453172E-02 
749	 1.32070501783544E-02 
750	 0.013202829425551 
751	 1.32271240789173E-02 
752	 1.32158349307301E-02 
753	 1.31672285388249E-02 
754	 1.31227392991371E-02 
755	 1.31540050413702E-02 
756	 1.32049674368257E-02 
757	 1.31975226214566E-02 
758	 1.29840072834524E-02 
759	 1.29936050634202E-02 
760	 1.31557205464927E-02 
761	 1.30424691865045E-02 
762	 1.30317747100028E-02 
763	 1.31267345169217E-02 
764	 1.32491578937617E-02 
765	 1.33161369197483E-02 
766	 1.32946103855439E-02 
767	 1.33995458845377E-02 
768	 1.35800997318402E-02 
769	 0.0135391230438 
770	 1.35824954169567E-02 
771	 1.36737173298454E-02 
772	 1.37553849368472E-02 
773	 1.39078910701905E-02 
774	 1.40972773760748E-02 
775	 1.42741050107415E-02 
776	 1.43971738587109E-02 
777	 1.45089746168291E-02 
778	 1.46201431687173E-02 
779	 1.47471236008501E-02 
780	 1.49155093669845E-02 
781	 1.52036932924152E-02 
782	 0.01538520203512 
783	 1.54023812066807E-02 
784	 0.015710242696896 
785	 1.58454313976234E-02 
786	 1.59893438742507E-02 
787	 0.016417962237522 
788	 1.66719453243048E-02 
789	 1.68748605785033E-02 
790	 1.71013056400543E-02 
791	 1.73576354306485E-02 
792	 1.75379757336039E-02 
793	 1.77191702134758E-02 
794	 1.79664398819038E-02 
795	 1.82826493791901E-02 
796	 1.85034964860344E-02 
797	 1.87188945933336E-02 
798	 1.90225859257872E-02 
799	 1.92399219956398E-02 
800	 1.94580761786056E-02 
801	 1.96495212992341E-02 
802	 1.97510575188901E-02 
803	 1.99105788478184E-02 
804	 2.00542335857397E-02 
805	 2.01422289593333E-02 
806	 2.01976066852455E-02 
807	 2.02352835928155E-02 
808	 0.020287464800443 
809	 2.03268444611629E-02 
810	 2.01610990660221E-02 
811	 2.01003277445439E-02 
812	 1.99961359110122E-02 
813	 1.96080333767738E-02 
814	 1.93434047432167E-02 
815	 1.91300585313624E-02 
816	 1.88943867555696E-02 
817	 1.85968596329678E-02 
818	 1.83723524340959E-02 
819	 1.79416408728877E-02 
820	 1.73393088434228E-02 
821	 1.70604859371431E-02 
822	 1.63310611284593E-02 
823	 0.015542169900502 
824	 1.50279379408721E-02 
825	 1.42023207850854E-02 
826	 1.33205839936075E-02 
827	 0.012457951428209 
828	 0.011649734890374 
829	 1.07509877813002E-02 
830	 1.00326061883723E-02 
831	 9.55654337073453E-03 
832	 9.20005602803629E-03 
833	 8.72532146471332E-03 
834	 8.34847778065624E-03 
835	 8.11921390521466E-03 
836	 7.80266683404898E-03 
837	 7.66199771487371E-03 
838	 7.62512170406459E-03 
839	 7.54112368602875E-03 
840	 7.22787304582229E-03 
841	 7.13663800927475E-03 
842	 7.17651653279691E-03 
843	 7.11032606595989E-03 
844	 7.12428067054354E-03 
845	 6.94886584004902E-03 
846	 6.66345677022849E-03 
847	 6.5675465902664E-03 
848	 6.5026133194012E-03 
849	 6.49168497349682E-03 
850	 6.48451937675166E-03 
851	 6.33117210256744E-03 
852	 6.16160831423848E-03 
853	 6.0884155322202E-03 
854	 6.08771618826458E-03 
855	 5.8519537084668E-03 
856	 5.93871280060356E-03 
857	 5.98654167563241E-03 
858	 5.68659907851048E-03 
859	 5.89710285264478E-03 
860	 5.77056903708214E-03 
861	 5.42144009478014E-03 
862	 5.37768552124994E-03 
863	 5.32115388882636E-03 
864	 5.48469018099084E-03 
865	 5.65189449668706E-03 
866	 5.29370495991704E-03 
867	 5.3012619880017E-03 
868	 5.20112133037594E-03 
869	 4.88146198723437E-03 
870	 4.9154357048587E-03 
871	 0.004899592828835 
872	 4.84934666113805E-03 
873	 4.81699522260558E-03 
874	 4.73953349799919E-03 
875	 4.6720400453822E-03 
876	 4.58114040800216E-03 
877	 4.44907168801075E-03 
878	 4.41074754919262E-03 
879	 4.36465899702577E-03 
880	 4.32968975155621E-03 
881	 4.32466355466834E-03 
882	 4.02503049319088E-03 
883	 3.87651357590878E-03 
884	 3.86712710303656E-03 
885	 3.67668599649857E-03 
886	 3.76070889060426E-03 
887	 3.81459595863216E-03 
888	 3.7058760881196E-03 
889	 3.59227271637018E-03 
890	 3.50031527900037E-03 
891	 3.48401384453463E-03 
892	 3.51336189911625E-03 
893	 3.40953410965213E-03 
894	 3.29612678336232E-03 
895	 3.05618356550135E-03 
896	 2.74207722114131E-03 
897	 3.06077133721385E-03 
898	 3.41862345485893E-03 
899	 3.4091640883222E-03 
900	 2.98854827924889E-03 
901	 2.87153593606675E-03 
902	 2.96033842343511E-03 
903	 2.85218309941185E-03 
904	 2.36198273847262E-03 
905	 2.95824463189579E-03 
906	 3.24456082893178E-03 
907	 3.06589413207099E-03 
908	 3.08257397325623E-03 
909	 2.32926464868439E-03 
910	 2.45455045706502E-03 
911	 3.17647207173732E-03 
912	 2.58993111123876E-03 
913	 2.12465291308816E-03 
914	 1.99873277656527E-03 
915	 2.13423468776457E-03 
916	 2.27701732520129E-03 
917	 2.36700864815969E-03 
918	 2.23198229229351E-03 
919	 1.93940295390292E-03 
920	 1.8614954882006E-03 
921	 2.08361788988415E-03 
922	 1.86003271892398E-03 
923	 1.15928325989522E-03 
924	 1.7203824723026E-03 
925	 2.0743021443898E-03 
926	 1.83886631946827E-03 
927	 1.27482124959651E-03 
928	 1.75563077321783E-03 
929	 2.04567230105513E-03 
930	 1.93979746754894E-03 
931	 1.76760555053258E-03 
932	 1.78443127156974E-03 
933	 1.5110787159023E-03 
934	 1.58106498350667E-03 
935	 2.2606038068473E-03 
936	 6.71258492690204E-04 
937	 4.77145762003382E-04 
938	 8.50536495636742E-04 
939	-3.53987074612457E-05 
940	-1.95642843366849E-03 
941	-7.55019121443861E-04 
942	 7.08585436540996E-04 
943	-1.99646827530433E-03 
944	 4.2499746175341E-04 
945	 1.60463184238416E-03 
946	 6.67868231481665E-04 
947	 4.01583830477759E-04 
948	-8.39899107613855E-04 
949	-1.0021300325773E-03 
950	 2.04311224891481E-04 
951	 1.42630906815715E-03 
952	-3.61745650913549E-04 
953	-5.04892614939165E-04 
954	 1.18005573242765E-03 
955	 1.54854241519154E-03 
956	 1.05561989312537E-03 
957	 9.16427440669643E-04 
958	 8.05218946650552E-04 
959	-1.73817057006857E-04 
960	 1.96023798728204E-03 
961	 1.95734224257888E-03 
962	 3.98002723991147E-07 
963	 2.13190816561554E-04 
964	-3.37252206942696E-04 
965	 2.48071532929323E-05 
966	 5.00138673850423E-04 
967	-1.07849865822018E-03 
968	-2.55470891676641E-04 
969	 3.14702079790601E-04 
970	 2.38319498411227E-04 
971	 1.28518196370689E-03 
972	 7.98938807189188E-04 
973	 6.87356150123741E-05 
974	-1.44765702205124E-04 
975	-1.1428542249979E-04 
976	-3.01361334258607E-04 
977	 8.00683597915964E-04 
978	 1.96791104509551E-03 
979	 3.17863484707707E-04 
980	 2.11026308754504E-04 
981	 7.01053193299513E-04 
982	 8.48646947931221E-04 
983	 4.21178132078808E-04 
984	 4.47438747157448E-04 
985	 6.22912176557148E-04 
986	 7.66796510605411E-04 
987	 9.58073993045067E-04 
988	 1.6169134144577E-03 
989	 1.51636340767165E-03 
990	 6.75933288168812E-04 
991	 1.88430707601521E-04 
992	 5.48347454773527E-04 
993	 7.55668917460366E-04 
994	 3.24973855646341E-04 
995	-4.12761227093994E-04 
996	 4.97413531705265E-04 
997	 6.08593015037363E-04 
998	 1.87863786893349E-04 
999	 7.81493245038042E-04 
1000	-3.75944861357748E-04 
1001	 5.23233707445966E-04 
1002	 3.15878423057309E-04 
1003	 3.76540748911136E-04 
1004	 8.68073873427548E-04 
1005	 9.5888149348743E-04 
1006	 1.09769894813197E-03 
1007	 1.0906136174594E-03 
1008	 3.91899706749744E-04 
1009	-4.66886132797884E-05 
1010	-4.99848062262097E-04 
1011	-4.88310093514605E-04 
1012	 3.36165682344975E-04 
1013	 9.2657555470453E-04 
1014	 1.16221471104932E-03 
1015	 1.31465772855091E-03 
1016	 1.32665592088948E-03 
1017	 8.51604555254742E-04 
1018	 6.69600825694473E-04 
1019	 6.99475584196267E-04 
1020	 6.18823085645663E-04 
1021	 5.29539886229239E-04 
1022	 1.86944719331723E-04 
1023	 1.2190769715606E-04 
1024	 3.60926558263164E-04 
1025	 5.83854637953342E-04 
1026	 1.02951498570155E-03 
1027	 1.27264129528827E-03 
1028	 1.46981154963278E-03 
1029	 1.59371092263509E-03 
1030	 1.73230994552061E-03 
1031	 1.68707878281406E-03 
1032	 1.45814884316699E-03 
1033	 1.3140296609504E-03 
1034	 1.01239297423641E-03 
1035	 8.24245701169452E-04 
1036	 6.51467741893887E-04 
1037	 6.63835524435967E-04 
1038	 8.82012813640907E-04 
1039	 9.26545583760326E-04 
1040	 1.25997173709965E-03 
1041	 1.36935458969788E-03 
1042	 1.42191601902305E-03 
1043	 1.27604761229752E-03 
1044	 1.41016463988459E-03 
1045	 1.6825466641414E-03 
1046	 1.71715204172826E-03 
1047	 1.79055048452883E-03 
1048	 1.77286380846763E-03 
1049	 1.57336002152247E-03 
1050	 1.36100029592532E-03 
1051	 1.04871010769341E-03 
1052	 8.93313619121714E-04 
1053	 5.82835036376472E-04 
1054	 5.11493063002364E-04 
1055	 8.30680498293408E-04 
1056	 9.9034970159699E-04 
1057	 1.14169774249689E-03 
1058	 1.35919383902736E-03 
1059	 1.43701260489363E-03 
1060	 1.36494218324323E-03 
1061	 1.43755304579522E-03 
1062	 1.60812508288275E-03 
1063	 1.57424283504693E-03 
1064	 1.48495219830052E-03 
1065	 1.40996272901252E-03 
1066	 1.0634258370383E-03 
1067	 9.9467157314818E-04 
1068	 1.07510795191922E-03 
1069	 1.21691165607919E-03 
1070	 1.73181686392703E-03 
1071	 1.87428902098327E-03 
1072	 1.84763723279408E-03 
1073	 1.85466321136496E-03 
1074	 1.7474107336364E-03 
1075	 0.001307598809496 
1076	 1.18958428382481E-03 
1077	 1.23134466715294E-03 
1078	 1.18905332192359E-03 
1079	 1.14031214740686E-03 
1080	 1.13538728055246E-03 
1081	 1.21049283116196E-03 
1082	 1.17735345833102E-03 
1083	 1.0317925750035E-03 
1084	 1.08521752822948E-03 
1085	 1.17046424392032E-03 
1086	 1.2460307779187E-03 
1087	 1.6394206389113E-03 
1088	 1.74281109270459E-03 
1089	 1.54446646141203E-03 
1090	 1.52279190093955E-03 
1091	 1.37856342873689E-03 
1092	 9.5413719242613E-04 
1093	 9.47786201393806E-04 
1094	 1.1490453035035E-03 
1095	 1.21596567665165E-03 
1096	 1.67488858019575E-03 
1097	 1.61693431959799E-03 
1098	 8.16283355428155E-04 
1099	 8.16323947931346E-04 
1100	 1.23887413474157E-03 
1101	 1.2696849504143E-03 
1102	 1.60899821949891E-03 
1103	 1.79526315630446E-03 
1104	 1.62973889419646E-03 
1105	 1.21422227521624E-03 
1106	 1.30366878313322E-03 
1107	 1.39070797787865E-03 
1108	 1.10135838773872E-03 
1109	 8.46885673536548E-04 
1110	 9.43518432794598E-04 
1111	 1.35938373733495E-03 
1112	 1.66475750526247E-03 
1113	 2.57972603734001E-03 
1114	 2.50883211457895E-03 
1115	 1.37579642183645E-03 
1116	 8.80439759567369E-04 
1117	-1.98304296731613E-04 
1118	-6.54758554515993E-04 
1119	 2.07790301414418E-04 
1120	 2.11782395385461E-04 
1121	-7.52949880323246E-05 
1122	-5.36064323536943E-04 
1123	-1.71859846724363E-04 
1124	 8.5159459261952E-05 
1125	-7.57816740051022E-04 
1126	-1.42571860653412E-03 
1127	-2.34610096186474E-03 
1128	-2.78142955832804E-03 
1129	-2.59293771410074E-03 
1130	-9.54857984546039E-04 
1131	-8.12414303993914E-04 
1132	-1.4946215182925E-03 
1133	-1.28963532568628E-03 
1134	-9.49734795785034E-04 
1135	-4.7744106657739E-04 
1136	 8.2734486633148E-04 
1137	 1.16738327313736E-03 
1138	 1.15946556783234E-03 
1139	 4.22975314169935E-04 
1140	 3.55428511539747E-04 
1141	 5.36206950934439E-04 
1142	 1.72253875769945E-04 
1143	 5.73522761835019E-04 
1144	 1.0957038168545E-03 
1145	 7.65630214840688E-04 
1146	 5.61553098433551E-04 
1147	 4.89137689830122E-04 
1148	-1.27658560926021E-04 
1149	-2.63827604632774E-04 
1150	-2.70728705747394E-04 
1151	-7.35813947004478E-05 
1152	-6.65666619801287E-05 
1153	-3.56371406466671E-05 
1154	 1.50001203613664E-04 
1155	 2.37513171358191E-04 
1156	 6.74028617061966E-04 
1157	 1.10362429088346E-03 
1158	 7.12123664025492E-04 
1159	 8.32415118652276E-05 
1160	 1.10545696728271E-04 
1161	 3.110106478184E-04 
1162	 3.5358500089128E-04 
1163	 6.38529550713803E-04 
1164	 7.39886753759653E-04 
1165	 4.48712882756927E-04 
1166	 2.42501813255143E-04 
1167	 1.65344633555814E-04 
1168	 2.94401221940634E-04 
1169	 5.6083619983634E-04 
1170	 6.18803116956233E-04 
1171	 6.5801636627306E-04 
1172	 6.25278423116053E-04 
1173	 5.72195481602171E-04 
1174	 3.08250527370642E-04 
1175	 5.11814168240168E-04 
1176	 7.15965163846575E-04 
1177	 7.24594939917844E-04 
1178	 6.51520281262792E-04 
1179	 4.30333919722508E-04 
1180	 3.27781913226987E-04 
1181	 4.31404417492928E-04 
1182	 4.38216686229724E-04 
1183	 3.61497282317443E-04 
1184	 4.30347462799204E-04 
1185	 3.06100453184609E-04 
1186	 5.48103446265699E-05 
1187	 1.65443763800208E-04 
1188	 3.85254996768323E-04 
1189	 4.2356053769358E-04 
1190	 5.67046140374717E-04 
1191	 7.07660015732105E-04 
1192	 7.22968760357229E-04 
1193	 4.7900445562385E-04 
1194	 4.68777733176558E-04 
1195	 6.46212463059177E-04 
1196	 6.11280491037532E-04 
1197	 4.73687448006875E-04 
1198	 3.38772375832733E-04 
1199	 2.98552465549088E-04 
1200	 3.70133451768666E-04 
1201	 5.27431477194437E-04 
1202	 6.48297100868395E-04 
1203	 5.1733714658198E-04 
1204	 4.55779696218393E-04 
1205	 5.77732885254925E-04 
1206	 4.61897045212659E-04 
1207	 3.5944190395663E-04 
1208	 3.46106691029425E-04 
1209	 1.80984756827727E-04 
1210	 1.70842067409552E-04 
1211	 2.96892211645507E-04 
1212	 4.28878814760615E-04 
1213	 4.84274651181104E-04 
1214	 4.98806236970692E-04 
1215	 5.07446873663538E-04 
1216	 5.72422161249783E-04 
1217	 5.93549913359665E-04 
1218	 6.79631127775885E-04 
1219	 6.90105347023624E-04 
1220	 5.45909376256569E-04 
1221	 5.01060622815489E-04 
1222	 5.30043024721032E-04 
1223	 6.1607594072127E-04 
1224	 6.61709270330638E-04 
1225	 5.79392024793862E-04 
1226	 5.76788080478626E-04 
1227	 6.26935443307647E-04 
1228	 6.39256157490441E-04 
1229	 6.07130646415558E-04 
1230	 3.89724341821275E-04 
1231	 2.20562197389549E-04 
1232	 3.23477772149771E-04 
1233	 4.0054607926355E-04 
1234	 3.84592438608354E-04 
1235	 4.63595250052916E-04 
1236	 5.89528074162635E-04 
1237	 6.39761857054259E-04 
1238	 6.89488689284768E-04 
1239	 8.3123385304558E-04 
1240	 8.73132201600979E-04 
1241	 8.37300919172963E-04 
1242	 7.65592771235644E-04 
1243	 6.22977503068226E-04 
1244	 5.21539174583358E-04 
1245	 5.29971088961116E-04 
1246	 6.35778834737162E-04 
1247	 6.44672798505587E-04 
1248	 5.84507541760447E-04 
1249	 5.02426748467552E-04 
1250	 3.89175570652332E-04 
1251	 4.0944946581763E-04 
1252	 3.9026183680574E-04 
1253	 2.63348238382852E-04 
1254	 2.46799928165271E-04 
1255	 4.03618721254134E-04 
1256	 3.92606109104737E-04 
1257	 3.53681966020626E-04 
1258	 2.88942325053871E-04 
1259	-2.39591876705992E-05 
1260	 9.62902748708568E-06 
1261	 4.80970137606983E-04 
1262	 4.93861815530529E-04 
1263	 3.6226315087079E-04 
1264	 3.2637029553067E-04 
1265	 3.55787911340949E-04 
1266	 3.37222642068179E-04 
1267	 3.87810425736739E-04 
1268	 4.77308821485731E-04 
1269	 5.15150192837817E-04 
1270	 3.80934403395431E-04 
1271	 5.25560560652006E-04 
1272	 8.22908398455675E-04 
1273	 5.63904368579462E-04 
1274	 3.43754092194589E-04 
1275	 5.63875040284966E-04 
1276	 6.68930257197622E-04 
1277	 6.46603770806853E-04 
1278	 7.13978512119157E-04 
1279	 7.5219276978393E-04 
1280	 6.44692118472069E-04 
1281	 5.50274953059537E-04 
1282	 3.90436712110819E-04 
1283	 4.44418869102419E-04 
1284	 6.68120087646519E-04 
1285	 6.16810796164218E-04 
1286	 5.10138026069896E-04 
1287	 5.83496528431569E-04 
1288	 5.90074195013198E-04 
1289	 4.46433898511769E-04 
1290	 3.11992222340548E-04 
1291	 4.46738363045507E-04 
1292	 3.44844192544777E-04 
1293	 1.72978278968766E-04 
1294	 4.9451440248216E-04 
1295	 6.01020296840551E-04 
1296	 3.03450712800071E-04 
1297	 2.65896321302802E-04 
1298	 3.18416163716294E-04 
1299	 3.05911111946435E-04 
1300	 3.59073267890486E-04 
1301	 3.42497922116855E-04 
1302	 1.88674819965102E-04 
1303	 9.51425840986712E-05 
1304	 2.78934364993215E-04 
1305	 5.27146851590428E-04 
1306	 5.86943775735788E-04 
1307	 6.9742635905694E-04 
1308	 7.34276947064101E-04 
1309	 5.3752936958053E-04 
1310	 3.62964878882698E-04 
1311	 8.73190182516202E-05 
1312	 2.12100735072191E-04 
1313	 6.22752274587793E-04 
1314	 6.63188509759546E-04 
1315	 8.54418291806421E-04 
1316	 9.47484011429682E-04 
1317	 5.17655833381543E-04 
1318	 3.4016148738338E-04 
1319	 5.01712572538732E-04 
1320	 5.69075170310302E-04 
1321	 4.4337920333533E-04 
1322	 5.67200505199375E-04 
1323	 8.01051818436035E-04 
1324	 7.59422360833769E-04 
1325	 6.18555564405137E-04 
1326	 3.10968006335973E-04 
1327	 4.95879649920056E-04 
1328	 8.76624178855213E-04 
1329	 5.54068000671181E-04 
1330	 5.83247605247041E-04 
1331	 8.58532164874578E-04 
1332	 6.3175099202242E-04 
1333	 5.54712085723294E-04 
1334	 6.9989848303979E-04 
1335	 1.00541629944349E-03 
1336	 1.05024094435909E-03 
1337	 9.65286770981298E-04 
1338	 1.49645817896395E-03 
1339	 1.50303808044546E-03 
1340	 5.03236196476598E-04 
1341	-5.41335796572913E-05 
1342	-7.17351054036875E-04 
1343	-6.36139663232035E-04 
1344	 2.74152399745558E-04 
1345	 3.98519059947997E-04 
1346	 1.43433221007097E-03 
1347	 2.13194235018251E-03 
1348	 1.28274654747833E-05 
1349	-5.01695863156547E-04 
1350	 2.13791408221959E-03 
1351	 3.49454359048108E-03 
1352	 6.39685448608651E-03 
1353	 8.98492355562129E-03 
1354	 1.08835302518514E-02 
1355	 2.02107510300222E-03 
1356	-3.4011411439882E-03 
1357	-6.56355505310086E-03 
1358	 9.3804226475548E-03 
1359	 2.20306185201608E-02 
1360	-1.33865476785589E-02 
1361	-2.03736967769507E-02 
1362	-4.53334013597171E-02 
1363	-4.60285457980479E-02 
1364	 7.64680412219732E-02 
1365	 8.69151283434585E-02 
1366	-2.11488169660799E-02 
1367	-2.73715389758077E-02 
1368	-2.24562411765152E-02 
1369	 2.34889298122789E-02 
1370	-5.76731955671717E-02 
1371	-0.196036405852475 
1372	-0.260355390947313 
1373	-0.422149417683485 
1374	-0.419184303675377 
1375	-0.129705475019858 
1376	-9.14478113357535E-02 
1377	-0.23745430577824 
1378	-0.156015264664141 
1379	 4.54369794566665E-02 
1380	 5.18931089926417E-02 
1381	 8.31284194418809E-02 
1382	 0.14164664657523 
1383	-2.11146738919199E-03 
1384	-8.10453371556205E-02 
1385	 6.27124568771395E-03 
1386	 3.48746776171265E-02 
1387	 9.42805227525949E-02 
1388	-2.50617014640079E-02 
1389	-0.535311493940751 
1390	-0.837515415278856 
1391	-0.715335017953317 
1392	-0.402771545208418 
1393	-0.529470447013853 
1394	-0.612681000175575 
1395	-0.363187581555751 
1396	-0.520218941980202 
1397	-0.590547242665131 
1398	-0.281506359585896 
1399	-7.24926564115522E-02 
1400	-3.08551219238182E-02 
1401	-3.24303240655186E-02 
1402	-4.26946525679546E-03 
1403	 7.51617705284378E-02 
1404	 0.131353591684218 
1405	 6.74726507291622E-02 
1406	 6.19287949455252E-02 
1407	 6.89656259228165E-02 
1408	-4.95012775396987E-03 
1409	-2.66337343009868E-02 
1410	 2.23979647702938E-02 
1411	 0.028563449141183 
1412	-4.91806036405692E-03 
1413	-1.48379494879676E-02 
1414	-8.51741454725273E-03 
1415	-5.24183521007429E-03 
1416	-1.11504384105765E-02 
1417	-1.09398073205176E-02 
1418	-2.24856912592712E-03 
1419	 3.57722317030031E-03 
1420	 9.78129539228748E-03 
1421	 0.006113707525422 
1422	-3.37114983124221E-03 
1423	-2.38247171440686E-03 
1424	 7.26196412050382E-04 
1425	-1.27423500950451E-03 
1426	-1.78998157899706E-03 
1427	-4.77508486747132E-04 
1428	-1.75902087955684E-03 
1429	-4.0803550186758E-03 
1430	-4.04245863648588E-03 
1431	-3.1746047857283E-03 
1432	-4.81205526493286E-03 
1433	-6.32206097282277E-03 
1434	-6.79216282477871E-03 
1435	-5.22013800052283E-03 
1436	-4.19708424468138E-03 
1437	-1.66141343647876E-03 
1438	 2.25259785066589E-05 
1439	 5.3569761298924E-04 
1440	 2.49520202477728E-03 
1441	 3.23125970328348E-03 
1442	 2.73813817251767E-03 
1443	 2.85943469400497E-03 
1444	 1.1493906112814E-03 
1445	-6.35693739471678E-04 
1446	-1.83352933281388E-04 
1447	 8.62353446872477E-04 
1448	 1.50089807866604E-03 
1449	 1.6712110816757E-03 
1450	 1.90421752435028E-03 
1451	 2.08264374484775E-03 
1452	 2.12191234145906E-03 
1453	 2.01711355219094E-03 
1454	 1.66402936178521E-03 
1455	 1.5526524127958E-03 
1456	 1.40566442614495E-03 
1457	 8.4465771867169E-04 
1458	 4.79689445634678E-04 
1459	 3.50765932056742E-04 
1460	 3.38972444199967E-04 
1461	 3.05823201265123E-04 
1462	-4.08813395734441E-06 
1463	-4.11237089033572E-04 
1464	-2.76007543768359E-04 
1465	-1.48873813729074E-04 
1466	-2.12474644480785E-04 
1467	 5.22339923373737E-04 
1468	 6.29977454348879E-04 
1469	-5.72215316429622E-04 
1470	-5.80487251320953E-04 
1471	 5.51655310465096E-04 
1472	 5.67389256988978E-04 
1473	 2.804938296148E-04 
1474	 9.84855757842976E-05 
1475	-7.81262259963932E-04 
1476	-9.54727536987259E-04 
1477	-2.12994900388968E-04 
1478	-2.7435192076242E-04 
1479	-8.70330872799795E-04 
1480	-8.69609303054891E-04 
1481	-9.34383937956101E-04 
1482	-1.00949004528782E-03 
1483	-5.24030427165317E-04 
1484	-4.07283885867232E-04 
1485	-8.38010690151677E-04 
1486	-8.15156329985134E-04 
1487	-6.67398600618764E-04 
1488	-4.35319724549163E-04 
1489	 1.58531772895721E-04 
1490	 3.143932221814E-04 
1491	 3.96593479692127E-04 
1492	 3.27215685123228E-04 
1493	-1.14712616238774E-04 
1494	-2.64450864742598E-04 
1495	-4.45558996719044E-04 
1496	-3.85216742994002E-04 
1497	 8.17181126930926E-05 
1498	 1.27179763717121E-04 
1499	-5.20427263130654E-05 
1500	 6.94600254481733E-05 
1501	 1.94986395627585E-04 
1502	 1.91496129812832E-04 
1503	 3.92552755780549E-04 
1504	 4.85848722666056E-04 
1505	 3.44663842716427E-04 
1506	 1.74057605795301E-04 
1507	 3.36075656767066E-04 
1508	 4.09419838037777E-04 
1509	 2.15658339256847E-04 
1510	 1.90678271515811E-04 
1511	 2.40145545335373E-04 
1512	 2.09578764079319E-04 
1513	 2.00611738736834E-04 
1514	 1.4430546695351E-04 
1515	 1.26495070608227E-04 
1516	-5.12396590567278E-05 
1517	-3.11200050468541E-04 
1518	-1.25836821155559E-04 
1519	 2.67586897532826E-04 
1520	 5.01228849960998E-04 
1521	 5.12471360450146E-04 
1522	 3.73077854831342E-04 
1523	 1.36722798863513E-04 
1524	-1.41970130758329E-05 
1525	 1.5649986112663E-04 
1526	 3.13528200842821E-04 
1527	 2.6095857853172E-04 
1528	 1.34726558707009E-04 
1529	 1.54573415978878E-04 
1530	 1.81388618018903E-04 
1531	 2.34277941300244E-05 
1532	 3.26639632570391E-05 
1533	 8.34110512346225E-06 
1534	-5.54624327964795E-05 
1535	 2.01197327153442E-04 
1536	 3.39197946402155E-04 
1537	 1.49157297104004E-04 
1538	 4.86562100313342E-05 
1539	 1.15835084575572E-04 
1540	 8.55577035096629E-05 
1541	 4.97009543460762E-05 
1542	 2.19117219761146E-04 
1543	 3.74407632975763E-04 
1544	 3.3371436118198E-04 
1545	 2.24130998463253E-04 
1546	 1.45236176360198E-04 
1547	 1.69500623021946E-04 
1548	 2.13100625330123E-04 
1549	 9.22399909286361E-05 
1550	 7.43946464293658E-05 
1551	 2.09469358617306E-04 
1552	 1.27065896216265E-04 
1553	 1.89626253322976E-04 
1554	 4.06874334035072E-04 
1555	 2.53679229535292E-04 
1556	 1.38478883267336E-04 
1557	 3.12593205331386E-04 
1558	 4.29901237144656E-04 
1559	 2.92934832661736E-04 
1560	 2.24258926449804E-04 
1561	 4.92094928186151E-04 
1562	 5.20592396131864E-04 
1563	 3.58216553895444E-04 
1564	 3.46021248952457E-04 
1565	 1.95073468255689E-04 
1566	 1.52355424848905E-04 
1567	 3.88247265025003E-04 
1568	 4.5997696428353E-04 
1569	 2.77410506645404E-04 
1570	 2.70056460987461E-04 
1571	 4.3612682557967E-04 
1572	 2.95943841004989E-04 
1573	 1.25041408615515E-04 
1574	 3.29334257162546E-04 
1575	 4.49677770463756E-04 
1576	 4.13475357047153E-04 
1577	 4.74498548957597E-04 
1578	 3.62246396083379E-04 
1579	 2.4338935916683E-04 
1580	 3.84012392501113E-04 
1581	 4.72607605886194E-04 
1582	 4.62338614972584E-04 
1583	 4.11610989970797E-04 
1584	 3.45361148078198E-04 
1585	 4.11257782449121E-04 
1586	 4.62710856714782E-04 
1587	 3.45170903401778E-04 
1588	 2.57807880381958E-04 
1589	 3.51642854559684E-04 
1590	 4.51059965681284E-04 
1591	 4.49106259467224E-04 
1592	 3.21321216548977E-04 
1593	 2.49901597682913E-04 
1594	 2.72074701914705E-04 
1595	 2.38784762243981E-04 
1596	 4.31340538329318E-04 
1597	 6.51634925629654E-04 
1598	 6.00744185951408E-04 
1599	 5.35079706647029E-04 
1600	 5.49199593469191E-04 
1601	 5.48098911688278E-04 
1602	 4.3658829120088E-04 
1603	 3.62212501991046E-04 
1604	 4.15222182842341E-04 
1605	 3.01194969277004E-04 
1606	 1.73632918199293E-04 
1607	 2.77375503341557E-04 
1608	 1.5030824386963E-04 
1609	-1.67428211686407E-04 
1610	-1.82569501391553E-04 
1611	-3.83646696892139E-05 
1612	-8.60502532287831E-05 
1613	 2.2026107447826E-05 
1614	 3.0661333375214E-04 
1615	 1.80972904659881E-04 
1616	 4.84597045704067E-05 
1617	 1.48745372175064E-04 
1618	 7.30773502719681E-05 
1619	-1.7079908830344E-04 
1620	-1.37804328586532E-04 
1621	 1.31810595896476E-04 
1622	 8.86342452879448E-05 
1623	 3.17573848212334E-05 
1624	 7.13011753515732E-05 
1625	-5.80651343041989E-05 
1626	-1.32352761481105E-04 
1627	 9.11125271206355E-05 
1628	 3.85023110005299E-04 
1629	 3.38836443845897E-04 
1630	 1.06164592505369E-04 
1631	-8.97743834974367E-05 
1632	-1.52912759218449E-04 
1633	-1.73834259610506E-04 
1634	 1.20873821094308E-05 
1635	 4.1657671919015E-04 
1636	 3.72511841036775E-04 
1637	 2.75194024275932E-04 
1638	 4.60342114273157E-04 
1639	 3.99648210681883E-04 
1640	 3.40943301786026E-04 
1641	 3.5648384914299E-04 
1642	 1.99523943363285E-04 
1643	 1.52683360418241E-04 
1644	 2.53395320386125E-04 
1645	 3.52824016420974E-04 
1646	 4.39978829383924E-04 
1647	 3.85254075250208E-04 
1648	 1.75248395511302E-04 
1649	-1.46050685935696E-05 
1650	 4.51165576644963E-05 
1651	 1.57806782112077E-04 
1652	 5.91637347477067E-05 
1653	-8.7042687424868E-05 
1654	 5.49070103444788E-05 
1655	 5.29250994762896E-04 
1656	 5.76795139751178E-04 
1657	 5.02910699710809E-04 
1658	 6.26054228045124E-04 
1659	 4.62698344075829E-04 
1660	 3.83200233484052E-04 
1661	 7.11048243014563E-04 
1662	 7.63625289456834E-04 
1663	 5.58095600665172E-04 
1664	 4.99748733752747E-04 
1665	 4.1133234566807E-04 
1666	 3.65223690826783E-04 
1667	 3.36197512813714E-04 
1668	 1.81836412605177E-04 
1669	 2.05431283795353E-04 
1670	 1.4172549772161E-04 
1671	 3.33310151743901E-04 
1672	 6.92767723991836E-04 
1673	 5.35400706434073E-04 
1674	 3.45973646476988E-04 
1675	 5.07160428419798E-04 
1676	 3.82601334299425E-04 
1677	 4.11423530058653E-04 
1678	 6.19459261639442E-04 
1679	 3.9385828623752E-04 
1680	 2.73376838038519E-04 
1681	 3.5610150523951E-04 
1682	 5.2818622973513E-04 
1683	 5.63671897145676E-04 
1684	 3.86405371170281E-04 
1685	 5.15694321127118E-04 
1686	 4.12182552580843E-04 
1687	 1.2420596121521E-04 
1688	 3.96503551325274E-04 
1689	 4.49501407597744E-04 
1690	 1.75636405673288E-04 
1691	 2.86756142670051E-04 
1692	 3.12239573887705E-04 
1693	 8.79141166543467E-05 
1694	 6.46067133100582E-05 
1695	 1.8184628037433E-04 
1696	 2.17338389527949E-05 
1697	-1.36040659750887E-05 
1698	 4.42266663174434E-04 
1699	 5.69959301652688E-04 
1700	 4.78335521560081E-04 
1701	 3.969818106835E-04 
1702	 8.76776835756459E-05 
1703	-5.60288829692036E-05 
1704	-9.25427522702452E-05 
1705	 4.38095376964761E-05 
1706	 1.86295045601418E-04 
1707	 7.06928251006444E-06 
1708	-1.48442414594356E-05 
1709	-2.64480423441329E-04 
1710	-5.45579997032324E-04 
1711	-2.04429283211211E-04 
1712	-2.52783267757098E-05 
1713	 2.65768001514796E-04 
1714	 3.35787507579931E-04 
1715	 3.74403627749255E-05 
1716	 5.33464335270204E-04 
1717	 5.03061890440885E-04 
1718	 3.66388025200637E-04 
1719	 5.83490444910502E-04 
1720	 6.60751825454192E-04 
1721	 3.91730615796451E-04 
1722	 2.41218112070344E-04 
1723	 5.3061671054955E-04 
1724	 3.8139729692554E-04 
1725	 1.11360319190787E-04 
1726	 4.69646309124492E-04 
1727	 3.6420966060216E-04 
1728	 1.15968449969896E-04 
1729	 6.26589028103218E-04 
1730	 6.46706561050432E-04 
1731	 1.92672791525949E-04 
1732	 2.6835268142552E-04 
1733	 1.43592279331111E-04 
1734	 1.96376961514153E-04 
1735	 7.21683005080365E-04 
1736	 6.2849459938905E-04 
1737	 2.41635140677511E-04 
1738	-1.22802923258719E-04 
1739	-6.3789171294722E-04 
1740	-8.64064427612108E-04 
1741	-5.06135033294379E-04 
1742	 1.18620970198446E-04 
1743	 3.23036624947906E-04 
1744	 2.73686784753617E-04 
1745	 3.15062769307117E-04 
1746	 3.338654540245E-04 
1747	 3.68764013040618E-04 
1748	 5.02800580444473E-04 
1749	 3.60137877865554E-04 
1750	 1.38685237756162E-05 
1751	-1.84226548350143E-04 
1752	-3.2979595546777E-04 
1753	-3.95421494882958E-04 
1754	-7.49580449493641E-04 
1755	-6.33377283123809E-04 
1756	-1.6740864522014E-05 
1757	 2.79600878976007E-04 
1758	 8.24351114895902E-04 
1759	 7.5152040088833E-04 
1760	 1.25141483533214E-04 
1761	-1.46742800807723E-05 
1762	-7.66838440958605E-05 
1763	 4.87788318965652E-05 
1764	 2.99389081483908E-04 
1765	 2.28174000765103E-04 
1766	 3.50997420675988E-04 
1767	-3.84091828442489E-04 
1768	-0.001289909865191 
1769	-6.42237949455932E-04 
1770	-6.54582750901328E-04 
1771	-9.1670719723052E-04 
1772	 5.04100524344462E-05 
1773	-1.58950199044794E-04 
1774	-1.21606304954768E-03 
1775	-3.76385929787257E-04 
1776	-2.64475734712216E-04 
1777	-6.47421744972473E-04 
1778	-5.85562655705581E-04 
1779	-6.55631378904448E-04 
1780	-9.04459762242986E-04 
1781	-1.1323275778017E-03 
1782	-1.0661443754539E-03 
1783	-8.74073185709701E-04 
1784	-6.9959127448857E-04 
1785	 2.92678779835746E-04 
1786	 2.85690219947123E-04 
1787	-1.09422825071121E-03 
1788	-1.3616254481081E-03 
1789	-1.46173977294929E-03 
1790	-2.43389246774082E-03 
1791	-1.00875400557486E-03 
1792	-6.47815098307383E-04 
1793	-2.24558049841845E-03 
1794	-2.46029326315314E-03 
1795	-3.73247307605589E-03 
1796	-4.68771443879845E-03 
1797	-3.89987053935411E-03 
1798	-2.82146521422033E-03 
1799	 6.69244454694975E-05 
1800	 3.19654285036747E-03 
1801	 4.52400680194047E-03 
1802	 4.22787071595975E-03 
1803	 2.59305511882588E-03 
1804	-9.7805280864238E-03 
1805	-1.02720829704244E-02 
1806	 5.62889695787837E-03 
1807	 9.29651401060068E-03 
1808	 0.024242422764824 
1809	 2.57129537449634E-02 
1810	-2.21995289521264E-02 
1811	-3.15324098903321E-02 
1812	-4.58844800873404E-03 
1813	-6.11428604623256E-03 
1814	 1.09457703012105E-02 
1815	 8.92583709630995E-03 
1816	-6.98354477499629E-02 
1817	-3.70198702429425E-02 
1818	 4.10483566783371E-02 
1819	 0.11850858873409 
1820	 0.145158288178152 
1821	-5.51606430588624E-03 
1822	-6.55751992988291E-02 
1823	-0.107030840745044 
1824	-0.130462449165288 
1825	-8.29470551353313E-03 
1826	 8.62021406575307E-02 
1827	 0.170278687508508 
1828	 0.167557583441779 
1829	 1.21477810131694E-02 
1830	-0.04792421830811 
1831	 0.332040950716419 
1832	 1.58966376320622 
1833	 3.52186629232794 
1834	 2.2905102852661 
1835	 0.435864760668828 
1836	 1.50375426311802E-02 
1837	-0.492161010076651 
1838	-0.501927926710283 
1839	-0.140712154793862 
1840	 0.324784892034342 
1841	 1.79326933133568 
1842	-23.2590923272068 
1843	-2.10546457149453 
1844	-3.87779222207744E-02 
1845	 0.309587167746815 
1846	 1.52552290883605 
1847	 2.99005966329462 
1848	-18.6923297928688 
1849	-1.37694165623951 
1850	 2.99343533209623 
1851	 0.749350967678397 
1852	 0.600509611512377 
1853	 0.449952440866689 
1854	 0.402683911198493 
1855	 0.250867825366553 
1856	 0.247766247151707 
1857	 1.85299320265019 
1858	-8.42351288716838E-02 
1859	-0.403040731831241 
1860	-0.145155409442612 
1861	-0.38314552041681 
1862	-2.31773302928404 
1863	 1.36861718640712 
1864	 0.986168653160026 
1865	 0.972107109434825 
1866	-1.94175946534352 
1867	-1.22073737795474 
1868	-1.09138289599055 
1869	 3.29901482031986 
1870	 6.92804111987042E-02 
1871	-7.96051623330729E-02 
1872	 0.025044540175392 
1873	 0.351710793282054 
1874	 0.236616595531954 
1875	 0.30862385003717 
1876	 0.361514095774949 
1877	 5.21875025581578E-03 
1878	-6.09838462136202E-02 
1879	 0.89905293469104 
1880	 3.30646485520039 
1881	-0.300336510899208 
1882	 0.201428559073913 
1883	 0.281034699206369 
1884	-0.954480603829525 
1885	-2.17462775486669 
1886	-5.01599869682045 
1887	 3.15179113089121 
1888	 2.25830730343103 
1889	 1.06591029628311 
1890	-0.887542188114945 
1891	-1.00916271657146 
1892	-1.08510132027569 
1893	-1.33524994883957 
1894	-1.27649688096909 
1895	-1.28851701849272 
1896	 23.4140482430501 
1897	 4.26572835618649 
1898	 7.96591195785394 
1899	-2.23441694616586 
1900	-0.710002708694104 
1901	-0.637655374367149 
1902	-0.642578226987022 
1903	-0.642358711811192 
1904	-0.224808539002353 
1905	-1.17097110093673 
1906	-0.33956059935461 
1907	-0.446551862064341 
1908	-0.824796730798874 
1909	-0.636429530427046 
1910	-0.751442409756156 
1911	-0.950476360845869 
1912	-1.24049332216628 
1913	-1.65066427263041 
1914	-5.16875497047047 
1915	-2.65041888128865 
1916	-5.15846231712502E-02 
1917	-0.197532355433533 
1918	 0.156242986192235 
1919	-5.50573332238238E-02 
1920	-0.717782206270708 
1921	-1.72915589116814 
1922	-2.18791891507238 
1923	-0.579022917840812 
1924	-0.144841560463146 
1925	-6.61144287563149E-02 
1926	-8.42309477774573E-02 
1927	-0.229338028113947 
1928	-0.503115484451774 
1929	-0.27871407235916 
1930	-0.14523183591155 
1931	-3.06423049614735E-02 
1932	 3.00453056954938E-02 
1933	 3.77243816512995E-02 
1934	 7.53190861066789E-02 
1935	 4.83006276809813E-02 
1936	 3.16120974103318E-02 
1937	 2.77598256940553E-02 
1938	 1.99486551548068E-02 
1939	 1.25468460856622E-02 
1940	 1.96222393922676E-02 
1941	 1.30632922222576E-02 
1942	-1.61231091333127E-02 
1943	-3.09456049580681E-02 
1944	-2.61362657502044E-02 
1945	-2.27363664380929E-03 
1946	 2.09529014176099E-02 
1947	 1.96761649038006E-02 
1948	 1.76995808814206E-02 
1949	 4.67755217083978E-03 
1950	-9.12016313048503E-03 
1951	-5.32589211329008E-03 
1952	-5.8573775395296E-03 
1953	-8.44892469350167E-03 
1954	-8.06139294419731E-03 
1955	-9.70555122189833E-03 
1956	-1.43369506067743E-02 
1957	-1.12790160326338E-02 
1958	-1.24561958786563E-02 
1959	-9.73765386190434E-03 
1960	-3.89177198699394E-03 
1961	-1.97803260811212E-03 
1962	-1.01107064980869E-03 
1963	-1.20971546503118E-03 
1964	-4.68428775970513E-04 
1965	-8.29859223408224E-04 
1966	-8.57369922893893E-04 
1967	-7.1720855530705E-04 
1968	 4.72401437998793E-04 
1969	-7.19043064189822E-04 
1970	-2.18826253911919E-04 
1971	 1.41526025601484E-03 
1972	 6.75444578449214E-04 
1973	 1.25607813463624E-03 
1974	 2.13957142180576E-03 
1975	 6.99633784005342E-04 
1976	 1.23982137620389E-03 
1977	 2.59950053118909E-03 
1978	 1.84832480823331E-03 
1979	 1.7180998872693E-03 
1980	 2.02939733617203E-03 
1981	 1.77810130220105E-03 
1982	 7.22846999864994E-04 
1983	 4.62290031578232E-04 
1984	 2.85486111505004E-04 
1985	 4.16944946109518E-04 
1986	 1.28079779901926E-05 
1987	-3.03912518974541E-05 
1988	 7.18014645881892E-04 
1989	 1.91016585767166E-04 
1990	-8.42613091102623E-05 
1991	 8.88584260483038E-04 
1992	 1.02260181476636E-03 
1993	 9.90450895696296E-04 
1994	 8.58223676694603E-04 
1995	 9.08126701573042E-04 
1996	 1.08364871745767E-04 
1997	 1.66736194605148E-04 
1998	-2.14306555124664E-04 
1999	 3.64618738402544E-04 
2000	 2.67866820514601E-03 
2001	 2.50131954705558E-03 
2002	 3.7654764393525E-03 
2003	 3.71542942259443E-03 
2004	-1.61946358024404E-03 
2005	-2.88007804357464E-03 
2006	-2.58464064552829E-03 
2007	-2.94688378384861E-03 
2008	 8.91709019397346E-04 
2009	 2.83598785305604E-03 
2010	 2.32914573913284E-03 
2011	 2.32864195330235E-03 
2012	 3.23692083403126E-03 
2013	 3.29752935078366E-03 
2014	 1.09347749557246E-03 
2015	-1.43402635031901E-05 
2016	 2.8406428942362E-04 
2017	-2.1533154045967E-04 
2018	-1.42396314716024E-03 
2019	-7.95471474434074E-04 
2020	 4.59522937355234E-04 
2021	 7.22145858255799E-04 
2022	 8.54945819439264E-04 
2023	 1.0872503878572E-03 
2024	 1.4764583430873E-03 
2025	 1.15563687747027E-03 
2026	 1.16598035180587E-03 
2027	 1.89047484427177E-03 
2028	 2.29340593518999E-03 
2029	 1.58404276277622E-03 
2030	 1.03637800816117E-03 
2031	 6.55693648803753E-04 
2032	-1.99305970685393E-04 
2033	-2.57342366638485E-04 
2034	-2.14681218987254E-04 
2035	-7.84200491629593E-04 
2036	-1.40883806136186E-04 
2037	 2.50417075385892E-04 
2038	-3.06489524544675E-04 
2039	-1.08997927790845E-04 
2040	 9.90147246689906E-04 
2041	 1.10805151883486E-03 
2042	 7.67982185862913E-04 
2043	 9.20424912271184E-04 
2044	 1.02320008598109E-03 
2045	 8.69534552471513E-04 
2046	 1.09163895094423E-03 
2047	 1.35313793700009E-03 
2048	 1.32502478110212E-03 
2049	 1.11899667596755E-03 
2050	 1.40519378263761E-03 
2051	 1.79058633060553E-03 
2052	 1.5165616001771E-03 
2053	 1.20494424342785E-03 
2054	 7.33757708435649E-04 
2055	 3.98303792189657E-04 
2056	 2.74445536134461E-04 
2057	 6.99647848115385E-04 
2058	 9.76460802676221E-04 
2059	 1.41385355295417E-03 
2060	 1.40448255154728E-03 
2061	 1.5654704409568E-03 
2062	 9.78711379307716E-04 
2063	-2.06421256731989E-04 
2064	-6.50902389884835E-04 
2065	 1.42662937196094E-04 
2066	 1.25539392603446E-03 
2067	 1.82160534540532E-03 
2068	 2.41530857180899E-03 
2069	 2.0996530139923E-03 
2070	 1.18847577132775E-03 
2071	 9.46143809182375E-04 
2072	 7.88036276747347E-04 
2073	 8.30957508248387E-04 
2074	 1.11844591998575E-03 
2075	 1.14947776292351E-03 
2076	 1.28254559218343E-03 
2077	 1.25267245932322E-03 
2078	 6.89243825883674E-04 
2079	 5.93972044883508E-04 
2080	 6.39556670859116E-04 
2081	 1.15000690170515E-03 
2082	 1.61443283765675E-03 
2083	 1.90326632258864E-03 
2084	 1.29013298807769E-03 
2085	 8.26973712660898E-04 
2086	 4.13474118964275E-04 
2087	 1.30584026396531E-04 
2088	 8.24588242727743E-04 
2089	 5.94418294321343E-04 
2090	-7.76009322244963E-05 
2091	 4.20046225618501E-04 
2092	 5.14443545646183E-04 
2093	 5.10631864542605E-04 
2094	 3.75934324026793E-04 
2095	 2.81220948926576E-04 
2096	 4.10961796756455E-05 
2097	-7.11462875100817E-04 
2098	-6.21436015416254E-04 
2099	 5.80561220274736E-05 
2100	 5.27981866168174E-04 
2101	 6.36836396040654E-04 
2102	 1.02808620762995E-03 
2103	 1.01727125593778E-03 
2104	 3.88647968421143E-05 
2105	-5.6540798350238E-04 
2106	-7.70742756990095E-04 
2107	-2.81719979877191E-04 
2108	 6.10702701955561E-04 
2109	 6.40507495829517E-04 
2110	 7.26169906997428E-04 
2111	 8.3526294870801E-04 
2112	 3.72525507446081E-04 
2113	 1.70352855839402E-04 
2114	 3.51973000163147E-04 
2115	 3.07095240431627E-04 
2116	 3.05772137700009E-04 
2117	 5.12899438344178E-05 
2118	-3.92149120347582E-04 
2119	-5.63508091129186E-04 
2120	-7.69714839491609E-04 
2121	-1.58894233420964E-03 
2122	-8.98896437733302E-04 
2123	-3.28512503364552E-04 
2124	-7.48107583673119E-05 
2125	 2.12894724036985E-04 
2126	-1.73364977468942E-05 
2127	 2.85151277283155E-04 
2128	 7.66792890841874E-04 
2129	 1.40446060079672E-03 
2130	 1.8905501653805E-03 
2131	 2.20421145475137E-03 
2132	 2.92663966752064E-03 
2133	 2.27810633502466E-03 
2134	 1.86428060272698E-03 
2135	 1.22672509291508E-03 
2136	 9.82485311185736E-04 
2137	 7.6831825098674E-04 
2138	 3.20770471122397E-04 
2139	-2.23667681606087E-04 
2140	-6.6283466869229E-04 
2141	-1.81654564745553E-03 
2142	-1.70672440404162E-03 
2143	-2.84677456986238E-04 
2144	 3.54953393167576E-04 
2145	 4.74653869023723E-04 
2146	 7.60827942325155E-04 
2147	 2.27433991832713E-04 
2148	-4.93383505450821E-04 
2149	 2.23654728554463E-04 
2150	 7.51001326113235E-04 
2151	 5.68239552006115E-04 
2152	 8.94849092584756E-04 
2153	 2.67964608546713E-04 
2154	-6.26687405717369E-04 
2155	-7.20591398267132E-04 
2156	-1.00051813679908E-03 
2157	-1.20773998676119E-03 
2158	-1.46148799096118E-03 
2159	-1.40691010475839E-03 
2160	-1.05830961093576E-03 
2161	-8.49617545840062E-04 
2162	-4.94354168462628E-04 
2163	-4.83364621794484E-04 
2164	-6.03087624059253E-04 
2165	-6.75068514527704E-04 
2166	-1.09897848766267E-03 
2167	-9.52519807764673E-04 
2168	-4.02140012385653E-04 
2169	-3.20664862243909E-04 
2170	-3.91791035254345E-04 
2171	 2.11700163556299E-08 
2172	-1.77397749220937E-05 
2173	-1.82223322350124E-04 
2174	 4.45910804905329E-04 
2175	 1.19259276167868E-03 
2176	 8.1311510714282E-04 
2177	 2.36007393401351E-05 
2178	 4.86463300993314E-05 
2179	-1.8994448598509E-04 
2180	-7.89441395649909E-04 
2181	 1.18590680931182E-04 
2182	 8.80969925144915E-04 
2183	-3.62896313041331E-04 
2184	-8.04465792143478E-04 
2185	-2.59783761211997E-04 
2186	-7.95245284821795E-05 
2187	-5.06288690736227E-04 
2188	 5.23414912057786E-05 
2189	 1.6059018260898E-03 
2190	 2.08587889027544E-03 
2191	 2.56616463544743E-03 
2192	 2.75646867313435E-03 
2193	 2.21569315461158E-03 
2194	 2.05227870347469E-03 
2195	 2.05957350648383E-03 
2196	 1.46531627494338E-03 
2197	 2.15530449752894E-04 
2198	-7.26388956782899E-05 
2199	-4.01186901810288E-04 
2200	-4.44808792236218E-04 
2201	 1.85006854047059E-03 
2202	 2.25535001733563E-03 
2203	 1.26967794702013E-03 
2204	 1.31785904260091E-03 
2205	 2.34200286707641E-04 
2206	 1.05346158051061E-04 
2207	 2.18870189856854E-03 
2208	 3.7365905907149E-03 
2209	 3.53439096460017E-03 
2210	 3.62710364258097E-03 
2211	 2.76898091722969E-03 
2212	 9.24924856088074E-04 
2213	 2.80196091048947E-04 
2214	 4.77064348463432E-04 
2215	 6.47823619752959E-04 
2216	 7.54760599539159E-05 
2217	-3.8175106776083E-04 
2218	-1.37197694193664E-03 
2219	-1.35012657325425E-03 
2220	-5.79042429439817E-04 
2221	-3.92441625098796E-04 
2222	 5.72294753613408E-04 
2223	 5.02063839950902E-05 
2224	-2.75796550053048E-03 
2225	-0.003041719141254 
2226	-1.71797226762363E-03 
2227	-1.71668173314925E-03 
2228	-1.62133002636565E-03 
2229	-9.52965751812404E-04 
2230	-6.74952386764673E-04 
2231	-1.0452301734673E-03 
2232	-1.32353559108226E-03 
2233	-1.00331016540966E-03 
2234	-1.24348212029533E-03 
2235	-1.01431690860163E-03 
2236	-1.26754834385348E-03 
2237	-1.99130051369524E-04 
2238	-1.50803020553016E-04 
2239	-5.32261996395686E-04 
2240	 2.65756032153837E-03 
2241	 3.53386781978952E-03 
2242	 2.63800851788138E-03 
2243	 2.39010284003732E-03 
2244	-1.81380201946611E-04 
2245	-1.22282387853455E-03 
2246	-5.06748537599605E-04 
2247	-3.83705914741149E-05 
2248	 3.29201736872233E-04 
2249	 2.30122600359038E-04 
2250	 7.56395677282038E-04 
2251	 8.02581304557383E-04 
2252	-5.99913358561833E-04 
2253	-1.63796489273632E-03 
2254	-1.59142129017326E-03 
2255	-2.07530503322963E-03 
2256	-2.61250818284476E-03 
2257	-6.56230739727281E-04 
2258	 2.2803457893597E-03 
2259	 3.27448495518083E-03 
2260	 3.03275167630644E-03 
2261	 2.28450364997165E-03 
2262	 1.90212522594791E-03 
2263	-5.70297290026132E-04 
2264	-2.02026243962583E-03 
2265	-2.54319886011064E-03 
2266	-2.93429849637762E-03 
2267	-3.90163736339999E-03 
2268	-3.71804348070229E-03 
2269	-1.56696785578491E-03 
2270	-6.50042881841415E-04 
2271	-3.80817001450103E-04 
2272	 3.38832399524942E-04 
2273	 1.52963433456016E-03 
2274	 1.88815006848437E-03 
2275	 1.57489189709941E-03 
2276	 1.35342602550892E-03 
2277	 1.2631856000569E-03 
2278	 6.06582825921964E-04 
2279	-1.21468595104896E-03 
2280	-5.10744448297668E-04 
2281	 1.91781592588789E-03 
2282	 1.01061612549209E-03 
2283	 2.92335307371328E-03 
2284	 3.50706978079267E-03 
2285	 6.43224521142887E-04 
2286	 7.78482191203486E-04 
2287	 1.2963516922036E-03 
2288	 1.54911294747402E-03 
2289	 3.31843554974976E-04 
2290	-1.66334250912686E-03 
2291	-2.34040567748632E-03 
2292	-4.97349381553393E-03 
2293	-3.61536096616266E-03 
2294	-4.21101878524257E-04 
2295	-2.07066885798772E-03 
2296	-2.34761121716732E-04 
2297	 2.47082114507175E-03 
2298	 1.45573284735946E-03 
2299	 2.73212101134168E-03 
2300	 3.62909648162253E-03 
2301	 1.65670656531897E-03 
2302	 9.75043750577063E-04 
2303	 1.07587578007545E-03 
2304	 1.0849426052699E-03 
2305	-7.46655393768961E-04 
2306	-2.53357950262838E-03 
2307	-3.74839713580516E-04 
2308	 5.35922436761373E-04 
2309	 2.39791646399745E-03 
2310	 3.48539556000919E-03 
2311	-2.03905155470848E-03 
2312	-5.88649854967908E-03 
2313	-5.16079140635548E-03 
2314	-6.05156991222104E-03 
2315	-3.19162055364638E-03 
2316	 3.50198816565743E-03 
2317	 2.66054608419254E-03 
2318	 6.85583782928273E-04 
2319	 6.1444566264694E-05 
2320	-3.60934940981208E-03 
2321	-4.7641397451271E-03 
2322	-1.61233366114118E-03 
2323	-9.71232320660167E-04 
2324	-4.61313186059554E-03 
2325	-4.95290060863208E-03 
2326	-3.35311580347734E-03 
2327	-2.58493836473887E-03 
2328	-4.37016970828528E-04 
2329	-8.83473831400292E-04 
2330	-4.99399012575299E-03 
2331	-5.93850829308928E-03 
2332	-2.24548155180848E-03 
2333	 1.23465442504092E-03 
2334	 4.51933561169883E-03 
2335	 7.79283859487529E-03 
2336	 5.70892064086818E-03 
2337	 2.08700803391851E-03 
2338	-1.69597502440877E-03 
2339	-9.22377634926128E-03 
2340	-1.31291593359552E-02 
2341	-1.25923875635054E-02 
2342	-9.70682257699527E-03 
2343	-8.85148407781186E-03 
2344	-1.07442154034839E-02 
2345	-9.25406614698916E-03 
2346	-1.13075014464358E-02 
2347	-0.012050808822354 
2348	-2.3697689223375E-03 
2349	 6.96515894648809E-03 
2350	 1.13990318167496E-02 
2351	 1.32016381928868E-02 
2352	 1.23246674619286E-02 
2353	 5.5988161684053E-03 
2354	-8.63597405137405E-03 
2355	-1.23434270056735E-02 
2356	-7.56556351057952E-03 
2357	-9.75879930234376E-03 
2358	-4.55205813706186E-03 
2359	-3.76474276924152E-03 
2360	-1.79196969003835E-02 
2361	-1.49028643691805E-02 
2362	-8.61439008800645E-03 
2363	-1.19463622244769E-02 
2364	-3.18600274649219E-03 
2365	 2.13901959666372E-03 
2366	 1.38450262232432E-03 
2367	 7.81135794355838E-03 
2368	 1.71063252197461E-02 
2369	 8.92301082887779E-03 
2370	-5.81457948847491E-03 
2371	-1.93169727991598E-03 
2372	-0.010291605564132 
2373	-1.93446434170416E-02 
2374	-6.63259443081143E-03 
2375	 4.41932839109577E-03 
2376	 1.45793399517843E-03 
2377	 6.66374891966828E-03 
2378	 1.58736235067711E-02 
2379	-3.70367180289033E-03 
2380	-1.65712480550651E-03 
2381	 1.20553967988402E-02 
2382	-4.25903950558783E-03 
2383	-5.59679393802739E-03 
2384	-6.15091012978988E-03 
2385	-1.63462718385123E-02 
2386	-1.66905546042442E-02 
2387	-1.92069590734022E-02 
2388	-1.91939301680969E-02 
2389	-1.15009933082219E-02 
2390	 2.07668753142264E-03 
2391	 8.24836491986518E-03 
2392	-2.67673134029907E-03 
2393	-1.09389203856957E-02 
2394	-8.92789370872174E-03 
2395	-0.018210915610219 
2396	-2.57563587738455E-02 
2397	-1.55163047394386E-02 
2398	-2.69029019389523E-02 
2399	-3.81861711170176E-02 
2400	-1.87933255946744E-02 
2401	-0.018689535408386 
2402	-3.23829291040384E-02 
2403	-1.86125581163075E-02 
2404	 4.29063735387021E-03 
2405	 1.39329639628504E-02 
2406	 2.96400490871308E-02 
2407	 4.64511191111472E-02 
2408	 3.09854531869464E-02 
2409	-1.79267929830504E-03 
2410	-1.04139150057671E-02 
2411	-6.72830879874448E-03 
2412	-1.43615616132071E-03 
2413	 1.80369917677296E-02 
2414	 2.97506020557389E-02 
2415	 2.19976206980299E-02 
2416	 4.45674779190533E-03 
2417	-2.92011596329413E-02 
2418	-3.38325389052545E-02 
2419	-5.06966746350934E-02 
2420	-6.98092724694993E-02 
2421	-2.58274634817069E-02 
2422	-2.19204505039366E-02 
2423	-1.12856592024227E-02 
2424	-1.37786676882182E-02 
2425	-4.21629634755707E-02 
2426	-1.98666040146998E-02 
2427	-1.96616214674268E-02 
2428	-0.012762037393826 
2429	 2.67941834289113E-02 
2430	 2.07596484624541E-02 
2431	 2.41354839817194E-03 
2432	-7.62265206516343E-03 
2433	-3.50970070476644E-02 
2434	-5.69817199064943E-02 
2435	-4.67105593888897E-02 
2436	-6.28902259472058E-03 
2437	-2.45901987869721E-02 
2438	-3.89836557679336E-02 
2439	 9.23251824516909E-03 
2440	 1.12772477231653E-02 
2441	 3.61788510390837E-02 
2442	 8.89105242944656E-02 
2443	 4.04849481921538E-02 
2444	-0.060599239929385 
2445	-0.122542089935699 
2446	-0.171320349345566 
2447	 2.90479607997195E-02 
2448	 0.128704878653332 
2449	 0.386078420994341 
2450	 0.481778273307045 
2451	 0.170249947187226 
2452	 4.86592437778885E-02 
2453	-5.66806241475123E-02 
2454	-7.61168622777298E-02 
2455	 9.05277468401793E-02 
2456	 0.148722349864985 
2457	 3.63783008790176E-02 
2458	-1.62059895393899E-02 
2459	-8.43313979258744E-02 
2460	-0.222465082455467 
2461	-0.232297575350022 
2462	-0.226150216250842 
2463	-0.359002687512616 
2464	-0.333309759126786 
2465	-0.077082216052154 
2466	 0.15360477097962 
2467	 0.356740103464928 
2468	 0.504110935186766 
2469	 0.426669931526298 
2470	 5.44393420398781E-02 
2471	-0.118850612375413 
2472	-0.207640239501967 
2473	-0.346735869926456 
2474	-0.195896637933987 
2475	-0.025328475288034 
2476	 3.02336950911889E-02 
2477	 0.478746197648521 
2478	 0.457984540896817 
2479	 0.314919839637054 
2480	 0.433185729588915 
2481	 9.73053946339336E-02 
2482	-0.05850286523384 
2483	-0.272883863476212 
2484	-0.437034995890533 
2485	-0.437747126062612 
2486	 1.15826447805609 
2487	 0.125362768066856 
2488	-1.2932875728876 
2489	-4.61194731966493 
2490	-7.8861286587804 
2491	-3.52663130245921 
2492	 1.84083906557859 
2493	 0.572981860438768 
2494	-2.12039117467572 
2495	-0.739525867563673 
2496	-0.563029588572528 
2497	-0.749021942652397 
2498	-0.764667861004894 
2499	 1.56364217871104 
2500	-0.292378016850671 
