Wavelength	rt0628west00003.asd
350	 5.58320398019418E-02 
351	 5.60778508072426E-02 
352	 5.60676750701135E-02 
353	 5.59393544353941E-02 
354	 5.58760082468839E-02 
355	 5.59969227669684E-02 
356	 5.62429071639642E-02 
357	 5.64513642390498E-02 
358	 5.64896086208722E-02 
359	 5.64860091392275E-02 
360	 5.63978191112809E-02 
361	 5.62580754720206E-02 
362	 5.61521340656321E-02 
363	 5.61296357659628E-02 
364	 5.60957805600133E-02 
365	 0.056157423741625 
366	 5.67579052748529E-02 
367	 5.71881016562146E-02 
368	 5.72965910827935E-02 
369	 5.71959257288417E-02 
370	 5.73009542752839E-02 
371	 5.73517543195018E-02 
372	 5.75404081376412E-02 
373	 5.81592743724816E-02 
374	 5.80139270421369E-02 
375	 5.79285186378725E-02 
376	 5.82338400366992E-02 
377	 5.83082340686674E-02 
378	 5.87430881797764E-02 
379	 5.89070805015662E-02 
380	 5.85165552562876E-02 
381	 5.91773269346545E-02 
382	 6.00359500644609E-02 
383	 6.07613472780628E-02 
384	 6.12429880035246E-02 
385	 6.10441409861163E-02 
386	 6.10395772396297E-02 
387	 6.14115141548287E-02 
388	 6.14864482336939E-02 
389	 6.17749642406236E-02 
390	 6.19197118607056E-02 
391	 0.061806165764243 
392	 6.22533844862912E-02 
393	 6.29763961784979E-02 
394	 0.063416517890509 
395	 6.32489904332208E-02 
396	 6.37592762842543E-02 
397	 6.42526316788707E-02 
398	 6.44502315676246E-02 
399	 6.45399735626181E-02 
400	 6.46456261185035E-02 
401	 6.48010810440214E-02 
402	 0.065044457866071 
403	 6.55266599000173E-02 
404	 6.56925133757839E-02 
405	 0.065717731475816 
406	 6.59758831730593E-02 
407	 6.62355312843376E-02 
408	 6.64405716239693E-02 
409	 0.066649501243559 
410	 6.70092071677901E-02 
411	 6.74172489385758E-02 
412	 6.76577545111727E-02 
413	 0.067719294983064 
414	 6.81064975701511E-02 
415	 6.84903376968865E-02 
416	 6.88191193676074E-02 
417	 6.91648621567381E-02 
418	 6.96437068337871E-02 
419	 7.01024407612383E-02 
420	 7.04332136635746E-02 
421	 7.06120064201517E-02 
422	 7.11059792141607E-02 
423	 7.16844169954145E-02 
424	 7.21219355991751E-02 
425	 7.26429945112316E-02 
426	 7.31375134312054E-02 
427	 7.36323964707014E-02 
428	 7.42013550556534E-02 
429	 7.47737585239314E-02 
430	 7.53604493475298E-02 
431	 7.59247469386019E-02 
432	 7.63730558664659E-02 
433	 7.69736504955331E-02 
434	 7.76502981188517E-02 
435	 7.82712535978877E-02 
436	 7.87763340694684E-02 
437	 7.93126018332363E-02 
438	 7.99005156381049E-02 
439	 8.04923363240806E-02 
440	 8.11542615688001E-02 
441	 8.17498852247142E-02 
442	 8.22455366979403E-02 
443	 8.27856302648557E-02 
444	 8.32901343837521E-02 
445	 8.38077921347605E-02 
446	 8.43818670412599E-02 
447	 8.49255055347668E-02 
448	 8.53788997355259E-02 
449	 8.57357604320919E-02 
450	 0.086049619639244 
451	 0.086555629812952 
452	 0.087032286471917 
453	 8.73713049380715E-02 
454	 8.78377362746436E-02 
455	 8.81991745036118E-02 
456	 8.85373820481472E-02 
457	 8.89868770002823E-02 
458	 8.93400568753175E-02 
459	 8.96668827910793E-02 
460	 8.99968521256552E-02 
461	 9.03056294508416E-02 
462	 9.06412074042409E-02 
463	 0.090927066023738 
464	 9.11419895215157E-02 
465	 9.14694587504468E-02 
466	 9.19085462545221E-02 
467	 0.09232501248526 
468	 9.25630973207607E-02 
469	 0.092848624832109 
470	 9.32754492510563E-02 
471	 9.37486635786636E-02 
472	 9.39471209867789E-02 
473	 9.42498699618757E-02 
474	 9.46473829015227E-02 
475	 9.50445427242717E-02 
476	 9.54272079727718E-02 
477	 9.58448525549417E-02 
478	 9.62805320246811E-02 
479	 9.66730865558778E-02 
480	 9.69731896862883E-02 
481	 9.74054321837174E-02 
482	 0.098014008243841 
483	 9.84030508633098E-02 
484	 9.88210283196243E-02 
485	 9.93757654132402E-02 
486	 0.100067897057446 
487	 0.100625316915069 
488	 0.101161770885659 
489	 0.101713637827561 
490	 0.102226402739117 
491	 0.102757862493719 
492	 0.103397439917598 
493	 0.10414036973268 
494	 0.10472478142259 
495	 0.105343687286023 
496	 0.106028622796417 
497	 0.106723831303734 
498	 0.107354539781342 
499	 0.108002223436599 
500	 0.108756737191322 
501	 0.109701186181155 
502	 0.110467204810997 
503	 0.111172705489014 
504	 0.111996573305868 
505	 0.112726283848617 
506	 0.113400376138003 
507	 0.114099339244602 
508	 0.114910167175693 
509	 0.115552891321071 
510	 0.11630166430313 
511	 0.117268602655792 
512	 0.117987079828561 
513	 0.118756001422233 
514	 0.119625737411388 
515	 0.120532571079063 
516	 0.121406037688289 
517	 0.122377544065552 
518	 0.123420484210275 
519	 0.124303788411112 
520	 0.125161432697369 
521	 0.126068792620808 
522	 0.127053615985411 
523	 0.128009249901228 
524	 0.129003660552803 
525	 0.130019427658303 
526	 0.130991553065323 
527	 0.131992550369049 
528	 0.133040437884078 
529	 0.134125326132497 
530	 0.135214420775081 
531	 0.136234177436787 
532	 0.137269059723045 
533	 0.138416530598028 
534	 0.139483708400503 
535	 0.140531164243745 
536	 0.141610597298461 
537	 0.142736529062768 
538	 0.143931574108239 
539	 0.145176611463561 
540	 0.146418545436729 
541	 0.147537261414311 
542	 0.148680887836042 
543	 0.149860381823449 
544	 0.151007155458221 
545	 0.152144192654342 
546	 0.153283738915062 
547	 0.154433947521068 
548	 0.155606063560763 
549	 0.156747755442705 
550	 0.157865423018265 
551	 0.158994030817084 
552	 0.160181408305107 
553	 0.161317584393942 
554	 0.162407016259839 
555	 0.163582101926244 
556	 0.164711172309265 
557	 0.165840570746248 
558	 0.16702678572094 
559	 0.168276690534194 
560	 0.169407937249158 
561	 0.170432884989875 
562	 0.171489538425431 
563	 0.172534890834136 
564	 0.17355737100372 
565	 0.174557345204552 
566	 0.175555206044117 
567	 0.176553844680832 
568	 0.177554042438184 
569	 0.178531555721519 
570	 0.179364956587214 
571	 0.180144696849763 
572	 0.180895258123681 
573	 0.181556952028926 
574	 0.182353989510655 
575	 0.183140355591202 
576	 0.183771497148753 
577	 0.184416572937395 
578	 0.185022308931842 
579	 0.185551470789966 
580	 0.185986756933793 
581	 0.186387074926808 
582	 0.186832540364167 
583	 0.187351211251956 
584	 0.187881037850477 
585	 0.188372330820596 
586	 0.188876146885372 
587	 0.189454020274392 
588	 0.189949681405049 
589	 0.190301731031582 
590	 0.190514189279377 
591	 0.190677230834731 
592	 0.190726434796404 
593	 0.190739249808956 
594	 0.190733107060869 
595	 0.190476757111032 
596	 0.190121392390194 
597	 0.189741584414305 
598	 0.189367315508073 
599	 0.189016475340688 
600	 0.188646991594322 
601	 0.188332990144715 
602	 0.188369845447793 
603	 0.188358238778421 
604	 0.188366792458114 
605	 0.188560773859491 
606	 0.188770085254873 
607	 0.188989833704366 
608	 0.189221895615025 
609	 0.189465379555045 
610	 0.189669735979969 
611	 0.189843646242055 
612	 0.190006079884468 
613	 0.190151308816608 
614	 0.190365328358328 
615	 0.190623609412137 
616	 0.190840094840218 
617	 0.191055451538771 
618	 0.191220825761393 
619	 0.191341555033133 
620	 0.191514837973201 
621	 0.191725590637849 
622	 0.191999285534951 
623	 0.192330462686554 
624	 0.192525558691282 
625	 0.192795044131743 
626	 0.193146094759195 
627	 0.193377785862648 
628	 0.193502367014155 
629	 0.193659908343627 
630	 0.193909986983899 
631	 0.19403305366405 
632	 0.194092620410619 
633	 0.194184205990055 
634	 0.194382871175912 
635	 0.194439378119183 
636	 0.194525496315672 
637	 0.194685665951905 
638	 0.194726852366337 
639	 0.194824759627281 
640	 0.195000910237583 
641	 0.19519551331592 
642	 0.19521361430455 
643	 0.195344321908671 
644	 0.195647068228363 
645	 0.195979723814492 
646	 0.196308287207731 
647	 0.196402527386071 
648	 0.196206103885809 
649	 0.196104058379097 
650	 0.19609540940785 
651	 0.196007868298552 
652	 0.195676573006708 
653	 0.195517477193258 
654	 0.195221703926945 
655	 0.194707657034932 
656	 0.19434238511786 
657	 0.193944028211031 
658	 0.193577129542383 
659	 0.193287606506438 
660	 0.192955878012321 
661	 0.192722789070455 
662	 0.192532314660857 
663	 0.192246454809624 
664	 0.192185707850169 
665	 0.192229713225875 
666	 0.19225144816853 
667	 0.192210045062786 
668	 0.192254162714413 
669	 0.19238328903043 
670	 0.192534673779408 
671	 0.192620307415468 
672	 0.192723701916545 
673	 0.192903216624586 
674	 0.193180463692788 
675	 0.193518699763736 
676	 0.193850108920759 
677	 0.194142149308645 
678	 0.194447482254044 
679	 0.194841662948296 
680	 0.195221157541427 
681	 0.195451480777652 
682	 0.195807168416946 
683	 0.196215258888478 
684	 0.196670635657551 
685	 0.197358193743781 
686	 0.19814598374143 
687	 0.19866330013133 
688	 0.19871162022601 
689	 0.198849870476451 
690	 0.198996848942833 
691	 0.199252606274364 
692	 0.199761497436224 
693	 0.199853840153847 
694	 0.199564560399969 
695	 0.199099263493782 
696	 0.198589916971357 
697	 0.198509773352594 
698	 0.198591194747593 
699	 0.198386556375919 
700	 0.197957896518562 
701	 0.197300669795525 
702	 0.196567813941358 
703	 0.195960555213475 
704	 0.195229632209698 
705	 0.194417734980161 
706	 0.193565132403653 
707	 0.192531517164178 
708	 0.191395274612461 
709	 0.190171326375498 
710	 0.18884038838348 
711	 0.18726360258342 
712	 0.185734770989249 
713	 0.184387511563185 
714	 0.183129706148475 
715	 0.182058666251256 
716	 0.18085418000789 
717	 0.179200850584694 
718	 0.177174875918591 
719	 0.17416210908264 
720	 0.171287950941934 
721	 0.16909949710776 
722	 0.167213536343894 
723	 0.165137726717849 
724	 0.162799317787425 
725	 0.15997447513125 
726	 0.156837834026682 
727	 0.153598911447806 
728	 0.150237164798036 
729	 0.145976236651636 
730	 0.141646300981071 
731	 0.1375563710314 
732	 0.133530267565128 
733	 0.13039239521358 
734	 0.12777079339059 
735	 0.125478219674901 
736	 0.123565188465303 
737	 0.122003249512553 
738	 0.120730698269112 
739	 0.119733358677978 
740	 0.119074751329962 
741	 0.118633860292585 
742	 0.118300361616505 
743	 0.117996534374511 
744	 0.11789997026407 
745	 0.117717065004015 
746	 0.117423875972612 
747	 0.117406693638057 
748	 0.117461817551034 
749	 0.1174215631101 
750	 0.117244564774763 
751	 0.117274459444727 
752	 0.117252921634283 
753	 0.117180954047395 
754	 0.117198381775017 
755	 0.117293189295669 
756	 0.117422086378321 
757	 0.117628848585852 
758	 0.118221927840834 
759	 0.119461032629984 
760	 0.12085672103831 
761	 0.120884877218473 
762	 0.121026301012962 
763	 0.120710179782764 
764	 0.120062874523825 
765	 0.119448030119955 
766	 0.119293202325725 
767	 0.119277943347339 
768	 0.119304243713184 
769	 0.119470788566356 
770	 0.119820900716523 
771	 0.12021555970689 
772	 0.120550147964072 
773	 0.120914691737237 
774	 0.121333223108865 
775	 0.121765138425974 
776	 0.122170205138812 
777	 0.122667295548306 
778	 0.123257153422363 
779	 0.123897639112239 
780	 0.124521095240461 
781	 0.125164135828687 
782	 0.125837056923183 
783	 0.126589109241948 
784	 0.127597262456314 
785	 0.128410228140297 
786	 0.129123179222259 
787	 0.130005513572487 
788	 0.131067972442769 
789	 0.131999403020569 
790	 0.132736786590264 
791	 0.133462899043764 
792	 0.134234695264656 
793	 0.135020425927909 
794	 0.13584853876403 
795	 0.136837076329218 
796	 0.13772709888693 
797	 0.13846219281007 
798	 0.139128290812308 
799	 0.139898538997371 
800	 0.140696886930438 
801	 0.141370262138361 
802	 0.141790254474992 
803	 0.142225224605688 
804	 0.142515720445612 
805	 0.142677898995778 
806	 0.142940728413088 
807	 0.14319368998997 
808	 0.143388145455738 
809	 0.143500884808486 
810	 0.143535571238077 
811	 0.143818658505329 
812	 0.143990471429382 
813	 0.143518267904354 
814	 0.143173316276326 
815	 0.14275081702612 
816	 0.142069357063889 
817	 0.14104537857467 
818	 0.139608270952305 
819	 0.138313355278058 
820	 0.137136891567342 
821	 0.135428094475529 
822	 0.133243149844267 
823	 0.130614535129725 
824	 0.127791043069684 
825	 0.125007818929585 
826	 0.122022330906629 
827	 0.118583576145225 
828	 0.114863384857703 
829	 0.1117809895556 
830	 0.108559147155524 
831	 0.105476377284556 
832	 0.10353072355868 
833	 0.101170026242666 
834	 9.92703351392429E-02 
835	 9.80896439460339E-02 
836	 9.68018652237021E-02 
837	 0.095697957497006 
838	 9.46783895539865E-02 
839	 9.36819199546624E-02 
840	 9.29258802315116E-02 
841	 9.21659011975067E-02 
842	 9.13841952265973E-02 
843	 9.06362652885273E-02 
844	 8.98587532636091E-02 
845	 8.92591483648591E-02 
846	 8.86961260721076E-02 
847	 8.78594548571553E-02 
848	 8.72708918848154E-02 
849	 8.67054961004406E-02 
850	 8.60292370678641E-02 
851	 0.085335853581655 
852	 8.48650133736406E-02 
853	 8.42985447161316E-02 
854	 0.083515662434831 
855	 8.30274458821756E-02 
856	 8.26028865759915E-02 
857	 8.21791103267013E-02 
858	 8.17145657264895E-02 
859	 8.10824853670602E-02 
860	 8.05075399155037E-02 
861	 7.99449969803575E-02 
862	 7.92791623477831E-02 
863	 7.89369552710268E-02 
864	 7.85050143701166E-02 
865	 7.78223171083121E-02 
866	 7.70569585798942E-02 
867	 7.65513874656156E-02 
868	 7.61994439325459E-02 
869	 7.57469069483231E-02 
870	 7.48813066007768E-02 
871	 7.41125701441306E-02 
872	 0.073620014387411 
873	 7.32550659937664E-02 
874	 7.23448966678618E-02 
875	 7.11621662682079E-02 
876	 0.070395828845821 
877	 7.03766566062406E-02 
878	 6.97748216213971E-02 
879	 6.88866834046898E-02 
880	 6.80444380039924E-02 
881	 6.74876916349232E-02 
882	 6.68151085812151E-02 
883	 6.59946878639665E-02 
884	 0.065242274215647 
885	 6.48604600398981E-02 
886	 6.43473344504702E-02 
887	 6.36954001090269E-02 
888	 0.062934561856153 
889	 6.21186952429267E-02 
890	 6.21423305425635E-02 
891	 6.20464473646452E-02 
892	 6.13066126610225E-02 
893	 6.09256460458672E-02 
894	 6.07808608755257E-02 
895	 6.05869409349083E-02 
896	 6.01229630323245E-02 
897	 5.97175114869233E-02 
898	 0.059010548227439 
899	 5.83055928784962E-02 
900	 0.057840551109932 
901	 5.67427385559146E-02 
902	 5.64012296317564E-02 
903	 0.056250804424956 
904	 5.53675307820241E-02 
905	 5.48846913090906E-02 
906	 5.50590163309927E-02 
907	 0.054708110972784 
908	 5.23684838635352E-02 
909	 5.31321189495577E-02 
910	 5.26626908520728E-02 
911	 5.05918912359984E-02 
912	 5.05998282837835E-02 
913	 0.050336158762277 
914	 0.049451342734271 
915	 4.83087798519284E-02 
916	 4.76372285774561E-02 
917	 4.59745334538223E-02 
918	 4.45579611043634E-02 
919	 4.37266563336247E-02 
920	 4.22641210470281E-02 
921	 4.13381730353066E-02 
922	 4.03415981429279E-02 
923	 3.89196732759421E-02 
924	 0.037998957051836 
925	 3.77251965750856E-02 
926	 3.75669253988038E-02 
927	 3.71152892866972E-02 
928	 3.76197342983922E-02 
929	 3.83127258253398E-02 
930	 3.64954332615348E-02 
931	 3.00236757795107E-02 
932	 3.19704533102408E-02 
933	 3.62135765442681E-02 
934	 3.78824391253655E-02 
935	 3.56634029311584E-02 
936	 3.05244866674349E-02 
937	 3.07305610811054E-02 
938	 3.21510820751207E-02 
939	 2.97113584049928E-02 
940	 0.028166307693905 
941	 0.031101160583173 
942	 3.23140356790994E-02 
943	 2.41278286079309E-02 
944	 2.27224788092344E-02 
945	 2.26140387967352E-02 
946	 2.23487148965642E-02 
947	 2.34708944393097E-02 
948	 2.46452786003678E-02 
949	 2.61528798329462E-02 
950	 2.59959190716347E-02 
951	 2.29203851780369E-02 
952	 2.83128516120665E-02 
953	 2.89016016815314E-02 
954	 2.54091459529215E-02 
955	 2.66493956846031E-02 
956	 2.18797409460518E-02 
957	 2.11669434180482E-02 
958	 0.0237257998673 
959	 2.19760551630687E-02 
960	 2.00998965505175E-02 
961	 2.17456386906561E-02 
962	 2.41826362476287E-02 
963	 2.21822682638911E-02 
964	 2.13886278133585E-02 
965	 1.90770735747363E-02 
966	 1.70578297325021E-02 
967	 1.93341051253903E-02 
968	 1.98974462028169E-02 
969	 2.01550210901268E-02 
970	 2.07485677093152E-02 
971	 2.10576647610018E-02 
972	 2.03843174275599E-02 
973	 0.019051970860213 
974	 0.018078976398122 
975	 1.87194042188749E-02 
976	 1.96658598160848E-02 
977	 2.06179305666963E-02 
978	 2.06122472887153E-02 
979	 1.87520819224871E-02 
980	 1.86159470922429E-02 
981	 1.79940189481557E-02 
982	 1.75318184924307E-02 
983	 1.96184663857964E-02 
984	 1.93566908600658E-02 
985	 1.82536572629961E-02 
986	 1.77771665633197E-02 
987	 1.83901036841457E-02 
988	 1.75685520898755E-02 
989	 1.81841270060308E-02 
990	 1.94330564420799E-02 
991	 1.80732583214053E-02 
992	 1.57453028735382E-02 
993	 1.71318823001291E-02 
994	 2.02483485821017E-02 
995	 1.93714433201342E-02 
996	 1.66899538929195E-02 
997	 1.65464590114581E-02 
998	 1.76331059879902E-02 
999	 1.62735189321668E-02 
1000	 1.74047132446827E-02 
1001	 0.017860815465725 
1002	 1.79289694916507E-02 
1003	 1.82205090584325E-02 
1004	 1.82071493894587E-02 
1005	 1.82748892767572E-02 
1006	 1.87621292101084E-02 
1007	 0.019036948025287 
1008	 1.89487895094676E-02 
1009	 1.86046916238753E-02 
1010	 1.84747902629878E-02 
1011	 1.86755586888382E-02 
1012	 1.83353826548512E-02 
1013	 1.79199166824179E-02 
1014	 1.77230489837715E-02 
1015	 1.73074732099129E-02 
1016	 1.73306586599206E-02 
1017	 1.77993822882851E-02 
1018	 1.80970063366129E-02 
1019	 1.86576067741808E-02 
1020	 0.018853487196956 
1021	 1.87552508608766E-02 
1022	 1.89782729436608E-02 
1023	 1.87245945716054E-02 
1024	 1.86275172169158E-02 
1025	 1.86364868666648E-02 
1026	 1.84027017672322E-02 
1027	 1.84972223869955E-02 
1028	 1.87090840876418E-02 
1029	 1.89571153401111E-02 
1030	 1.94127784225666E-02 
1031	 1.98378971206177E-02 
1032	 2.04196815953375E-02 
1033	 0.020739437128669 
1034	 2.11122204483835E-02 
1035	 0.021189750890707 
1036	 2.08782276974537E-02 
1037	 2.06734639179535E-02 
1038	 2.03681036914313E-02 
1039	 1.99207854431415E-02 
1040	 2.00016249462521E-02 
1041	 0.020412165620255 
1042	 2.06816652977438E-02 
1043	 0.021316629599461 
1044	 2.16508097732775E-02 
1045	 2.16713191863977E-02 
1046	 2.20195552224865E-02 
1047	 2.25687056172346E-02 
1048	 2.29585661150552E-02 
1049	 2.36985077206436E-02 
1050	 2.37809322387373E-02 
1051	 2.32310345294617E-02 
1052	 2.31152069073327E-02 
1053	 2.26188720066032E-02 
1054	 2.25239613095788E-02 
1055	 0.023138235145536 
1056	 2.33936287425247E-02 
1057	 2.35779696661962E-02 
1058	 2.36775408410922E-02 
1059	 2.39055846860298E-02 
1060	 2.40466669133325E-02 
1061	 2.42549800619134E-02 
1062	 2.46250987077877E-02 
1063	 2.48917587537044E-02 
1064	 2.51863715001519E-02 
1065	 0.025262710352935 
1066	 2.52669061470762E-02 
1067	 2.52144611022132E-02 
1068	 2.47289129281539E-02 
1069	 2.46510198467784E-02 
1070	 2.47212574720487E-02 
1071	 2.48862109458287E-02 
1072	 2.55014153755335E-02 
1073	 0.025882653661586 
1074	 2.59283310408351E-02 
1075	 2.58539687932579E-02 
1076	 2.57031505824264E-02 
1077	 2.50606021066952E-02 
1078	 2.48414994509665E-02 
1079	 2.48648773515738E-02 
1080	 2.47158143603897E-02 
1081	 2.44887424610582E-02 
1082	 2.44621293379249E-02 
1083	 2.44815368521124E-02 
1084	 2.44685713321224E-02 
1085	 2.49224921162177E-02 
1086	 2.48047977983578E-02 
1087	 0.023811359375834 
1088	 2.36297644732464E-02 
1089	 2.39640437495003E-02 
1090	 2.36732630870492E-02 
1091	 2.36059043368631E-02 
1092	 2.41999357484755E-02 
1093	 2.40372776161472E-02 
1094	 2.31181563823458E-02 
1095	 2.28777931726241E-02 
1096	 2.28700175668481E-02 
1097	 0.022648848580597 
1098	 2.22919059133325E-02 
1099	 0.022136368149027 
1100	 2.21997595010139E-02 
1101	 0.022226815023433 
1102	 2.25404143295517E-02 
1103	 2.25418595919751E-02 
1104	 2.25452266935116E-02 
1105	 2.16398245041599E-02 
1106	 2.06500277290001E-02 
1107	 2.11648224488529E-02 
1108	 2.28110547145366E-02 
1109	 2.32223532051361E-02 
1110	 2.29804441562981E-02 
1111	 0.022038855938563 
1112	 2.18090797681743E-02 
1113	 1.99323861480419E-02 
1114	 1.98806885678347E-02 
1115	 2.38875617166637E-02 
1116	 2.43119084857659E-02 
1117	 2.08654030217243E-02 
1118	 2.02031931540272E-02 
1119	 1.91013832794548E-02 
1120	 1.76976616350805E-02 
1121	 1.80832635282955E-02 
1122	 2.37406934948583E-02 
1123	 2.82224888051082E-02 
1124	 2.71622908777718E-02 
1125	 2.99891629981625E-02 
1126	 2.45486022489171E-02 
1127	 1.55132712524566E-02 
1128	 1.96544422573518E-02 
1129	 2.21288698966794E-02 
1130	 3.29926350782991E-02 
1131	 0.030413513147429 
1132	 0.019160258270251 
1133	 1.84759074391076E-02 
1134	 1.89440317094699E-02 
1135	 1.88814954144989E-02 
1136	 2.44314523867503E-02 
1137	 0.025148024790536 
1138	 2.21783391601952E-02 
1139	 1.79391704842204E-02 
1140	 1.74688361362853E-02 
1141	 0.020889456290097 
1142	 2.10101448119768E-02 
1143	 2.08402454611742E-02 
1144	 2.24560218077543E-02 
1145	 2.01439010848375E-02 
1146	 1.84754046720579E-02 
1147	 2.06910327753954E-02 
1148	 1.97893262273516E-02 
1149	 1.67681471255708E-02 
1150	 1.65937948969281E-02 
1151	 1.85193243038588E-02 
1152	 1.73729433814982E-02 
1153	 0.014699752100247 
1154	 1.60119739715639E-02 
1155	 1.84487724121733E-02 
1156	 1.77636728798952E-02 
1157	 1.88407031638652E-02 
1158	 1.99153152319617E-02 
1159	 1.80108815411316E-02 
1160	 1.78146865690141E-02 
1161	 1.92659401399308E-02 
1162	 1.91584842124206E-02 
1163	 1.86412533445228E-02 
1164	 1.84458013168708E-02 
1165	 1.71374771116432E-02 
1166	 1.60821244063313E-02 
1167	 1.66597672979431E-02 
1168	 1.68872173281227E-02 
1169	 1.62488049963508E-02 
1170	 0.016104410388594 
1171	 1.62339012103394E-02 
1172	 0.016137723561889 
1173	 0.016066065597212 
1174	 1.65349401896904E-02 
1175	 1.66628926826606E-02 
1176	 1.63187026045553E-02 
1177	 1.60395650643549E-02 
1178	 1.54421508442606E-02 
1179	 1.58015658210648E-02 
1180	 1.61432111749956E-02 
1181	 1.55596402422335E-02 
1182	 1.60417781495184E-02 
1183	 1.64901068232986E-02 
1184	 1.60009192110887E-02 
1185	 1.57224930480234E-02 
1186	 1.56585921792515E-02 
1187	 1.56153939506276E-02 
1188	 1.54818778761909E-02 
1189	 1.55410843001683E-02 
1190	 1.58155476897429E-02 
1191	 1.57731298728683E-02 
1192	 1.55790841847413E-02 
1193	 1.53553362594272E-02 
1194	 1.53770626067824E-02 
1195	 1.52280246850967E-02 
1196	 1.49714506982727E-02 
1197	 1.53304234143951E-02 
1198	 1.58701251101796E-02 
1199	 1.56104667158066E-02 
1200	 1.51463628707678E-02 
1201	 1.50150915596177E-02 
1202	 1.51554171929069E-02 
1203	 1.54907533445706E-02 
1204	 1.56356767341996E-02 
1205	 0.015565610030718 
1206	 1.52989879543967E-02 
1207	 1.49726828578368E-02 
1208	 0.014983440240013 
1209	 1.51244163955349E-02 
1210	 1.50320522576166E-02 
1211	 1.48933577730224E-02 
1212	 1.47636910018127E-02 
1213	 1.44924400752894E-02 
1214	 1.45377051395376E-02 
1215	 1.47148887457667E-02 
1216	 1.50749217732165E-02 
1217	 1.49484130106465E-02 
1218	 1.47192319131357E-02 
1219	 1.46399201217071E-02 
1220	 1.43819953734618E-02 
1221	 0.014631600038154 
1222	 1.53216356751435E-02 
1223	 0.015173195996904 
1224	 1.45201185487055E-02 
1225	 1.42073357266164E-02 
1226	 1.41375778952311E-02 
1227	 1.41208108174225E-02 
1228	 1.40613511098123E-02 
1229	 1.41904949614148E-02 
1230	 1.43421861977075E-02 
1231	 1.41060516099697E-02 
1232	 1.40451699467562E-02 
1233	 1.42752629475614E-02 
1234	 0.014254863323044 
1235	 1.42233589701673E-02 
1236	 1.44855823177739E-02 
1237	 1.45572063867607E-02 
1238	 1.44300358696889E-02 
1239	 1.41453454426825E-02 
1240	 1.42460583115945E-02 
1241	 1.43755660277092E-02 
1242	 1.41311726413334E-02 
1243	 1.39747656502708E-02 
1244	 1.39070769363866E-02 
1245	 1.37888680465504E-02 
1246	 1.38466148056617E-02 
1247	 1.39780906289366E-02 
1248	 1.39767080246378E-02 
1249	 1.39525434211856E-02 
1250	 1.39802706361876E-02 
1251	 1.39428548724928E-02 
1252	 1.38868311057667E-02 
1253	 0.013870849628529 
1254	 1.38966845416825E-02 
1255	 0.014059536377468 
1256	 1.41676843948969E-02 
1257	 1.42670530975494E-02 
1258	 1.43278006122715E-02 
1259	 1.42379609854194E-02 
1260	 1.42539949265596E-02 
1261	 1.45295787929927E-02 
1262	 1.46208545246725E-02 
1263	 1.46241432501624E-02 
1264	 1.46419367540759E-02 
1265	 1.46986963776553E-02 
1266	 1.42045742050707E-02 
1267	 1.39864224066162E-02 
1268	 1.44699218066766E-02 
1269	 1.44273328013874E-02 
1270	 1.40273208383698E-02 
1271	 1.42650859833129E-02 
1272	 1.44588795857072E-02 
1273	 1.42605847224069E-02 
1274	 1.42198625717309E-02 
1275	 1.42649897257703E-02 
1276	 1.41793635117855E-02 
1277	 1.43523032387564E-02 
1278	 1.46718089341961E-02 
1279	 1.45016609878265E-02 
1280	 1.42499692695735E-02 
1281	 1.42191235225904E-02 
1282	 1.45477060954353E-02 
1283	 0.014506055101831 
1284	 1.41935769791504E-02 
1285	 1.41785648403703E-02 
1286	 1.42886577806314E-02 
1287	 0.014207027049151 
1288	 1.41963600162141E-02 
1289	 1.42276784515632E-02 
1290	 1.40556740182596E-02 
1291	 1.39144262355059E-02 
1292	 1.40523149388126E-02 
1293	 1.40052904250994E-02 
1294	 0.013940459991891 
1295	 1.40782124072944E-02 
1296	 1.42158360720497E-02 
1297	 1.45924365319572E-02 
1298	 1.46102057342683E-02 
1299	 1.42433857876179E-02 
1300	 1.43657755584111E-02 
1301	 1.44243202624156E-02 
1302	 1.46311204913081E-02 
1303	 1.51933152174196E-02 
1304	 1.50124002804605E-02 
1305	 1.47342881382044E-02 
1306	 1.48283056457895E-02 
1307	 1.50842974992761E-02 
1308	 1.49165785705375E-02 
1309	 1.48637868742044E-02 
1310	 1.48586096927399E-02 
1311	 1.42559089951968E-02 
1312	 1.42271296007885E-02 
1313	 1.50836194161666E-02 
1314	 1.52137825667047E-02 
1315	 1.49596304080357E-02 
1316	 1.48588444463202E-02 
1317	 1.43343171708798E-02 
1318	 0.014139943524745 
1319	 1.44164897240394E-02 
1320	 1.45827802737186E-02 
1321	 1.49237414511698E-02 
1322	 1.47805200741216E-02 
1323	 1.52163380087525E-02 
1324	 1.59519205025642E-02 
1325	 1.62592625948147E-02 
1326	 1.65043805046819E-02 
1327	 1.58444334841867E-02 
1328	 1.46395178658424E-02 
1329	 1.45914660941674E-02 
1330	 1.52731351958319E-02 
1331	 1.53030870515107E-02 
1332	 1.53013413286416E-02 
1333	 1.61023101462582E-02 
1334	 0.016646023143405 
1335	 1.64581884879225E-02 
1336	 1.66966503718583E-02 
1337	 1.70898098200388E-02 
1338	 1.61643492942819E-02 
1339	 0.016090335725217 
1340	 0.017877617352032 
1341	 1.84384011304093E-02 
1342	 1.78426215311215E-02 
1343	 1.70749996820464E-02 
1344	 1.54217309246513E-02 
1345	 1.54224556829053E-02 
1346	 1.66498803669625E-02 
1347	 1.65985050311991E-02 
1348	 0.01659539275954 
1349	 1.85430075441124E-02 
1350	 2.15429621450183E-02 
1351	 2.01593453270577E-02 
1352	 2.20071865089841E-02 
1353	 2.74883878471541E-02 
1354	 3.39378232885024E-02 
1355	-9.34724979726868E-03 
1356	-0.018740218156104 
1357	-1.50906742334074E-02 
1358	 3.66742460898528E-02 
1359	 0.13217199910638 
1360	 0.115316087368371 
1361	 9.06734995786319E-02 
1362	-2.14129602975838E-02 
1363	-0.119736655041204 
1364	-0.165121567300139 
1365	-0.220727722381733 
1366	-0.189674815973396 
1367	-0.243231175294853 
1368	-0.224378545334901 
1369	-8.61484292141941E-02 
1370	-2.26487230013799E-02 
1371	 1.09458680348737E-02 
1372	-5.32787856414488E-02 
1373	-0.259386567528078 
1374	-0.195690832167826 
1375	-8.14479653851176E-02 
1376	-0.10149564781416 
1377	-0.150187490760416 
1378	-7.10175328141996E-02 
1379	 0.194190468375124 
1380	 0.150129553428223 
1381	-6.85435509676451E-02 
1382	-1.73146932506976E-03 
1383	 5.62698880148363E-02 
1384	-4.79289696861384E-02 
1385	 6.73560705080135E-02 
1386	 0.154431083077032 
1387	 1.41616316346681E-02 
1388	-0.048302118952534 
1389	 0.128745011881825 
1390	 0.155649979695224 
1391	 1.95352309062875E-02 
1392	-0.266917514874141 
1393	-0.374806066179122 
1394	 0.129673197248619 
1395	 2.26573840636635 
1396	 1.62964091252356 
1397	-0.148641494038495 
1398	-0.544388751272345 
1399	-0.492512352064723 
1400	-0.258595783985016 
1401	-0.260201592094421 
1402	-0.327937571470383 
1403	-0.338226670342769 
1404	-0.253033142577613 
1405	-0.274353593870566 
1406	 0.210180360954529 
1407	 0.326762050037496 
1408	-0.421607522456987 
1409	-0.482992321084373 
1410	-0.425742604545852 
1411	-0.197352640119265 
1412	 2.62834563022573E-02 
1413	 1.11701339159915E-02 
1414	-4.93104605180069E-02 
1415	-1.38537901411679E-02 
1416	-7.25147995501548E-02 
1417	-5.95938103278407E-02 
1418	 0.105692843071256 
1419	 9.97142786845621E-02 
1420	-3.60601228825724E-02 
1421	-4.43291597090612E-02 
1422	-1.45667559336583E-02 
1423	-5.48728647697431E-03 
1424	 4.04488106240957E-02 
1425	 3.73641756136974E-02 
1426	-1.91758771015664E-02 
1427	-0.011522674080797 
1428	 4.18728839158884E-02 
1429	 4.33802811170604E-02 
1430	 2.67343944571576E-02 
1431	 3.60053899802091E-02 
1432	 3.45081930528766E-02 
1433	 2.69336768288845E-02 
1434	 4.43043196939113E-02 
1435	 5.90206238377934E-02 
1436	 0.073158465638695 
1437	 4.85941634600356E-02 
1438	 2.40642624617965E-02 
1439	 2.73657240429691E-02 
1440	 1.68705420319685E-02 
1441	 9.00680130678798E-03 
1442	 3.05733224596759E-02 
1443	 2.97464354032136E-02 
1444	 2.13747252899727E-02 
1445	 2.90326176937913E-02 
1446	 3.74541367649196E-02 
1447	 3.81634666256554E-02 
1448	 1.99477275924966E-02 
1449	 8.7565277364973E-03 
1450	 1.31160034800082E-02 
1451	 1.45136219027407E-02 
1452	 1.79061291792096E-02 
1453	 2.37796149607427E-02 
1454	 2.49706712366992E-02 
1455	 1.95497129322488E-02 
1456	 1.89526675615377E-02 
1457	 2.12054159446558E-02 
1458	 2.18723104628987E-02 
1459	 2.17338638159673E-02 
1460	 2.09476718476376E-02 
1461	 2.08273560318654E-02 
1462	 2.01039837418008E-02 
1463	 1.67345922464832E-02 
1464	 1.57662433840457E-02 
1465	 1.54146375089115E-02 
1466	 1.71994578944374E-02 
1467	 2.43246515348864E-02 
1468	 2.31674509585946E-02 
1469	 1.68611398094711E-02 
1470	 1.80223194240702E-02 
1471	 1.81407599498125E-02 
1472	 1.54370457912574E-02 
1473	 1.65853259264126E-02 
1474	 1.90731404535613E-02 
1475	 1.86185969385886E-02 
1476	 1.70298107505421E-02 
1477	 1.96434873672157E-02 
1478	 1.95595072060943E-02 
1479	 1.29494049695252E-02 
1480	 1.17395409342747E-02 
1481	 1.57478638582529E-02 
1482	 1.56024468768325E-02 
1483	 1.25134317815734E-02 
1484	 1.34271627278738E-02 
1485	 0.017018418528369 
1486	 1.62240328484859E-02 
1487	 1.39971227031871E-02 
1488	 1.40924366557678E-02 
1489	 1.37104892518278E-02 
1490	 1.29854577451083E-02 
1491	 1.33646600049605E-02 
1492	 1.35942560404743E-02 
1493	 0.012759636323478 
1494	 1.24888464091616E-02 
1495	 1.32703487535584E-02 
1496	 1.35827125569008E-02 
1497	 1.34202117306276E-02 
1498	 1.31487320875969E-02 
1499	 1.29686291853868E-02 
1500	 1.28133065173402E-02 
1501	 1.23367193353531E-02 
1502	 1.21824950547435E-02 
1503	 1.23416834352433E-02 
1504	 1.22213833388843E-02 
1505	 1.17647096932187E-02 
1506	 1.19416246521988E-02 
1507	 1.20805062509213E-02 
1508	 1.18288938700911E-02 
1509	 1.16902387941646E-02 
1510	 1.16329869825068E-02 
1511	 1.13867328950883E-02 
1512	 1.15027639862051E-02 
1513	 1.18611305983123E-02 
1514	 1.19871504788014E-02 
1515	 1.21811736486508E-02 
1516	 1.23543047096615E-02 
1517	 0.012413430844963 
1518	 1.23628318457535E-02 
1519	 1.21988717737263E-02 
1520	 1.21781513028192E-02 
1521	 1.19981243060351E-02 
1522	 1.17302881550644E-02 
1523	 1.18140220411104E-02 
1524	 1.18721657024524E-02 
1525	 1.19569670808897E-02 
1526	 1.21996023627309E-02 
1527	 1.20119370482755E-02 
1528	 1.18387505940287E-02 
1529	 1.18873456585067E-02 
1530	 1.15793193666891E-02 
1531	 1.14430059429592E-02 
1532	 1.15017037928654E-02 
1533	 1.13870564672831E-02 
1534	 1.14381093293021E-02 
1535	 1.14067454779807E-02 
1536	 1.14020377510204E-02 
1537	 1.15981635770008E-02 
1538	 1.13948964161028E-02 
1539	 1.11644765640456E-02 
1540	 1.11939688531569E-02 
1541	 0.011074440389051 
1542	 1.11400561129798E-02 
1543	 1.15315561585548E-02 
1544	 1.17061192692672E-02 
1545	 1.16414187245974E-02 
1546	 1.16588799056412E-02 
1547	 1.18301728855765E-02 
1548	 1.20269788382547E-02 
1549	 1.19919603584968E-02 
1550	 1.17787369893218E-02 
1551	 1.13837803163779E-02 
1552	 1.10744068853867E-02 
1553	 1.12399943979084E-02 
1554	 1.15376497717286E-02 
1555	 1.17208490219009E-02 
1556	 1.17065248637784E-02 
1557	 1.15504752746581E-02 
1558	 1.14123234810429E-02 
1559	 1.14152989235537E-02 
1560	 1.16887610618026E-02 
1561	 1.19410509467791E-02 
1562	 1.21060708327536E-02 
1563	 0.012145577895624 
1564	 1.19245486379237E-02 
1565	 1.18782492403592E-02 
1566	 1.19806234332974E-02 
1567	 1.19000633629401E-02 
1568	 1.19890855942991E-02 
1569	 1.19943698230408E-02 
1570	 1.17932092340158E-02 
1571	 1.21178485814329E-02 
1572	 1.23558706001846E-02 
1573	 1.23077114842197E-02 
1574	 1.23195898887962E-02 
1575	 1.16940110889364E-02 
1576	 1.11994686161163E-02 
1577	 1.15220251367822E-02 
1578	 1.18595605939906E-02 
1579	 1.20174600014465E-02 
1580	 1.22257439426552E-02 
1581	 1.22744989483635E-02 
1582	 1.18631433794443E-02 
1583	 1.17713652421574E-02 
1584	 1.22330668458231E-02 
1585	 1.20591017467976E-02 
1586	 1.16252556504573E-02 
1587	 1.18470127130983E-02 
1588	 1.19592576146482E-02 
1589	 1.18722701192104E-02 
1590	 1.21803195414009E-02 
1591	 1.22797421416796E-02 
1592	 1.20864792839937E-02 
1593	 1.21083056675644E-02 
1594	 1.22247497345751E-02 
1595	 1.22424672034318E-02 
1596	 1.20449864435802E-02 
1597	 1.19320504953489E-02 
1598	 1.20796205008658E-02 
1599	 1.20945578213816E-02 
1600	 1.19109273775605E-02 
1601	 1.19258493174037E-02 
1602	 1.20452359066112E-02 
1603	 1.19416027220212E-02 
1604	 1.19397185126866E-02 
1605	 1.24733001712028E-02 
1606	 1.26841507585028E-02 
1607	 1.20852913279169E-02 
1608	 1.22085624015639E-02 
1609	 0.012676453222538 
1610	 1.25019689573357E-02 
1611	 1.24377473287603E-02 
1612	 1.24703855017858E-02 
1613	 0.012274531682922 
1614	 1.17742832085126E-02 
1615	 1.17040977025489E-02 
1616	 1.22667396719845E-02 
1617	 1.21155086880923E-02 
1618	 1.16632294772334E-02 
1619	 1.23841192104051E-02 
1620	 1.28944831247023E-02 
1621	 1.22071345061985E-02 
1622	 1.19812764845082E-02 
1623	 1.21848212808247E-02 
1624	 1.19197861169032E-02 
1625	 1.17469373413914E-02 
1626	 1.21591959986963E-02 
1627	 1.24348754670763E-02 
1628	 1.22059097824349E-02 
1629	 1.23750355593777E-02 
1630	 0.012620830332933 
1631	 1.22713650787469E-02 
1632	 1.19841602989718E-02 
1633	 1.17920359959861E-02 
1634	 0.011905203994739 
1635	 1.25004142153932E-02 
1636	 1.24734849310562E-02 
1637	 1.24783895014307E-02 
1638	 1.31177413891713E-02 
1639	 1.29659400958714E-02 
1640	 1.24617567070306E-02 
1641	 1.27232315493352E-02 
1642	 1.27919933759838E-02 
1643	 1.22911050482615E-02 
1644	 1.22556967271045E-02 
1645	 0.012434288483386 
1646	 1.23334315204589E-02 
1647	 1.23536685772475E-02 
1648	 1.25580200411254E-02 
1649	 1.27535282514624E-02 
1650	 1.26219026465265E-02 
1651	 1.27412608774954E-02 
1652	 1.29001838830847E-02 
1653	 1.21988124939471E-02 
1654	 0.012129630155975 
1655	 0.012428044038875 
1656	 1.22848469344047E-02 
1657	 1.18634759304871E-02 
1658	 0.011940577879591 
1659	 1.21405184080032E-02 
1660	 0.012218408856527 
1661	 1.28520830254305E-02 
1662	 1.30914745877869E-02 
1663	 1.27440376743733E-02 
1664	 1.26184181913312E-02 
1665	 1.26388927465358E-02 
1666	 1.26212930156464E-02 
1667	 1.25130958178727E-02 
1668	 0.012481044899244 
1669	 1.24985165064853E-02 
1670	 1.25237949984504E-02 
1671	 1.26577806198586E-02 
1672	 1.27359020334249E-02 
1673	 1.27676852184958E-02 
1674	 0.013035233048864 
1675	 1.29412670492595E-02 
1676	 1.27498171852923E-02 
1677	 1.30007753051691E-02 
1678	 1.25178231866032E-02 
1679	 1.20399096403111E-02 
1680	 1.23973484188316E-02 
1681	 1.24463892609814E-02 
1682	 1.25019180431776E-02 
1683	 1.24376364475582E-02 
1684	 1.20562893609674E-02 
1685	 1.22311527938615E-02 
1686	 1.23423974836948E-02 
1687	 1.24835725885767E-02 
1688	 1.32351927273555E-02 
1689	 1.31060419919129E-02 
1690	 1.24130702795746E-02 
1691	 0.012958665095237 
1692	 1.33400279024506E-02 
1693	 1.27338098642571E-02 
1694	 1.30100454357067E-02 
1695	 1.32933208221839E-02 
1696	 1.23620194029721E-02 
1697	 1.24088118134085E-02 
1698	 1.30855288372774E-02 
1699	 1.29379243252817E-02 
1700	 1.32089046629552E-02 
1701	 1.31016539583265E-02 
1702	 1.22222087396273E-02 
1703	 0.012206613250267 
1704	 1.24874232431172E-02 
1705	 1.25257020426341E-02 
1706	 0.012576398787905 
1707	 1.22561299130777E-02 
1708	 1.19924776335593E-02 
1709	 1.22958224914619E-02 
1710	 1.29041254870043E-02 
1711	 1.34065992347612E-02 
1712	 1.31166564685541E-02 
1713	 1.32481509660211E-02 
1714	 1.33831880514923E-02 
1715	 1.32202796222896E-02 
1716	 1.37583663927459E-02 
1717	 1.32223085812418E-02 
1718	 1.25162639467317E-02 
1719	 1.33507410650803E-02 
1720	 1.35236912054129E-02 
1721	 1.36258814605841E-02 
1722	 1.40864090824515E-02 
1723	 1.33318300286511E-02 
1724	 1.27615220550417E-02 
1725	 1.27670241724769E-02 
1726	 1.28876290834053E-02 
1727	 1.32044010129792E-02 
1728	 1.33210091875297E-02 
1729	 0.013417226004422 
1730	 0.012748581585376 
1731	 1.17306084948894E-02 
1732	 1.19987895357974E-02 
1733	 1.22565489626654E-02 
1734	 1.24534855500091E-02 
1735	 1.41009409108962E-02 
1736	 1.42642586380708E-02 
1737	 1.23227339597469E-02 
1738	 1.23435214607742E-02 
1739	 0.012792282167006 
1740	 1.28305432527634E-02 
1741	 1.46369462466727E-02 
1742	 1.46430002572231E-02 
1743	 1.28580668579577E-02 
1744	 1.29149614759715E-02 
1745	 1.30380529688413E-02 
1746	 1.47426420554082E-02 
1747	 0.015104370937418 
1748	 1.36997631955011E-02 
1749	 1.32168426913907E-02 
1750	 1.21110101261498E-02 
1751	 1.19839450561454E-02 
1752	 1.35361284122557E-02 
1753	 0.013879269535143 
1754	 1.40209464358059E-02 
1755	 1.40013424333073E-02 
1756	 1.31873747370539E-02 
1757	 1.13150814127284E-02 
1758	 1.10033639880819E-02 
1759	 1.20167361881459E-02 
1760	 1.21605584845201E-02 
1761	 1.25729228533809E-02 
1762	 1.38297232777209E-02 
1763	 1.30489329874772E-02 
1764	 1.20912867586091E-02 
1765	 1.40485559592221E-02 
1766	 1.53052835865891E-02 
1767	 1.43139729072727E-02 
1768	 1.50691849589792E-02 
1769	 0.014813146554637 
1770	 1.21002106768415E-02 
1771	 1.23969658079606E-02 
1772	 1.20838626009432E-02 
1773	 1.15307708602219E-02 
1774	 1.50436566078744E-02 
1775	 0.013845700806622 
1776	 1.38877582862251E-02 
1777	 1.24011522195339E-02 
1778	 1.10176699758484E-02 
1779	 1.24170918279434E-02 
1780	 1.28765195692934E-02 
1781	 1.12988254863385E-02 
1782	 1.14160974570775E-02 
1783	 1.24744706524343E-02 
1784	 1.25823796674616E-02 
1785	 1.32756772550955E-02 
1786	 1.40671822336444E-02 
1787	 1.48830859470646E-02 
1788	 1.62699255626375E-02 
1789	 1.83249449233937E-02 
1790	 0.018600121804464 
1791	 1.78184590462882E-02 
1792	 1.34922760086383E-02 
1793	 7.33708422881038E-03 
1794	 9.24830110614635E-03 
1795	 1.83314455396102E-02 
1796	 2.73009629983979E-02 
1797	 4.23446904621628E-02 
1798	 0.040671929169296 
1799	 2.25195478596588E-02 
1800	 1.84508316054851E-02 
1801	 1.39589888568807E-02 
1802	 2.15184270518579E-02 
1803	 3.12476407478908E-02 
1804	 0.044712952886921 
1805	 7.40880368252383E-02 
1806	 0.171083090341379 
1807	 0.205278683313588 
1808	 0.15854054425618 
1809	 9.13558223939319E-02 
1810	-0.195601838554157 
1811	-0.308163642568968 
1812	-0.218519577990406 
1813	-0.19740859266958 
1814	 9.17860996341504E-03 
1815	 3.16596970657362E-02 
1816	-0.128302001922067 
1817	-0.349433521704786 
1818	-0.852001233931795 
1819	-2.27647348253252 
1820	-0.644266010345204 
1821	 0.459142136550687 
1822	 0.62933089579145 
1823	 0.568352170839218 
1824	 0.464140774964803 
1825	-0.378788149591751 
1826	-0.589235517388944 
1827	-0.525533247073368 
1828	-0.643650880584181 
1829	-3.12927784904386E-02 
1830	 0.228720769828289 
1831	 1.8912984646123 
1832	 1.62275130348537 
1833	 1.61687855644138 
1834	 1.11552028244918 
1835	-0.225408593419197 
1836	-0.446095168658097 
1837	-1.54520254406588 
1838	-1.95291637927056 
1839	 3.31331992664178 
1840	-2.85814801865123 
1841	-1.46928991321159 
1842	-2.52840249624459 
1843	-1.82067914192418 
1844	-0.298548451338386 
1845	-6.79599103763489E-02 
1846	 2.71240692521546 
1847	 5.65604737222235 
1848	 0.615077163339557 
1849	-0.661533691343121 
1850	-1.49077715894295 
1851	 3.64593420597231 
1852	 0.329742526948608 
1853	 0.347665381708667 
1854	 0.367354431217313 
1855	 0.488845551394695 
1856	 0.499089428867511 
1857	 27.7537608799329 
1858	-3.03818651775576 
1859	-0.201349629588954 
1860	-0.260949935676584 
1861	 0.424250803146778 
1862	-0.198262458908002 
1863	 3.22932349333512 
1864	 0.317865157381805 
1865	 0.886545897468005 
1866	 7.65497828888328 
1867	 9.17773512405507 
1868	-4.99335194700416 
1869	-2.2151243897264 
1870	-1.37187206641687 
1871	-1.78951681800187 
1872	-5.41403233562541 
1873	-7.98582045112478 
1874	-15.971469243887 
1875	 6.86382544303467 
1876	 8.03994859790142 
1877	-1.44226746807879 
1878	-1.68911653981619 
1879	 2.8613439429808 
1880	 1.21767794925252 
1881	-1.03224899836015E-02 
1882	 9.13954159760822E-02 
1883	 0.124314968118397 
1884	-5.05619919634051E-02 
1885	 0.412846251440094 
1886	 0.72400058314621 
1887	 0.401434484733765 
1888	 0.136150754761156 
1889	-5.27897002186273E-02 
1890	-3.13022004220685 
1891	 28.3028464198485 
1892	 3.45454310909887 
1893	-0.675955360905297 
1894	-0.904304422285242 
1895	-0.794239966393692 
1896	-1.59431586000004 
1897	-2.40849659298625 
1898	-2.20343684948805 
1899	-3.09103015465278 
1900	-2.87999550741822 
1901	 0.404733346160697 
1902	 0.78774488139194 
1903	 4.04651813038829 
1904	 21.2561563392869 
1905	 0.739522519175725 
1906	 0.102016386811762 
1907	-8.69784464432709 
1908	-0.1312075828093 
1909	-8.65152670001794E-02 
1910	-0.021068375621929 
1911	-5.93976190560304E-02 
1912	 8.27642030152555E-02 
1913	 0.546241795876602 
1914	 1.08887630326245 
1915	 0.545891756432443 
1916	-1.96883256538097 
1917	-5.5743368299981 
1918	 9.91776001451703 
1919	 4.33571315363095 
1920	-8.70797160128746E-02 
1921	 4.1356652578913 
1922	-0.822666335193953 
1923	 18.0008648452724 
1924	 3.67463438189152 
1925	 2.88624660750854 
1926	 2.37038254706592 
1927	 1.36757629166149 
1928	 0.514866680221557 
1929	-0.851887395518384 
1930	-1.2608265013847 
1931	-1.332710620032 
1932	-1.27289964227499 
1933	-1.72665621323034 
1934	-1.19334462842499 
1935	-0.697393892094568 
1936	-0.322082301862517 
1937	-0.160914235573485 
1938	-0.588579357022811 
1939	-0.643593666983045 
1940	-0.921274316014036 
1941	-0.440313747811252 
1942	-0.361384517052221 
1943	-0.206370989295179 
1944	-0.101215496054829 
1945	-0.232952462317615 
1946	-0.251211045094363 
1947	-0.22329591338801 
1948	-0.338854039187037 
1949	-0.426807105696083 
1950	-0.383423984824929 
1951	-0.316896591285075 
1952	-0.243500844097089 
1953	-9.92207804160041E-02 
1954	 9.98664060525327E-02 
1955	 0.107793707054336 
1956	 1.42090307283323E-02 
1957	-1.58975591665112E-02 
1958	-4.45759465403497E-02 
1959	-4.56353529310904E-02 
1960	-1.17156969019881E-02 
1961	 6.17417825357426E-03 
1962	 2.59704385031958E-02 
1963	 3.75172699269786E-02 
1964	 3.47910685690566E-02 
1965	 3.20793459943407E-02 
1966	 3.06632814004621E-02 
1967	 2.70140035157567E-02 
1968	 2.20690020643615E-02 
1969	 2.00494717500501E-02 
1970	 1.98203665888288E-02 
1971	 1.38461829425652E-02 
1972	 6.81237281488813E-03 
1973	 5.16548754930255E-03 
1974	 5.32935357064651E-03 
1975	 2.13950276717968E-03 
1976	 3.04207096935015E-03 
1977	 5.64621575791391E-03 
1978	 1.20661474809294E-03 
1979	-1.35125679782947E-04 
1980	-4.72530757552385E-04 
1981	 2.78056523324245E-03 
1982	 5.3928061365252E-03 
1983	 8.23142848616795E-03 
1984	 1.14481823124641E-02 
1985	 1.24366631347501E-02 
1986	 1.05768114785851E-02 
1987	 9.1805520749908E-03 
1988	 9.87334291621979E-03 
1989	 9.48292588677647E-03 
1990	 7.6522963734875E-03 
1991	 6.79904474599649E-03 
1992	 0.005967773126729 
1993	 6.89775091362303E-03 
1994	 7.84396158464412E-03 
1995	 9.74160193251267E-03 
1996	 1.21284852206766E-02 
1997	 1.34522417005937E-02 
1998	 1.24129146348437E-02 
1999	 1.10692832676128E-02 
2000	 8.28856616596808E-03 
2001	 1.38211940355947E-02 
2002	 1.51271346891861E-02 
2003	 1.00461629942437E-02 
2004	 1.47486512392619E-02 
2005	 1.03087694717529E-02 
2006	 7.22680591035492E-03 
2007	 8.87533454818751E-03 
2008	 7.17791130877175E-03 
2009	 7.02109065531479E-03 
2010	 6.0106213975031E-03 
2011	 4.58974741027473E-03 
2012	 2.69721511822649E-03 
2013	 6.47675443990973E-03 
2014	 9.33443249628132E-03 
2015	 9.29482892367091E-03 
2016	 7.60690504842313E-03 
2017	 2.51823784886832E-03 
2018	 2.74148931649869E-03 
2019	 7.96029472864424E-03 
2020	 8.77266979255102E-03 
2021	 7.32628960197922E-03 
2022	 7.08980051762322E-03 
2023	 6.82207991555731E-03 
2024	 6.30941924023981E-03 
2025	 9.61932288164648E-03 
2026	 1.07034075022789E-02 
2027	 1.10279215235973E-02 
2028	 6.53373039162355E-03 
2029	 6.18965181888308E-03 
2030	 6.63493832244232E-03 
2031	 4.7921689996587E-03 
2032	 5.71584042124863E-03 
2033	 6.88820589176895E-03 
2034	 7.58655224605056E-03 
2035	 8.63858634016379E-03 
2036	 8.43687779320145E-03 
2037	 1.00055984284008E-02 
2038	 1.11835461207538E-02 
2039	 1.09101935938521E-02 
2040	 1.01053990522706E-02 
2041	 1.03302542376267E-02 
2042	 9.42570701759664E-03 
2043	 8.9865753323525E-03 
2044	 1.01131151549848E-02 
2045	 9.44900892713448E-03 
2046	 7.94916061645697E-03 
2047	 6.02095134334841E-03 
2048	 5.71772632826203E-03 
2049	 7.07603267638113E-03 
2050	 7.46647708099062E-03 
2051	 8.67186007633642E-03 
2052	 9.59590891982129E-03 
2053	 9.70381884207029E-03 
2054	 0.01113926824979 
2055	 1.20709173317225E-02 
2056	 1.23329780694091E-02 
2057	 1.11726703577887E-02 
2058	 1.06795641353578E-02 
2059	 1.10704927741874E-02 
2060	 1.01913979884483E-02 
2061	 8.2123916430275E-03 
2062	 6.45507648573149E-03 
2063	 5.7202479477426E-03 
2064	 4.80428576014386E-03 
2065	 5.09691722583848E-03 
2066	 7.25480952772283E-03 
2067	 7.8178317670873E-03 
2068	 6.61330597904885E-03 
2069	 7.3038700226478E-03 
2070	 5.32767139769563E-03 
2071	 4.24207270577192E-03 
2072	 5.87313375203314E-03 
2073	 6.50403813376155E-03 
2074	 7.19937385328931E-03 
2075	 7.91809277845024E-03 
2076	 9.26431554325324E-03 
2077	 9.38671339685894E-03 
2078	 7.79556594514893E-03 
2079	 7.88548532371121E-03 
2080	 8.9027761420873E-03 
2081	 8.93211755991578E-03 
2082	 8.15250432544771E-03 
2083	 9.21055645978291E-03 
2084	 9.1789715304752E-03 
2085	 7.40925677048798E-03 
2086	 6.12092117728371E-03 
2087	 6.23889325080091E-03 
2088	 7.61152611419718E-03 
2089	 7.68107421377886E-03 
2090	 7.71304993360169E-03 
2091	 8.87056497820427E-03 
2092	 8.87076901705578E-03 
2093	 6.7173393407641E-03 
2094	 6.38550199504891E-03 
2095	 7.09237000648679E-03 
2096	 7.15812863810994E-03 
2097	 6.99019410795663E-03 
2098	 7.7731384603263E-03 
2099	 9.81177284985811E-03 
2100	 1.01140547496166E-02 
2101	 9.25244737790864E-03 
2102	 8.38612031059877E-03 
2103	 6.54739045709292E-03 
2104	 5.42827715670742E-03 
2105	 5.89586560020065E-03 
2106	 6.47288243546765E-03 
2107	 7.36903047235536E-03 
2108	 7.56772989408626E-03 
2109	 7.54717896686042E-03 
2110	 9.51502804488879E-03 
2111	 1.11272207939416E-02 
2112	 1.12467239015732E-02 
2113	 1.16371757444652E-02 
2114	 1.18994426566472E-02 
2115	 1.17602926615917E-02 
2116	 1.15156378762635E-02 
2117	 0.010981210083041 
2118	 9.02828287108124E-03 
2119	 8.4992757076783E-03 
2120	 8.67601219344548E-03 
2121	 8.29744929211241E-03 
2122	 8.27734496735603E-03 
2123	 9.73275888307655E-03 
2124	 1.05346762540983E-02 
2125	 1.09368228209404E-02 
2126	 1.03860119813967E-02 
2127	 1.06793027273344E-02 
2128	 1.17268508121846E-02 
2129	 1.10245298113982E-02 
2130	 1.09468453258018E-02 
2131	 1.14772288505886E-02 
2132	 1.00980749805308E-02 
2133	 9.22239028269003E-03 
2134	 9.23556952022649E-03 
2135	 1.07890003780982E-02 
2136	 0.010877575126966 
2137	 0.010697920697575 
2138	 1.05606956863338E-02 
2139	 9.30229388238108E-03 
2140	 9.31032768424293E-03 
2141	 1.09753554131735E-02 
2142	 1.12371588650937E-02 
2143	 1.11215398409372E-02 
2144	 1.15129475209554E-02 
2145	 1.03311067125682E-02 
2146	 9.40071485871676E-03 
2147	 1.04508355705117E-02 
2148	 9.6827439734615E-03 
2149	 1.04357656667594E-02 
2150	 1.17372012382727E-02 
2151	 1.14732746353314E-02 
2152	 0.012937785521731 
2153	 1.39919286407032E-02 
2154	 1.17798608552162E-02 
2155	 9.32423516510442E-03 
2156	 7.57657559770666E-03 
2157	 7.35621909377133E-03 
2158	 0.009048391052255 
2159	 9.38256890698036E-03 
2160	 1.02918979259731E-02 
2161	 1.07446289063196E-02 
2162	 9.36478996375162E-03 
2163	 8.52371693469045E-03 
2164	 9.07891088673243E-03 
2165	 9.07856644584511E-03 
2166	 8.14466737563572E-03 
2167	 8.19489476611601E-03 
2168	 8.22045000390175E-03 
2169	 8.55866870873602E-03 
2170	 9.14846975191554E-03 
2171	 1.11381676552278E-02 
2172	 1.16318286425238E-02 
2173	 1.22542346816049E-02 
2174	 1.16779021577299E-02 
2175	 8.24836627036034E-03 
2176	 6.68199728744083E-03 
2177	 6.6367173355156E-03 
2178	 7.48775092824326E-03 
2179	 8.66975724673436E-03 
2180	 9.20697113544192E-03 
2181	 9.4633022700259E-03 
2182	 6.88735380029962E-03 
2183	 5.64146229401192E-03 
2184	 5.78128444027679E-03 
2185	 4.64547467614046E-03 
2186	 4.97119134094644E-03 
2187	 7.60548545619189E-03 
2188	 9.00492366431774E-03 
2189	 1.04468091154933E-02 
2190	 1.14747925042029E-02 
2191	 1.24444697367777E-02 
2192	 1.25660015847328E-02 
2193	 1.12921947272043E-02 
2194	 1.07957999168309E-02 
2195	 1.08509524204847E-02 
2196	 1.08578333997382E-02 
2197	 1.04525731275018E-02 
2198	 1.08964596335773E-02 
2199	 1.25514101878984E-02 
2200	 1.24731235797012E-02 
2201	 0.01006911484633 
2202	 7.37699867818182E-03 
2203	 6.32009666630394E-03 
2204	 5.09979081648112E-03 
2205	 5.21052567195384E-03 
2206	 9.3682735175054E-03 
2207	 1.35834734729271E-02 
2208	 1.33744797326371E-02 
2209	 1.28286825849195E-02 
2210	 1.46467739112927E-02 
2211	 1.43479474639375E-02 
2212	 1.26883492323886E-02 
2213	 1.23625736059394E-02 
2214	 1.17633635544839E-02 
2215	 9.7259552588584E-03 
2216	 8.32895607015339E-03 
2217	 7.65854871987397E-03 
2218	 8.06498795398166E-03 
2219	 7.82467866039141E-03 
2220	 8.50466233235008E-03 
2221	 7.36183468088859E-03 
2222	 3.8391803997148E-03 
2223	 4.24788384870376E-03 
2224	 5.57613286337238E-03 
2225	 0.006188816076118 
2226	 1.16375714740677E-02 
2227	 1.18379020346556E-02 
2228	 5.78276430246853E-03 
2229	 3.21595027617296E-03 
2230	 7.09859361862355E-04 
2231	-6.57993563476059E-05 
2232	 1.81234920969812E-03 
2233	 3.52759649048566E-03 
2234	 7.97903642785609E-03 
2235	 5.63950962886611E-03 
2236	 6.16588898848013E-03 
2237	 6.94332917598321E-03 
2238	 7.18786916506965E-03 
2239	 7.68045552293457E-03 
2240	 6.84700156677239E-03 
2241	 7.95268782604613E-03 
2242	 8.63745851034612E-03 
2243	 8.93922612727051E-03 
2244	 9.15688671263116E-03 
2245	 8.9387651338169E-03 
2246	 8.79097640130568E-03 
2247	 5.79987445063042E-03 
2248	 3.50980913836477E-03 
2249	 2.06705596367088E-03 
2250	 2.28909061130908E-03 
2251	 6.84233968780777E-03 
2252	 4.79361497526854E-03 
2253	 2.88501571527174E-03 
2254	 6.56665498339978E-03 
2255	 4.50855899421019E-03 
2256	 5.75040826516041E-03 
2257	 1.08295577200822E-02 
2258	 1.10301421417363E-02 
2259	 1.12529831624213E-02 
2260	 8.72910754758694E-03 
2261	 3.47191196256889E-03 
2262	 1.97736639163522E-03 
2263	-1.75561522507287E-03 
2264	-2.47798377084926E-03 
2265	 2.76650850116154E-03 
2266	 5.83182468752659E-03 
2267	 8.19041830143093E-03 
2268	 9.71629768575902E-03 
2269	 1.26477776784459E-02 
2270	 1.29960682990372E-02 
2271	 0.010445297130843 
2272	 8.03816171019392E-03 
2273	 3.17770814161638E-03 
2274	 2.51930660450652E-03 
2275	 5.24053836510701E-03 
2276	 4.37494944261723E-03 
2277	 2.28852021704042E-03 
2278	 2.84610816913775E-03 
2279	 4.4642022729708E-04 
2280	 1.69902719790822E-03 
2281	 8.14609893506603E-03 
2282	 1.69235949457116E-02 
2283	 1.70337874826082E-02 
2284	 1.05515250113212E-02 
2285	 7.26401720243152E-03 
2286	 6.3971543380285E-03 
2287	 5.15555200083483E-03 
2288	 9.95339251272112E-03 
2289	 1.44237348284813E-02 
2290	 1.30485926720206E-02 
2291	 1.17807011206042E-02 
2292	 1.38626132412666E-02 
2293	 1.72060415554767E-02 
2294	 0.013654609853536 
2295	 1.13665961738854E-02 
2296	 1.19650736133101E-02 
2297	 6.01719097874818E-03 
2298	 7.68161675908102E-03 
2299	 1.51392121100942E-02 
2300	 0.013390430513768 
2301	 8.83067497552559E-03 
2302	 6.00831902095241E-03 
2303	 2.33819611810926E-04 
2304	-2.10915321028816E-03 
2305	 4.21074137801375E-03 
2306	 7.48691500752032E-03 
2307	 9.29374117840411E-03 
2308	 1.28514074777056E-02 
2309	 1.26477853878895E-02 
2310	 9.32607764094353E-03 
2311	 6.15534735595761E-03 
2312	 4.88360121357536E-03 
2313	 3.03892765907389E-03 
2314	 2.24747770192886E-03 
2315	 3.33526850217345E-03 
2316	 3.73143316145532E-03 
2317	 2.26984986721027E-03 
2318	 3.11805898189573E-03 
2319	 4.4754864159393E-03 
2320	 2.80865748755319E-03 
2321	 6.71513280453867E-03 
2322	 1.08841133094185E-02 
2323	 6.47324728723071E-03 
2324	 2.88411043412652E-03 
2325	-2.15634630541009E-03 
2326	-5.84776376128507E-03 
2327	-3.95489223174548E-03 
2328	-7.71864731487495E-03 
2329	-0.004012789312635 
2330	-5.90614512648799E-04 
2331	-3.56962971745053E-03 
2332	 1.35089806545786E-03 
2333	-3.63485631323926E-03 
2334	-1.33644885301878E-02 
2335	-0.018126297968796 
2336	-2.12086871007629E-02 
2337	-8.46315250030836E-03 
2338	 4.77693761835413E-03 
2339	 1.34502449362442E-02 
2340	 1.85537809439138E-02 
2341	 1.25371170945923E-02 
2342	 3.85121900404774E-03 
2343	-6.46978828399911E-03 
2344	-1.87588392495932E-03 
2345	-1.54227733543892E-02 
2346	-2.74212275133452E-02 
2347	-7.32208651578584E-03 
2348	-1.35403693018881E-02 
2349	-1.55834355749432E-02 
2350	-3.11857277562594E-03 
2351	-1.71864985816205E-02 
2352	-4.58365057042608E-02 
2353	-5.69055585411149E-02 
2354	-0.050845413747773 
2355	-3.19332685106947E-02 
2356	-8.74767407142218E-03 
2357	 1.00463843251365E-02 
2358	 2.22869278760508E-02 
2359	 5.52395918440708E-03 
2360	-6.26799465106281E-03 
2361	-1.31936616868799E-03 
2362	-1.45793760726557E-02 
2363	-2.44269768218972E-02 
2364	-1.24216384279784E-02 
2365	-6.66422036321795E-03 
2366	 4.36586968227589E-03 
2367	 1.82124459506529E-02 
2368	 9.23683346293075E-03 
2369	-8.52192506700023E-03 
2370	-3.29843060154393E-02 
2371	-4.11709634572553E-02 
2372	-3.04962499699734E-02 
2373	-2.84182557552004E-02 
2374	-0.033695019990369 
2375	-3.15138776790106E-02 
2376	-3.77897863987411E-02 
2377	-5.66965747085779E-02 
2378	-4.86790283633087E-02 
2379	-7.84972767432745E-02 
2380	-9.68369818721047E-02 
2381	-4.23881372046297E-03 
2382	 5.12398747300049E-02 
2383	 0.059028700125511 
2384	 5.64110864269747E-02 
2385	-2.31799222188557E-02 
2386	-5.82353404807836E-02 
2387	-0.012719573138644 
2388	 6.88349202235876E-03 
2389	 0.03056923682792 
2390	 3.88564234993385E-02 
2391	 1.92121457297048E-02 
2392	 4.13727898513691E-02 
2393	 3.42648207107656E-03 
2394	-0.135233723036975 
2395	-0.226292852903449 
2396	-0.206922615854859 
2397	-0.165750330917902 
2398	-0.141784137113375 
2399	-5.63422645273048E-02 
2400	-5.48335391856071E-02 
2401	-0.1030633381073 
2402	-5.46652121883569E-02 
2403	-1.94978153823556E-02 
2404	-4.98717099542402E-02 
2405	-9.64924707775037E-02 
2406	-3.13011886383297E-02 
2407	 6.00309504347645E-03 
2408	-2.70187533922417E-03 
2409	 6.23530259900781E-02 
2410	-7.01644147891458E-02 
2411	-0.150044926787339 
2412	-1.65108736282001E-03 
2413	 0.078842456145795 
2414	 2.76304910823078E-02 
2415	 1.98809875568696E-02 
2416	-0.223835800469281 
2417	-0.502559960297277 
2418	-0.226432951465585 
2419	-8.30133160390628E-02 
2420	-0.23308495789235 
2421	-4.97168840604297E-02 
2422	 3.72858334126007E-02 
2423	 0.13805793816821 
2424	 0.34858951690332 
2425	 0.303796617447007 
2426	 0.216810634528044 
2427	-4.89040188554911E-02 
2428	-0.116966662439737 
2429	-9.06571432773631E-02 
2430	-6.37130436729834E-02 
2431	 0.102716083433201 
2432	 0.071621138942743 
2433	-0.185303057693248 
2434	-0.460825457553943 
2435	-1.12304591989614 
2436	-0.318859782909266 
2437	 4.53215087581358E-02 
2438	-0.014272506423688 
2439	 3.78967520914497E-02 
2440	 1.52489283141538E-03 
2441	-4.29503286902687E-02 
2442	 0.218545915773477 
2443	 0.278436830502304 
2444	-0.157838067846841 
2445	-0.296218593857857 
2446	-0.427324251168112 
2447	-0.223761995948694 
2448	-0.075070568965895 
2449	 0.041492544253505 
2450	-0.16181916703317 
2451	-1.01065439047494 
2452	-1.92136502517783 
2453	-6.74524078289938 
2454	 7.64127130683072 
2455	 1.14945406882367 
2456	 2.2582522748174 
2457	 1.04212166612675 
2458	 7.84939193011268E-02 
2459	 0.29456896683582 
2460	 0.983683542807934 
2461	-32.4923300035301 
2462	-0.938002496637749 
2463	-0.944810253614854 
2464	-2.27175576472628 
2465	-2.04937370112706 
2466	-2.00530741629969 
2467	-7.17055559636847 
2468	 0.229907960923522 
2469	 9.03714885186105E-02 
2470	 1.23641240228242 
2471	 0.902061340060872 
2472	 0.284765645664204 
2473	-2.26713984913866 
2474	 4.92484774272038 
2475	 2.30812018860199 
2476	-1.4360971637605 
2477	 1.17086582538449 
2478	-0.700132198417515 
2479	-1.93648427563151 
2480	-2.8169833700999 
2481	 0.206644939214922 
2482	-1.21885971350107 
2483	-10.6451210895653 
2484	 0.920079999012385 
2485	 0.708208879225555 
2486	-3.25501397393324 
2487	-5.84192110303338 
2488	 4.87005321968679 
2489	 1.89485956532437 
2490	 0.216120482691772 
2491	 5.55468337711393E-02 
2492	-7.16212992274794E-02 
2493	 0.2065615293233 
2494	 0.280392137317537 
2495	 1.19571726615387 
2496	 0.745987517501145 
2497	 1.97717574936782 
2498	 12.2748741093146 
2499	 0.529487890088951 
2500	 21.1856085390217 
