Wavelength	rt0628far00002.asd
350	 6.38948012633026E-02 
351	 6.57173141355962E-02 
352	 0.064452517580651 
353	 6.37463297293859E-02 
354	 6.52873810664692E-02 
355	 6.36444767033822E-02 
356	 6.38653709584612E-02 
357	 0.064369906565368 
358	 6.29581588199302E-02 
359	 6.38954509728793E-02 
360	 6.38120880127856E-02 
361	 6.29470735979432E-02 
362	 6.37678461191966E-02 
363	 6.34447940098032E-02 
364	 6.33453186103663E-02 
365	 6.38983449209713E-02 
366	 6.33609049493445E-02 
367	 6.38558015518814E-02 
368	 0.064194687486319 
369	 6.33792634563789E-02 
370	 6.42665590501325E-02 
371	 6.43251489887546E-02 
372	 6.40732262401325E-02 
373	 6.53397722532586E-02 
374	 6.45094345751826E-02 
375	 6.44863256101034E-02 
376	 6.57834772821539E-02 
377	 6.48807217051176E-02 
378	 0.065984393799649 
379	 6.68698866183653E-02 
380	 6.57885312067193E-02 
381	 0.067352163480267 
382	 6.72782833738186E-02 
383	 6.65759344468339E-02 
384	 6.80457359156449E-02 
385	 6.77252422514811E-02 
386	 6.79529578149567E-02 
387	 6.88889519726303E-02 
388	 6.79389290052755E-02 
389	 6.92220103657107E-02 
390	 0.070024038639453 
391	 6.87335816973431E-02 
392	 6.95964090187276E-02 
393	 0.069661357756832 
394	 6.96280749025608E-02 
395	 7.07895306373909E-02 
396	 7.01038693691955E-02 
397	 7.01598004797923E-02 
398	 7.09688246646224E-02 
399	 7.02791000473353E-02 
400	 7.06181457279171E-02 
401	 7.09577775301506E-02 
402	 7.06527082965495E-02 
403	 7.11685457167807E-02 
404	 7.12532325688641E-02 
405	 7.12748064949753E-02 
406	 7.18918803275655E-02 
407	 7.17650390671362E-02 
408	 7.20801895908115E-02 
409	 7.27463389429649E-02 
410	 7.24059637763348E-02 
411	 7.29578469469835E-02 
412	 7.34428720197918E-02 
413	 7.32676922682111E-02 
414	 7.40041432575489E-02 
415	 7.42322630490899E-02 
416	 7.42904241464046E-02 
417	 7.49617471475786E-02 
418	 7.50693966279609E-02 
419	 7.53955138674659E-02 
420	 7.60165962284132E-02 
421	 7.61550971039353E-02 
422	 7.68133948574093E-02 
423	 7.73971624629396E-02 
424	 7.75095640391509E-02 
425	 7.82552007412592E-02 
426	 7.87113397933817E-02 
427	 7.91323125084789E-02 
428	 8.01270223818219E-02 
429	 0.080498940327953 
430	 0.081090798209237 
431	 8.20133565037923E-02 
432	 8.23305956941963E-02 
433	 8.29749642824686E-02 
434	 0.08363054829607 
435	 8.40167265182579E-02 
436	 8.48147635764018E-02 
437	 8.53782261047155E-02 
438	 8.58584062382064E-02 
439	 8.67299756397358E-02 
440	 8.71865008983475E-02 
441	 8.77375986755908E-02 
442	 8.85007552147691E-02 
443	 8.88039037896858E-02 
444	 8.94911253924077E-02 
445	 0.090165566232888 
446	 9.04036814147251E-02 
447	 9.10641184018824E-02 
448	 9.15484973579354E-02 
449	 0.091901321617643 
450	 9.25914727245443E-02 
451	 9.28743093842556E-02 
452	 9.32215319802478E-02 
453	 9.38403929944905E-02 
454	 9.40209663622057E-02 
455	 9.44367113926907E-02 
456	 9.49185008293122E-02 
457	 9.51416682920455E-02 
458	 9.56840307805803E-02 
459	 9.59993967219952E-02 
460	 9.61277436676232E-02 
461	 9.67019399173338E-02 
462	 9.68837227074642E-02 
463	 9.71336964470863E-02 
464	 9.77439601927901E-02 
465	 0.097797071119505 
466	 9.81069899330789E-02 
467	 9.85870963061577E-02 
468	 9.87960718875795E-02 
469	 9.92217339037903E-02 
470	 9.94466441662888E-02 
471	 9.95295156257843E-02 
472	 0.100254844258298 
473	 0.100524674758861 
474	 0.100748337369251 
475	 0.10138850717541 
476	 0.101607910200456 
477	 0.102003489611974 
478	 0.102513463298546 
479	 0.10269158200409 
480	 0.103231712427274 
481	 0.103706213758665 
482	 0.103973335488531 
483	 0.104802828805691 
484	 0.105259836851503 
485	 0.105654861640917 
486	 0.106511668918698 
487	 0.106830626368697 
488	 0.107409322487651 
489	 0.108255599026574 
490	 0.108586015962716 
491	 0.109283492851374 
492	 0.109975246208809 
493	 0.110390719890022 
494	 0.111249137555978 
495	 0.111870284029917 
496	 0.112433441519009 
497	 0.113421774361015 
498	 0.113902431641707 
499	 0.114559992997868 
500	 0.115570457608455 
501	 0.116072405687303 
502	 0.116970410096565 
503	 0.117909456319131 
504	 0.118453378651032 
505	 0.119369378702011 
506	 0.120078280212601 
507	 0.120688649162723 
508	 0.121802626432743 
509	 0.122505857128559 
510	 0.123261332625953 
511	 0.124326382484381 
512	 0.124921667434499 
513	 0.125852492898763 
514	 0.126915586403957 
515	 0.127606766586684 
516	 0.128715404006407 
517	 0.129712268617101 
518	 0.130512420446602 
519	 0.13171083736465 
520	 0.132546775914708 
521	 0.133379212393109 
522	 0.134546861490859 
523	 0.13535729479213 
524	 0.13636637254659 
525	 0.137518963398518 
526	 0.13838049403251 
527	 0.139509698876891 
528	 0.140567189982296 
529	 0.141418522277553 
530	 0.142603381904961 
531	 0.143621876414598 
532	 0.144641172281602 
533	 0.145937234401901 
534	 0.146901634830636 
535	 0.147961392437449 
536	 0.149190449689821 
537	 0.150192116369084 
538	 0.151377547249607 
539	 0.152545866972935 
540	 0.153539797884917 
541	 0.154860926977618 
542	 0.155969267499645 
543	 0.15696319777408 
544	 0.158281670858728 
545	 0.159343212963373 
546	 0.160465965152864 
547	 0.161762860549417 
548	 0.162715890177631 
549	 0.163896424344401 
550	 0.165101554098821 
551	 0.16600132679671 
552	 0.167197885792687 
553	 0.168292945536476 
554	 0.169260467959093 
555	 0.170537094140738 
556	 0.171577553802924 
557	 0.172615059982006 
558	 0.173843854607057 
559	 0.174715295318858 
560	 0.175774807719028 
561	 0.176925371690987 
562	 0.177734180520139 
563	 0.178740756940383 
564	 0.179676733326732 
565	 0.180439405130247 
566	 0.181475251711619 
567	 0.182244970671733 
568	 0.182961391279592 
569	 0.183961562258971 
570	 0.184603079361267 
571	 0.185288461193719 
572	 0.186068712876806 
573	 0.18656486774974 
574	 0.187289346107144 
575	 0.187986187178017 
576	 0.188437272045326 
577	 0.189168594392979 
578	 0.189676608440232 
579	 0.190077161413042 
580	 0.190787743411096 
581	 0.191127334108189 
582	 0.191520880606526 
583	 0.192124729151043 
584	 0.192337204083233 
585	 0.19274939190865 
586	 0.193119695876048 
587	 0.193084087769085 
588	 0.193468857002108 
589	 0.193706894738668 
590	 0.193748415300282 
591	 0.194174288610089 
592	 0.194229735526478 
593	 0.194272314881019 
594	 0.194568051419011 
595	 0.194392164660994 
596	 0.194413693728621 
597	 0.194512128697511 
598	 0.194211900863105 
599	 0.194232596098192 
600	 0.19421188710104 
601	 0.194028532075042 
602	 0.194206130948018 
603	 0.194255133058249 
604	 0.194315751601045 
605	 0.194593963577602 
606	 0.194530661295264 
607	 0.194674825621081 
608	 0.195011952071714 
609	 0.194928863416638 
610	 0.19520317266825 
611	 0.195440425266638 
612	 0.195355149530996 
613	 0.195742986378948 
614	 0.195921037353966 
615	 0.195958773693207 
616	 0.196268047043305 
617	 0.19623615192146 
618	 0.196354314671856 
619	 0.196745251265822 
620	 0.196741028179983 
621	 0.197028943077354 
622	 0.19729256849701 
623	 0.197147237579426 
624	 0.197541631172819 
625	 0.197690959990943 
626	 0.197583273735292 
627	 0.197952400237452 
628	 0.19795166964367 
629	 0.19801174885259 
630	 0.198416488579963 
631	 0.198394623630533 
632	 0.198593953181161 
633	 0.19885991418625 
634	 0.198776016437619 
635	 0.19906036559038 
636	 0.199236863574793 
637	 0.199207692945395 
638	 0.199579725117888 
639	 0.199582043181192 
640	 0.199572405845315 
641	 0.199938065993923 
642	 0.199751421962285 
643	 0.199853904684943 
644	 0.20015060819831 
645	 0.199821964497445 
646	 0.199926381426825 
647	 0.200033343093953 
648	 0.199844897471048 
649	 0.200068590656272 
650	 0.199945398291366 
651	 0.19972041477666 
652	 0.199859825513906 
653	 0.199548704700632 
654	 0.199237168589329 
655	 0.199049714204188 
656	 0.198589851589376 
657	 0.198480541828173 
658	 0.198309759937168 
659	 0.197809615482797 
660	 0.197830021811999 
661	 0.197561829347931 
662	 0.197156640987748 
663	 0.197274768706549 
664	 0.197111079567699 
665	 0.196968652421804 
666	 0.196977890645438 
667	 0.196690849731039 
668	 0.19674231731522 
669	 0.196893576457864 
670	 0.19679102026774 
671	 0.197080048294211 
672	 0.197179198825151 
673	 0.197147526663584 
674	 0.197632181329826 
675	 0.197739991315176 
676	 0.197903074921453 
677	 0.198409883947808 
678	 0.198512197956734 
679	 0.198891134686211 
680	 0.199384523933191 
681	 0.199566546332254 
682	 0.200073230775991 
683	 0.20046691983155 
684	 0.200632864956751 
685	 0.201030411290389 
686	 0.201079526976015 
687	 0.201275554543392 
688	 0.201979218724649 
689	 0.201977746281801 
690	 0.202209407288345 
691	 0.202529787474727 
692	 0.202237188900292 
693	 0.20236451549547 
694	 0.202480944951621 
695	 0.202392408995161 
696	 0.202644729364774 
697	 0.202425933732972 
698	 0.202030572631417 
699	 0.201925716129747 
700	 0.201429957464853 
701	 0.201231924226231 
702	 0.201203589638167 
703	 0.200611030681385 
704	 0.20031693451625 
705	 0.19986852510991 
706	 0.199080502419411 
707	 0.198776969655438 
708	 0.19805198386448 
709	 0.197176665660724 
710	 0.196627448791148 
711	 0.1954263615208 
712	 0.194272551972307 
713	 0.193260901731978 
714	 0.191741174545345 
715	 0.190499858946566 
716	 0.189026534662106 
717	 0.186917545593412 
718	 0.185401291962154 
719	 0.183630577715727 
720	 0.182097482429374 
721	 0.181060947737397 
722	 0.179306870995523 
723	 0.177405564900927 
724	 0.175697705872565 
725	 0.173336137935631 
726	 0.171264727670158 
727	 0.168957859561833 
728	 0.166036985457406 
729	 0.163450902485032 
730	 0.16033178745662 
731	 0.157275695571095 
732	 0.155020382341701 
733	 0.152614491288906 
734	 0.150598153099245 
735	 0.149055076443091 
736	 0.147329305443889 
737	 0.146322272122311 
738	 0.145558464183836 
739	 0.144661565749325 
740	 0.144538545693367 
741	 0.144217748874686 
742	 0.143810879718954 
743	 0.143877811323968 
744	 0.143637329515642 
745	 0.143582126943984 
746	 0.143757240248166 
747	 0.143451337773599 
748	 0.143517869955837 
749	 0.143618464882426 
750	 0.143410707552803 
751	 0.143600204117887 
752	 0.143499440966998 
753	 0.143332482599454 
754	 0.143672146913342 
755	 0.143493252140609 
756	 0.143415866555325 
757	 0.143614988133213 
758	 0.143346296110136 
759	 0.143762153376134 
760	 0.144187183481532 
761	 0.143356981768285 
762	 0.144142045666378 
763	 0.144076732977076 
764	 0.143885897764593 
765	 0.144671713001758 
766	 0.14467410699874 
767	 0.144917106227395 
768	 0.145419322758185 
769	 0.14524519920553 
770	 0.145536664616774 
771	 0.145930161609248 
772	 0.146086277429858 
773	 0.14660732268954 
774	 0.146879826697774 
775	 0.147147362544937 
776	 0.14784571406027 
777	 0.148100349866272 
778	 0.148574659327872 
779	 0.14925255057495 
780	 0.149405864076399 
781	 0.150138784768873 
782	 0.150801141664536 
783	 0.151022785039202 
784	 0.151820699631982 
785	 0.15236240678082 
786	 0.152845721963632 
787	 0.153658032427632 
788	 0.154116902223823 
789	 0.154772431175107 
790	 0.155547151634817 
791	 0.15592341521015 
792	 0.15682568974969 
793	 0.157559124160977 
794	 0.15791018712571 
795	 0.158773937580748 
796	 0.159262336691868 
797	 0.159805040975329 
798	 0.160781029897994 
799	 0.160990277962755 
800	 0.161493514948394 
801	 0.162156533041802 
802	 0.162312725274488 
803	 0.162875974397632 
804	 0.163202605934569 
805	 0.163230927280303 
806	 0.163621095903612 
807	 0.163595100299469 
808	 0.163489141215634 
809	 0.163543574926024 
810	 0.16312188021785 
811	 0.162997918904589 
812	 0.162798548977746 
813	 0.161917466537484 
814	 0.161818939860813 
815	 0.161148563458005 
816	 0.160103705069121 
817	 0.160000036916174 
818	 0.158951201632961 
819	 0.158103940917828 
820	 0.157508524509297 
821	 0.155600014966345 
822	 0.154006424135388 
823	 0.152150971814808 
824	 0.149698672439086 
825	 0.147951237456098 
826	 0.145347829232284 
827	 0.142298838737843 
828	 0.139857427202717 
829	 0.136503169906668 
830	 0.133970103106514 
831	 0.132035813075382 
832	 0.129316264664793 
833	 0.128101163205583 
834	 0.126883005575639 
835	 0.125233702207064 
836	 0.124638417929283 
837	 0.123586011780551 
838	 0.122666319759431 
839	 0.122309090919494 
840	 0.12133290025153 
841	 0.120904657085898 
842	 0.120473203431508 
843	 0.119320107416077 
844	 0.119034162353922 
845	 0.118370500466408 
846	 0.117509820365848 
847	 0.117447100991795 
848	 0.116561656925478 
849	 0.115928022969 
850	 0.115732521077549 
851	 0.114732183714905 
852	 0.114534203514079 
853	 0.114230873633818 
854	 0.113276622658675 
855	 0.1130037763808 
856	 0.112216811161125 
857	 0.111625518994492 
858	 0.111781241318571 
859	 0.110766184141456 
860	 0.11029704732195 
861	 0.110108215466035 
862	 0.109220059743963 
863	 0.109149960067501 
864	 0.108602881510343 
865	 0.107676645694062 
866	 0.107679099021706 
867	 0.106831441082896 
868	 0.106268044187979 
869	 0.106128929399811 
870	 0.104863887601384 
871	 0.104636242313457 
872	 0.10424616533231 
873	 0.102976923432144 
874	 0.102847983965017 
875	 0.102079274333209 
876	 0.101270159177592 
877	 0.101089744019049 
878	 9.96179887101408E-02 
879	 9.91335124585064E-02 
880	 9.88938412997882E-02 
881	 9.73275123269062E-02 
882	 9.71241436379892E-02 
883	 9.64972319363714E-02 
884	 0.095503654821082 
885	 9.54541904440837E-02 
886	 9.42464727274653E-02 
887	 9.36285815400831E-02 
888	 9.36622131207403E-02 
889	 9.22583979471393E-02 
890	 9.21504728983832E-02 
891	 0.091862231716993 
892	 9.07288564811926E-02 
893	 9.10871356647561E-02 
894	 8.99302620869818E-02 
895	 0.088946231480435 
896	 8.96480811480931E-02 
897	 8.80009856629289E-02 
898	 8.76314540533054E-02 
899	 8.72260715276992E-02 
900	 8.52829848195038E-02 
901	 8.60398600825654E-02 
902	 8.49811722839263E-02 
903	 8.37210305971936E-02 
904	 8.47779220639748E-02 
905	 8.27534141213127E-02 
906	 8.23003507326751E-02 
907	 8.27533879495221E-02 
908	 8.02250927701894E-02 
909	 8.06984467777321E-02 
910	 7.96927250520538E-02 
911	 7.74934951777713E-02 
912	 0.078652337725081 
913	 7.65931088600105E-02 
914	 7.56771613285004E-02 
915	 7.59865945338252E-02 
916	 7.22059082260149E-02 
917	 7.23546609756721E-02 
918	 7.13594443749155E-02 
919	 6.83337066835747E-02 
920	 6.96434973969151E-02 
921	 6.76039766906758E-02 
922	 6.55242325053756E-02 
923	 6.54570827299811E-02 
924	 6.22774183871456E-02 
925	 6.23268446948833E-02 
926	 6.23979657503452E-02 
927	 5.89351297366125E-02 
928	 6.01895511944092E-02 
929	 5.75817361358168E-02 
930	 0.055283982200795 
931	 6.17701938233847E-02 
932	 4.99839553786696E-02 
933	 5.03064957059947E-02 
934	 5.36724025162821E-02 
935	 0.038723489009151 
936	 0.046227241666611 
937	 4.35328875572839E-02 
938	 3.99322625280764E-02 
939	 0.047958008089913 
940	 0.040179922593309 
941	 3.92828331347201E-02 
942	 4.18575489980684E-02 
943	 3.56145647469494E-02 
944	 4.21143105231069E-02 
945	 3.79905313393364E-02 
946	 3.14144082854204E-02 
947	 4.19361164750514E-02 
948	 3.18884087941103E-02 
949	 0.031123955756092 
950	 3.57139909849132E-02 
951	 2.56621464400452E-02 
952	 3.17006495973041E-02 
953	 2.90572032297455E-02 
954	 2.23763114472734E-02 
955	 3.16387220216434E-02 
956	 2.60613599137841E-02 
957	 2.62537945049253E-02 
958	 3.06431490895337E-02 
959	 2.42473711094053E-02 
960	 2.64662978147594E-02 
961	 2.50643515779508E-02 
962	 2.23754381399286E-02 
963	 2.84661852223324E-02 
964	 2.44629494018191E-02 
965	 2.46641891901944E-02 
966	 0.027411088503054 
967	 0.02152834498134 
968	 0.024652360307362 
969	 2.50869260025596E-02 
970	 2.23166109836727E-02 
971	 2.54076216481444E-02 
972	 2.21224386580982E-02 
973	 2.27119828544977E-02 
974	 2.64481669838794E-02 
975	 2.21401285095336E-02 
976	 2.51345442003356E-02 
977	 2.52463282402189E-02 
978	 2.28344756190336E-02 
979	 2.70683726952548E-02 
980	 2.33417529459087E-02 
981	 2.35485628646665E-02 
982	 0.026577697808179 
983	 2.19352783953837E-02 
984	 2.48760223329317E-02 
985	 2.44265994803049E-02 
986	 2.13067995337782E-02 
987	 2.47927188149372E-02 
988	 2.28630435950914E-02 
989	 2.38033098186643E-02 
990	 2.56523823661013E-02 
991	 2.06063089715327E-02 
992	 2.41909076463359E-02 
993	 2.42573360587118E-02 
994	 2.19938929372165E-02 
995	 0.026266285578079 
996	 2.24906307932156E-02 
997	 2.39555119207238E-02 
998	 2.74505354356679E-02 
999	 2.25103471493556E-02 
1000	 2.54172694062738E-02 
1001	 2.21667583204592E-02 
1002	 2.28689103036069E-02 
1003	 2.30806856823536E-02 
1004	 2.26346106772719E-02 
1005	 2.24636531363728E-02 
1006	 2.23474546756924E-02 
1007	 2.21811710643885E-02 
1008	 2.19112362181359E-02 
1009	 2.24818784965768E-02 
1010	 2.29600516708201E-02 
1011	 2.30331406126227E-02 
1012	 2.32220656180438E-02 
1013	 2.33444454250992E-02 
1014	 0.023605817126047 
1015	 2.39738132697948E-02 
1016	 2.42293207732923E-02 
1017	 2.46032253736903E-02 
1018	 2.48265857788962E-02 
1019	 0.024558296732093 
1020	 2.49535683750695E-02 
1021	 2.59080896908278E-02 
1022	 2.63845172188311E-02 
1023	 0.026813001032287 
1024	 2.74254358153195E-02 
1025	 2.76263062691752E-02 
1026	 2.78367101121549E-02 
1027	 2.82387397313396E-02 
1028	 2.90385907822529E-02 
1029	 2.93661990126799E-02 
1030	 0.029441542426448 
1031	 2.97179878659014E-02 
1032	 2.97486621881213E-02 
1033	 3.01851631312365E-02 
1034	 3.11372970447684E-02 
1035	 3.16115211810365E-02 
1036	 3.19865226067926E-02 
1037	 3.24523313645477E-02 
1038	 3.26808975585333E-02 
1039	 3.29292658329104E-02 
1040	 0.033743661371333 
1041	 3.44688045022294E-02 
1042	 3.49390838990936E-02 
1043	 3.53750269632387E-02 
1044	 3.56645410935034E-02 
1045	 3.54761399813472E-02 
1046	 3.58823789696766E-02 
1047	 3.66089146605453E-02 
1048	 3.71567563238843E-02 
1049	 0.037988969646285 
1050	 0.038528451329428 
1051	 3.88720817676525E-02 
1052	 3.91138577939111E-02 
1053	 3.90181099964622E-02 
1054	 3.92822572271029E-02 
1055	 3.95619491641598E-02 
1056	 3.99434126682328E-02 
1057	 4.04740631082767E-02 
1058	 4.14691113430144E-02 
1059	 4.18965425855897E-02 
1060	 4.22010275654503E-02 
1061	 4.23490912188421E-02 
1062	 0.042082128394049 
1063	 0.042189418282033 
1064	 4.23538186320445E-02 
1065	 4.25182903553094E-02 
1066	 4.29952260879775E-02 
1067	 4.31392804735467E-02 
1068	 4.29970624613222E-02 
1069	 4.29908478029673E-02 
1070	 4.28233476960943E-02 
1071	 4.28072354056572E-02 
1072	 4.28734785143022E-02 
1073	 0.043195036680329 
1074	 4.31288694666542E-02 
1075	 4.30004998049709E-02 
1076	 4.28111616515383E-02 
1077	 4.22373327549125E-02 
1078	 0.042146166550756 
1079	 4.23914480589246E-02 
1080	 4.22997891562141E-02 
1081	 4.24150877692271E-02 
1082	 4.21524742579281E-02 
1083	 4.12853298727871E-02 
1084	 4.09248496639102E-02 
1085	 4.07782688825687E-02 
1086	 4.03803918312409E-02 
1087	 4.00044979396394E-02 
1088	 3.96585087706088E-02 
1089	 3.89331175932881E-02 
1090	 3.86721729651343E-02 
1091	 3.82978070761151E-02 
1092	 3.81841114517927E-02 
1093	 3.78866131216165E-02 
1094	 3.74543164289379E-02 
1095	 3.70080075440192E-02 
1096	 3.63878042215379E-02 
1097	 3.61088623400078E-02 
1098	 3.60780052018077E-02 
1099	 3.58025102051218E-02 
1100	 3.57477339165188E-02 
1101	 3.54819490166024E-02 
1102	 3.46407777162872E-02 
1103	 3.42386777248359E-02 
1104	 3.40463581268221E-02 
1105	 3.40279727045826E-02 
1106	 3.42849072377886E-02 
1107	 3.36556800912041E-02 
1108	 3.24945654445375E-02 
1109	 3.21959674719568E-02 
1110	 3.20293972985797E-02 
1111	 3.20779520264708E-02 
1112	 3.21906437591415E-02 
1113	 3.32421137210604E-02 
1114	 3.32497900772904E-02 
1115	 3.25981463575368E-02 
1116	 3.20699857154593E-02 
1117	 3.03332673040424E-02 
1118	 2.97189617912224E-02 
1119	 0.030183497307224 
1120	 2.95512168468254E-02 
1121	 2.99163225741026E-02 
1122	 2.94185174372435E-02 
1123	 2.37187626530535E-02 
1124	 2.40442173675299E-02 
1125	 2.82086424877211E-02 
1126	 2.47696727058395E-02 
1127	 2.43676249833122E-02 
1128	 0.025143941394023 
1129	 2.43311534920592E-02 
1130	 2.16395351739732E-02 
1131	 2.21691876566333E-02 
1132	 2.38047627348477E-02 
1133	 2.41454394094066E-02 
1134	 2.60458685096119E-02 
1135	 2.52893984972953E-02 
1136	 2.18718041529538E-02 
1137	 2.02841716964664E-02 
1138	 1.74913877435674E-02 
1139	 1.72121667405746E-02 
1140	 1.88344260230676E-02 
1141	 0.022842462827231 
1142	 2.47067734043605E-02 
1143	 2.25821135446477E-02 
1144	 0.022235608623301 
1145	 2.11551145667069E-02 
1146	 1.78474129167608E-02 
1147	 1.91244327879305E-02 
1148	 0.018169618286116 
1149	 0.015138421680378 
1150	 1.61530888795408E-02 
1151	 2.16361423679457E-02 
1152	 2.11517912566363E-02 
1153	 1.92409975585017E-02 
1154	 1.89280648166461E-02 
1155	 1.75277443525741E-02 
1156	 1.67857958670328E-02 
1157	 1.73057383591266E-02 
1158	 1.76187344879084E-02 
1159	 1.71224807657449E-02 
1160	 1.59482916598065E-02 
1161	 1.58448924419599E-02 
1162	 1.67093609410236E-02 
1163	 1.72741737830174E-02 
1164	 0.017227474210099 
1165	 1.65554096842647E-02 
1166	 1.60029316426296E-02 
1167	 1.60365695126297E-02 
1168	 1.61959178909463E-02 
1169	 1.62477770532696E-02 
1170	 1.60982585585673E-02 
1171	 1.59261217005005E-02 
1172	 1.50675512739325E-02 
1173	 0.01509183249201 
1174	 1.57471510464101E-02 
1175	 1.59659382584283E-02 
1176	 0.015750754281901 
1177	 0.015859322711573 
1178	 1.56574384694712E-02 
1179	 1.54098637014462E-02 
1180	 1.58168125838602E-02 
1181	 1.59534116497589E-02 
1182	 1.56237672671475E-02 
1183	 1.55820244033544E-02 
1184	 1.57274162605198E-02 
1185	 1.56879249405453E-02 
1186	 1.54958412328919E-02 
1187	 1.53059127036042E-02 
1188	 1.51226649641396E-02 
1189	 1.49701204627913E-02 
1190	 0.015009323510625 
1191	 1.50834898264231E-02 
1192	 1.52378435511545E-02 
1193	 1.54477706414257E-02 
1194	 1.56624955231307E-02 
1195	 1.54551184878222E-02 
1196	 1.52752301142278E-02 
1197	 1.52374263556778E-02 
1198	 1.49023993897832E-02 
1199	 1.49417453285955E-02 
1200	 1.53918587830164E-02 
1201	 0.015417073549033 
1202	 1.52511997734332E-02 
1203	 1.53148290706768E-02 
1204	 1.53322736934587E-02 
1205	 1.51862546406322E-02 
1206	 1.52614075219214E-02 
1207	 1.52439127516851E-02 
1208	 0.014907609319932 
1209	 1.49431131150077E-02 
1210	 1.52571372571418E-02 
1211	 1.54417929416171E-02 
1212	 1.53990958220252E-02 
1213	 1.52498522626798E-02 
1214	 0.015284308991301 
1215	 1.52036142989008E-02 
1216	 1.51514642059138E-02 
1217	 1.52603799326611E-02 
1218	 1.53562995447208E-02 
1219	 1.50784098186136E-02 
1220	 1.50192845732788E-02 
1221	 1.54105358151188E-02 
1222	 1.54282834632818E-02 
1223	 1.51794986916588E-02 
1224	 1.52173572758619E-02 
1225	 1.50988367493037E-02 
1226	 1.48575471404326E-02 
1227	 1.49807424899512E-02 
1228	 1.49330788683018E-02 
1229	 1.47351968734616E-02 
1230	 1.50154245942855E-02 
1231	 1.52058869637902E-02 
1232	 1.49766172876736E-02 
1233	 1.48258930965621E-02 
1234	 1.47686963870456E-02 
1235	 1.48103996817481E-02 
1236	 1.51481140902553E-02 
1237	 1.52997451822847E-02 
1238	 1.54975850326973E-02 
1239	 1.54596833108356E-02 
1240	 1.52536001159272E-02 
1241	 1.50773493788895E-02 
1242	 1.51231958927181E-02 
1243	 1.51699308466605E-02 
1244	 1.51429609485339E-02 
1245	 1.52486054192324E-02 
1246	 1.53082344957096E-02 
1247	 1.51169483597152E-02 
1248	 0.015047256967375 
1249	 1.52313656783705E-02 
1250	 1.52316940364768E-02 
1251	 1.51734387645279E-02 
1252	 1.53565854528831E-02 
1253	 1.52810065877753E-02 
1254	 1.50491076337673E-02 
1255	 0.015153716613667 
1256	 1.51761324899038E-02 
1257	 1.51455591483372E-02 
1258	 1.50924505198001E-02 
1259	 1.49939401168593E-02 
1260	 1.50664159286949E-02 
1261	 1.53348305404586E-02 
1262	 0.015404914862985 
1263	 1.55499413331066E-02 
1264	 1.55089784338371E-02 
1265	 1.54200936104454E-02 
1266	 1.52720141876199E-02 
1267	 1.51253513607113E-02 
1268	 0.015268038163092 
1269	 1.55036527766581E-02 
1270	 1.54851384311261E-02 
1271	 0.015616596350767 
1272	 1.56848884508679E-02 
1273	 1.53408835678773E-02 
1274	 1.51779234081778E-02 
1275	 1.51670501277189E-02 
1276	 1.51227913319093E-02 
1277	 1.50683420113225E-02 
1278	 1.49213162585441E-02 
1279	 1.49857151327752E-02 
1280	 1.51612622166697E-02 
1281	 1.51038806284013E-02 
1282	 1.49394756399829E-02 
1283	 1.49405271350726E-02 
1284	 1.48894259524198E-02 
1285	 1.48298993332896E-02 
1286	 1.48955994222453E-02 
1287	 1.49042248264839E-02 
1288	 1.48058341515514E-02 
1289	 1.47528079780796E-02 
1290	 1.46802767321918E-02 
1291	 1.48576779104913E-02 
1292	 1.50224502765923E-02 
1293	 1.47781948384467E-02 
1294	 1.46441376083401E-02 
1295	 1.47538402190483E-02 
1296	 1.48018978310233E-02 
1297	 1.48126132958511E-02 
1298	 1.47855321017181E-02 
1299	 1.47510274954584E-02 
1300	 1.48414112209207E-02 
1301	 1.49044893132453E-02 
1302	 1.48415191866133E-02 
1303	 1.47155503324441E-02 
1304	 1.47605033500348E-02 
1305	 1.49212320575086E-02 
1306	 1.48642367826624E-02 
1307	 1.47803846666564E-02 
1308	 1.48710059020096E-02 
1309	 1.49270666032134E-02 
1310	 1.47488671520947E-02 
1311	 1.45400691028088E-02 
1312	 1.45770900100787E-02 
1313	 1.43588308863692E-02 
1314	 1.43621737719624E-02 
1315	 1.52460590205079E-02 
1316	 1.53612537469376E-02 
1317	 1.43974811777014E-02 
1318	 1.44688068872962E-02 
1319	 1.55583024190485E-02 
1320	 1.53648207642943E-02 
1321	 1.46623975928792E-02 
1322	 1.44508055737989E-02 
1323	 1.43797945092501E-02 
1324	 1.41565523043626E-02 
1325	 1.48654467804058E-02 
1326	 1.57703292598168E-02 
1327	 1.56487143103924E-02 
1328	 1.55711087013289E-02 
1329	 1.60714307415927E-02 
1330	 1.58450657418151E-02 
1331	 1.52440447694239E-02 
1332	 1.45471412234117E-02 
1333	 1.40249292909204E-02 
1334	 0.014565808113648 
1335	 1.48898867834995E-02 
1336	 1.56855988585435E-02 
1337	 1.54351675249055E-02 
1338	 1.45531290590032E-02 
1339	 0.014680856186159 
1340	 1.45837705444596E-02 
1341	 1.42646136757221E-02 
1342	 1.44901132136709E-02 
1343	 0.015156406272139 
1344	 1.63175662324325E-02 
1345	 1.61309786306689E-02 
1346	 1.54667733538002E-02 
1347	 1.62790726257248E-02 
1348	 1.67699006817568E-02 
1349	 1.58092720693358E-02 
1350	 1.34422526343582E-02 
1351	 1.37524512208358E-02 
1352	 1.76903528356316E-02 
1353	 0.013517585320951 
1354	-1.38213741897467E-03 
1355	 2.26703431947644E-02 
1356	 3.05978259442219E-02 
1357	-5.56350975034463E-02 
1358	-5.04190874446021E-02 
1359	-1.87834131818886E-02 
1360	-4.82436968754043E-02 
1361	 3.22082745118634E-03 
1362	 1.45344110164103E-02 
1363	-4.23461832051642E-02 
1364	-8.74845567935479E-02 
1365	-0.11613706771277 
1366	-0.145466611403092 
1367	-0.248400290561226 
1368	-0.149477980094414 
1369	 0.172502938215031 
1370	 0.198981952954842 
1371	 0.263168263395131 
1372	 0.319603086879823 
1373	-5.57959120559863E-02 
1374	-0.190839449064534 
1375	-3.79777081225263E-02 
1376	 1.97694603996623E-02 
1377	 0.128076726427732 
1378	 0.124760696672514 
1379	 2.30318317467936E-02 
1380	 8.53694777729707E-02 
1381	 0.44984759146011 
1382	 0.36572699484228 
1383	-1.74302635229666E-02 
1384	-3.01604552685783E-02 
1385	-7.47273822323797E-02 
1386	-0.230259122775945 
1387	-0.036512459170916 
1388	-1.81289328854695E-02 
1389	-0.777689549586965 
1390	-0.790650109976808 
1391	-0.582385846934478 
1392	 0.124569158090269 
1393	 0.759096852766653 
1394	 1.25604893091818 
1395	 1.46913821544917 
1396	 1.15070490632599 
1397	 0.64541565300897 
1398	 0.366497785033583 
1399	 0.273660848666269 
1400	 0.37966615206893 
1401	 0.419988934331003 
1402	-3.89204458178089E-02 
1403	-8.59629799327115E-02 
1404	 0.120277863120401 
1405	-0.267232728360878 
1406	-0.846179678994635 
1407	-0.497237506113723 
1408	-0.408196415063801 
1409	-0.393834735107989 
1410	 5.52555610585731E-02 
1411	 0.169013956531587 
1412	 5.49891869546958E-02 
1413	-2.45491588329176E-02 
1414	-5.34862313109981E-02 
1415	-2.33379795013032E-03 
1416	-5.7687014005127E-03 
1417	-0.034487776853137 
1418	 7.06189151499404E-02 
1419	 0.096261368540494 
1420	-9.18471690623318E-03 
1421	-2.45554073220265E-02 
1422	 0.019070168834514 
1423	 3.99214575076098E-02 
1424	 5.57359622957395E-02 
1425	 5.87552227676029E-02 
1426	 6.41749734716216E-02 
1427	 6.15950268402766E-02 
1428	 0.053976195598368 
1429	 3.66278595619777E-02 
1430	 2.94660536798099E-03 
1431	-3.74066456215003E-03 
1432	-1.16740594620288E-02 
1433	-1.37580611589777E-02 
1434	 0.015876408756244 
1435	 0.025031672660016 
1436	 1.94771696806092E-02 
1437	 1.59032975534947E-02 
1438	 3.02928085500936E-03 
1439	 5.20550338223606E-03 
1440	 7.12038645121245E-04 
1441	-3.98275238501592E-03 
1442	 1.99780443303438E-02 
1443	 2.75141656254946E-02 
1444	 3.6921095497131E-03 
1445	-2.76764460874348E-03 
1446	 8.48134063533642E-03 
1447	 6.52995958885748E-03 
1448	 7.7543900849298E-03 
1449	 1.74529518019036E-02 
1450	 1.92937884804968E-02 
1451	 1.78028587734769E-02 
1452	 1.52813463929204E-02 
1453	 1.32630901430634E-02 
1454	 1.46152935219798E-02 
1455	 1.24641608001874E-02 
1456	 1.12763550885028E-02 
1457	 1.46828936509744E-02 
1458	 1.57602049813332E-02 
1459	 1.35237200421577E-02 
1460	 1.21744421413356E-02 
1461	 0.012907763643199 
1462	 0.012546109290528 
1463	 8.63891217172886E-03 
1464	 8.08447180837113E-03 
1465	 1.19395184329303E-02 
1466	 1.19232737831681E-02 
1467	 8.90061670085642E-03 
1468	 9.12224562956154E-03 
1469	 1.03054494468494E-02 
1470	 9.69382930738523E-03 
1471	 9.81675771813065E-03 
1472	 1.13119032298888E-02 
1473	 1.23096490511983E-02 
1474	 1.18581287645123E-02 
1475	 1.17095408583737E-02 
1476	 1.27057813705159E-02 
1477	 0.01378293180368 
1478	 1.26699715252815E-02 
1479	 1.05481920608632E-02 
1480	 0.01184111544344 
1481	 1.38100033797309E-02 
1482	 1.25896516110992E-02 
1483	 1.19174631542807E-02 
1484	 1.26313349583032E-02 
1485	 1.17829287897197E-02 
1486	 1.10764922268517E-02 
1487	 1.17703286581632E-02 
1488	 1.26425302506437E-02 
1489	 1.30171749110728E-02 
1490	 0.012530257298966 
1491	 1.22530312399639E-02 
1492	 1.25577310325696E-02 
1493	 0.012725688693358 
1494	 1.20439842191747E-02 
1495	 1.12815453218087E-02 
1496	 1.12614229882805E-02 
1497	 1.07280888250479E-02 
1498	 1.03707604686396E-02 
1499	 1.09251045925305E-02 
1500	 1.12034214791881E-02 
1501	 1.09962559281981E-02 
1502	 1.08584153895483E-02 
1503	 1.09792665696948E-02 
1504	 1.10972492747708E-02 
1505	 1.12969327990452E-02 
1506	 1.09398344642356E-02 
1507	 1.07103181563882E-02 
1508	 1.07468175478345E-02 
1509	 1.07477315346619E-02 
1510	 1.10676204902178E-02 
1511	 0.011409224257311 
1512	 0.011677510757134 
1513	 1.16187712558441E-02 
1514	 1.13759878340502E-02 
1515	 0.011530185420109 
1516	 1.13763389205407E-02 
1517	 1.09665147760576E-02 
1518	 1.10209393823194E-02 
1519	 1.11620925330649E-02 
1520	 1.11858030427524E-02 
1521	 1.15172628375687E-02 
1522	 1.16798615963939E-02 
1523	 1.12799047704091E-02 
1524	 0.011058161739935 
1525	 1.11077095680368E-02 
1526	 1.10590039266421E-02 
1527	 1.10964855342929E-02 
1528	 1.13018666089001E-02 
1529	 1.14710385827388E-02 
1530	 1.13808298707279E-02 
1531	 1.12135035457048E-02 
1532	 1.14128265288993E-02 
1533	 1.16465422081578E-02 
1534	 1.16207438053274E-02 
1535	 1.17811857796023E-02 
1536	 1.16462318391998E-02 
1537	 1.10368557684027E-02 
1538	 1.12006769464859E-02 
1539	 1.16159251229089E-02 
1540	 1.15970747949356E-02 
1541	 1.18311551231112E-02 
1542	 1.18944069582633E-02 
1543	 1.16490295525012E-02 
1544	 1.14878099941707E-02 
1545	 1.15561546814287E-02 
1546	 1.17509545053438E-02 
1547	 1.15673778064488E-02 
1548	 1.14475129370323E-02 
1549	 0.011635046703587 
1550	 1.15551790364647E-02 
1551	 0.011431055288337 
1552	 1.16051347027792E-02 
1553	 1.17220543102203E-02 
1554	 0.011605494033949 
1555	 1.16221717265505E-02 
1556	 1.18625395287449E-02 
1557	 1.19592487368028E-02 
1558	 1.18541678279959E-02 
1559	 1.18223562757207E-02 
1560	 1.18454741924724E-02 
1561	 1.19390804849726E-02 
1562	 1.20525982269268E-02 
1563	 0.011919400086727 
1564	 0.0118920407466 
1565	 1.20721647706018E-02 
1566	 1.19633018274845E-02 
1567	 1.17531497493124E-02 
1568	 1.18681221990249E-02 
1569	 1.18583801901415E-02 
1570	 1.15786920412109E-02 
1571	 1.18361568278866E-02 
1572	 1.22802989634415E-02 
1573	 0.012010095819739 
1574	 1.17305042650901E-02 
1575	 1.19587761350439E-02 
1576	 1.19713369978961E-02 
1577	 1.18507644059173E-02 
1578	 1.21188784761076E-02 
1579	 1.22917239632228E-02 
1580	 1.19581262452337E-02 
1581	 1.15330559443683E-02 
1582	 1.15271603538831E-02 
1583	 1.15938218072194E-02 
1584	 1.14270732893421E-02 
1585	 0.011667970627294 
1586	 0.012129221382141 
1587	 1.22322078653071E-02 
1588	 1.22598347970395E-02 
1589	 1.22034145726734E-02 
1590	 1.19980666279657E-02 
1591	 1.19898584661237E-02 
1592	 1.20540143377363E-02 
1593	 0.012084819217302 
1594	 1.22344012177708E-02 
1595	 1.20885706254472E-02 
1596	 0.01180021338894 
1597	 1.19233552412852E-02 
1598	 1.19344139993732E-02 
1599	 1.17312081591478E-02 
1600	 1.18238647536337E-02 
1601	 0.011868572056256 
1602	 1.17674665402032E-02 
1603	 1.20497590054801E-02 
1604	 1.24266926382513E-02 
1605	 1.21919046033949E-02 
1606	 1.20815576730717E-02 
1607	 1.23269192145689E-02 
1608	 0.012050346593189 
1609	 1.20276885793179E-02 
1610	 1.24188539955536E-02 
1611	 0.012456563040733 
1612	 1.23856311997914E-02 
1613	 1.23521661085948E-02 
1614	 0.012257376250077 
1615	 1.20124425363716E-02 
1616	 1.18722854654779E-02 
1617	 1.21391023284537E-02 
1618	 1.24896226699728E-02 
1619	 1.24432104136165E-02 
1620	 1.22256812961437E-02 
1621	 0.012408685751724 
1622	 1.22999406304355E-02 
1623	 1.18842999697968E-02 
1624	 1.20813483314916E-02 
1625	 1.20361516029757E-02 
1626	 0.011843930127526 
1627	 1.21718011123191E-02 
1628	 1.23717289996041E-02 
1629	 1.22728362528298E-02 
1630	 1.21323443360021E-02 
1631	 1.23465442562854E-02 
1632	 1.23469728247216E-02 
1633	 1.20521410454796E-02 
1634	 1.21144059222867E-02 
1635	 1.19370067979558E-02 
1636	 1.17549526870011E-02 
1637	 0.012049832269104 
1638	 1.22334914800359E-02 
1639	 0.012290731058338 
1640	 1.23131053573265E-02 
1641	 1.20883938858856E-02 
1642	 1.19985004552015E-02 
1643	 0.012153303068992 
1644	 1.22339363143884E-02 
1645	 1.23353121538072E-02 
1646	 1.23354323454304E-02 
1647	 1.21686558868887E-02 
1648	 1.23006596708313E-02 
1649	 1.25850262774818E-02 
1650	 1.26766298893105E-02 
1651	 1.25131919539427E-02 
1652	 1.21794734900643E-02 
1653	 1.21309011681706E-02 
1654	 0.012058289862454 
1655	 1.21192068743429E-02 
1656	 1.22640117330922E-02 
1657	 1.23693501371899E-02 
1658	 1.24326247772868E-02 
1659	 1.25153710195516E-02 
1660	 1.23359982709453E-02 
1661	 0.012004607311619 
1662	 1.20808082910808E-02 
1663	 0.012308273640895 
1664	 1.22816531888306E-02 
1665	 1.22280121721237E-02 
1666	 1.22089192318592E-02 
1667	 1.21060243133954E-02 
1668	 1.26293406125978E-02 
1669	 1.25200029951414E-02 
1670	 1.21378896120101E-02 
1671	 1.21669742379414E-02 
1672	 1.23749253619625E-02 
1673	 1.25655903955509E-02 
1674	 0.012891581285861 
1675	 1.29651919166508E-02 
1676	 1.25905707839343E-02 
1677	 1.25346382645089E-02 
1678	 0.012618329067896 
1679	 0.012287797292304 
1680	 1.19367881466311E-02 
1681	 1.17760113973256E-02 
1682	 1.19645193124246E-02 
1683	 1.23472492802182E-02 
1684	 1.24394499001555E-02 
1685	 1.24713496275311E-02 
1686	 1.24865176839304E-02 
1687	 1.24321950030326E-02 
1688	 1.25144752982741E-02 
1689	 1.22354098078544E-02 
1690	 0.012160743289065 
1691	 1.25575839378912E-02 
1692	 0.012456508809601 
1693	 1.26054586089973E-02 
1694	 1.30624376919619E-02 
1695	 0.01279144469848 
1696	 1.25366717939426E-02 
1697	 1.26900796894126E-02 
1698	 1.25621520001479E-02 
1699	 1.23258860237919E-02 
1700	 1.24324138349777E-02 
1701	 1.27077123154878E-02 
1702	 1.23774904616707E-02 
1703	 1.21636926491387E-02 
1704	 1.28091021205487E-02 
1705	 1.29779207693885E-02 
1706	 1.27410470805478E-02 
1707	 1.27243459154601E-02 
1708	 1.25704530779073E-02 
1709	 1.25719958072235E-02 
1710	 1.30210735584351E-02 
1711	 0.01319799276577 
1712	 1.27209296954314E-02 
1713	 1.23586210574796E-02 
1714	 1.22722253601863E-02 
1715	 1.24137994845529E-02 
1716	 0.012712836288349 
1717	 1.29124141875038E-02 
1718	 1.26805411760012E-02 
1719	 1.26370640278858E-02 
1720	 1.25182673172553E-02 
1721	 1.22017849706366E-02 
1722	 1.24132005937853E-02 
1723	 1.30618907602281E-02 
1724	 1.34013571668498E-02 
1725	 1.27636803685374E-02 
1726	 1.17153767221444E-02 
1727	 1.16169730233196E-02 
1728	 1.16052763860784E-02 
1729	 0.011816668063536 
1730	 1.27832986180825E-02 
1731	 1.28079131774432E-02 
1732	 1.28165755425356E-02 
1733	 1.30917032718906E-02 
1734	 1.25076344729151E-02 
1735	 1.23283006810436E-02 
1736	 1.23740843385226E-02 
1737	 1.19646642064815E-02 
1738	 1.19135482846712E-02 
1739	 1.23348181370906E-02 
1740	 0.012256933251546 
1741	 1.21600384806811E-02 
1742	 1.30549815195059E-02 
1743	 1.33139989248598E-02 
1744	 1.30585684243769E-02 
1745	 1.34042821634781E-02 
1746	 1.27394641875342E-02 
1747	 1.25901033647543E-02 
1748	 1.23121979973238E-02 
1749	 1.19107361365928E-02 
1750	 1.19963612997957E-02 
1751	 1.21525185699505E-02 
1752	 1.23672903419455E-02 
1753	 1.23108310213669E-02 
1754	 1.17886474681998E-02 
1755	 1.21180391250649E-02 
1756	 1.31545845586337E-02 
1757	 1.27687952120098E-02 
1758	 1.24290461397632E-02 
1759	 1.17783321354323E-02 
1760	 1.00108752781078E-02 
1761	 1.04330182083153E-02 
1762	 1.24096790486726E-02 
1763	 1.21252918900667E-02 
1764	 1.22278566674037E-02 
1765	 1.33507190772084E-02 
1766	 0.01277800310591 
1767	 1.28657599634972E-02 
1768	 1.36547363872077E-02 
1769	 0.012298519226453 
1770	 1.12960508405225E-02 
1771	 1.18195403186104E-02 
1772	 1.16297418516366E-02 
1773	 1.21449012334823E-02 
1774	 1.35917039350669E-02 
1775	 1.31169096477473E-02 
1776	 1.26999924634024E-02 
1777	 1.11890565582567E-02 
1778	 1.07158819211489E-02 
1779	 1.15015287095138E-02 
1780	 1.14368690261244E-02 
1781	 1.11919489414861E-02 
1782	 1.12505976193093E-02 
1783	 1.05767509707959E-02 
1784	 0.010256169261167 
1785	 1.08956728531948E-02 
1786	 1.19231158211207E-02 
1787	 1.30336374115645E-02 
1788	 1.37380176920394E-02 
1789	 1.61284347949269E-02 
1790	 1.40432886052681E-02 
1791	 1.17892225131874E-02 
1792	 1.21404977080229E-02 
1793	 9.85669190897943E-03 
1794	 1.08183125571205E-02 
1795	 1.42656529981284E-02 
1796	 0.011000414796005 
1797	 9.62438862570881E-03 
1798	 9.36107210835166E-03 
1799	 4.56559965589068E-03 
1800	 1.07008427454725E-02 
1801	 1.55063769915202E-02 
1802	 3.12052134660413E-02 
1803	 3.39622836124749E-02 
1804	 1.56807864290433E-02 
1805	 2.46248508669709E-03 
1806	-4.78601179847602E-02 
1807	-0.093145447401924 
1808	-0.111552391346406 
1809	-0.113550173730651 
1810	-3.72408125379999E-02 
1811	-4.42422751126163E-02 
1812	-5.10498740086781E-02 
1813	-0.067314188391399 
1814	-0.288090254418884 
1815	-0.273605753339722 
1816	-2.62881243054413E-02 
1817	 9.25493990630643E-02 
1818	 8.00352896825682E-02 
1819	-0.49805890402147 
1820	-0.711246462399519 
1821	-0.342133534025828 
1822	-0.237851353337494 
1823	 0.703416724725304 
1824	 1.86844054392644 
1825	 7.64161915046127E-02 
1826	 3.77315438889961E-02 
1827	 0.380352117094047 
1828	 0.33791865236468 
1829	 0.342460340604713 
1830	 0.221988364010896 
1831	 0.147935711277435 
1832	 0.150022214584658 
1833	 9.90609570835909E-02 
1834	 0.10261917793743 
1835	-0.132521327758423 
1836	-8.38965937152727E-02 
1837	 0.523447495268166 
1838	 0.599888223472573 
1839	 0.561733596007951 
1840	 0.702374778601826 
1841	 0.389652316319621 
1842	 2.71575474919447E-02 
1843	 5.93550714964772E-02 
1844	 0.624011831367348 
1845	 1.19484359044844 
1846	-2.91019445652203 
1847	-1.67560438559191 
1848	-34.561650507564 
1849	 0.415496834528909 
1850	-0.888038647877189 
1851	-0.562281491527594 
1852	 7.47321812285153E-02 
1853	 1.54371723568667 
1854	 1.76707430473502 
1855	 1.04339168114002 
1856	 1.40573878379433 
1857	-13.4180884081581 
1858	-13.8086694024586 
1859	 1.43105250935261 
1860	 1.57464005832532 
1861	 1.15418267619799 
1862	 0.858340117094073 
1863	 0.995537405668511 
1864	-14.7448855624544 
1865	-1.80006079059344 
1866	-2.15862425493989 
1867	-1.54111329302886 
1868	 0.352984721351495 
1869	 0.347651161002479 
1870	 0.111045213589616 
1871	-7.71839261602896E-02 
1872	-1.11392647520891E-02 
1873	-0.36009340931014 
1874	-0.250852402588541 
1875	 0.286869045252286 
1876	 0.407322914296153 
1877	 0.102666871835199 
1878	 0.158080688557743 
1879	 2.16857679416897E-02 
1880	-6.41246545951559E-02 
1881	 0.15000629577519 
1882	 0.225849213071332 
1883	-0.183103086565435 
1884	-0.332738357750088 
1885	-1.12278218592608 
1886	-6.0560431828978 
1887	-11.6414199835806 
1888	 19.2063813193609 
1889	 9.0076601995816 
1890	-9.34230270099975 
1891	-1.94746686312172 
1892	-0.500198683721526 
1893	-0.783855601800432 
1894	-1.52833984270782 
1895	-0.522491519413577 
1896	 0.506821977424846 
1897	 2.59935461505178E-02 
1898	-1.42971290041081 
1899	-0.925823445176944 
1900	-0.542840858492592 
1901	 0.9138829975003 
1902	 5.33675194140519 
1903	-14.8342259727118 
1904	 8.5462465198982 
1905	-1.67908778756464 
1906	-8.67313992258316 
1907	-1.0683145775663 
1908	-10.7596881881889 
1909	 1.28109792901025 
1910	 11.9831337334212 
1911	-1.17737178633767 
1912	-0.335995092454717 
1913	-0.54283112564598 
1914	-9.41622602853179 
1915	-7.77747085773749 
1916	-1.32000008081186 
1917	-2.33258748235335 
1918	 18.0915574723532 
1919	 0.178297889086738 
1920	-0.186713659152208 
1921	-1.23300772168333 
1922	-2.16660511071912 
1923	-1.29960406508536 
1924	-1.65143472216559 
1925	-1.29671233510692 
1926	-0.889863077099708 
1927	-0.278047154202701 
1928	-0.622266917406114 
1929	-0.775797491559774 
1930	 0.844692068707612 
1931	 2.96982559892637 
1932	-3.62335040100474 
1933	-2.17344867330418 
1934	-1.03680474902044 
1935	 1.43015213541365 
1936	 0.66960402147585 
1937	-0.251257980827496 
1938	-5.57274335651099E-02 
1939	 6.42769970939763E-02 
1940	 0.107068350476156 
1941	-8.18262682006796E-02 
1942	 0.029182329951499 
1943	 0.157768134670345 
1944	 0.108445070173604 
1945	 0.146514211508368 
1946	 0.151624411508775 
1947	 0.108783985857335 
1948	 0.173501366851657 
1949	 0.180237289027758 
1950	 7.28274812639087E-02 
1951	-3.55958460737124E-03 
1952	-1.61634103704879E-02 
1953	-4.82866502234261E-02 
1954	-4.16756707195427E-02 
1955	 2.43605910785061E-02 
1956	 5.12364580775894E-02 
1957	 7.79530980202544E-03 
1958	-1.58099857906823E-02 
1959	-6.66517739407139E-03 
1960	 1.00502367559961E-02 
1961	 3.18150682284536E-02 
1962	 3.42471721240476E-02 
1963	 0.02878398441317 
1964	 2.24041471157782E-02 
1965	 1.79011423437374E-02 
1966	 1.57378577753434E-02 
1967	 1.58215270463367E-02 
1968	 1.12880136813828E-02 
1969	 8.08606890674367E-03 
1970	 1.13448272956351E-02 
1971	 1.15530170159901E-02 
1972	 9.43341347861556E-03 
1973	 1.17255884725274E-02 
1974	 1.35538482364743E-02 
1975	 1.24242238251434E-02 
1976	 1.21619892491871E-02 
1977	 1.36301175846871E-02 
1978	 1.10211231379628E-02 
1979	 9.47646197749325E-03 
1980	 7.00774321388132E-03 
1981	 9.50973829140439E-03 
1982	 1.00469518365255E-02 
1983	 9.65953511432167E-03 
1984	 1.09092212929204E-02 
1985	 1.14960567872191E-02 
1986	 1.07146362692971E-02 
1987	 9.42882082875505E-03 
1988	 9.61699317402216E-03 
1989	 9.43610661734228E-03 
1990	 7.78613157785929E-03 
1991	 8.69763809861572E-03 
1992	 1.12041116787774E-02 
1993	 1.11411525212969E-02 
1994	 1.17330829637665E-02 
1995	 1.36018285850386E-02 
1996	 1.59433100911701E-02 
1997	 1.49557390744193E-02 
1998	 1.52178998598585E-02 
1999	 1.40591575060534E-02 
2000	 1.04400675485711E-02 
2001	 1.07884494269025E-02 
2002	 1.22126663026678E-02 
2003	 1.62594398836189E-02 
2004	 2.28117020706072E-02 
2005	 0.024071523149857 
2006	 2.43176964068492E-02 
2007	 2.37721783231845E-02 
2008	 2.22095748119355E-02 
2009	 2.04121371024227E-02 
2010	 1.70223091241632E-02 
2011	 1.44349689126726E-02 
2012	 1.17049670334381E-02 
2013	 9.91964128514288E-03 
2014	 9.52644380173066E-03 
2015	 1.12085103625099E-02 
2016	 1.02394324942161E-02 
2017	 8.87945302971781E-03 
2018	 7.85035195131342E-03 
2019	 7.10449662184593E-03 
2020	 1.01717412319158E-02 
2021	 0.010741781818545 
2022	 7.64415709427976E-03 
2023	 6.6632604469299E-03 
2024	 6.22847718133916E-03 
2025	 4.14161950054076E-03 
2026	 4.72666329508584E-03 
2027	 8.04070059675764E-03 
2028	 0.009240895547561 
2029	 8.34926454049851E-03 
2030	 8.05876245724814E-03 
2031	 8.50390802912832E-03 
2032	 8.54813019722115E-03 
2033	 9.87450463302081E-03 
2034	 0.011643593112597 
2035	 1.11423790988121E-02 
2036	 9.77971672531232E-03 
2037	 8.33085280204091E-03 
2038	 7.15183710207197E-03 
2039	 7.24024306559046E-03 
2040	 9.09036362904486E-03 
2041	 9.69533232280274E-03 
2042	 1.10960920785356E-02 
2043	 1.13946072406647E-02 
2044	 1.05326309263699E-02 
2045	 9.20219897556196E-03 
2046	 8.95371123199885E-03 
2047	 9.40945480901619E-03 
2048	 1.04483021309162E-02 
2049	 1.12147971553747E-02 
2050	 1.17156849404338E-02 
2051	 1.14022357703102E-02 
2052	 9.78759455126893E-03 
2053	 9.76182527385326E-03 
2054	 1.05815434627966E-02 
2055	 1.00031576853997E-02 
2056	 1.02535316514956E-02 
2057	 1.16299409689124E-02 
2058	 1.16902455860179E-02 
2059	 1.10597320819687E-02 
2060	 1.13661795885795E-02 
2061	 1.17063407333612E-02 
2062	 1.15108475625154E-02 
2063	 1.23198394262485E-02 
2064	 1.26795650332191E-02 
2065	 1.33214894280195E-02 
2066	 1.37424117220934E-02 
2067	 0.013043494386556 
2068	 1.35254069805513E-02 
2069	 1.38864131004373E-02 
2070	 1.40604196712227E-02 
2071	 1.48204981718652E-02 
2072	 1.53347023368239E-02 
2073	 1.52200156963321E-02 
2074	 1.41641236979184E-02 
2075	 1.34229045899693E-02 
2076	 1.26181600142147E-02 
2077	 1.15857900515579E-02 
2078	 1.00560096654357E-02 
2079	 9.52598225384669E-03 
2080	 8.97457271688634E-03 
2081	 9.26899436104798E-03 
2082	 1.05558171175489E-02 
2083	 1.11182424439552E-02 
2084	 1.14057198226175E-02 
2085	 1.13782904677214E-02 
2086	 1.08165808261631E-02 
2087	 9.99041137156569E-03 
2088	 9.24906268121059E-03 
2089	 8.90692179420644E-03 
2090	 8.37572987826716E-03 
2091	 8.27721507281294E-03 
2092	 8.31686186742803E-03 
2093	 8.51605982434133E-03 
2094	 8.84523299368686E-03 
2095	 9.45923658943025E-03 
2096	 1.00281168624844E-02 
2097	 1.15321188089089E-02 
2098	 1.16050951131787E-02 
2099	 1.09189284791409E-02 
2100	 9.94339576448965E-03 
2101	 9.45240455976812E-03 
2102	 8.53650262175858E-03 
2103	 8.37963600595071E-03 
2104	 9.12246150074237E-03 
2105	 9.50707343123475E-03 
2106	 9.44695157122701E-03 
2107	 9.58377457463325E-03 
2108	 9.6951424055855E-03 
2109	 9.15642829777841E-03 
2110	 9.42575813114192E-03 
2111	 1.03037923294289E-02 
2112	 1.01360622147841E-02 
2113	 1.00829558729048E-02 
2114	 9.94533741535371E-03 
2115	 9.56476841846973E-03 
2116	 8.98699950984286E-03 
2117	 8.86902848411311E-03 
2118	 8.46916154317166E-03 
2119	 8.37370693831375E-03 
2120	 8.66302860641823E-03 
2121	 8.61764724701723E-03 
2122	 9.16357645473398E-03 
2123	 9.55854313079748E-03 
2124	 1.07415917087076E-02 
2125	 1.18199673427275E-02 
2126	 1.17081253009728E-02 
2127	 1.27307045288719E-02 
2128	 1.26153270201708E-02 
2129	 1.14519299755506E-02 
2130	 1.04637145665918E-02 
2131	 9.44775568177066E-03 
2132	 1.04223290733426E-02 
2133	 1.12137147318438E-02 
2134	 1.10852746299753E-02 
2135	 1.09887885466725E-02 
2136	 0.011224263245094 
2137	 1.05561555931281E-02 
2138	 0.010262888037985 
2139	 1.07072582708218E-02 
2140	 1.10293862909443E-02 
2141	 1.11751658148799E-02 
2142	 1.11607273828022E-02 
2143	 1.14887211586238E-02 
2144	 1.15293508499584E-02 
2145	 1.18038303834418E-02 
2146	 1.07300792537446E-02 
2147	 9.44368743421259E-03 
2148	 9.50383027820887E-03 
2149	 9.4917967979628E-03 
2150	 9.05802202548305E-03 
2151	 8.83215727718768E-03 
2152	 9.32624910374385E-03 
2153	 9.89645606586413E-03 
2154	 1.06569231763778E-02 
2155	 1.14854386380537E-02 
2156	 1.22450686666614E-02 
2157	 1.27067519657503E-02 
2158	 1.20031694124134E-02 
2159	 1.13918885358237E-02 
2160	 1.09306941698139E-02 
2161	 1.08749678256105E-02 
2162	 1.10308396302552E-02 
2163	 1.09229567022297E-02 
2164	 1.06943434885999E-02 
2165	 1.07638481180422E-02 
2166	 1.04039662562566E-02 
2167	 9.91891827259749E-03 
2168	 1.03875566772924E-02 
2169	 1.08735909739877E-02 
2170	 1.12396335930959E-02 
2171	 1.06314634788508E-02 
2172	 1.02661996459811E-02 
2173	 9.49025607847798E-03 
2174	 9.98290639803235E-03 
2175	 1.05292883714379E-02 
2176	 1.14595336226634E-02 
2177	 1.24142067135966E-02 
2178	 1.20951138696252E-02 
2179	 1.19707022179384E-02 
2180	 0.012340662941355 
2181	 1.27593750791321E-02 
2182	 0.012208787843773 
2183	 1.08151855195585E-02 
2184	 1.15622385389314E-02 
2185	 0.013205337473781 
2186	 1.36145462445887E-02 
2187	 1.46663563538212E-02 
2188	 1.47916404035124E-02 
2189	 1.31833302656055E-02 
2190	 1.21181831723309E-02 
2191	 1.05712207391911E-02 
2192	 1.02687932055159E-02 
2193	 9.97417582369692E-03 
2194	 1.08066251130261E-02 
2195	 1.48156332431219E-02 
2196	 1.55858448791715E-02 
2197	 1.47096763509308E-02 
2198	 1.46469392574086E-02 
2199	 1.29370029552106E-02 
2200	 1.17961810440644E-02 
2201	 1.35837499269221E-02 
2202	 1.39749803611881E-02 
2203	 1.50329955046483E-02 
2204	 0.015171137301792 
2205	 1.38003138684795E-02 
2206	 1.48750601554191E-02 
2207	 1.44218000361584E-02 
2208	 1.24374499973195E-02 
2209	 1.07787248738385E-02 
2210	 8.79561698062076E-03 
2211	 8.69099475144957E-03 
2212	 0.010231626539459 
2213	 1.06992268343806E-02 
2214	 9.67290955708198E-03 
2215	 8.24584953983924E-03 
2216	 7.47241481029406E-03 
2217	 8.52462533654949E-03 
2218	 1.31924349317622E-02 
2219	 1.52182600409798E-02 
2220	 1.75789780213262E-02 
2221	 1.78831395771228E-02 
2222	 1.59224403292145E-02 
2223	 1.47113543510737E-02 
2224	 1.22113587995889E-02 
2225	 1.10711909432674E-02 
2226	 1.06462442821981E-02 
2227	 1.03959461474024E-02 
2228	 0.011087403246262 
2229	 1.12080457677526E-02 
2230	 1.14003152064626E-02 
2231	 1.17460531409172E-02 
2232	 1.08382943563205E-02 
2233	 1.14003562642645E-02 
2234	 1.40317278524484E-02 
2235	 0.014451033911359 
2236	 0.013182349686535 
2237	 1.41570526412364E-02 
2238	 1.28136339151007E-02 
2239	 1.11574900199581E-02 
2240	 1.20954516790341E-02 
2241	 0.013036734376352 
2242	 1.24660240883563E-02 
2243	 1.16743467361044E-02 
2244	 1.17182230342207E-02 
2245	 1.03105542636588E-02 
2246	 9.24497354334702E-03 
2247	 1.01675590673777E-02 
2248	 1.19217228637748E-02 
2249	 1.26894426676942E-02 
2250	 0.010623949878133 
2251	 8.61908677683594E-03 
2252	 6.25026550963165E-03 
2253	 4.9105749637639E-03 
2254	 6.16449343355039E-03 
2255	 6.93428106378094E-03 
2256	 8.33995686963396E-03 
2257	 9.13480120195603E-03 
2258	 9.37886961623458E-03 
2259	 1.10691656831848E-02 
2260	 1.06922224765706E-02 
2261	 6.96285477845951E-03 
2262	 6.17904414781971E-03 
2263	 6.62952151637479E-03 
2264	 6.31370287056989E-03 
2265	 5.84719924834357E-03 
2266	 7.17872971705958E-03 
2267	 9.92513294294111E-03 
2268	 1.09132452365084E-02 
2269	 1.32243775252916E-02 
2270	 1.35636029567721E-02 
2271	 1.07472202048293E-02 
2272	 9.55437405642258E-03 
2273	 8.16081814836582E-03 
2274	 7.52121594769982E-03 
2275	 7.38996734928785E-03 
2276	 8.58490993228302E-03 
2277	 1.21594365075581E-02 
2278	 1.41031819760422E-02 
2279	 1.55353952044389E-02 
2280	 1.52392875772465E-02 
2281	 1.22961683502041E-02 
2282	 1.19368456691695E-02 
2283	 1.09187414744384E-02 
2284	 1.30303096625783E-02 
2285	 1.36282110709238E-02 
2286	 1.48926072509315E-02 
2287	 1.74671083588095E-02 
2288	 0.019170689624041 
2289	 2.42474244498219E-02 
2290	 2.39263973020087E-02 
2291	 1.90881176683995E-02 
2292	 1.73167833411062E-02 
2293	 1.65691625794012E-02 
2294	 1.65702279137839E-02 
2295	 1.66597650733569E-02 
2296	 1.62222394006365E-02 
2297	 1.29058531089323E-02 
2298	 1.18499021627938E-02 
2299	 1.64618143037054E-02 
2300	 2.05185782634921E-02 
2301	 2.22664914032152E-02 
2302	 1.84945944796753E-02 
2303	 0.014216301040366 
2304	 1.33018456626358E-02 
2305	 0.012502377171638 
2306	 1.30157765760475E-02 
2307	 1.30590343727848E-02 
2308	 1.01815741023069E-02 
2309	 7.75172924577836E-03 
2310	 1.13910146624615E-02 
2311	 1.36688134067029E-02 
2312	 1.08223409921394E-02 
2313	 0.0100100808077 
2314	 5.72188285014905E-03 
2315	-7.98585031746625E-04 
2316	 1.8230569016262E-03 
2317	 6.9884321147368E-03 
2318	 8.49181445856948E-03 
2319	 1.36999524288668E-02 
2320	 2.14240068374107E-02 
2321	 0.018389982823548 
2322	 1.40674206008708E-02 
2323	 1.96679112681009E-02 
2324	 1.88736474383486E-02 
2325	 0.016271203082071 
2326	 2.25658273385831E-02 
2327	 2.00474323963298E-02 
2328	 4.99444970060252E-03 
2329	 1.48403464833906E-03 
2330	 6.48756076277683E-03 
2331	 2.63780838644563E-03 
2332	 2.8537070069925E-03 
2333	 9.90374350393793E-03 
2334	 1.35801479645279E-02 
2335	 1.86584168217448E-02 
2336	 2.01389185819268E-02 
2337	 1.15283761864579E-02 
2338	 2.14216820329291E-03 
2339	-9.12056419647784E-03 
2340	-7.9440118425554E-03 
2341	 1.21083271747621E-02 
2342	 0.019320295592744 
2343	 1.93102735156104E-02 
2344	 2.82597824488399E-02 
2345	 2.79980960652429E-02 
2346	 1.35681040013854E-02 
2347	 1.43026824932871E-02 
2348	 1.90747902705308E-02 
2349	 7.6513768657418E-03 
2350	-2.34456297033285E-04 
2351	-1.02804628902636E-02 
2352	-1.82961539473785E-02 
2353	-1.00903815000531E-02 
2354	 7.02164824513746E-03 
2355	 2.35519019999008E-02 
2356	 3.13584960048218E-02 
2357	 3.15265329649906E-02 
2358	 3.26345476100598E-02 
2359	 2.50058333485892E-02 
2360	 1.76283638278661E-02 
2361	 1.41000625803128E-02 
2362	 3.27579501213823E-03 
2363	 8.79936745937283E-03 
2364	 3.93711654612766E-03 
2365	-2.63810695167616E-02 
2366	-4.43883711201304E-02 
2367	-6.07772198293871E-02 
2368	-7.19156374540927E-02 
2369	-0.052231497738377 
2370	-2.84578953698027E-02 
2371	-3.40287853757861E-02 
2372	-3.79122585968417E-02 
2373	-0.022114456816624 
2374	-9.81210576442316E-03 
2375	 1.06427163650903E-02 
2376	 1.92115957187318E-02 
2377	-2.31962123084352E-03 
2378	-1.43966909717186E-03 
2379	 2.55591937889106E-02 
2380	 3.98673504147589E-02 
2381	 5.43290798781323E-02 
2382	 6.62247080199725E-02 
2383	 5.29621382700288E-02 
2384	 5.24197663605088E-02 
2385	 5.34776956150509E-02 
2386	 1.68663742139829E-02 
2387	-2.49885671530242E-02 
2388	-6.12685662261033E-02 
2389	-7.99639743918372E-02 
2390	-6.79804102138977E-02 
2391	-5.74847223373685E-02 
2392	-2.68290867282178E-02 
2393	-5.3357894112891E-03 
2394	-0.021881075359693 
2395	 6.94076738473384E-03 
2396	-1.46743125633165E-02 
2397	-8.72827520324158E-02 
2398	-4.04922768775661E-02 
2399	-8.44932592002958E-03 
2400	-2.34565779007886E-02 
2401	 3.65058795223402E-02 
2402	 5.47033401569282E-02 
2403	 2.98937809893996E-03 
2404	-2.17233394008024E-02 
2405	-1.33769544164398E-02 
2406	 1.75277247125908E-02 
2407	 1.04421222699014E-02 
2408	 5.28046146334065E-02 
2409	 0.140307061524777 
2410	 0.115256344771864 
2411	 6.45148333572576E-02 
2412	 9.55751919800604E-02 
2413	 5.18571207174873E-02 
2414	 1.24684222695157E-02 
2415	 5.07177046509847E-02 
2416	-1.81414484848688E-02 
2417	-8.67130495623323E-02 
2418	-0.152162113569299 
2419	-0.119040101947868 
2420	 4.81666732004962E-02 
2421	 0.114002988014716 
2422	 0.166430927812392 
2423	 0.21782985874383 
2424	-8.29501642570518E-02 
2425	-0.369144825275904 
2426	-0.317069446757015 
2427	-0.364143451960531 
2428	-0.377038829746728 
2429	-0.249093402962111 
2430	-0.427849919102229 
2431	-0.639492087608327 
2432	-0.620533345539275 
2433	-0.289832852680411 
2434	 5.54208971301996E-02 
2435	 5.34742085467128E-02 
2436	-4.24516106888845E-02 
2437	-0.248032864703187 
2438	-0.740345200873051 
2439	-0.877161204832821 
2440	-0.538316487897496 
2441	-0.410791169100994 
2442	 5.55152230298229E-02 
2443	 0.46031373627487 
2444	 0.249818356751379 
2445	-1.06964772319334E-02 
2446	 0.349950954480756 
2447	 4.42834785737652 
2448	-0.90478378666661 
2449	-4.69196728213965 
2450	-15.4610633449313 
2451	-6.93745310487054 
2452	-2.26702313504616 
2453	 3.00904444024436 
2454	-0.29251134472359 
2455	-0.443770855063555 
2456	-0.101930521112824 
2457	-2.17729012437632E-02 
2458	-0.226433638644006 
2459	 3.07701108804304E-02 
2460	 0.182586149302149 
2461	-1.27121587492963 
2462	-0.66716002190137 
2463	 0.246536808820437 
2464	-0.387594420757159 
2465	-0.179050210131996 
2466	 0.1227297213663 
2467	-2.43299862008969 
2468	 1.83958662487656 
2469	 0.961326309499806 
2470	 6.29509714425731 
2471	-2.76954911070416 
2472	-2.88152626741673 
2473	-8.2965307476719 
2474	 2.10566516738193 
2475	 0.611519483354402 
2476	 0.438680222680205 
2477	 0.721961568101491 
2478	 1.88436364073816 
2479	 6.50087295275404 
2480	 5.8092966549698 
2481	 1.22524936780208 
2482	 0.233914057016283 
2483	-0.267205075257405 
2484	-0.694133783835462 
2485	 1.02123114364331 
2486	 6.85394396375946 
2487	 1.83754148070318 
2488	 1.52315518584137 
2489	 0.525635128944607 
2490	 9.28165220438475E-02 
2491	 7.18636214743547 
2492	 2.25318556171117 
2493	 1.86453491972229 
2494	 0.524446163011227 
2495	 0.40292779752789 
2496	 0.295581102325247 
2497	-0.138714016051488 
2498	 0.560399524412008 
2499	 4.69283219592595 
2500	 25.189796176014 
