Wavelength	rt0628close00009.asd
350	 3.67720439887303E-02 
351	 3.85505421226841E-02 
352	 3.77742945696062E-02 
353	 3.70517814860636E-02 
354	 3.78640232022215E-02 
355	 3.66336670579683E-02 
356	 3.70693271434313E-02 
357	 3.75526329994138E-02 
358	 3.61906486374776E-02 
359	 3.72424857593843E-02 
360	 3.71460633345056E-02 
361	 3.62029256296387E-02 
362	 3.70839439830883E-02 
363	 0.036662200005386 
364	 3.66810812012297E-02 
365	 3.75126389126724E-02 
366	 3.66037346904216E-02 
367	 3.66879291149979E-02 
368	 3.69889142029807E-02 
369	 3.65862164395741E-02 
370	 0.037555141474708 
371	 0.037242842075762 
372	 0.036626454739321 
373	 3.81865702832884E-02 
374	 3.74594365530701E-02 
375	 3.73056980037584E-02 
376	 3.84309676328951E-02 
377	 3.76866662613343E-02 
378	 3.85420407990858E-02 
379	 3.90763702026557E-02 
380	 3.78620286927282E-02 
381	 3.90120210688142E-02 
382	 0.039113504730119 
383	 3.87837009170962E-02 
384	 3.99813237674211E-02 
385	 3.93950771231321E-02 
386	 3.95844753486989E-02 
387	 0.040581872980042 
388	 3.93471818239556E-02 
389	 0.040230623070974 
390	 4.07564024777006E-02 
391	 3.94652107306785E-02 
392	 4.06519512966966E-02 
393	 4.04703796509735E-02 
394	 4.00611733985452E-02 
395	 4.14070490279354E-02 
396	 4.05966061459328E-02 
397	 4.06172788646288E-02 
398	 4.14309074777608E-02 
399	 4.03470458488677E-02 
400	 4.07197076093905E-02 
401	 4.10571493006986E-02 
402	 4.04500273389434E-02 
403	 4.10028658781669E-02 
404	 4.09331890168046E-02 
405	 4.07224560574808E-02 
406	 4.13125975198302E-02 
407	 4.11864300528237E-02 
408	 4.13977207626234E-02 
409	 0.041865393821156 
410	 4.13713352014895E-02 
411	 4.18079631648643E-02 
412	 4.21921791823361E-02 
413	 4.19028837917133E-02 
414	 4.24905695833265E-02 
415	 4.25316095568635E-02 
416	 4.24191131303641E-02 
417	 0.043001684739818 
418	 4.30919656292434E-02 
419	 4.33515146685985E-02 
420	 4.37924153756699E-02 
421	 0.043644555658131 
422	 4.40313152843661E-02 
423	 4.44138713600836E-02 
424	 4.44118469657356E-02 
425	 4.51318695849638E-02 
426	 4.52955990519433E-02 
427	 4.53037718036187E-02 
428	 4.61078198607498E-02 
429	 0.04628325143478 
430	 4.66304247249573E-02 
431	 4.72728059648446E-02 
432	 4.73300122612174E-02 
433	 4.78328847531371E-02 
434	 4.82894285555742E-02 
435	 4.83291466391141E-02 
436	 4.89870078422923E-02 
437	 4.93252155224836E-02 
438	 4.95008091073726E-02 
439	 5.01393136724936E-02 
440	 5.02790810344449E-02 
441	 5.06393505844369E-02 
442	 5.13266548569445E-02 
443	 5.12830950769327E-02 
444	 5.16790115048317E-02 
445	 5.21857886642825E-02 
446	 5.23352473373056E-02 
447	 5.28106132640455E-02 
448	 5.30742698658865E-02 
449	 5.32357420511506E-02 
450	 5.38162146652271E-02 
451	 5.39777642672746E-02 
452	 5.41915215090639E-02 
453	 5.46790557026783E-02 
454	 5.47452842472195E-02 
455	 5.50602668690727E-02 
456	 5.54149286382657E-02 
457	 5.54561605103086E-02 
458	 5.58520204602043E-02 
459	 5.61016127018378E-02 
460	 5.61875018553306E-02 
461	 5.65967623318184E-02 
462	 5.66531345261793E-02 
463	 5.68268600882914E-02 
464	 5.73727859883352E-02 
465	 0.057291649788881 
466	 5.75126843492293E-02 
467	 5.79492193945402E-02 
468	 5.80970600338409E-02 
469	 5.83930327471113E-02 
470	 5.84903230802524E-02 
471	 5.84717236142221E-02 
472	 0.059069036686687 
473	 5.91805168742279E-02 
474	 5.92316634248905E-02 
475	 5.97103351749376E-02 
476	 5.98078203840324E-02 
477	 6.01279701175646E-02 
478	 6.05463190159744E-02 
479	 0.060530880229884 
480	 6.09969751349403E-02 
481	 6.13866997354338E-02 
482	 6.14391878887286E-02 
483	 6.19049476655848E-02 
484	 0.06214773363218 
485	 6.24300977135224E-02 
486	 0.063108983561703 
487	 6.32083454119005E-02 
488	 6.35417659557307E-02 
489	 0.064132466493121 
490	 6.42081263632447E-02 
491	 6.46552360238349E-02 
492	 6.50905657285022E-02 
493	 6.52468089662766E-02 
494	 6.58902116132082E-02 
495	 6.63020317059308E-02 
496	 6.65795391968837E-02 
497	 6.71447790071705E-02 
498	 6.73625389786246E-02 
499	 6.77665954092419E-02 
500	 6.84370633430598E-02 
501	 6.85748347778502E-02 
502	 6.91062615715389E-02 
503	 6.96828658887784E-02 
504	 6.98798223599398E-02 
505	 7.05340473045427E-02 
506	 7.09597179736745E-02 
507	 7.12171471204909E-02 
508	 7.19221714472377E-02 
509	 7.23169997645998E-02 
510	 7.27456269039373E-02 
511	 7.34015721415194E-02 
512	 7.36828302276306E-02 
513	 0.074226280241528 
514	 7.48839305058809E-02 
515	 7.52615976102319E-02 
516	 7.58907600037986E-02 
517	 7.64062545973293E-02 
518	 7.67928085667724E-02 
519	 7.75498394735169E-02 
520	 7.79486212455428E-02 
521	 7.83471727345031E-02 
522	 7.90828888179781E-02 
523	 7.95017386076437E-02 
524	 8.00666229922808E-02 
525	 8.07374494300526E-02 
526	 8.11611945335744E-02 
527	 8.18069337798455E-02 
528	 8.23763649223791E-02 
529	 8.27660607816109E-02 
530	 8.34972525503764E-02 
531	 8.39852128384323E-02 
532	 8.44541009026678E-02 
533	 8.52709087330581E-02 
534	 8.57468725777338E-02 
535	 8.63119000569472E-02 
536	 8.70221853255763E-02 
537	 8.74387635767117E-02 
538	 8.80947661751749E-02 
539	 8.87302898894255E-02 
540	 8.91327212972352E-02 
541	 8.99060735490203E-02 
542	 9.05086900326173E-02 
543	 9.10027204699253E-02 
544	 9.17731408083348E-02 
545	 9.22621945925688E-02 
546	 9.28489155949611E-02 
547	 9.36608071936862E-02 
548	 9.40998877824258E-02 
549	 9.47375512057423E-02 
550	 9.54169080223679E-02 
551	 9.58480971923494E-02 
552	 9.65325245425781E-02 
553	 9.71232126423082E-02 
554	 9.76022441414365E-02 
555	 9.83598239558181E-02 
556	 9.89017730156331E-02 
557	 9.94191581024409E-02 
558	 0.100092197859594 
559	 0.100507143361898 
560	 0.101085499150564 
561	 0.101718001733239 
562	 0.102033019901598 
563	 0.10264006447028 
564	 0.103148195739903 
565	 0.103401285975016 
566	 0.103966684920375 
567	 0.104347105996707 
568	 0.10468267107483 
569	 0.105225664784058 
570	 0.105463771411914 
571	 0.105821136474823 
572	 0.106293852932982 
573	 0.106381624283818 
574	 0.106794207609909 
575	 0.10720244351232 
576	 0.10731345634853 
577	 0.107777751644098 
578	 0.10801390019317 
579	 0.108143418572856 
580	 0.108629087811772 
581	 0.108689866123137 
582	 0.108811908375197 
583	 0.109174148605579 
584	 0.109094454294252 
585	 0.109163319436128 
586	 0.109187944267898 
587	 0.10885550529177 
588	 0.108927908882041 
589	 0.108900828551037 
590	 0.108750201796323 
591	 0.109012330776828 
592	 0.108939609351386 
593	 0.108825959053945 
594	 0.1089166770008 
595	 0.108616768016771 
596	 0.108525101645213 
597	 0.108502961799891 
598	 0.108087011509619 
599	 0.107999043060762 
600	 0.107874926451892 
601	 0.107592946994748 
602	 0.107680389708821 
603	 0.10763157882786 
604	 0.107571853523899 
605	 0.107711378956641 
606	 0.107581524403357 
607	 0.107659874533065 
608	 0.107895724313807 
609	 0.107686370256853 
610	 0.107826693688116 
611	 0.10796902245148 
612	 0.107833574159162 
613	 0.108087928634853 
614	 0.108149178299537 
615	 0.108103028355417 
616	 0.108330740062776 
617	 0.108215140878135 
618	 0.10824390706716 
619	 0.108523968933333 
620	 0.108349190872326 
621	 0.108485735057641 
622	 0.10865918018232 
623	 0.108475271612346 
624	 0.108704545064005 
625	 0.108688880767947 
626	 0.10846489219545 
627	 0.10873064690747 
628	 0.10867257797365 
629	 0.108694298126127 
630	 0.109036428833728 
631	 0.10886749808151 
632	 0.108953947923712 
633	 0.109145466358783 
634	 0.108982075044393 
635	 0.10925626406933 
636	 0.109376676987628 
637	 0.109210118730668 
638	 0.109460473103272 
639	 0.109408621612647 
640	 0.109345087574971 
641	 0.109594390810964 
642	 0.109363135690051 
643	 0.109313790104869 
644	 0.109374366747828 
645	 0.108909574624452 
646	 0.108821914774886 
647	 0.108829971038451 
648	 0.108707314575363 
649	 0.108939616850275 
650	 0.10875539535401 
651	 0.108465242349749 
652	 0.108607881564335 
653	 0.108192708405329 
654	 0.10784690217787 
655	 0.10770580949555 
656	 0.107123417395541 
657	 0.107031274691476 
658	 0.106937043392842 
659	 0.106454172509383 
660	 0.106420176991036 
661	 0.106191108568568 
662	 0.105848908248116 
663	 0.105859134987805 
664	 0.105576268705744 
665	 0.105409850126353 
666	 0.105489818078834 
667	 0.105201104375461 
668	 0.105196601588612 
669	 0.105223957919463 
670	 0.104947923171738 
671	 0.105204427941063 
672	 0.105245686131994 
673	 0.105076634566579 
674	 0.105412656420146 
675	 0.105387415737754 
676	 0.105436213524729 
677	 0.105821168527864 
678	 0.105702542952555 
679	 0.105917409404365 
680	 0.106274385365502 
681	 0.10624767107035 
682	 0.106540445194106 
683	 0.106702409621581 
684	 0.106640954557972 
685	 0.106875294134085 
686	 0.106612099447347 
687	 0.106447570500426 
688	 0.106925133368718 
689	 0.106799493210905 
690	 0.106844284853853 
691	 0.106907461758054 
692	 0.106381684752885 
693	 0.106386049556013 
694	 0.106404321516199 
695	 0.106208169452313 
696	 0.106439282909079 
697	 0.10600403375397 
698	 0.105387800511104 
699	 0.105302281721982 
700	 0.10465487309319 
701	 0.104342122622603 
702	 0.104297168732298 
703	 0.103696929515762 
704	 0.103274793591398 
705	 0.102758737042415 
706	 0.102032151414825 
707	 0.101624473467671 
708	 0.100909397662129 
709	 0.100082094914498 
710	 9.94781355360146E-02 
711	 9.83905102061744E-02 
712	 9.73375659232035E-02 
713	 9.63487207392773E-02 
714	 9.48535333369839E-02 
715	 9.35283359744397E-02 
716	 9.19450643747483E-02 
717	 8.98808956821256E-02 
718	 8.87282435670397E-02 
719	 8.73808212991632E-02 
720	 8.61898021769442E-02 
721	 8.54640554892989E-02 
722	 8.39016505636143E-02 
723	 8.22108036060785E-02 
724	 8.08494077836499E-02 
725	 7.90794854560355E-02 
726	 7.75604927140103E-02 
727	 7.58315679498756E-02 
728	 0.073611827808289 
729	 7.18002669350463E-02 
730	 6.96327540542569E-02 
731	 6.75459259647197E-02 
732	 6.61134658965207E-02 
733	 6.44750157137539E-02 
734	 6.31103404240174E-02 
735	 6.21044430393939E-02 
736	 6.09064639863439E-02 
737	 6.03130433451737E-02 
738	 5.98690128934834E-02 
739	 5.92175531633541E-02 
740	 5.92037331545702E-02 
741	 5.89745763510124E-02 
742	 5.86623954327074E-02 
743	 0.058795226934838 
744	 5.86038442364327E-02 
745	 0.058528319312008 
746	 5.86275691546811E-02 
747	 5.82978808475234E-02 
748	 5.83740647965942E-02 
749	 5.84744826357037E-02 
750	 5.82383560714688E-02 
751	 5.84693993191993E-02 
752	 5.83557382169027E-02 
753	 5.81278834428036E-02 
754	 5.84313146566085E-02 
755	 0.058194794669628 
756	 5.80881206452029E-02 
757	 5.82526605047495E-02 
758	 5.77175882205068E-02 
759	 5.77047041210307E-02 
760	 5.77388425936351E-02 
761	 5.69491818904037E-02 
762	 5.78476231015729E-02 
763	 5.78426081809344E-02 
764	 5.77105707247736E-02 
765	 5.86085609302509E-02 
766	 0.058518658987057 
767	 5.86836214115148E-02 
768	 5.91813378446131E-02 
769	 5.89943357458017E-02 
770	 5.92306593428802E-02 
771	 5.94959510900694E-02 
772	 5.94694829055982E-02 
773	 5.98881245308263E-02 
774	 6.00846808585767E-02 
775	 6.02057765906987E-02 
776	 6.06309392223871E-02 
777	 6.08046113633138E-02 
778	 6.11355540238552E-02 
779	 6.15741939550382E-02 
780	 6.16048440828152E-02 
781	 6.20827354622226E-02 
782	 6.24665334391444E-02 
783	 6.24839836254676E-02 
784	 6.30821499832682E-02 
785	 6.33642544134756E-02 
786	 0.063595840493223 
787	 6.42248547250478E-02 
788	 6.42787747549645E-02 
789	 6.47036966405544E-02 
790	 6.54216024252748E-02 
791	 0.065588435433179 
792	 0.0663803989653 
793	 6.68447244814879E-02 
794	 6.67482247964799E-02 
795	 6.74685297751969E-02 
796	 6.77595365802961E-02 
797	 6.80373469304165E-02 
798	 6.87580549333539E-02 
799	 6.87977869434586E-02 
800	 6.91701078018796E-02 
801	 6.96930486449292E-02 
802	 6.96844852809501E-02 
803	 7.02843016512193E-02 
804	 7.05734742994583E-02 
805	 7.04822804853606E-02 
806	 7.09716955150971E-02 
807	 7.07672897579766E-02 
808	 7.05224794000125E-02 
809	 7.06960346167337E-02 
810	 7.01617236725635E-02 
811	 7.00384123181909E-02 
812	 6.99003998317892E-02 
813	 0.068979160362046 
814	 6.89921868345839E-02 
815	 6.86101528181419E-02 
816	 6.79014190121812E-02 
817	 6.79905979306436E-02 
818	 6.71715374131658E-02 
819	 6.66408550784741E-02 
820	 6.65003038643366E-02 
821	 6.52544291288837E-02 
822	 6.42125452323814E-02 
823	 6.29051350234349E-02 
824	 6.11546958679163E-02 
825	 6.03312850186646E-02 
826	 5.86868573843123E-02 
827	 5.66328689064838E-02 
828	 5.52484631196883E-02 
829	 5.31809539087234E-02 
830	 5.17376011575314E-02 
831	 5.07708255492555E-02 
832	 0.049228338727266 
833	 4.86144907426915E-02 
834	 4.78323492687385E-02 
835	 4.67379867179636E-02 
836	 4.67342835821925E-02 
837	 4.61005512404192E-02 
838	 4.55231215628349E-02 
839	 4.55278548485366E-02 
840	 4.48403376589106E-02 
841	 4.46700120428145E-02 
842	 4.45404431272771E-02 
843	 4.37853107359065E-02 
844	 4.39122661228408E-02 
845	 4.35450579289034E-02 
846	 4.28695559098324E-02 
847	 4.29920634738314E-02 
848	 4.24047011214764E-02 
849	 4.20448520914784E-02 
850	 4.20515057821041E-02 
851	 4.12885972822067E-02 
852	 4.12898154707035E-02 
853	 4.12589327134069E-02 
854	 4.07056043834795E-02 
855	 4.08477328748596E-02 
856	 4.02705030028521E-02 
857	 3.98375968159873E-02 
858	 0.040268359845796 
859	 3.94485242574998E-02 
860	 3.92150603674007E-02 
861	 3.92989980206192E-02 
862	 0.038654224030524 
863	 3.87552554679663E-02 
864	 3.84165472589005E-02 
865	 3.77666137611529E-02 
866	 3.80632703584926E-02 
867	 3.75735279059615E-02 
868	 3.73983759596506E-02 
869	 3.75995018005791E-02 
870	 3.65113444506073E-02 
871	 3.64441844249064E-02 
872	 3.63040193900669E-02 
873	 3.54081751718983E-02 
874	 0.035693559511525 
875	 3.51740285491611E-02 
876	 3.45702882056472E-02 
877	 3.47646491664076E-02 
878	 3.39811586402339E-02 
879	 3.38994701294654E-02 
880	 3.38612837254942E-02 
881	 3.26522786703712E-02 
882	 3.27133572026414E-02 
883	 3.23972572303534E-02 
884	 3.18184690166468E-02 
885	 3.22479998183639E-02 
886	 3.14593948028136E-02 
887	 3.10768527091369E-02 
888	 3.12179757940556E-02 
889	 3.00355172549129E-02 
890	 3.02486611416724E-02 
891	 3.03211962306039E-02 
892	 2.95029091222933E-02 
893	 3.00267149422598E-02 
894	 2.92349369154799E-02 
895	 0.028617539242269 
896	 2.93874351024549E-02 
897	 2.74688424545348E-02 
898	 2.76839440008708E-02 
899	 2.80715268039177E-02 
900	 2.62505300638007E-02 
901	 2.73711839109591E-02 
902	 0.0268845659706 
903	 2.61309510138715E-02 
904	 2.74124484136356E-02 
905	 2.59184551477963E-02 
906	 2.54619582293755E-02 
907	 2.58361237523024E-02 
908	 2.43251365580937E-02 
909	 2.52493738209548E-02 
910	 2.46639255592063E-02 
911	 2.30689121351761E-02 
912	 2.47495009056238E-02 
913	 2.30917981385009E-02 
914	 2.28903612592999E-02 
915	 2.42075161242044E-02 
916	 2.12024670720464E-02 
917	 2.22431541845824E-02 
918	 0.022255615206933 
919	 2.01473298024996E-02 
920	 2.19139390740694E-02 
921	 2.04415279659482E-02 
922	 1.93735771596407E-02 
923	 0.020597723216201 
924	 1.78799323316585E-02 
925	 0.018347332657223 
926	 1.88501646287668E-02 
927	 1.58619440506388E-02 
928	 0.018437877574716 
929	 1.60672245759692E-02 
930	 1.29309730676224E-02 
931	 1.92631599546562E-02 
932	 0.010511120715318 
933	 1.29523796163632E-02 
934	 1.69510919861311E-02 
935	 3.27152235085892E-03 
936	 0.012042278704701 
937	 8.68497394617949E-03 
938	 6.29338564564175E-03 
939	 1.92887475144503E-02 
940	 8.68257366093989E-03 
941	 9.46811036630054E-03 
942	 1.52200144296784E-02 
943	 5.20920517244217E-03 
944	 1.18017713700436E-02 
945	 6.03139303119641E-03 
946	-1.36813485877438E-03 
947	 1.45388373802136E-02 
948	 6.75105563142004E-03 
949	 7.58493822943192E-03 
950	 1.36638910227068E-02 
951	 4.07347566455228E-03 
952	 9.78647809073855E-03 
953	 7.94816091271923E-03 
954	 2.79064921267714E-03 
955	 0.012324673518025 
956	 4.67767008200315E-03 
957	 5.59470766158757E-03 
958	 1.21058079112994E-02 
959	 4.58794293716779E-03 
960	 9.08368618434854E-03 
961	 8.52882532686706E-03 
962	 4.42006334358582E-03 
963	 9.52940225430407E-03 
964	 6.90224105278739E-03 
965	 7.61122078107652E-03 
966	 1.00356765538394E-02 
967	 5.09526450693177E-03 
968	 7.97517400021835E-03 
969	 8.58001126339298E-03 
970	 6.56006557709795E-03 
971	 9.7717081915652E-03 
972	 6.53961928744761E-03 
973	 5.47492877694588E-03 
974	 7.40483345769551E-03 
975	 5.00571651103237E-03 
976	 8.90648980575607E-03 
977	 0.008519458708223 
978	 5.3126715496438E-03 
979	 9.9512450992788E-03 
980	 6.19738441759181E-03 
981	 6.72939477095685E-03 
982	 1.00765604897466E-02 
983	 4.71110051386772E-03 
984	 7.90735962767699E-03 
985	 8.49417270622719E-03 
986	 6.27984425884281E-03 
987	 9.52052910287177E-03 
988	 6.89118853063844E-03 
989	 7.35602701709205E-03 
990	 9.11795750428816E-03 
991	 4.18241343824578E-03 
992	 8.57157171632903E-03 
993	 8.56269010962008E-03 
994	 5.63662885306142E-03 
995	 1.00196000234233E-02 
996	 5.74680855730254E-03 
997	 6.59431847471864E-03 
998	 9.53898793449241E-03 
999	 4.22249522044491E-03 
1000	 8.11923182169325E-03 
1001	 1.13467297240199E-02 
1002	 0.011130473671311 
1003	 1.11453188436844E-02 
1004	 1.12500205502255E-02 
1005	 1.12545605537462E-02 
1006	 1.14475456696137E-02 
1007	 0.011142667727683 
1008	 1.09582645261455E-02 
1009	 1.13311671000023E-02 
1010	 1.11805286185593E-02 
1011	 1.13574215389691E-02 
1012	 1.17767569556099E-02 
1013	 1.16122428408418E-02 
1014	 1.17153512390055E-02 
1015	 1.21650224832359E-02 
1016	 1.22870880957116E-02 
1017	 1.21773541453673E-02 
1018	 1.21828113340793E-02 
1019	 1.21221277947934E-02 
1020	 1.21127925416844E-02 
1021	 1.23061782955891E-02 
1022	 1.21461299951982E-02 
1023	 1.18223139480091E-02 
1024	 1.17257712432618E-02 
1025	 1.18037915732752E-02 
1026	 1.18816901176438E-02 
1027	 1.18918580575713E-02 
1028	 1.20145554537099E-02 
1029	 1.20874264290401E-02 
1030	 1.20629020965635E-02 
1031	 0.012087008222889 
1032	 1.21707237567556E-02 
1033	 1.23552026159107E-02 
1034	 1.25275032453553E-02 
1035	 1.26205043972916E-02 
1036	 1.30010178111271E-02 
1037	 1.30173677436258E-02 
1038	 0.012639056911578 
1039	 1.24188994639288E-02 
1040	 1.20836846971805E-02 
1041	 1.21428403772918E-02 
1042	 0.01235403635393 
1043	 1.28530900643957E-02 
1044	 0.013317310082996 
1045	 1.41847318466144E-02 
1046	 1.44250134460617E-02 
1047	 1.45352947417976E-02 
1048	 1.45042635342934E-02 
1049	 1.38283938026722E-02 
1050	 1.36691815896929E-02 
1051	 1.35999892019848E-02 
1052	 1.37073975507393E-02 
1053	 1.43358793167057E-02 
1054	 1.45554335408595E-02 
1055	 1.48775135381299E-02 
1056	 0.014869077566025 
1057	 1.46062646603456E-02 
1058	 1.36868976740675E-02 
1059	 1.36907651302747E-02 
1060	 1.38434154306643E-02 
1061	 1.40726012801689E-02 
1062	 1.50624534757058E-02 
1063	 0.015282928997204 
1064	 1.50294378534149E-02 
1065	 1.49880287441764E-02 
1066	 0.014709951965255 
1067	 1.46571904981159E-02 
1068	 1.47669947442051E-02 
1069	 1.48452403484188E-02 
1070	 1.50243041721373E-02 
1071	 1.51478710646542E-02 
1072	 0.015496799332898 
1073	 1.54296037214434E-02 
1074	 1.52697784630296E-02 
1075	 0.014936122261364 
1076	 1.47112876996998E-02 
1077	 1.41739129674023E-02 
1078	 1.40724415228692E-02 
1079	 1.42092478418367E-02 
1080	 1.43329511003422E-02 
1081	 1.48133760448617E-02 
1082	 1.49042530491955E-02 
1083	 0.014996123510229 
1084	 1.48187990796102E-02 
1085	 1.38226193211449E-02 
1086	 1.36337190600912E-02 
1087	 1.39811138652195E-02 
1088	 1.39932782732451E-02 
1089	 1.44670001575724E-02 
1090	 1.46117143866312E-02 
1091	 1.44601645496199E-02 
1092	 1.36528726411384E-02 
1093	 1.34004396186017E-02 
1094	 1.31303212042018E-02 
1095	 1.31284153472301E-02 
1096	 1.34038120343404E-02 
1097	 0.013495821935571 
1098	 1.39416605317459E-02 
1099	 1.39860013901639E-02 
1100	 1.36837801930054E-02 
1101	 1.34990680043144E-02 
1102	 1.29371445051328E-02 
1103	 1.26796293242777E-02 
1104	 1.27515290883737E-02 
1105	 1.26267811308022E-02 
1106	 1.26362326333363E-02 
1107	 1.24201642357923E-02 
1108	 1.14011154806282E-02 
1109	 1.12659638603526E-02 
1110	 1.12443445686486E-02 
1111	 1.14805189254086E-02 
1112	 1.17265365278932E-02 
1113	 1.30452418370679E-02 
1114	 1.29522037271014E-02 
1115	 1.11498942244495E-02 
1116	 1.09444451640546E-02 
1117	 1.09019714600275E-02 
1118	 1.08177077263369E-02 
1119	 1.38065333789892E-02 
1120	 1.44083742117081E-02 
1121	 1.00527063439545E-02 
1122	 9.21005736552217E-03 
1123	 1.05427509862202E-02 
1124	 8.29133858056077E-03 
1125	 1.04373940003853E-02 
1126	 1.23592941485154E-02 
1127	 1.02717411735454E-02 
1128	 1.21205973037477E-02 
1129	 1.19538056024356E-02 
1130	 1.11592178280969E-02 
1131	 0.010868449816163 
1132	 9.52427878404606E-03 
1133	 1.00196521612375E-02 
1134	 1.28378817675603E-02 
1135	 1.27003039432751E-02 
1136	 1.22024334501682E-02 
1137	 0.011740757240671 
1138	 1.09780967228331E-02 
1139	 7.92479455667634E-03 
1140	 5.40347583734453E-03 
1141	 6.12959666116315E-03 
1142	 7.20142150169351E-03 
1143	 6.92695223527414E-03 
1144	 8.54554773058307E-03 
1145	 9.24920350839994E-03 
1146	 7.90236778074588E-03 
1147	 8.18327704480285E-03 
1148	 9.48970825145989E-03 
1149	 9.31869627038934E-03 
1150	 9.34748845349175E-03 
1151	 9.92474498706606E-03 
1152	 9.61009380575961E-03 
1153	 8.29475923316098E-03 
1154	 8.06941648489957E-03 
1155	 8.30651949319084E-03 
1156	 7.32949822807553E-03 
1157	 6.9317237241361E-03 
1158	 8.57872977941098E-03 
1159	 8.66157346251918E-03 
1160	 8.23002442103908E-03 
1161	 8.78884708810804E-03 
1162	 7.91527015843581E-03 
1163	 6.88481974187339E-03 
1164	 7.37537642800628E-03 
1165	 7.66361481966685E-03 
1166	 7.15537944478878E-03 
1167	 7.12698802048758E-03 
1168	 7.31330706607823E-03 
1169	 7.09009066178301E-03 
1170	 7.33185000125703E-03 
1171	 7.47967794748554E-03 
1172	 7.56199810454378E-03 
1173	 7.55614786846028E-03 
1174	 7.65827817588862E-03 
1175	 7.49845558249978E-03 
1176	 6.98464201645242E-03 
1177	 6.83160901671854E-03 
1178	 6.93787654664356E-03 
1179	 0.007353666870365 
1180	 7.95483620888643E-03 
1181	 8.04272060480902E-03 
1182	 7.5583462059117E-03 
1183	 7.22874438119736E-03 
1184	 7.07289435806295E-03 
1185	 6.99213661620192E-03 
1186	 7.37797910629627E-03 
1187	 7.41616295518637E-03 
1188	 6.70319592173482E-03 
1189	 6.60004604643013E-03 
1190	 7.0949394013008E-03 
1191	 7.07991696860113E-03 
1192	 6.96048997194999E-03 
1193	 7.02946216429651E-03 
1194	 7.1783130834761E-03 
1195	 6.83790266167917E-03 
1196	 6.63608000721355E-03 
1197	 7.15323025060851E-03 
1198	 7.49265684708302E-03 
1199	 7.12722196158344E-03 
1200	 6.92958150275877E-03 
1201	 7.03769653929487E-03 
1202	 7.02844956213716E-03 
1203	 6.94538011297226E-03 
1204	 7.10771772426493E-03 
1205	 7.31214569347257E-03 
1206	 7.09339197703628E-03 
1207	 7.01762968932222E-03 
1208	 7.20692513991291E-03 
1209	 6.97417138694276E-03 
1210	 6.7456475498443E-03 
1211	 7.01490222714591E-03 
1212	 7.28637371240098E-03 
1213	 7.45228900174748E-03 
1214	 7.43326793149961E-03 
1215	 7.37801167754717E-03 
1216	 7.01946576416081E-03 
1217	 6.98927210169541E-03 
1218	 7.1740322187023E-03 
1219	 7.06749744018352E-03 
1220	 7.14225950156475E-03 
1221	 7.1450184504046E-03 
1222	 6.78116743695212E-03 
1223	 6.86554952946736E-03 
1224	 7.27196287333226E-03 
1225	 7.1044149356335E-03 
1226	 6.65992498422453E-03 
1227	 6.74832997605725E-03 
1228	 6.96831656384733E-03 
1229	 6.91326768452448E-03 
1230	 7.08699543951428E-03 
1231	 7.30510223760677E-03 
1232	 7.03621118033635E-03 
1233	 6.79320280958839E-03 
1234	 6.92545141929007E-03 
1235	 6.98023546036537E-03 
1236	 6.91113141922656E-03 
1237	 6.90973064289581E-03 
1238	 7.06603194763338E-03 
1239	 7.13029509143202E-03 
1240	 6.95061114555945E-03 
1241	 6.80933600857212E-03 
1242	 6.83194114813262E-03 
1243	 6.87394702613094E-03 
1244	 6.81949918593204E-03 
1245	 6.79169779960402E-03 
1246	 6.91606686178237E-03 
1247	 6.92423348807991E-03 
1248	 6.93553319326723E-03 
1249	 6.96074396616472E-03 
1250	 6.76434471818244E-03 
1251	 6.65909845543271E-03 
1252	 6.75523200864597E-03 
1253	 6.93492246438176E-03 
1254	 7.08791286587401E-03 
1255	 7.03880795454112E-03 
1256	 7.04479222384843E-03 
1257	 6.98258015500379E-03 
1258	 6.91021121487322E-03 
1259	 6.79090119418837E-03 
1260	 6.77640904532286E-03 
1261	 6.77999306779066E-03 
1262	 6.74410192459745E-03 
1263	 6.77160219366962E-03 
1264	 6.82587926876243E-03 
1265	 6.82108152695696E-03 
1266	 6.75283443230401E-03 
1267	 6.77578203534086E-03 
1268	 6.99273574298388E-03 
1269	 7.20469725154334E-03 
1270	 7.12103948108835E-03 
1271	 6.96681187852785E-03 
1272	 6.86302001405284E-03 
1273	 6.81235553725785E-03 
1274	 6.79942073722862E-03 
1275	 6.62115614290113E-03 
1276	 6.57205650666467E-03 
1277	 6.63757073887473E-03 
1278	 6.45331115056048E-03 
1279	 6.60512452398692E-03 
1280	 7.02805356250319E-03 
1281	 7.02240082706824E-03 
1282	 6.64146969259815E-03 
1283	 6.64242052853706E-03 
1284	 6.56458708577935E-03 
1285	 6.50047584442479E-03 
1286	 6.78252456420839E-03 
1287	 6.82860814264815E-03 
1288	 6.52903785508537E-03 
1289	 6.53451740152959E-03 
1290	 6.75792194209349E-03 
1291	 6.78960934692778E-03 
1292	 6.58683351307851E-03 
1293	 6.62860704531819E-03 
1294	 6.65495137279585E-03 
1295	 6.42160185867382E-03 
1296	 6.26767655550163E-03 
1297	 6.46717915009058E-03 
1298	 6.59517303931331E-03 
1299	 6.36660225517044E-03 
1300	 0.006451527956556 
1301	 6.68166528138742E-03 
1302	 6.5666570275724E-03 
1303	 6.36326743214181E-03 
1304	 6.31930950163543E-03 
1305	 6.47697542598228E-03 
1306	 6.44546043519808E-03 
1307	 6.20827410091706E-03 
1308	 6.36536882824121E-03 
1309	 6.90125790462869E-03 
1310	 6.7254607558214E-03 
1311	 6.07895159065823E-03 
1312	 6.31017069612175E-03 
1313	 6.67784375351017E-03 
1314	 6.59642378504657E-03 
1315	 7.14638646864482E-03 
1316	 7.48329787074071E-03 
1317	 6.99941292219859E-03 
1318	 6.79963068998002E-03 
1319	 7.04233921223532E-03 
1320	 7.15214378476443E-03 
1321	 6.98609165211927E-03 
1322	 6.77249740605688E-03 
1323	 6.76282947489482E-03 
1324	 0.006923277686525 
1325	 6.68298570770263E-03 
1326	 6.00119047762365E-03 
1327	 5.85318062454413E-03 
1328	 6.49405827792858E-03 
1329	 6.6664167100966E-03 
1330	 6.57614151568162E-03 
1331	 7.43909299693736E-03 
1332	 7.75938827578838E-03 
1333	 7.48625522461085E-03 
1334	 7.35042996940357E-03 
1335	 7.33486079268856E-03 
1336	 6.60496754604578E-03 
1337	 6.96836473519402E-03 
1338	 9.25234790863893E-03 
1339	 9.29950529047771E-03 
1340	 7.25475154312627E-03 
1341	 7.05800710333429E-03 
1342	 6.32935282986063E-03 
1343	 6.58075749470236E-03 
1344	 1.19722136708098E-02 
1345	 0.013647102101335 
1346	 9.9457891447333E-03 
1347	 9.2490479974018E-03 
1348	 7.7083011100607E-03 
1349	 6.60525436314491E-03 
1350	 1.20952609785806E-02 
1351	 1.56717862022279E-02 
1352	 1.20428599655172E-02 
1353	 1.67126122365735E-02 
1354	 3.27421394727613E-02 
1355	 7.44921501777911E-02 
1356	 8.06112771078846E-02 
1357	 4.43891392468374E-02 
1358	 4.64525013627573E-02 
1359	-2.61800760524767E-03 
1360	-5.61946819011949E-02 
1361	 3.96866075670773E-02 
1362	 0.123931770464578 
1363	 7.23810200020869E-02 
1364	 8.59146051822869E-02 
1365	 0.12292147583274 
1366	 4.58496986754877E-02 
1367	 4.63167665583834E-02 
1368	 3.38478319427369E-02 
1369	 0.19915119198043 
1370	 0.234760375338094 
1371	 0.160615772769511 
1372	 0.102745577764316 
1373	-4.68625882711337E-02 
1374	-2.58434923431084E-02 
1375	 7.18440849243696E-03 
1376	-0.048746277941257 
1377	 0.142983707590042 
1378	 0.238508789602495 
1379	 7.95105438687859E-02 
1380	 0.162048909780009 
1381	 0.782752078669723 
1382	 0.875392143490424 
1383	 0.70296247934053 
1384	 0.889410879830919 
1385	 1.34058593554758 
1386	 0.854968236130038 
1387	 0.068408624916826 
1388	-3.51386679856381E-03 
1389	-0.128632669670339 
1390	-0.400175097652586 
1391	-0.411350087781073 
1392	 6.36265468157217E-02 
1393	-0.196089307211384 
1394	-0.955299108617908 
1395	-0.22861253292467 
1396	 0.632594709318987 
1397	 0.729926280757823 
1398	 0.789234674585826 
1399	 0.751185225120202 
1400	 0.362772358695406 
1401	-0.203710091506668 
1402	 2.63296947870884E-02 
1403	 0.248532210529315 
1404	-1.65727802975121E-02 
1405	 5.54413320068301E-02 
1406	 0.58327426324618 
1407	 0.642050345220025 
1408	 0.656314628152095 
1409	 0.576122383960208 
1410	 0.43115181331783 
1411	 0.291448073475649 
1412	 7.92570380216238E-02 
1413	 8.55087811965897E-02 
1414	 0.158785655671651 
1415	 0.115898935959497 
1416	 8.94244881172547E-02 
1417	 0.114394941986239 
1418	 0.109467026546022 
1419	 5.04689855407937E-02 
1420	 2.51850646439564E-02 
1421	 2.71630347299317E-02 
1422	-2.49557485190139E-02 
1423	-2.72185795363424E-02 
1424	 2.79426609291383E-02 
1425	 3.55330655265127E-02 
1426	 9.80798500535212E-04 
1427	 0.012334488311394 
1428	 7.88388961459767E-02 
1429	 6.88807334688857E-02 
1430	 6.62896293717706E-03 
1431	 6.23815749201199E-03 
1432	 1.33188613373576E-02 
1433	-5.79835290019871E-03 
1434	-3.31415768338086E-03 
1435	 1.13458703263753E-02 
1436	 1.04885945957838E-02 
1437	-1.42327380053309E-02 
1438	 7.44608851902365E-04 
1439	 1.97549667323041E-02 
1440	 1.74113095218106E-02 
1441	 1.66978154407247E-02 
1442	 3.11875919397219E-02 
1443	 4.06951848410687E-02 
1444	 0.030507747379772 
1445	 2.60001507100041E-02 
1446	 2.91432175407867E-02 
1447	 2.69241222766139E-02 
1448	 0.022785376671574 
1449	 1.64406755625896E-02 
1450	 8.73778021138876E-03 
1451	 8.02603815005008E-03 
1452	 1.19050582511672E-02 
1453	 1.40827832160095E-02 
1454	 1.32320048421526E-02 
1455	 9.72938912401461E-03 
1456	 8.88920294318618E-03 
1457	 8.11110974860904E-03 
1458	 7.18490332788792E-03 
1459	 6.64016380900147E-03 
1460	 7.18206851253465E-03 
1461	 7.76300775240627E-03 
1462	 7.68467611261304E-03 
1463	 8.75780100247437E-03 
1464	 9.31312797295938E-03 
1465	 8.39156175093739E-03 
1466	 8.37992337730197E-03 
1467	 1.03645466858583E-02 
1468	 9.3647732637929E-03 
1469	 4.54077688762099E-03 
1470	 4.76827700290917E-03 
1471	 7.43540310435733E-03 
1472	 7.35163186028007E-03 
1473	 8.79152712547251E-03 
1474	 9.44298403715253E-03 
1475	 7.51915261911301E-03 
1476	 6.71469608171477E-03 
1477	 6.79725116470762E-03 
1478	 7.65885640340617E-03 
1479	 9.3546412150232E-03 
1480	 8.62913292813546E-03 
1481	 7.01689127326319E-03 
1482	 7.15590046499128E-03 
1483	 7.64784595072273E-03 
1484	 6.45230617578362E-03 
1485	 4.74149752560202E-03 
1486	 5.01507051863239E-03 
1487	 4.76503544542997E-03 
1488	 4.76621171091913E-03 
1489	 6.87995546822851E-03 
1490	 7.22195319381003E-03 
1491	 6.16244994655668E-03 
1492	 5.67359552593381E-03 
1493	 5.14724095042391E-03 
1494	 5.01450086457218E-03 
1495	 4.88325400299759E-03 
1496	 4.8776219082092E-03 
1497	 5.18942581628162E-03 
1498	 5.43849128512423E-03 
1499	 5.84864251485815E-03 
1500	 5.95485155216399E-03 
1501	 6.05167676878704E-03 
1502	 5.89064317499623E-03 
1503	 5.13064672498618E-03 
1504	 4.97687912520402E-03 
1505	 5.06578949910371E-03 
1506	 5.05279980648299E-03 
1507	 5.24532540440584E-03 
1508	 5.56451716545393E-03 
1509	 5.48129018395942E-03 
1510	 5.25107584016754E-03 
1511	 5.27564824970097E-03 
1512	 5.32856638930095E-03 
1513	 5.60363125674019E-03 
1514	 5.8436589548256E-03 
1515	 5.46319560963055E-03 
1516	 5.21980111517265E-03 
1517	 5.33916128817964E-03 
1518	 5.34867150109475E-03 
1519	 5.53639098752519E-03 
1520	 5.71689344725129E-03 
1521	 5.72016333242203E-03 
1522	 5.55616064818432E-03 
1523	 5.28642996619215E-03 
1524	 5.19768392379239E-03 
1525	 4.91784552536652E-03 
1526	 4.79667018596309E-03 
1527	 5.21775296843844E-03 
1528	 5.49677233886163E-03 
1529	 5.58366978001593E-03 
1530	 5.64615597032839E-03 
1531	 5.51322273749876E-03 
1532	 5.49210553142539E-03 
1533	 5.5877152686403E-03 
1534	 5.58656049187733E-03 
1535	 5.55583170656336E-03 
1536	 5.32411527734236E-03 
1537	 5.05864770352674E-03 
1538	 4.99662744047904E-03 
1539	 5.04808489279111E-03 
1540	 5.06401224008926E-03 
1541	 4.99016726839066E-03 
1542	 5.10435276416136E-03 
1543	 5.21178334641792E-03 
1544	 5.16898380846739E-03 
1545	 5.37997330871745E-03 
1546	 5.36733096071404E-03 
1547	 5.06093766538347E-03 
1548	 5.14924593673529E-03 
1549	 5.1496749527828E-03 
1550	 5.07218549189912E-03 
1551	 5.14747835077459E-03 
1552	 5.13713153267806E-03 
1553	 5.38127424430478E-03 
1554	 5.34932987601956E-03 
1555	 5.11851594295498E-03 
1556	 5.16634267124347E-03 
1557	 5.10358762874426E-03 
1558	 5.10311066791646E-03 
1559	 5.09147227495656E-03 
1560	 5.11681043434556E-03 
1561	 5.26475525625895E-03 
1562	 5.03204173754549E-03 
1563	 4.88581290252289E-03 
1564	 5.21536396358043E-03 
1565	 5.35477049358924E-03 
1566	 5.33807447002527E-03 
1567	 5.28494132865507E-03 
1568	 5.21896682252032E-03 
1569	 5.32263649446895E-03 
1570	 5.21541726055633E-03 
1571	 5.04120284384092E-03 
1572	 5.14439536412391E-03 
1573	 5.53473645501785E-03 
1574	 5.74585518438554E-03 
1575	 5.56822930472613E-03 
1576	 5.56192129519215E-03 
1577	 5.34359396912584E-03 
1578	 4.93981544043756E-03 
1579	 5.27249889719405E-03 
1580	 5.6547603017738E-03 
1581	 5.32138242262495E-03 
1582	 5.2251077139836E-03 
1583	 5.3836916450578E-03 
1584	 5.05383014865226E-03 
1585	 4.82319444748811E-03 
1586	 5.01738340701292E-03 
1587	 5.0719964593105E-03 
1588	 5.06084705793702E-03 
1589	 5.25106110797286E-03 
1590	 5.26162453489942E-03 
1591	 5.06422221386399E-03 
1592	 4.96944668830585E-03 
1593	 5.1001158910728E-03 
1594	 5.28620890128304E-03 
1595	 5.13742783578412E-03 
1596	 4.97264980653544E-03 
1597	 5.06962084773592E-03 
1598	 5.0157153171059E-03 
1599	 5.14600971773896E-03 
1600	 5.55121742951418E-03 
1601	 5.54971396995343E-03 
1602	 5.33282152578608E-03 
1603	 5.33902150934084E-03 
1604	 5.53635210286769E-03 
1605	 5.57263223740271E-03 
1606	 5.26178297894979E-03 
1607	 5.06151612233235E-03 
1608	 5.24820339907756E-03 
1609	 5.50498056077723E-03 
1610	 5.47544099278119E-03 
1611	 5.23964115501813E-03 
1612	 5.14662631064668E-03 
1613	 5.05248022957996E-03 
1614	 4.88880710545376E-03 
1615	 5.07506115472019E-03 
1616	 5.04208971273122E-03 
1617	 4.67528411299215E-03 
1618	 4.99949999610817E-03 
1619	 5.29161908414768E-03 
1620	 5.06276713533253E-03 
1621	 5.17791838567534E-03 
1622	 0.005185482484986 
1623	 4.85531782514515E-03 
1624	 4.88758781071641E-03 
1625	 5.07190475976344E-03 
1626	 5.01902307171379E-03 
1627	 5.13542404110511E-03 
1628	 5.45909779584166E-03 
1629	 5.36363666591358E-03 
1630	 5.13600159336715E-03 
1631	 5.38900110082667E-03 
1632	 5.40986582217132E-03 
1633	 5.14483270608711E-03 
1634	 5.31565637620706E-03 
1635	 5.32444644084088E-03 
1636	 5.22296042069298E-03 
1637	 5.26126328023856E-03 
1638	 4.96073495428616E-03 
1639	 4.77598430232163E-03 
1640	 4.82277854569925E-03 
1641	 4.94380264470444E-03 
1642	 5.1550925826427E-03 
1643	 5.10841023865922E-03 
1644	 4.92316136525195E-03 
1645	 4.83236903886126E-03 
1646	 4.73754993455712E-03 
1647	 4.79980344393539E-03 
1648	 4.88010580441471E-03 
1649	 4.80184107748246E-03 
1650	 4.91728310885549E-03 
1651	 4.90186371392808E-03 
1652	 4.7266045611477E-03 
1653	 4.54024396059845E-03 
1654	 4.57845394954583E-03 
1655	 4.95147240952635E-03 
1656	 4.93405220798212E-03 
1657	 4.91723379637895E-03 
1658	 5.11749474617529E-03 
1659	 5.1175915532875E-03 
1660	 4.95758728358947E-03 
1661	 4.87503249029739E-03 
1662	 4.79716781411922E-03 
1663	 4.3905121914294E-03 
1664	 4.45051180194498E-03 
1665	 5.23496965261327E-03 
1666	 5.06569116036018E-03 
1667	 4.15163303570346E-03 
1668	 4.86388261433979E-03 
1669	 4.81556352515803E-03 
1670	 4.47659214241766E-03 
1671	 5.10587194178396E-03 
1672	 5.01781936294368E-03 
1673	 4.37140407558898E-03 
1674	 5.08410727606309E-03 
1675	 5.43929655807354E-03 
1676	 4.57924382468385E-03 
1677	 4.75425987447557E-03 
1678	 5.26167322362643E-03 
1679	 4.90925403802297E-03 
1680	 4.83271210124536E-03 
1681	 4.56637111535714E-03 
1682	 3.98702462094028E-03 
1683	 4.33749459070798E-03 
1684	 5.18082100092515E-03 
1685	 5.55535763941303E-03 
1686	 0.005284201601444 
1687	 4.60777833097164E-03 
1688	 4.40551188597926E-03 
1689	 4.94970575548962E-03 
1690	 5.35058869318018E-03 
1691	 5.09693871760714E-03 
1692	 4.69742860638429E-03 
1693	 4.69228244071786E-03 
1694	 4.7099621091733E-03 
1695	 4.93410299036627E-03 
1696	 5.31254693270621E-03 
1697	 4.93512177619353E-03 
1698	 4.69346740432567E-03 
1699	 5.00643885519045E-03 
1700	 4.75121514274459E-03 
1701	 4.1113635408527E-03 
1702	 4.03589727452853E-03 
1703	 4.68885283289728E-03 
1704	 5.18391333518632E-03 
1705	 5.05980477939641E-03 
1706	 4.98295457551929E-03 
1707	 4.71301702477922E-03 
1708	 4.26086519866903E-03 
1709	 4.87221766918077E-03 
1710	 5.57207949216914E-03 
1711	 4.75792933458593E-03 
1712	 4.09127968563953E-03 
1713	 4.27102470392868E-03 
1714	 4.0281544861481E-03 
1715	 4.47386287053401E-03 
1716	 4.54639864762888E-03 
1717	 4.17880781173967E-03 
1718	 4.24162745346167E-03 
1719	 4.32833375867764E-03 
1720	 4.66386487733752E-03 
1721	 4.87722496247297E-03 
1722	 4.54863414479941E-03 
1723	 4.43090059775897E-03 
1724	 4.05386052217983E-03 
1725	 3.81872722976103E-03 
1726	 4.76390646556667E-03 
1727	 5.09060967564402E-03 
1728	 4.77078695127185E-03 
1729	 4.84257685619018E-03 
1730	 4.30935029974769E-03 
1731	 3.8551361285301E-03 
1732	 4.29416148974924E-03 
1733	 4.1302378007525E-03 
1734	 3.75370631472378E-03 
1735	 4.35066555310415E-03 
1736	 4.8082124764183E-03 
1737	 4.97220670768225E-03 
1738	 5.01202159220939E-03 
1739	 4.74567515701263E-03 
1740	 4.59482803607005E-03 
1741	 4.47192767655196E-03 
1742	 4.8610792915684E-03 
1743	 5.27433580415322E-03 
1744	 4.75657157742921E-03 
1745	 4.48481485736326E-03 
1746	 4.92067103371863E-03 
1747	 4.96855091708743E-03 
1748	 5.36758925830867E-03 
1749	 5.29699363579853E-03 
1750	 4.41615772010936E-03 
1751	 4.13681317908064E-03 
1752	 3.91765558641139E-03 
1753	 3.98632438067874E-03 
1754	 4.74256403178634E-03 
1755	 4.95393805420794E-03 
1756	 5.06872868736899E-03 
1757	 4.69015597967948E-03 
1758	 3.91141350363329E-03 
1759	 3.75022212401346E-03 
1760	 3.65467510627379E-03 
1761	 3.79259764036184E-03 
1762	 4.32206775800064E-03 
1763	 4.63715335409037E-03 
1764	 5.73675648723702E-03 
1765	 5.80295164682326E-03 
1766	 4.61730445763853E-03 
1767	 4.19613451362137E-03 
1768	 3.49252248410751E-03 
1769	 3.53437061625494E-03 
1770	 5.52790497618029E-03 
1771	 6.08492021047691E-03 
1772	 4.69462182884519E-03 
1773	 4.11016286845571E-03 
1774	 3.48083538797679E-03 
1775	 3.32095657250934E-03 
1776	 3.77679477274898E-03 
1777	 5.55623131680979E-03 
1778	 6.15592789247421E-03 
1779	 6.85217290339966E-03 
1780	 6.34682344080211E-03 
1781	 2.78803657476429E-03 
1782	 1.5838464667714E-03 
1783	 1.15341152631924E-03 
1784	 1.84638733315279E-03 
1785	 5.91301065205924E-03 
1786	 6.76146794699621E-03 
1787	 5.18228582224419E-03 
1788	 5.11534887555704E-03 
1789	 4.11966551231051E-03 
1790	 4.27198962076122E-03 
1791	 8.55239363424334E-03 
1792	 8.95413350735203E-03 
1793	 4.62144057927566E-03 
1794	 2.32728678370163E-03 
1795	-5.65372888767141E-05 
1796	-2.43332165364542E-03 
1797	 2.72520827882719E-03 
1798	 9.65904924270322E-03 
1799	 8.75945640004887E-03 
1800	 4.79896920818324E-03 
1801	 8.86055572289753E-03 
1802	 1.95650968996646E-02 
1803	 2.83435880930974E-02 
1804	 5.48472972769921E-02 
1805	 7.21428977524561E-02 
1806	 6.51706823341992E-02 
1807	 6.51658287916488E-02 
1808	 5.75456963510908E-02 
1809	 4.40048232420169E-02 
1810	-4.63273665321851E-03 
1811	-1.25928182531179E-02 
1812	 3.05478403972392E-02 
1813	 7.82449812937418E-02 
1814	 0.218487814451585 
1815	 0.218883462413126 
1816	 8.08402191500163E-02 
1817	-7.63103420402524E-02 
1818	-0.409072727666595 
1819	-3.90544771574284E-02 
1820	 0.101084138525101 
1821	-4.23923133277696E-02 
1822	-0.028078233671585 
1823	-1.270796932021 
1824	-2.13292985746956 
1825	 0.201068908490712 
1826	 0.516693436759881 
1827	 0.73828134834764 
1828	 0.681413624744857 
1829	 0.216967283638144 
1830	-2.21408727888678E-02 
1831	 7.86867066984089E-02 
1832	 0.129090786617143 
1833	 0.479998831420591 
1834	 0.468135567508054 
1835	-9.97021264869867E-02 
1836	-0.274318184780699 
1837	-0.504785568995556 
1838	-0.458431846606999 
1839	-7.92105116144064E-02 
1840	 0.204130408124772 
1841	-0.15695870629978 
1842	-7.29511292858849E-03 
1843	-6.89530822710373E-02 
1844	-0.75958949428215 
1845	-1.63444399960565 
1846	 3.8020928364485 
1847	 1.7674889266519 
1848	 4.19181734655353 
1849	 1.71688187522869 
1850	 3.21606748118045 
1851	 1.51935704625368 
1852	 0.269322666526394 
1853	-0.61869412846809 
1854	-1.25997057672393 
1855	-1.25998878147882 
1856	-1.58255638991669 
1857	 13.9223675307321 
1858	 15.290166530551 
1859	-1.87470377061279 
1860	 0.237470122188078 
1861	 0.288815292012738 
1862	-7.58965642498321E-02 
1863	-1.05427156189684 
1864	 32.6163463604267 
1865	 9.93847425013465 
1866	-2.9516273913022 
1867	-1.76386730518898 
1868	-0.688895328098916 
1869	-0.48046212288265 
1870	-0.77121269572422 
1871	-0.177863205919328 
1872	 0.055225590103082 
1873	 0.116418270387359 
1874	 0.309567635952615 
1875	 0.937293794537508 
1876	 1.06115559375897 
1877	 0.112883813283888 
1878	 0.105098856023881 
1879	 0.493246411263655 
1880	 0.228202032918432 
1881	-0.263705504651453 
1882	 0.570635567318719 
1883	 1.3446051757568 
1884	 0.221384438745939 
1885	 0.425288057518397 
1886	 4.47105482002997 
1887	 5.49309827865995 
1888	 3.03295666989375 
1889	 1.71846836363802 
1890	 5.94210839558969 
1891	 0.68690703339573 
1892	-0.931863499594007 
1893	-0.67432383869741 
1894	-0.800495825964777 
1895	-0.590889346427605 
1896	-5.86647133914665 
1897	-1.42285672203928 
1898	-1.40783441912742 
1899	-0.878532137908229 
1900	-0.830542385462122 
1901	-3.25690983137232 
1902	-12.767576640592 
1903	 10.0184514548516 
1904	-1.99086040232633 
1905	-4.2110413391751 
1906	 2.70596230062317 
1907	-0.489043688035751 
1908	 5.9457207301305 
1909	-1.72483167643872 
1910	-23.0578927998489 
1911	-1.30355414969564 
1912	-1.08364447526548 
1913	-1.28010217348285 
1914	-10.375527423534 
1915	-8.05320625485071 
1916	-2.11984908508324 
1917	-8.72319741757489E-02 
1918	-9.93977201254343 
1919	-0.59347873400936 
1920	-0.612332015187321 
1921	-1.72444443760039 
1922	-2.13555432977948 
1923	-0.729502778809097 
1924	-0.379912225359602 
1925	-0.667224650949658 
1926	-0.669588984114522 
1927	-0.572153380199463 
1928	-0.323249371248261 
1929	-0.414592377491698 
1930	-1.33643518579446 
1931	-7.42618273432203 
1932	 34.7404052743621 
1933	 1.70545410073462 
1934	 1.95380607788048 
1935	-0.123196150428364 
1936	-0.579401907589685 
1937	-0.129885526268627 
1938	-0.228437890823275 
1939	-0.113898857342471 
1940	 5.78678604480427E-02 
1941	-4.48198870334149E-02 
1942	-3.93224128842846E-02 
1943	 6.48989921004245E-03 
1944	-8.98375755691755E-02 
1945	-0.027293851316591 
1946	 3.24752073944361E-02 
1947	 0.089909024165934 
1948	 0.115374221370913 
1949	 9.45141270438063E-02 
1950	 6.43110273226458E-02 
1951	 3.26469907677933E-02 
1952	 2.61654169686647E-02 
1953	 3.36129553363298E-02 
1954	 1.89680124722659E-02 
1955	 2.30063892580107E-02 
1956	 2.70778342332702E-02 
1957	 2.29530520734273E-03 
1958	-1.70346216478665E-03 
1959	-3.09381999998936E-03 
1960	-1.08881401171985E-02 
1961	-1.62539458688737E-03 
1962	 6.44914972089513E-03 
1963	 0.010262285180348 
1964	 1.63911204093314E-02 
1965	 1.14263410704414E-02 
1966	 0.010136282520208 
1967	 7.04050279165261E-03 
1968	 1.03845131373916E-02 
1969	 1.19031036656759E-02 
1970	 0.013603485272844 
1971	 1.37698408624389E-02 
1972	 8.97107618300761E-03 
1973	 3.69882957039135E-03 
1974	 4.8597832171084E-04 
1975	 3.05449118752485E-04 
1976	 2.60107979555165E-03 
1977	 3.91969218344952E-03 
1978	 4.0854933500114E-03 
1979	 5.11764825770626E-03 
1980	 6.21918814079708E-03 
1981	 6.29392512178732E-03 
1982	 5.92686435090427E-03 
1983	 6.85659628246156E-03 
1984	 6.92344045232443E-03 
1985	 5.28772516257956E-03 
1986	 4.38350237146665E-03 
1987	 4.59188782005181E-03 
1988	 4.3738624306866E-03 
1989	 3.67718362621014E-03 
1990	 2.48517795300145E-03 
1991	 9.46573683006379E-04 
1992	-3.93609048990805E-05 
1993	 1.11363592670832E-04 
1994	 8.57785187096549E-04 
1995	 3.45696768414668E-03 
1996	 7.33312328911306E-03 
1997	 1.06755483659204E-02 
1998	 1.03614578757291E-02 
1999	 9.36945686665376E-03 
2000	 7.45812153988032E-03 
2001	 3.26436682686624E-03 
2002	 2.84448645912922E-03 
2003	 3.3709085205707E-03 
2004	 7.790354789772E-04 
2005	-7.71503335293575E-04 
2006	 2.09866898498968E-03 
2007	 5.83834809724585E-03 
2008	 7.79586476160361E-03 
2009	 8.80326843458796E-03 
2010	 6.73421304364468E-03 
2011	 6.25576468623213E-03 
2012	 3.88734284079409E-03 
2013	 8.72099843007335E-03 
2014	 0.010144218442579 
2015	 5.87590250965279E-03 
2016	 8.53561686510062E-03 
2017	 7.61146400867134E-03 
2018	 5.5012465004993E-03 
2019	 1.00336895741287E-02 
2020	 8.41093478081857E-03 
2021	 5.12074430502375E-03 
2022	 4.83816396517905E-03 
2023	 4.82278183849948E-03 
2024	 4.81976632772115E-03 
2025	 5.2576463670395E-03 
2026	 5.32473173215479E-03 
2027	 5.27836203069021E-03 
2028	 5.49662627936331E-03 
2029	 5.25662986315288E-03 
2030	 6.05881495649121E-03 
2031	 6.59296033165899E-03 
2032	 6.22389922283304E-03 
2033	 6.79623396178818E-03 
2034	 7.0610136405049E-03 
2035	 6.34057134647605E-03 
2036	 6.8334192927884E-03 
2037	 7.46371283041251E-03 
2038	 6.90503920358144E-03 
2039	 6.7148532511218E-03 
2040	 7.47767146525977E-03 
2041	 7.06428906112181E-03 
2042	 5.32597042610864E-03 
2043	 4.73104678470655E-03 
2044	 4.31769313702475E-03 
2045	 3.85426101660949E-03 
2046	 4.47254513643615E-03 
2047	 4.65108562643024E-03 
2048	 4.69007822677062E-03 
2049	 4.24210711049145E-03 
2050	 4.63407906651888E-03 
2051	 6.2129849039644E-03 
2052	 6.03857999291095E-03 
2053	 5.41974617072263E-03 
2054	 4.49574229542089E-03 
2055	 3.28197138911301E-03 
2056	 3.26109716013774E-03 
2057	 5.60388978754348E-03 
2058	 6.5125077070814E-03 
2059	 7.68222150154243E-03 
2060	 7.99257296257561E-03 
2061	 7.51388509300355E-03 
2062	 7.35632674267641E-03 
2063	 7.52640932482865E-03 
2064	 5.3219487095538E-03 
2065	 3.7190057449677E-03 
2066	 4.56170338567363E-03 
2067	 4.94473682414887E-03 
2068	 5.2491346508464E-03 
2069	 6.7739664105434E-03 
2070	 6.85855080159039E-03 
2071	 6.01977071418336E-03 
2072	 6.48081469728027E-03 
2073	 6.36694570163149E-03 
2074	 5.64632250626252E-03 
2075	 5.11907253878713E-03 
2076	 4.83339353920979E-03 
2077	 4.75957971666276E-03 
2078	 4.48512577944252E-03 
2079	 4.2117699747527E-03 
2080	 4.52729971902133E-03 
2081	 4.04432785397792E-03 
2082	 3.26225790487626E-03 
2083	 3.4299593405756E-03 
2084	 2.45839159501088E-03 
2085	 1.96354136777205E-03 
2086	 2.5778526911648E-03 
2087	 3.12160144772147E-03 
2088	 5.03709544496378E-03 
2089	 5.62678336369276E-03 
2090	 4.20669982723978E-03 
2091	 4.04688170666216E-03 
2092	 4.22343575043943E-03 
2093	 4.70276746139332E-03 
2094	 5.17134203164582E-03 
2095	 6.29317139715557E-03 
2096	 6.71332119028913E-03 
2097	 7.00707639467511E-03 
2098	 7.22213771183743E-03 
2099	 7.41922091301231E-03 
2100	 7.0796300243336E-03 
2101	 6.92061473683643E-03 
2102	 6.01591900623986E-03 
2103	 5.72443019566796E-03 
2104	 6.15935681226256E-03 
2105	 6.58789404137575E-03 
2106	 7.40284402943628E-03 
2107	 8.24789112717543E-03 
2108	 8.76916169220091E-03 
2109	 8.61679832069624E-03 
2110	 8.08071869462575E-03 
2111	 7.85598135144607E-03 
2112	 7.7812047059253E-03 
2113	 7.3700947427561E-03 
2114	 7.01836218045654E-03 
2115	 7.07797040669258E-03 
2116	 6.57440302799694E-03 
2117	 6.76844487196911E-03 
2118	 8.44937984354255E-03 
2119	 8.78958258868424E-03 
2120	 8.78028492215638E-03 
2121	 8.48561560433517E-03 
2122	 6.79941522044334E-03 
2123	 5.40412924957792E-03 
2124	 5.04704119411995E-03 
2125	 4.64605464994892E-03 
2126	 6.01841025437672E-03 
2127	 7.93089619008548E-03 
2128	 7.73050682530366E-03 
2129	 7.64063590173556E-03 
2130	 7.5470104475443E-03 
2131	 6.29752980129606E-03 
2132	 6.26484501733923E-03 
2133	 7.30816664514154E-03 
2134	 7.61255801561457E-03 
2135	 8.1707252704376E-03 
2136	 7.82053636567368E-03 
2137	 6.35360448461187E-03 
2138	 5.79413998542332E-03 
2139	 4.92523357053196E-03 
2140	 4.70003183187929E-03 
2141	 5.4810813984711E-03 
2142	 5.6557983903142E-03 
2143	 5.93809155805785E-03 
2144	 5.58519904370495E-03 
2145	 5.08494258448576E-03 
2146	 5.9587825885589E-03 
2147	 5.51616812689744E-03 
2148	 5.19767993564222E-03 
2149	 5.9307236027784E-03 
2150	 5.88140039152925E-03 
2151	 5.86452663090667E-03 
2152	 6.42177998636509E-03 
2153	 6.7302667047526E-03 
2154	 4.68485602488015E-03 
2155	 2.58126642673304E-03 
2156	 2.92526848011008E-03 
2157	 3.3579300921253E-03 
2158	 4.17025952512602E-03 
2159	 4.9406602789084E-03 
2160	 7.45540131788914E-03 
2161	 7.88223804434943E-03 
2162	 6.77096884263145E-03 
2163	 6.38282759865972E-03 
2164	 5.10204547335206E-03 
2165	 4.58906574262766E-03 
2166	 4.92868567729439E-03 
2167	 4.81662163977932E-03 
2168	 4.81073198271112E-03 
2169	 5.1934398802647E-03 
2170	 5.61913349699815E-03 
2171	 5.25229470869988E-03 
2172	 6.43038057656608E-03 
2173	 6.71201277230359E-03 
2174	 6.39547223005039E-03 
2175	 6.50432619705141E-03 
2176	 6.01491006153324E-03 
2177	 6.70839278732463E-03 
2178	 7.28298802966927E-03 
2179	 7.2455410381085E-03 
2180	 8.57703660297698E-03 
2181	 8.10568778153992E-03 
2182	 6.7642649151374E-03 
2183	 7.25486481827991E-03 
2184	 7.22844814655352E-03 
2185	 8.06050294156987E-03 
2186	 8.62930082984834E-03 
2187	 9.51158200866231E-03 
2188	 1.04282279811586E-02 
2189	 1.25372816547893E-02 
2190	 1.19311800662237E-02 
2191	 9.34099231238583E-03 
2192	 8.38020043500848E-03 
2193	 5.33278615768258E-03 
2194	 4.32370860985389E-03 
2195	 7.34463638055042E-03 
2196	 8.00895891481086E-03 
2197	 6.78791236760269E-03 
2198	 6.92729621948831E-03 
2199	 7.29322787453802E-03 
2200	 7.12546224297697E-03 
2201	 8.0185189042807E-03 
2202	 9.93031433642707E-03 
2203	 1.07624824017036E-02 
2204	 8.08333653602822E-03 
2205	 4.57133003106511E-03 
2206	 3.54392528182291E-03 
2207	 2.23884395394198E-03 
2208	 1.46655890649737E-03 
2209	 2.64928349278814E-03 
2210	 2.41201619069056E-03 
2211	 2.9220944193797E-03 
2212	 5.86706295730201E-03 
2213	 7.54526249632751E-03 
2214	 8.29125777546001E-03 
2215	 7.60942811831279E-03 
2216	 4.83550158090942E-03 
2217	 3.59773934664477E-03 
2218	 2.70281971906828E-03 
2219	 2.46039901261777E-03 
2220	 2.75975165919245E-03 
2221	 3.4243498909667E-03 
2222	 5.73448424575265E-03 
2223	 6.16733473098875E-03 
2224	 4.95420439704727E-03 
2225	 4.68939952315207E-03 
2226	 4.03449342969527E-03 
2227	 3.65630066925628E-03 
2228	 4.70397858474809E-03 
2229	 5.51944184019194E-03 
2230	 5.47678122480504E-03 
2231	 5.69202651058563E-03 
2232	 5.94055361180682E-03 
2233	 6.16641133253591E-03 
2234	 6.08417879853798E-03 
2235	 8.14335395470551E-03 
2236	 8.72585356752809E-03 
2237	 7.03753283485219E-03 
2238	 4.99154062455342E-03 
2239	 2.31706024162417E-03 
2240	-1.49060578722927E-03 
2241	-2.67507854704331E-03 
2242	 2.11082394947902E-04 
2243	 1.55544175113084E-03 
2244	 1.71832822462796E-03 
2245	 3.32652889607475E-03 
2246	 2.44699167587998E-03 
2247	-7.14387834838547E-04 
2248	-1.55614236459514E-03 
2249	 8.93364261899514E-05 
2250	 7.80950857470614E-04 
2251	 1.43377371410519E-03 
2252	 4.15302169799397E-03 
2253	 5.52810814228039E-03 
2254	 4.69924194950875E-03 
2255	 4.60687490297746E-03 
2256	 6.11902478288002E-03 
2257	 7.25160265872345E-03 
2258	 6.94315562533006E-03 
2259	 7.63570433060766E-03 
2260	 8.85484358307471E-03 
2261	 8.69071350386575E-03 
2262	 8.91847986561999E-03 
2263	 1.25394046974693E-02 
2264	 1.17321706452075E-02 
2265	 5.6405138439128E-03 
2266	 4.11089595256768E-03 
2267	 3.49672010761991E-03 
2268	 3.49764125552019E-03 
2269	 5.62794711305988E-03 
2270	 7.13942948711067E-03 
2271	 9.24143138126211E-03 
2272	 9.07686454977411E-03 
2273	 8.60759659371743E-03 
2274	 8.71641966890501E-03 
2275	 6.76698096829049E-03 
2276	 5.72090394185804E-03 
2277	 5.66818030018494E-03 
2278	 5.39843012289542E-03 
2279	 4.29023808248469E-03 
2280	 3.67230564272509E-03 
2281	 4.16851706822508E-03 
2282	 4.85176560310432E-03 
2283	 0.001322176178016 
2284	 2.40710545070241E-03 
2285	 5.24896392467508E-03 
2286	 5.14113675602868E-03 
2287	 2.52146200202623E-03 
2288	 2.03124837127115E-05 
2289	 2.22964942568274E-04 
2290	-1.39113609979632E-03 
2291	 3.0731107660678E-04 
2292	 4.58835226446149E-03 
2293	 3.67910991372085E-03 
2294	 4.67701283211294E-03 
2295	 8.10989061904228E-03 
2296	 6.85738417695102E-03 
2297	 1.94958799771276E-03 
2298	-2.34613170466509E-03 
2299	-1.38587500687232E-03 
2300	 2.34567341984162E-03 
2301	 7.55795408928165E-03 
2302	 1.13048087586847E-02 
2303	 8.21238710195943E-03 
2304	 6.20291561249135E-03 
2305	 7.01087027380889E-03 
2306	 4.75595211493775E-03 
2307	 4.41967241842587E-03 
2308	 6.32485969074333E-03 
2309	 3.79592476179972E-03 
2310	 8.44291513564644E-04 
2311	 3.1094695149612E-04 
2312	-4.07778603050143E-03 
2313	-8.68000945342972E-03 
2314	-5.73565805533011E-03 
2315	-1.74386179692878E-03 
2316	-3.1830942263335E-04 
2317	-2.40427416159323E-03 
2318	-9.31192847204021E-03 
2319	-8.99365625745058E-03 
2320	-4.06454433684465E-03 
2321	 6.80834624320612E-05 
2322	 6.28094372253297E-03 
2323	 6.20012462905522E-03 
2324	 4.52547122768123E-03 
2325	 5.85327615929924E-03 
2326	 1.17363814107007E-02 
2327	 1.34498644459207E-02 
2328	 8.25995252483652E-03 
2329	 1.11395574240247E-02 
2330	 1.17881824499714E-02 
2331	 8.16418185954139E-03 
2332	 3.82701981671665E-03 
2333	 2.68101175726771E-05 
2334	 8.44013552262329E-04 
2335	 8.96758031318294E-04 
2336	 6.55667362493581E-03 
2337	 1.27821575693059E-02 
2338	 9.83194126795144E-03 
2339	 1.26837600419349E-02 
2340	 1.55255768499431E-02 
2341	 8.40180669287615E-03 
2342	 1.16122650269154E-02 
2343	 8.85513737558366E-03 
2344	-3.9053126916597E-03 
2345	 5.78781789831804E-03 
2346	 4.8003915054334E-03 
2347	-6.76580206800273E-03 
2348	 7.0635824879764E-03 
2349	 1.23008865336693E-02 
2350	 1.77174237005557E-02 
2351	 3.25396502227004E-02 
2352	 3.14062945658172E-02 
2353	 2.77355267465129E-02 
2354	 2.45501108836562E-02 
2355	 1.41337163048914E-02 
2356	 7.59638917797965E-03 
2357	 3.52416460161807E-03 
2358	-1.11488145564489E-02 
2359	-1.47128511861291E-02 
2360	 4.90356158191418E-03 
2361	 1.59955345061573E-02 
2362	 6.56245914543238E-03 
2363	 8.76852064823838E-03 
2364	 6.30835349597193E-03 
2365	-2.73957298911967E-03 
2366	 1.28903644548429E-02 
2367	 1.74161454319948E-02 
2368	 0.003617471657857 
2369	-1.75365956637051E-02 
2370	-2.73374676737475E-02 
2371	-3.36418062669697E-02 
2372	-4.42821023590902E-02 
2373	-2.21789183669744E-02 
2374	 2.71447223867994E-04 
2375	 1.97328250991936E-02 
2376	 3.05962097694933E-02 
2377	 1.62329327134804E-02 
2378	-5.31279128055735E-03 
2379	 5.10020440508932E-03 
2380	 3.57563012366418E-02 
2381	 1.62288078288394E-02 
2382	 3.46763531347914E-03 
2383	 2.05305749393956E-02 
2384	 2.12067070385631E-02 
2385	 1.13011553144083E-02 
2386	-9.7778732894762E-03 
2387	-3.72122398298941E-02 
2388	-5.73439084394922E-02 
2389	-1.15864847264573E-02 
2390	 7.44914702868898E-02 
2391	 7.13021648531619E-02 
2392	 4.05141724698008E-02 
2393	 3.34220809746833E-02 
2394	 2.25277033350111E-02 
2395	 3.11186759864916E-02 
2396	-3.20494931899496E-03 
2397	-7.56746739014235E-02 
2398	-0.117782824622091 
2399	-0.136000655262551 
2400	-0.125713870538659 
2401	-7.84781370916946E-02 
2402	-8.05313589640473E-02 
2403	-0.117427563103632 
2404	-0.124123693919351 
2405	-0.142025500268777 
2406	-0.11272059938534 
2407	-6.09822375534952E-02 
2408	 2.35489096119146E-04 
2409	 9.11626073184357E-02 
2410	 0.158485207676521 
2411	 0.06821145582898 
2412	-1.13261673176714E-02 
2413	 4.86945513489135E-02 
2414	 3.31477908487107E-02 
2415	 0.267704038267512 
2416	 0.300213789878806 
2417	-0.142197719965859 
2418	-0.267013343850062 
2419	-0.174048413757486 
2420	-0.265397822085921 
2421	-0.12917484999502 
2422	-9.60127318918759E-03 
2423	-7.76595362971158E-02 
2424	-4.51330321278229E-03 
2425	 0.119536795732616 
2426	 0.11833165922855 
2427	 0.121660887108332 
2428	 6.35429814967488E-02 
2429	 2.23738323780197E-02 
2430	 5.54836938262758E-02 
2431	-7.13178886111711E-02 
2432	 0.130572082040086 
2433	 0.367034016685842 
2434	 0.162075940661642 
2435	 0.155181006316783 
2436	-5.96404421460573E-02 
2437	-0.298836430158409 
2438	-0.11588312224873 
2439	 0.130399834521497 
2440	 0.198351001412565 
2441	 0.553511803328573 
2442	 0.728692701999802 
2443	 0.637407468887871 
2444	 0.698144130544123 
2445	 0.737424727507017 
2446	 1.21807402023318 
2447	-4.27704502786336 
2448	 2.86661724993975 
2449	 5.15772711359075 
2450	 12.6357799358645 
2451	 5.49319676384733 
2452	 1.90054347310496 
2453	-1.21588355320935 
2454	 0.468694732374632 
2455	 0.871500431428738 
2456	 0.729487338071684 
2457	 0.400307388255695 
2458	 0.639024898617513 
2459	 0.347412724634263 
2460	-0.432278690731362 
2461	-0.553674511136429 
2462	-1.58787084944042 
2463	-1.57012239212939 
2464	-0.234411316420875 
2465	 0.695687882154088 
2466	 1.16892448865723 
2467	 8.38242705157562 
2468	-4.94490606323867 
2469	-1.56469383869835 
2470	-1.42556474972039 
2471	-0.402190141251596 
2472	-0.663916345435336 
2473	-4.63290984640897 
2474	 1.55743069911321 
2475	 0.317450507301203 
2476	 0.401899506138382 
2477	 0.720475623432532 
2478	 0.328546935452943 
2479	-0.450337773965065 
2480	-1.36343939239422E-03 
2481	-0.437594037513594 
2482	-0.65036740537546 
2483	 9.78017425944417E-02 
2484	 0.836264599054157 
2485	-4.55399798184056 
2486	 7.35641105016977 
2487	 2.01464746495637 
2488	 0.636525900047864 
2489	-0.171754301227885 
2490	 0.523953703352309 
2491	 4.21651696468603 
2492	 0.520473668452655 
2493	 0.674525984858815 
2494	 0.225340091015572 
2495	 0.039291232847428 
2496	-8.55320722663816E-02 
2497	 0.929940117331902 
2498	 3.38896671335063 
2499	-42.4468760174585 
2500	-69.1902460699513 
