Wavelength	rt0628close00006.asd
350	 5.12981761990437E-02 
351	 5.32882225643719E-02 
352	 5.19146223780956E-02 
353	 5.07102707174615E-02 
354	 5.16690289140592E-02 
355	 5.03507827151944E-02 
356	 0.050918835807881 
357	 5.16067743760628E-02 
358	 5.02195959290601E-02 
359	 5.08225438053196E-02 
360	 5.03986461167305E-02 
361	 4.94086544691137E-02 
362	 5.03612558883621E-02 
363	 4.98207100545681E-02 
364	 4.95883965610479E-02 
365	 5.02844180832858E-02 
366	 4.98133794467449E-02 
367	 5.00868359328902E-02 
368	 5.00662959923534E-02 
369	 4.90037181903186E-02 
370	 4.99827329877893E-02 
371	 4.98413486248455E-02 
372	 4.92990106700934E-02 
373	 5.07563960873945E-02 
374	 4.97473531377527E-02 
375	 4.96957043645248E-02 
376	 5.11585742822821E-02 
377	 4.98526580490819E-02 
378	 5.04863900623548E-02 
379	 5.10550467853663E-02 
380	 4.98353695445188E-02 
381	 5.10733516503979E-02 
382	 5.08495270582802E-02 
383	 5.02327057832156E-02 
384	 5.18492381835661E-02 
385	 5.11256741305671E-02 
386	 5.11778778213959E-02 
387	 0.052325965578065 
388	 5.13402477448672E-02 
389	 5.22674882746625E-02 
390	 5.27487209158263E-02 
391	 5.13869177453915E-02 
392	 5.21224656268538E-02 
393	 0.051858417976051 
394	 5.14783248455415E-02 
395	 5.25324221122502E-02 
396	 0.051929954317737 
397	 5.19887214352522E-02 
398	 5.26489111701534E-02 
399	 5.17724658729758E-02 
400	 5.20945975780064E-02 
401	 5.22506337692991E-02 
402	 5.15612345566688E-02 
403	 5.23581016918662E-02 
404	 5.23925582621532E-02 
405	 5.21541378741603E-02 
406	 5.27292570018463E-02 
407	 5.23686970121651E-02 
408	 5.25026227494628E-02 
409	 0.053100047581457 
410	 5.26469339371233E-02 
411	 5.29020951170771E-02 
412	 0.05316819128505 
413	 5.29857059325186E-02 
414	 5.36000045507469E-02 
415	 5.36476183629372E-02 
416	 5.35245027900186E-02 
417	 0.054060100324622 
418	 5.40049005762144E-02 
419	 5.41941566685696E-02 
420	 5.46797346694756E-02 
421	 5.45737794006607E-02 
422	 5.50107066416928E-02 
423	 0.055405650731104 
424	 5.53354257843819E-02 
425	 5.58571781018232E-02 
426	 5.60664615734298E-02 
427	 5.62723833211941E-02 
428	 5.71147844770139E-02 
429	 5.71364128926975E-02 
430	 5.73331207154502E-02 
431	 5.79477375096758E-02 
432	 5.80960379344117E-02 
433	 5.85850601871022E-02 
434	 5.90092113569143E-02 
435	 5.90703042471427E-02 
436	 5.95954998547286E-02 
437	 5.98810417523084E-02 
438	 0.060102066218168 
439	 6.07817915734845E-02 
440	 6.09694868574441E-02 
441	 6.12640782265247E-02 
442	 6.18178313168256E-02 
443	 6.18783765550054E-02 
444	 6.22658495496268E-02 
445	 6.26656032610198E-02 
446	 6.27190145811947E-02 
447	 6.31660934224236E-02 
448	 6.34197328049131E-02 
449	 6.35178033163881E-02 
450	 6.39186657460338E-02 
451	 6.40073721293582E-02 
452	 0.064166437355162 
453	 6.45481732758024E-02 
454	 6.45267491726358E-02 
455	 6.47188571193826E-02 
456	 0.064950241648578 
457	 6.49245740021078E-02 
458	 6.53182345640279E-02 
459	 6.54701229628707E-02 
460	 6.53820249930624E-02 
461	 6.57378894606219E-02 
462	 6.57102263647361E-02 
463	 6.57265724055639E-02 
464	 6.60771564965406E-02 
465	 6.59530834228139E-02 
466	 6.61255642262905E-02 
467	 6.64517371511787E-02 
468	 6.64371652036221E-02 
469	 6.66089853142188E-02 
470	 6.66164481770138E-02 
471	 6.65216619305428E-02 
472	 6.70279784207035E-02 
473	 6.71012967481445E-02 
474	 6.71114785792621E-02 
475	 6.74926461042855E-02 
476	 6.75069377156026E-02 
477	 6.77398184564165E-02 
478	 6.80886811246809E-02 
479	 6.80576633952973E-02 
480	 6.84355742194357E-02 
481	 6.87805064895325E-02 
482	 6.88781998029734E-02 
483	 6.93251904033785E-02 
484	 6.95039983302783E-02 
485	 6.96805730602601E-02 
486	 7.02533621235282E-02 
487	 7.04787366133332E-02 
488	 7.08449681136474E-02 
489	 7.13381840198878E-02 
490	 7.14448349077436E-02 
491	 7.19240614667161E-02 
492	 7.24229328597956E-02 
493	 7.26724139660781E-02 
494	 7.32734647484582E-02 
495	 7.36206588894413E-02 
496	 7.38938166366238E-02 
497	 7.45541684135954E-02 
498	 7.47861174885664E-02 
499	 7.51718204863781E-02 
500	 7.58560411049446E-02 
501	 7.60900626219918E-02 
502	 7.67034827013783E-02 
503	 7.73381421800764E-02 
504	 7.75765774462538E-02 
505	 7.81970294485965E-02 
506	 7.87019003819193E-02 
507	 7.91503148184607E-02 
508	 8.00027568983905E-02 
509	 8.04658196076758E-02 
510	 8.09854801882549E-02 
511	 8.17950396951088E-02 
512	 8.21242969975954E-02 
513	 8.27765234511766E-02 
514	 8.35546869470335E-02 
515	 8.39678845215575E-02 
516	 8.48259083352002E-02 
517	 8.55377160381735E-02 
518	 8.60160509271465E-02 
519	 8.69325227766059E-02 
520	 8.74279901040672E-02 
521	 8.79474863024134E-02 
522	 0.088892211088252 
523	 8.94149055029162E-02 
524	 9.01457018117548E-02 
525	 9.10170733719786E-02 
526	 0.091533689621984 
527	 9.24126462339602E-02 
528	 9.32203139611079E-02 
529	 9.37803993948256E-02 
530	 9.47764532954088E-02 
531	 9.55254500663265E-02 
532	 9.62103039712973E-02 
533	 9.71959917767445E-02 
534	 0.097894745876797 
535	 9.87299112071589E-02 
536	 9.97259396822999E-02 
537	 0.100393585364768 
538	 0.101354395604532 
539	 0.102312532218323 
540	 0.103004620574447 
541	 0.104039349900758 
542	 0.104902859204173 
543	 0.105670125849701 
544	 0.106732012510497 
545	 0.107574688372399 
546	 0.108478316637984 
547	 0.109542913722198 
548	 0.110314982021779 
549	 0.111270804037105 
550	 0.11225455553102 
551	 0.113004261483517 
552	 0.1140069495802 
553	 0.11488420544427 
554	 0.115634100239451 
555	 0.116712877919431 
556	 0.117521035863948 
557	 0.118335762504781 
558	 0.119390358589339 
559	 0.120077410653593 
560	 0.120914724811281 
561	 0.121829988107413 
562	 0.122447255943518 
563	 0.123331956181925 
564	 0.12413456165144 
565	 0.124700534945357 
566	 0.125498248083323 
567	 0.126113306733305 
568	 0.126714888256438 
569	 0.127557218775617 
570	 0.128103290500533 
571	 0.128727672763615 
572	 0.129441853165574 
573	 0.129827224437246 
574	 0.130476743425768 
575	 0.131118822314313 
576	 0.131528621699185 
577	 0.132334120110823 
578	 0.132902463849409 
579	 0.133350603424231 
580	 0.134169789047676 
581	 0.134605250414863 
582	 0.135091646692756 
583	 0.135774535795574 
584	 0.135984213189292 
585	 0.13633334706586 
586	 0.136569077185968 
587	 0.136344709340443 
588	 0.136714136986022 
589	 0.137039984329164 
590	 0.137215804563974 
591	 0.137818738709646 
592	 0.138137351633431 
593	 0.138440914290492 
594	 0.138957068430205 
595	 0.13916478560771 
596	 0.139651004045007 
597	 0.14022768810858 
598	 0.140366009316567 
599	 0.140837365499722 
600	 0.141237425262917 
601	 0.141410053988349 
602	 0.141875135215652 
603	 0.142155307114407 
604	 0.142360157861546 
605	 0.142685655872353 
606	 0.14273812357677 
607	 0.142989543266792 
608	 0.14338680614697 
609	 0.143332170572923 
610	 0.143663184258603 
611	 0.143967584877623 
612	 0.143923661499524 
613	 0.144286579805521 
614	 0.144451672106876 
615	 0.144515421867324 
616	 0.144882617152695 
617	 0.144940734010834 
618	 0.145072851136617 
619	 0.145384560829968 
620	 0.145346167124942 
621	 0.145620566187456 
622	 0.145900382084235 
623	 0.145783799377226 
624	 0.146054765610725 
625	 0.146088537363754 
626	 0.145902728136669 
627	 0.146134310085868 
628	 0.146117750781552 
629	 0.146268743047508 
630	 0.146794356111632 
631	 0.146801626191122 
632	 0.147011439424011 
633	 0.147320914543999 
634	 0.147341201983473 
635	 0.147708795306747 
636	 0.147942467213224 
637	 0.147950722198211 
638	 0.148349402783961 
639	 0.148429509836643 
640	 0.148506144976047 
641	 0.148922039521047 
642	 0.148857614843599 
643	 0.148970577615371 
644	 0.149126316714077 
645	 0.14859890454883 
646	 0.148600651550999 
647	 0.148822831064073 
648	 0.148956798149293 
649	 0.149472117393915 
650	 0.149509225090093 
651	 0.14948453968141 
652	 0.150064335008986 
653	 0.150077061776323 
654	 0.150145410256289 
655	 0.150453641463129 
656	 0.150400960310026 
657	 0.150774292008929 
658	 0.151102664240105 
659	 0.151058456605338 
660	 0.151502835095537 
661	 0.151661864576188 
662	 0.151625644646593 
663	 0.151952934621313 
664	 0.152061536242496 
665	 0.152238327922145 
666	 0.152554797710124 
667	 0.152479656723578 
668	 0.152725882216013 
669	 0.15301346648056 
670	 0.152946608267539 
671	 0.153323566702692 
672	 0.153479772022737 
673	 0.153475415164975 
674	 0.15403700771167 
675	 0.154109202688832 
676	 0.15418784262034 
677	 0.154624591317323 
678	 0.154618513421615 
679	 0.154882940470742 
680	 0.155237635141078 
681	 0.155231485962816 
682	 0.155591256372305 
683	 0.155835117142334 
684	 0.155776601744691 
685	 0.155749237165587 
686	 0.155262810561495 
687	 0.155090962861348 
688	 0.155794588072459 
689	 0.155937949252511 
690	 0.156167863118977 
691	 0.156339190506923 
692	 0.155943101391665 
693	 0.156159760508312 
694	 0.156611698490076 
695	 0.157001747798333 
696	 0.157679536159728 
697	 0.157594748937406 
698	 0.157245799784481 
699	 0.157406694553085 
700	 0.157392244328442 
701	 0.157830347938143 
702	 0.158460781784387 
703	 0.158420156538662 
704	 0.158654603105578 
705	 0.158813124441076 
706	 0.158748568992964 
707	 0.159238453896539 
708	 0.15938144388787 
709	 0.159447263257169 
710	 0.159912371070693 
711	 0.159839089895848 
712	 0.159796024774354 
713	 0.159799354573487 
714	 0.15920189191139 
715	 0.158514251652995 
716	 0.15755934791242 
717	 0.156411047093597 
718	 0.156453828493262 
719	 0.15679460580496 
720	 0.157303205185137 
721	 0.158068688553216 
722	 0.157414852927054 
723	 0.156793687633237 
724	 0.156813069801967 
725	 0.15629412080229 
726	 0.156289434421557 
727	 0.15621221015037 
728	 0.155637440487966 
729	 0.155627964265772 
730	 0.155572972096915 
731	 0.155641532140128 
732	 0.156111464075502 
733	 0.155870460849768 
734	 0.155633342602423 
735	 0.155637467089322 
736	 0.155383276391717 
737	 0.155546757056384 
738	 0.155798383055454 
739	 0.155851501042862 
740	 0.156319633304516 
741	 0.156563740051039 
742	 0.15669292026904 
743	 0.157113825424175 
744	 0.157151942598972 
745	 0.157342616920615 
746	 0.157768637790118 
747	 0.157761016600282 
748	 0.158010843323821 
749	 0.15820732189087 
750	 0.158114519156262 
751	 0.158641527329767 
752	 0.158729170894879 
753	 0.158598640932979 
754	 0.159025236696218 
755	 0.1589881776301 
756	 0.159020864915884 
757	 0.159107368846549 
758	 0.157945971386824 
759	 0.156653795558991 
760	 0.155418385589895 
761	 0.154835859381764 
762	 0.15583733287437 
763	 0.15649381285368 
764	 0.157302661309098 
765	 0.158985905761436 
766	 0.159587085414982 
767	 0.160224239035045 
768	 0.160969741162313 
769	 0.160886944812646 
770	 0.161158890853247 
771	 0.161463143762232 
772	 0.16150309726564 
773	 0.161935080786943 
774	 0.16205204716465 
775	 0.162069877024874 
776	 0.162459956149959 
777	 0.162572775194108 
778	 0.162771553983331 
779	 0.16301391323947 
780	 0.162844771059853 
781	 0.16322938815369 
782	 0.163500052997426 
783	 0.163281650330207 
784	 0.163572986294114 
785	 0.16348198087164 
786	 0.163313917144428 
787	 0.163574763739763 
788	 0.163355100941358 
789	 0.16353777944939 
790	 0.164054755689607 
791	 0.16410658206467 
792	 0.164610392660836 
793	 0.164791383955057 
794	 0.164466225889282 
795	 0.164764806984409 
796	 0.16470965220961 
797	 0.164695556686926 
798	 0.165093766771014 
799	 0.164827773021877 
800	 0.164953086528475 
801	 0.165257643331301 
802	 0.165006173097827 
803	 0.165468602091803 
804	 0.165760525304696 
805	 0.165684505891917 
806	 0.165939363499724 
807	 0.165652447936118 
808	 0.165321919418714 
809	 0.165246881944458 
810	 0.164415423606142 
811	 0.164024099674728 
812	 0.163706890077621 
813	 0.162704515236914 
814	 0.16247992627532 
815	 0.162047437873131 
816	 0.161629750669239 
817	 0.162246721571949 
818	 0.162070934436822 
819	 0.162068996812063 
820	 0.162277505556389 
821	 0.161257129485689 
822	 0.161087059661737 
823	 0.160936221703181 
824	 0.160107499522905 
825	 0.160043136485882 
826	 0.159256353259019 
827	 0.158211014431764 
828	 0.157859097514907 
829	 0.156729299087321 
830	 0.156124809381977 
831	 0.155871004727494 
832	 0.154864984964785 
833	 0.154768965608574 
834	 0.154547704126414 
835	 0.153953378740229 
836	 0.154106643055968 
837	 0.153701961351212 
838	 0.153413214456477 
839	 0.153666763193287 
840	 0.153112492260147 
841	 0.153157010945504 
842	 0.153252582115469 
843	 0.152605720735781 
844	 0.152843860710825 
845	 0.152606809332433 
846	 0.152075982319147 
847	 0.152328631046724 
848	 0.151728213841128 
849	 0.151441239657732 
850	 0.151622525267633 
851	 0.150849634724932 
852	 0.150960037296747 
853	 0.150992297306037 
854	 0.150374251508047 
855	 0.150619085101081 
856	 0.150139014918747 
857	 0.149722767775259 
858	 0.150119872522887 
859	 0.14951878099304 
860	 0.149398003918357 
861	 0.149479874961112 
862	 0.148884962310997 
863	 0.149097699441618 
864	 0.148722477455088 
865	 0.147918117251981 
866	 0.148183446183107 
867	 0.147604559367618 
868	 0.147409308590342 
869	 0.14773817649376 
870	 0.146889660243034 
871	 0.147015273557698 
872	 0.146879258801369 
873	 0.14583289305071 
874	 0.14619963558931 
875	 0.145732816642112 
876	 0.145235628486041 
877	 0.145622396693917 
878	 0.144595511866429 
879	 0.144309426089782 
880	 0.144237447807829 
881	 0.143116191645124 
882	 0.143456221370269 
883	 0.143172843392437 
884	 0.142327445430451 
885	 0.142479535790078 
886	 0.141674356094199 
887	 0.141368208557522 
888	 0.141523448668825 
889	 0.14023036926141 
890	 0.140274222478661 
891	 0.139940695161759 
892	 0.138556772955779 
893	 0.138997394927492 
894	 0.137783038340388 
895	 0.136769628285534 
896	 0.137578838027911 
897	 0.135426728556021 
898	 0.135357912172463 
899	 0.135631713555837 
900	 0.133944095888555 
901	 0.135119632842275 
902	 0.134538733783429 
903	 0.133578775522493 
904	 0.13463652011711 
905	 0.133020431247549 
906	 0.132662169577476 
907	 0.132913235476224 
908	 0.130471599927853 
909	 0.131290786238647 
910	 0.130550010706299 
911	 0.128556453056525 
912	 0.130187273257975 
913	 0.128421010739639 
914	 0.127922933623304 
915	 0.128860335557796 
916	 0.125677140101989 
917	 0.126592735292981 
918	 0.126580112477505 
919	 0.124385790235964 
920	 0.125584807240027 
921	 0.123546377778076 
922	 0.121767683305623 
923	 0.122014664810434 
924	 0.118245242829437 
925	 0.117940644929588 
926	 0.117816569304079 
927	 0.114062844284879 
928	 0.11570592365502 
929	 0.110851306171293 
930	 0.105060097919523 
931	 0.111322437678931 
932	 0.100984377396362 
933	 9.95874178451256E-02 
934	 9.87694946298389E-02 
935	 8.22932794040109E-02 
936	 9.26774342439119E-02 
937	 0.089606057736354 
938	 8.53661690562565E-02 
939	 9.57620329081835E-02 
940	 8.43806232204972E-02 
941	 8.25886866181672E-02 
942	 8.60269666263767E-02 
943	 0.077471456974439 
944	 8.17379921135245E-02 
945	 7.68995987978027E-02 
946	 6.98402159109636E-02 
947	 7.82078087030053E-02 
948	 6.83082578166995E-02 
949	 6.80477428895127E-02 
950	 7.21253554796285E-02 
951	 6.02301354435615E-02 
952	 6.47600616891095E-02 
953	 6.03650308363184E-02 
954	 5.21906822052505E-02 
955	 6.10028105884185E-02 
956	 0.053449592810513 
957	 5.25431066861725E-02 
958	 5.70906050100798E-02 
959	 0.051067406357802 
960	 5.55107996442934E-02 
961	 5.38828392706328E-02 
962	 4.93533201857367E-02 
963	 5.56470580186277E-02 
964	 4.97870465066175E-02 
965	 4.92953454655927E-02 
966	 0.053376509227439 
967	 4.93788187967417E-02 
968	 5.19419719887827E-02 
969	 5.20024514964939E-02 
970	 4.97643003745389E-02 
971	 0.053038982483807 
972	 0.049876701178138 
973	 5.01234324587459E-02 
974	 0.053132465965139 
975	 4.82970825116132E-02 
976	 5.09207938497035E-02 
977	 5.14752566724894E-02 
978	 4.96830002177262E-02 
979	 5.34244963274593E-02 
980	 5.03926508963774E-02 
981	 5.15044246742325E-02 
982	 5.49051849180041E-02 
983	 5.00824941839086E-02 
984	 5.37522930595834E-02 
985	 5.40525037858304E-02 
986	 0.051362625073921 
987	 5.52659076968038E-02 
988	 5.39743400861598E-02 
989	 5.51135640855705E-02 
990	 5.69151335102248E-02 
991	 5.22319584018654E-02 
992	 5.54465062311748E-02 
993	 5.53037853548635E-02 
994	 5.35410413731284E-02 
995	 0.058957647648084 
996	 5.59479436511105E-02 
997	 5.75166885857625E-02 
998	 6.05596960642899E-02 
999	 5.51925558310189E-02 
1000	 5.92629443702878E-02 
1001	 6.72291066749065E-02 
1002	 6.80387771168837E-02 
1003	 6.86228747948199E-02 
1004	 6.92131148864019E-02 
1005	 6.97880923315588E-02 
1006	 0.06988944799924 
1007	 7.08240982340932E-02 
1008	 7.21067259582084E-02 
1009	 7.28653351156067E-02 
1010	 7.38951192696219E-02 
1011	 7.48310437742484E-02 
1012	 7.55034097683844E-02 
1013	 7.64657704590672E-02 
1014	 7.74236680183863E-02 
1015	 0.078508111898246 
1016	 7.94514068102531E-02 
1017	 0.080308941968938 
1018	 0.081359339518733 
1019	 8.25759720871529E-02 
1020	 8.36488151656869E-02 
1021	 8.48565035193228E-02 
1022	 8.58518777670276E-02 
1023	 8.64018006808577E-02 
1024	 8.71872673875558E-02 
1025	 0.08837161818646 
1026	 8.95207781889315E-02 
1027	 9.08464465245533E-02 
1028	 0.092720338338648 
1029	 9.39988611916651E-02 
1030	 9.50872484152916E-02 
1031	 9.60573414840799E-02 
1032	 9.66961778758756E-02 
1033	 9.74834758618134E-02 
1034	 9.81019795766296E-02 
1035	 9.90247124314214E-02 
1036	 0.100013795908605 
1037	 0.101238430203851 
1038	 0.102840801397848 
1039	 0.104338246018747 
1040	 0.105713326615546 
1041	 0.10689013094798 
1042	 0.107948672998097 
1043	 0.108771124462721 
1044	 0.109420953647652 
1045	 0.109688550056707 
1046	 0.110590967476745 
1047	 0.111448126300131 
1048	 0.112590583791397 
1049	 0.114855475783968 
1050	 0.115864609026765 
1051	 0.11601365583791 
1052	 0.116658385467021 
1053	 0.116930736253061 
1054	 0.117381565310341 
1055	 0.118216583103933 
1056	 0.119017064292788 
1057	 0.119800389329265 
1058	 0.120463488691337 
1059	 0.121118413738197 
1060	 0.122031873691193 
1061	 0.122466526934806 
1062	 0.122532099529446 
1063	 0.122706433683307 
1064	 0.122585917903272 
1065	 0.122782412826245 
1066	 0.123157052421215 
1067	 0.123449200688407 
1068	 0.123986836418645 
1069	 0.124245364234798 
1070	 0.124207633878377 
1071	 0.12430180828642 
1072	 0.124400027705096 
1073	 0.124400916779062 
1074	 0.124448278202383 
1075	 0.124720808470806 
1076	 0.124555848027199 
1077	 0.124071505280029 
1078	 0.123871049368591 
1079	 0.123387019336127 
1080	 0.123297894391141 
1081	 0.123873387034901 
1082	 0.123725964651938 
1083	 0.123380397412452 
1084	 0.123037075907733 
1085	 0.122211039810326 
1086	 0.121602753653802 
1087	 0.121109181668024 
1088	 0.120587378299218 
1089	 0.120073362891502 
1090	 0.119539709612811 
1091	 0.118919416034518 
1092	 0.118394114467884 
1093	 0.117671418160658 
1094	 0.116508030792756 
1095	 0.115750605151903 
1096	 0.115191082711097 
1097	 0.114415816925928 
1098	 0.113837166775293 
1099	 0.113109141724588 
1100	 0.111962502246365 
1101	 0.110981215325418 
1102	 0.10988179092011 
1103	 0.109085773271291 
1104	 0.108289398786476 
1105	 0.108179248141239 
1106	 0.107949141357529 
1107	 0.107147104825599 
1108	 0.106293461283778 
1109	 0.10525801544642 
1110	 0.104430062787192 
1111	 0.103670255080908 
1112	 0.103319322376356 
1113	 0.103527243604294 
1114	 0.10298818998352 
1115	 0.102685462505411 
1116	 0.101638160576185 
1117	 9.85619918159488E-02 
1118	 9.63198579351936E-02 
1119	 9.38720591770201E-02 
1120	 9.17584220710572E-02 
1121	 9.12488028445149E-02 
1122	 0.090327400059187 
1123	 9.32229059158178E-02 
1124	 9.51319929485633E-02 
1125	 8.55220125284726E-02 
1126	 7.91529085188537E-02 
1127	 7.86662697646316E-02 
1128	 7.46896217388754E-02 
1129	 7.38296801048598E-02 
1130	 0.085060217518494 
1131	 8.02252594389605E-02 
1132	 0.065163971496745 
1133	 6.18508078576999E-02 
1134	 5.91982057900634E-02 
1135	 5.61510441005969E-02 
1136	 5.78234858952713E-02 
1137	 5.61853938974868E-02 
1138	 5.06994073616254E-02 
1139	 4.85867405544804E-02 
1140	 4.69497975263907E-02 
1141	 4.64055453457537E-02 
1142	 4.82946994428534E-02 
1143	 4.65639026596435E-02 
1144	 4.51755268485861E-02 
1145	 4.45672950901168E-02 
1146	 3.87014782294346E-02 
1147	 3.53793694287088E-02 
1148	 0.035330938528091 
1149	 3.31388755027443E-02 
1150	 3.30523537541829E-02 
1151	 3.66962834453107E-02 
1152	 3.50741690111252E-02 
1153	 3.13664133484709E-02 
1154	 3.09873296679461E-02 
1155	 3.03821871710849E-02 
1156	 2.95261035981285E-02 
1157	 3.13220988354895E-02 
1158	 3.12152784267506E-02 
1159	 2.93131399360427E-02 
1160	 2.87381824988161E-02 
1161	 2.83630821871036E-02 
1162	 2.82634265301139E-02 
1163	 2.88936715244628E-02 
1164	 0.02878833081073 
1165	 0.028240671750244 
1166	 2.81928538296273E-02 
1167	 2.80387303329407E-02 
1168	 2.77523157637024E-02 
1169	 2.80714767771228E-02 
1170	 2.81616264174968E-02 
1171	 2.80282140405666E-02 
1172	 0.027726697651935 
1173	 2.77642927517806E-02 
1174	 0.027909958279445 
1175	 2.75137599565988E-02 
1176	 2.74655254977037E-02 
1177	 2.75099312672099E-02 
1178	 2.72746443923775E-02 
1179	 2.73483514618229E-02 
1180	 2.74968597308448E-02 
1181	 2.70224017829869E-02 
1182	 2.68841169527363E-02 
1183	 2.72331190464525E-02 
1184	 2.71470557819038E-02 
1185	 2.69705474512264E-02 
1186	 2.70422161789498E-02 
1187	 2.68684792249148E-02 
1188	 2.64713770668488E-02 
1189	 2.65588593277866E-02 
1190	 2.66400861112083E-02 
1191	 2.63311936106757E-02 
1192	 2.63059931022074E-02 
1193	 0.026573828476573 
1194	 2.68927382750842E-02 
1195	 2.66138624423723E-02 
1196	 2.62131330202733E-02 
1197	 2.62521405846231E-02 
1198	 2.64157366397592E-02 
1199	 0.026503105012133 
1200	 0.026676740452516 
1201	 2.64758648194057E-02 
1202	 2.60053117600346E-02 
1203	 2.58173149289387E-02 
1204	 2.58446749211954E-02 
1205	 0.02595669828256 
1206	 0.02603968340699 
1207	 2.60993347828759E-02 
1208	 2.63146181994342E-02 
1209	 2.66646087605131E-02 
1210	 2.66643928052952E-02 
1211	 2.63064325275956E-02 
1212	 2.63763694072967E-02 
1213	 2.66571880115707E-02 
1214	 2.67246700856357E-02 
1215	 2.68189923063778E-02 
1216	 2.70892693865511E-02 
1217	 0.027033047047846 
1218	 2.67602058965621E-02 
1219	 2.69848797485092E-02 
1220	 2.74359846091165E-02 
1221	 2.74694724391551E-02 
1222	 2.74654023408013E-02 
1223	 2.76391413012902E-02 
1224	 2.75776918574293E-02 
1225	 2.76106521923739E-02 
1226	 2.79189213231474E-02 
1227	 2.79404995822714E-02 
1228	 2.78096615301318E-02 
1229	 2.80139065044809E-02 
1230	 2.82400345616683E-02 
1231	 2.82282316304232E-02 
1232	 2.81979146370929E-02 
1233	 2.82505133886929E-02 
1234	 2.83166958962233E-02 
1235	 2.84708443745403E-02 
1236	 2.89617938152962E-02 
1237	 2.90248481518529E-02 
1238	 2.88872499253162E-02 
1239	 2.87825209918518E-02 
1240	 2.88951446461798E-02 
1241	 2.88997555889483E-02 
1242	 2.90320699804431E-02 
1243	 2.93532308154473E-02 
1244	 2.94315616790933E-02 
1245	 2.92481426389019E-02 
1246	 2.92529813575443E-02 
1247	 2.95664204331079E-02 
1248	 2.97441687684116E-02 
1249	 2.96016153775088E-02 
1250	 2.98102663692614E-02 
1251	 3.00683708671541E-02 
1252	 2.97896855466192E-02 
1253	 2.97394344500143E-02 
1254	 3.01146850251422E-02 
1255	 3.02179713490333E-02 
1256	 3.01980370985946E-02 
1257	 3.02501164995006E-02 
1258	 3.03878708251893E-02 
1259	 0.030260738443289 
1260	 3.01641736281234E-02 
1261	 3.03091151719994E-02 
1262	 3.04724415439694E-02 
1263	 3.05479377679086E-02 
1264	 3.05158004953903E-02 
1265	 0.030653532412372 
1266	 3.06602152620005E-02 
1267	 3.05239064822637E-02 
1268	 0.030266994634144 
1269	 3.00530979416327E-02 
1270	 3.01904475536519E-02 
1271	 3.02424569618147E-02 
1272	 3.01487879891896E-02 
1273	 3.03479823886591E-02 
1274	 3.03628849843567E-02 
1275	 3.01426857599401E-02 
1276	 3.00680440648036E-02 
1277	 3.00092703356716E-02 
1278	 3.00389638225546E-02 
1279	 3.00401922572595E-02 
1280	 2.97373119129883E-02 
1281	 2.96495706667897E-02 
1282	 2.97182469904518E-02 
1283	 2.96351821483221E-02 
1284	 2.95540488977335E-02 
1285	 2.94594363441855E-02 
1286	 0.029250846656013 
1287	 2.90243871388011E-02 
1288	 2.87913251320872E-02 
1289	 2.85321149874554E-02 
1290	 2.82418855288777E-02 
1291	 2.79422848238944E-02 
1292	 2.77002874252926E-02 
1293	 2.74517083805298E-02 
1294	 2.72509569356169E-02 
1295	 2.71320158027354E-02 
1296	 2.67845554014687E-02 
1297	 2.64636023233028E-02 
1298	 0.026321467515107 
1299	 2.60341777236934E-02 
1300	 2.58976772118339E-02 
1301	 2.58023517848939E-02 
1302	 0.025523632037908 
1303	 2.56408738172688E-02 
1304	 2.57907159951323E-02 
1305	 2.52282604128887E-02 
1306	 0.024590107036515 
1307	 0.023578712421779 
1308	 0.023098140885221 
1309	 2.25367435982825E-02 
1310	 2.21067620844714E-02 
1311	 2.21143711712149E-02 
1312	 2.19965271950419E-02 
1313	 0.021806261106855 
1314	 2.15543987983085E-02 
1315	 2.16502641671473E-02 
1316	 2.14307100456082E-02 
1317	 2.04471971237453E-02 
1318	 2.00819519076742E-02 
1319	 2.04876430245271E-02 
1320	 2.02505994870955E-02 
1321	 1.97144903887502E-02 
1322	 1.91677904776961E-02 
1323	 1.92653482842636E-02 
1324	 1.91978238713021E-02 
1325	 1.90599158421594E-02 
1326	 1.94480612811503E-02 
1327	 1.91364645847248E-02 
1328	 0.018083583822191 
1329	 1.77611788396963E-02 
1330	 1.80341407620972E-02 
1331	 1.78765616177733E-02 
1332	 1.73595450103857E-02 
1333	 1.70947616559458E-02 
1334	 1.73800694541998E-02 
1335	 1.75503740401462E-02 
1336	 1.79035969360054E-02 
1337	 1.74617499620934E-02 
1338	 0.016496176425113 
1339	 1.69788154235129E-02 
1340	 0.018177324101499 
1341	 1.75728437682905E-02 
1342	 1.65386384838242E-02 
1343	 1.61130279821517E-02 
1344	 1.39442158095918E-02 
1345	 1.20213058412431E-02 
1346	 1.08745045987453E-02 
1347	 1.23131813021124E-02 
1348	 1.72642248198789E-02 
1349	 1.85474746387499E-02 
1350	 2.15085093566727E-02 
1351	 3.00361584546276E-02 
1352	 3.57148839434948E-02 
1353	 3.41890887054929E-02 
1354	 3.67170260117936E-02 
1355	 5.44090513463154E-02 
1356	 2.93810496926381E-02 
1357	 1.81446941516669E-02 
1358	 0.116845415413596 
1359	 0.208715841487945 
1360	 0.331352516839362 
1361	 0.31875677188669 
1362	 0.250315897257159 
1363	 0.349650693323731 
1364	 0.281502791747601 
1365	 0.259533376925509 
1366	 0.345839696550659 
1367	 0.295270283437754 
1368	 0.19588606605484 
1369	-6.07499596065372E-02 
1370	-0.111270720738517 
1371	-0.140371787011565 
1372	-0.181616938771002 
1373	-0.135629532437826 
1374	 8.70254553378213E-02 
1375	 0.534469065540922 
1376	 0.680880647500476 
1377	 0.710246034013378 
1378	 0.607493587202736 
1379	-2.12733357081421E-02 
1380	-0.151149219502641 
1381	 0.22141459487557 
1382	 0.282418135705909 
1383	 0.530963617280676 
1384	 0.694920407678876 
1385	 0.331543841304882 
1386	 0.341193848931386 
1387	 0.734479224552635 
1388	 0.826479214565106 
1389	 0.613186220643342 
1390	 0.514887809034246 
1391	 0.62564065710345 
1392	 0.110652955370161 
1393	-0.588560513526922 
1394	-0.344070001252968 
1395	-0.572214803512958 
1396	-0.676314242067815 
1397	-0.197534612707241 
1398	 0.069718495400737 
1399	 0.295817522407152 
1400	 0.268945712761985 
1401	-0.317057108758925 
1402	-9.82289603007903E-02 
1403	 0.250682780342233 
1404	 0.273460159829589 
1405	 9.59329770905871E-02 
1406	-9.47043688902011E-02 
1407	 1.62290640035789E-02 
1408	-0.24996845721549 
1409	-0.1857979410861 
1410	 0.268911614313129 
1411	 0.257233906475533 
1412	 3.83974182218554E-02 
1413	-1.54695142471678E-02 
1414	-6.97924618026791E-02 
1415	-2.56482396419769E-02 
1416	 9.39575137622013E-02 
1417	 0.128832158080603 
1418	 0.229610165595987 
1419	 0.206022439087217 
1420	 8.08508916382261E-02 
1421	 0.04297026316882 
1422	 1.36336105611721E-02 
1423	 3.69387572966133E-03 
1424	 1.56899365293098E-02 
1425	 0.021385585236129 
1426	 3.25884130791342E-02 
1427	 2.97582572860547E-02 
1428	 1.84400320278394E-02 
1429	 1.17814288974478E-02 
1430	-3.12443549249362E-03 
1431	-3.6278153380355E-03 
1432	 6.80477066202228E-03 
1433	 1.32285301144316E-02 
1434	 2.96868007086923E-02 
1435	 3.63166316182243E-02 
1436	 3.76503183209211E-02 
1437	 3.32706514656845E-02 
1438	 1.65000720974059E-02 
1439	 1.42033597927031E-02 
1440	 2.05442410037411E-02 
1441	 1.63158920386577E-02 
1442	 1.59476983359048E-02 
1443	 0.011897797143599 
1444	 7.39833144081053E-03 
1445	 8.94323983796613E-03 
1446	 9.0576290565945E-03 
1447	 1.16436782157655E-02 
1448	 1.30049131150923E-02 
1449	 9.5709530989795E-03 
1450	 8.48804942561154E-03 
1451	 8.3319869305274E-03 
1452	 6.94041039498016E-03 
1453	 8.11253777870138E-03 
1454	 7.4910367943108E-03 
1455	 5.34170194778402E-03 
1456	 8.18258076839186E-03 
1457	 1.40172742997489E-02 
1458	 1.39690622765072E-02 
1459	 0.013994697304109 
1460	 1.44332092231014E-02 
1461	 1.15072754239742E-02 
1462	 9.74628276374327E-03 
1463	 9.82872596327709E-03 
1464	 1.10282745001897E-02 
1465	 1.09588069973287E-02 
1466	 1.09118441049536E-02 
1467	 1.51791184410116E-02 
1468	 1.59611146272329E-02 
1469	 1.15956294529838E-02 
1470	 1.10404351312315E-02 
1471	 1.31161045457243E-02 
1472	 0.013096416629868 
1473	 1.23163793574558E-02 
1474	 1.26701659553129E-02 
1475	 1.21213944578329E-02 
1476	 1.30381754612042E-02 
1477	 1.74566389935959E-02 
1478	 1.65067892358674E-02 
1479	 1.19393271042295E-02 
1480	 1.19980109429058E-02 
1481	 1.28333397866654E-02 
1482	 1.13588703013587E-02 
1483	 0.010313444395018 
1484	 1.06466031182637E-02 
1485	 9.89324489262704E-03 
1486	 9.65492574509775E-03 
1487	 0.011407033886295 
1488	 0.012105976165765 
1489	 1.17056762882476E-02 
1490	 1.12338234010816E-02 
1491	 1.10985370520295E-02 
1492	 1.09569821682407E-02 
1493	 1.03106113376445E-02 
1494	 9.93952750558674E-03 
1495	 9.67300638332201E-03 
1496	 9.78998192989484E-03 
1497	 1.02223170729323E-02 
1498	 0.010226263014556 
1499	 1.01723093578647E-02 
1500	 1.04123714353916E-02 
1501	 1.06575006141303E-02 
1502	 1.05907764695549E-02 
1503	 1.06132768703361E-02 
1504	 1.07727106448608E-02 
1505	 1.07699415289449E-02 
1506	 0.010528927471832 
1507	 1.07723632024964E-02 
1508	 1.09033246307256E-02 
1509	 1.06777025325465E-02 
1510	 1.06654095257785E-02 
1511	 1.06821372319567E-02 
1512	 1.06972889591919E-02 
1513	 1.05690878544946E-02 
1514	 1.04580676650673E-02 
1515	 1.06146812247619E-02 
1516	 1.05481710049528E-02 
1517	 1.05248961409427E-02 
1518	 1.07842051783587E-02 
1519	 1.07390181104094E-02 
1520	 1.03412781527456E-02 
1521	 1.02705292461855E-02 
1522	 1.04209268474782E-02 
1523	 1.02421858182688E-02 
1524	 1.02594843863312E-02 
1525	 1.04270261881229E-02 
1526	 1.02088796106146E-02 
1527	 1.00250668802024E-02 
1528	 1.02360203178596E-02 
1529	 1.05215616091807E-02 
1530	 1.05047403489981E-02 
1531	 1.03362678940657E-02 
1532	 1.04983532911573E-02 
1533	 1.07909880123742E-02 
1534	 0.01072780297001 
1535	 1.05620339293749E-02 
1536	 1.06022475611836E-02 
1537	 1.05630919730851E-02 
1538	 1.03183495100306E-02 
1539	 0.010502421849883 
1540	 1.08581320487129E-02 
1541	 1.07899447278261E-02 
1542	 1.06805009046184E-02 
1543	 1.07963057466235E-02 
1544	 1.08373989503733E-02 
1545	 1.06958786547252E-02 
1546	 0.010706568808912 
1547	 1.07988116092826E-02 
1548	 1.08581284749405E-02 
1549	 1.08793577182755E-02 
1550	 1.08051514336561E-02 
1551	 1.07362044164145E-02 
1552	 1.07277582690065E-02 
1553	 0.010614273299791 
1554	 1.06276328595319E-02 
1555	 1.10379433056768E-02 
1556	 1.11590505488844E-02 
1557	 1.07384574100302E-02 
1558	 1.05273649900976E-02 
1559	 1.07875839776015E-02 
1560	 1.10372125376851E-02 
1561	 1.11741916715761E-02 
1562	 1.13722699096738E-02 
1563	 0.011287386048594 
1564	 1.09910707103986E-02 
1565	 1.11410547792006E-02 
1566	 1.16347465476843E-02 
1567	 1.18872082552573E-02 
1568	 1.16527617038779E-02 
1569	 1.14799919214937E-02 
1570	 1.16670246639303E-02 
1571	 1.18257396448237E-02 
1572	 1.16905455710751E-02 
1573	 1.15306343864416E-02 
1574	 0.011697818734306 
1575	 1.16252250024697E-02 
1576	 1.12411372251388E-02 
1577	 1.09864451632433E-02 
1578	 0.011070814340283 
1579	 0.011293103980016 
1580	 1.12185198015938E-02 
1581	 1.12334246477211E-02 
1582	 1.12401707155989E-02 
1583	 1.08910551090062E-02 
1584	 1.08832392652359E-02 
1585	 1.11897921314068E-02 
1586	 1.11543465454298E-02 
1587	 1.10936615444221E-02 
1588	 1.12440284598921E-02 
1589	 1.13026845192395E-02 
1590	 1.12587570885533E-02 
1591	 1.11763333510921E-02 
1592	 1.13176449368786E-02 
1593	 0.01166678693631 
1594	 0.011701325059987 
1595	 1.14779117411516E-02 
1596	 1.14371875565222E-02 
1597	 1.15397569093176E-02 
1598	 0.011594326526648 
1599	 1.15140416580741E-02 
1600	 0.011422032002307 
1601	 1.15856454798833E-02 
1602	 0.011593904589474 
1603	 1.14396217431195E-02 
1604	 1.13449711879842E-02 
1605	 1.10616714927255E-02 
1606	 1.09626233786938E-02 
1607	 1.11125843827989E-02 
1608	 1.12161643021025E-02 
1609	 1.12436373492855E-02 
1610	 1.10442650958594E-02 
1611	 1.09809490893187E-02 
1612	 1.13440371396431E-02 
1613	 1.16047497499096E-02 
1614	 1.15110183642163E-02 
1615	 1.14361061198449E-02 
1616	 1.13859173650201E-02 
1617	 1.13417451218925E-02 
1618	 1.16086320096847E-02 
1619	 1.17669743755063E-02 
1620	 1.17053117385624E-02 
1621	 1.17648746561539E-02 
1622	 1.15263641786357E-02 
1623	 1.13095859942102E-02 
1624	 1.15242655522463E-02 
1625	 1.14568866250955E-02 
1626	 1.11346313690049E-02 
1627	 1.10667024177712E-02 
1628	 1.10913161403859E-02 
1629	 1.10459216488911E-02 
1630	 1.12311742165549E-02 
1631	 1.14133409716663E-02 
1632	 1.12817472210706E-02 
1633	 1.12733212425695E-02 
1634	 1.12250515367447E-02 
1635	 1.08470301282717E-02 
1636	 1.08074772361701E-02 
1637	 1.11344906560879E-02 
1638	 1.11275056434888E-02 
1639	 1.11976459443868E-02 
1640	 1.14724119236367E-02 
1641	 1.11777823625897E-02 
1642	 1.07833293773142E-02 
1643	 0.011124252804497 
1644	 1.13970144428922E-02 
1645	 1.11533705263238E-02 
1646	 1.11757236001517E-02 
1647	 1.12311292401828E-02 
1648	 1.08231185662042E-02 
1649	 1.06316503422315E-02 
1650	 1.09450659834292E-02 
1651	 1.11708681414415E-02 
1652	 1.13792427737232E-02 
1653	 1.21166111972203E-02 
1654	 1.22909983789065E-02 
1655	 1.18937226065959E-02 
1656	 0.011695936762631 
1657	 1.12205837201345E-02 
1658	 1.11504806937927E-02 
1659	 1.15169446580463E-02 
1660	 1.15460520048252E-02 
1661	 1.15596359811149E-02 
1662	 1.17896683090971E-02 
1663	 1.19084307561093E-02 
1664	 0.011848820614676 
1665	 1.19208689419449E-02 
1666	 1.19972185654453E-02 
1667	 0.012010410699313 
1668	 1.21175109960845E-02 
1669	 0.011825346337317 
1670	 1.16502414685521E-02 
1671	 1.14798338038352E-02 
1672	 1.14827354697912E-02 
1673	 1.19552760276448E-02 
1674	 1.21384874750395E-02 
1675	 1.17827727055868E-02 
1676	 1.17328777858287E-02 
1677	 1.16038009536866E-02 
1678	 1.13143479324344E-02 
1679	 1.16507213196808E-02 
1680	 1.14287807831973E-02 
1681	 1.06789947872862E-02 
1682	 1.08243422821404E-02 
1683	 0.010984826151826 
1684	 1.06525533805049E-02 
1685	 1.08911897283947E-02 
1686	 1.11106210212314E-02 
1687	 1.07564866018568E-02 
1688	 1.10461169848532E-02 
1689	 1.14781577667593E-02 
1690	 1.11855121695144E-02 
1691	 1.11000407262866E-02 
1692	 1.10861581215834E-02 
1693	 1.06988571227218E-02 
1694	 1.09489075920748E-02 
1695	 1.14465681111922E-02 
1696	 1.11951825559386E-02 
1697	 1.12403362042419E-02 
1698	 1.14817934802171E-02 
1699	 0.011217490612214 
1700	 1.15194696877916E-02 
1701	 1.19653217479682E-02 
1702	 1.14535425207649E-02 
1703	 1.10849744750581E-02 
1704	 1.14686274434256E-02 
1705	 0.011747644373966 
1706	 1.20638835023405E-02 
1707	 1.21493389387909E-02 
1708	 1.15011090684728E-02 
1709	 1.11362197557516E-02 
1710	 1.11067829103077E-02 
1711	 1.12365556976404E-02 
1712	 0.011387513553455 
1713	 1.07105768281274E-02 
1714	 1.06886807837836E-02 
1715	 1.13975854522997E-02 
1716	 1.15485374218701E-02 
1717	 1.12198167198085E-02 
1718	 1.10804230596385E-02 
1719	 1.07451946509891E-02 
1720	 1.05926435179688E-02 
1721	 0.011243400510887 
1722	 1.12542584507966E-02 
1723	 1.04714274746754E-02 
1724	 1.04670779216156E-02 
1725	 1.08542090363914E-02 
1726	 1.07381841130324E-02 
1727	 1.08005430672454E-02 
1728	 1.05376087460792E-02 
1729	 9.8149225778878E-03 
1730	 1.05682557701028E-02 
1731	 1.15375177696563E-02 
1732	 1.10117293997552E-02 
1733	 0.010875054963141 
1734	 1.09011502051527E-02 
1735	 9.95877546620433E-03 
1736	 1.01076118435595E-02 
1737	 1.12914397051579E-02 
1738	 1.12467546366022E-02 
1739	 1.10955833248585E-02 
1740	 1.13592846786514E-02 
1741	 1.01496868005738E-02 
1742	 9.13953007862886E-03 
1743	 9.9404231014941E-03 
1744	 1.06014281413794E-02 
1745	 1.05681608129691E-02 
1746	 9.9247408905648E-03 
1747	 9.73780857980423E-03 
1748	 9.53035854399715E-03 
1749	 9.60517299223665E-03 
1750	 1.01779482892082E-02 
1751	 1.02278377649622E-02 
1752	 0.010318547291119 
1753	 0.010339942331527 
1754	 9.88170991624797E-03 
1755	 9.88008878117297E-03 
1756	 1.00833876353919E-02 
1757	 9.79523500660259E-03 
1758	 1.05220800199157E-02 
1759	 1.09134862034692E-02 
1760	 9.75688064087838E-03 
1761	 9.62733200726093E-03 
1762	 1.05436797560356E-02 
1763	 1.09025947424875E-02 
1764	 1.11102369976447E-02 
1765	 0.011697865662152 
1766	 1.14666802242776E-02 
1767	 1.07401568878969E-02 
1768	 1.19074397374823E-02 
1769	 1.27406874216204E-02 
1770	 1.20207991630534E-02 
1771	 1.12233288858605E-02 
1772	 1.01781881701331E-02 
1773	 9.73375936214557E-03 
1774	 8.75047949794003E-03 
1775	 1.01508457187939E-02 
1776	 1.06799965959849E-02 
1777	 1.09681979637917E-02 
1778	 1.11871576094588E-02 
1779	 9.78984692418458E-03 
1780	 9.80452888129311E-03 
1781	 1.13192704801374E-02 
1782	 1.18944287673384E-02 
1783	 1.29732853245677E-02 
1784	 1.36486753404868E-02 
1785	 1.35104254075685E-02 
1786	 0.012223820363359 
1787	 1.04510972836893E-02 
1788	 9.82841214427392E-03 
1789	 7.08898751974448E-03 
1790	 1.12938686600361E-02 
1791	 1.37329500417519E-02 
1792	 1.46607566008611E-02 
1793	 1.53347345884733E-02 
1794	 1.01094392292616E-02 
1795	 6.99265131731499E-03 
1796	 7.90846163155825E-03 
1797	 7.61644508523291E-03 
1798	 1.28489508325786E-02 
1799	 0.016247209248431 
1800	-3.25921238633536E-03 
1801	-7.43469859479985E-03 
1802	-5.22035747311992E-03 
1803	-3.59178809404561E-03 
1804	 3.40488156386105E-02 
1805	 6.70954646704961E-02 
1806	 0.10868562902704 
1807	 0.113875041970866 
1808	 4.76988932315858E-02 
1809	-2.95384418112367E-03 
1810	-0.21995348042789 
1811	-0.203446123589614 
1812	 0.259025837297738 
1813	 0.539052503852237 
1814	 0.948639149235103 
1815	 0.888113117220302 
1816	 2.17097435060377E-02 
1817	-5.20639458838562E-02 
1818	-6.50925008463887E-02 
1819	 0.435766460551617 
1820	 1.1185846068516 
1821	 0.790500502655664 
1822	 0.564968918580109 
1823	-0.324505250675658 
1824	-1.67225725858259 
1825	-1.03686890920064 
1826	-0.730481704872844 
1827	 0.330560813438683 
1828	 0.418029796445559 
1829	 0.207969978639038 
1830	 0.234616519123479 
1831	-0.980119931052303 
1832	-0.803680205539655 
1833	-0.200491031719125 
1834	 1.79089024795373E-02 
1835	-5.20926064341296E-02 
1836	 6.48747754607357E-02 
1837	-0.129254049228904 
1838	-0.213989900178792 
1839	-0.483189123106601 
1840	 0.262290554461369 
1841	 0.164174927248122 
1842	-1.11874266527301E-02 
1843	-0.164475899859122 
1844	-1.03179939667296 
1845	-2.04171770066517 
1846	 4.44703355122031 
1847	 2.45798741514313 
1848	 34.4230241652456 
1849	 0.136208548123082 
1850	-0.78608744536263 
1851	-3.38434034687974E-02 
1852	 9.78698770467642E-02 
1853	-0.707429776480206 
1854	-1.01661017752821 
1855	-0.780943935887637 
1856	-0.849789754052664 
1857	 7.17592436715133 
1858	 7.71783770506024 
1859	-0.150448861353642 
1860	 0.150170961581482 
1861	-0.525056285639799 
1862	-0.605647172639053 
1863	-0.741315251258903 
1864	 36.45863968327 
1865	 10.5231735118489 
1866	-1.52851034723349 
1867	-0.693739181005434 
1868	-0.855131483154933 
1869	-0.510494824976412 
1870	 0.327258938836466 
1871	-4.31081753589348E-02 
1872	-0.411618120161387 
1873	-0.381982627750781 
1874	-0.41069215723659 
1875	-0.848127080540769 
1876	-1.08737878515752 
1877	-0.414366592895302 
1878	-0.487601644526925 
1879	-1.62251075410014 
1880	-1.68967889841571 
1881	-1.00184720542414 
1882	-1.5060657709671 
1883	-1.60093244537413 
1884	-1.18706938011348E-02 
1885	 0.389420966599882 
1886	 3.67476038993644 
1887	 3.12398187500751 
1888	-2.55647299015667 
1889	-0.620414565517889 
1890	-3.86119081649293 
1891	-1.69793456740946 
1892	-0.495678142961249 
1893	-0.500848509690868 
1894	-4.2099156538134 
1895	-2.03970587779068 
1896	 0.65051848238097 
1897	 0.192898097106751 
1898	 0.988605322014032 
1899	-9.87911904293863E-02 
1900	-0.011353378237954 
1901	 8.41960782872038 
1902	 40.7906617103105 
1903	-26.1674019953588 
1904	-2.69663568288038 
1905	 12.9454255701026 
1906	-1.42174381603059 
1907	 0.361368904913553 
1908	 2.75135549943362 
1909	-0.581938856537597 
1910	 3.23395979104822 
1911	-0.128848500181041 
1912	-0.525216318870962 
1913	-0.823811631463829 
1914	-9.67492335009607 
1915	-6.61225376947138 
1916	-0.30460162956366 
1917	 0.566430582499017 
1918	-10.1225956915893 
1919	 0.535311205427482 
1920	 0.713130973473685 
1921	 1.98276225993654 
1922	 3.31007716343771 
1923	 4.33882819765487 
1924	 2.36120497292308 
1925	 0.704885709949945 
1926	 0.474355300425149 
1927	 0.566559709069618 
1928	 0.521309109108687 
1929	 0.996732122590593 
1930	 4.2782974535196 
1931	 12.5002258515295 
1932	-34.4414716757031 
1933	-1.31167218101535 
1934	 1.83002890582384 
1935	 0.130443176488645 
1936	 0.328838011024713 
1937	 1.02157434106864 
1938	 0.862468520374468 
1939	 0.644381690358171 
1940	 0.440377148827412 
1941	 0.493125223661439 
1942	 0.42712886425762 
1943	 0.297566116666825 
1944	 0.450821374090729 
1945	 0.417998116919856 
1946	 0.202905195631155 
1947	 0.155383646529873 
1948	 0.150938885842478 
1949	 0.100186416140472 
1950	 0.110250567814441 
1951	 0.177287480807503 
1952	 0.171598764741739 
1953	 0.130042886559713 
1954	 7.96514283770362E-02 
1955	 9.04681062959803E-02 
1956	 5.53838518399143E-02 
1957	 3.01309262783747E-03 
1958	 1.14152925145977E-02 
1959	 2.08410472946752E-02 
1960	 2.85804344500209E-02 
1961	 3.64579696623373E-02 
1962	 3.30718695593042E-02 
1963	 2.75363599482032E-02 
1964	 1.78594075070779E-02 
1965	 1.20315172950558E-02 
1966	 1.14658517001742E-02 
1967	 1.62081402744623E-02 
1968	 1.70225586549361E-02 
1969	 1.45609490191289E-02 
1970	 1.47002496945132E-02 
1971	 0.01304194594335 
1972	 1.03795173036059E-02 
1973	 0.010950515626638 
1974	 9.55042741236885E-03 
1975	 8.27688684662027E-03 
1976	 7.30005216925154E-03 
1977	 4.52976990668957E-03 
1978	 4.30369139780481E-03 
1979	 4.73937036042422E-03 
1980	 6.13653382631216E-03 
1981	 6.68014116003667E-03 
1982	 8.20977225728599E-03 
1983	 9.61051769343088E-03 
1984	 8.55287895996665E-03 
1985	 6.97734878187944E-03 
1986	 7.0974676007769E-03 
1987	 7.45419703384248E-03 
1988	 7.36685548087608E-03 
1989	 8.5537372263752E-03 
1990	 9.0564116308312E-03 
1991	 7.20404884998691E-03 
1992	 6.61011051175446E-03 
1993	 8.71364040552595E-03 
1994	 9.44185030505055E-03 
1995	 1.01646764212682E-02 
1996	 1.04359653563593E-02 
1997	 1.20955916836668E-02 
1998	 0.010331849849128 
1999	 9.29891569943383E-03 
2000	 1.22488672036846E-02 
2001	 9.75870223885694E-03 
2002	 7.54433658352864E-03 
2003	 9.99068377026566E-03 
2004	 9.38261659301165E-03 
2005	 1.37807690404759E-02 
2006	 0.017311705039073 
2007	 0.016630456444384 
2008	 2.02520840328347E-02 
2009	 2.03568881056405E-02 
2010	 1.72898494214147E-02 
2011	 1.62776484734712E-02 
2012	 1.49982820277572E-02 
2013	 1.38838700971652E-02 
2014	 1.46650999182304E-02 
2015	 1.54033289476301E-02 
2016	 1.27486146019271E-02 
2017	 9.50865646673119E-03 
2018	 6.41751732465826E-03 
2019	 6.24521727228621E-03 
2020	 8.70532803929154E-03 
2021	 8.32689219973745E-03 
2022	 7.68937414337459E-03 
2023	 7.72226989528884E-03 
2024	 7.92385941963945E-03 
2025	 8.50991394025621E-03 
2026	 9.02816190567442E-03 
2027	 9.7892452111565E-03 
2028	 9.93070318240712E-03 
2029	 1.07579036649281E-02 
2030	 1.09543942855826E-02 
2031	 1.02475660417866E-02 
2032	 1.07358608479547E-02 
2033	 1.11115615709312E-02 
2034	 1.02502969649726E-02 
2035	 1.05158847507957E-02 
2036	 1.09720601834992E-02 
2037	 9.8807207940743E-03 
2038	 9.99994112884262E-03 
2039	 9.53671981078642E-03 
2040	 8.14585369692204E-03 
2041	 7.28567110413271E-03 
2042	 6.68063214406986E-03 
2043	 6.37521946160596E-03 
2044	 6.09383557543713E-03 
2045	 6.87674661662821E-03 
2046	 8.18294594382292E-03 
2047	 8.3919994175294E-03 
2048	 8.96202877273115E-03 
2049	 9.7730552275265E-03 
2050	 9.78921075227543E-03 
2051	 9.25385813553474E-03 
2052	 8.76364577556607E-03 
2053	 8.14997422518533E-03 
2054	 8.60727125349703E-03 
2055	 9.3156537971458E-03 
2056	 9.11562212822804E-03 
2057	 8.84386601950557E-03 
2058	 8.7996511509345E-03 
2059	 6.86427505903667E-03 
2060	 7.03276118341238E-03 
2061	 8.78886727881708E-03 
2062	 1.00126557351998E-02 
2063	 0.011353222060451 
2064	 1.24041208660539E-02 
2065	 1.30638606968081E-02 
2066	 0.013511864451506 
2067	 1.24773634767035E-02 
2068	 1.26566710460526E-02 
2069	 1.28102731373695E-02 
2070	 1.08068816674395E-02 
2071	 1.03061161960549E-02 
2072	 0.011629932278943 
2073	 1.14027101765724E-02 
2074	 9.98082407940902E-03 
2075	 1.03300408380799E-02 
2076	 1.15299597859229E-02 
2077	 1.14735002184942E-02 
2078	 1.19984431570295E-02 
2079	 1.17308035406725E-02 
2080	 1.04344426353655E-02 
2081	 8.75447828783923E-03 
2082	 8.09535455399539E-03 
2083	 8.7691623539126E-03 
2084	 8.89786193174206E-03 
2085	 9.46172503643684E-03 
2086	 9.42712826681957E-03 
2087	 8.98444286941447E-03 
2088	 9.28705319643869E-03 
2089	 8.70108868363959E-03 
2090	 9.35003105229868E-03 
2091	 1.00253534137155E-02 
2092	 9.70647515032917E-03 
2093	 9.16157184719036E-03 
2094	 8.85263683563969E-03 
2095	 6.67756338956872E-03 
2096	 6.75953153726469E-03 
2097	 9.28619494570867E-03 
2098	 9.84754476040519E-03 
2099	 1.00345016808116E-02 
2100	 0.010753705708032 
2101	 1.09574371572802E-02 
2102	 9.9778748196327E-03 
2103	 9.3527854867314E-03 
2104	 1.02794716221009E-02 
2105	 1.07288434263648E-02 
2106	 1.10793204268388E-02 
2107	 1.19769042829517E-02 
2108	 1.17807192474409E-02 
2109	 1.05364423955747E-02 
2110	 9.32963657766771E-03 
2111	 9.57178022411895E-03 
2112	 9.75120538033215E-03 
2113	 9.56434874785391E-03 
2114	 9.62936722144768E-03 
2115	 1.02855142708708E-02 
2116	 1.05304009487372E-02 
2117	 1.08808655392071E-02 
2118	 0.012736620533165 
2119	 0.01315235696781 
2120	 1.21025503811268E-02 
2121	 1.20223369761756E-02 
2122	 1.20764247249934E-02 
2123	 0.012091303685388 
2124	 1.22854080497268E-02 
2125	 1.20098190938934E-02 
2126	 1.21617800489016E-02 
2127	 1.16168689464396E-02 
2128	 1.08727871056698E-02 
2129	 0.010719957072538 
2130	 1.02528769537568E-02 
2131	 1.04394447587786E-02 
2132	 1.12291109585097E-02 
2133	 1.14867575955718E-02 
2134	 1.14187778425614E-02 
2135	 1.08155496140878E-02 
2136	 1.07922548802777E-02 
2137	 1.05879477776746E-02 
2138	 1.09711122927482E-02 
2139	 0.012908228600396 
2140	 1.26490518480674E-02 
2141	 1.07612886070799E-02 
2142	 9.98292416775088E-03 
2143	 8.01280588228854E-03 
2144	 7.71354654347159E-03 
2145	 9.59888908145242E-03 
2146	 1.15307788510584E-02 
2147	 1.31923259532371E-02 
2148	 1.26623060855962E-02 
2149	 1.19152078030296E-02 
2150	 1.18942453674806E-02 
2151	 0.010671805253752 
2152	 1.09411392870666E-02 
2153	 1.09509717348044E-02 
2154	 1.04125644938786E-02 
2155	 1.18685338174382E-02 
2156	 1.18430960992043E-02 
2157	 1.17249220194869E-02 
2158	 1.18837708094704E-02 
2159	 1.15131813080825E-02 
2160	 9.75815583207549E-03 
2161	 9.78618730455269E-03 
2162	 1.02413295135248E-02 
2163	 9.7915618794145E-03 
2164	 1.02179415173683E-02 
2165	 0.010379311969186 
2166	 9.68025312213867E-03 
2167	 9.77436449403589E-03 
2168	 1.00640963421036E-02 
2169	 1.01019809858478E-02 
2170	 9.94703268495671E-03 
2171	 0.010859603125316 
2172	 1.12572260946041E-02 
2173	 1.21793837322059E-02 
2174	 1.12668542840995E-02 
2175	 9.63515646986673E-03 
2176	 8.99746421277117E-03 
2177	 8.65777175494716E-03 
2178	 9.68589196080818E-03 
2179	 1.03941884659651E-02 
2180	 1.08674705370295E-02 
2181	 1.12393330237117E-02 
2182	 9.85501154677182E-03 
2183	 9.36451178335829E-03 
2184	 9.72715512721769E-03 
2185	 9.34740050975172E-03 
2186	 9.2905780054549E-03 
2187	 9.89060052220038E-03 
2188	 1.07725314480211E-02 
2189	 1.19064385808485E-02 
2190	 1.20573505620687E-02 
2191	 1.31328569319839E-02 
2192	 0.013262468907829 
2193	 1.05628489556939E-02 
2194	 0.010814421339155 
2195	 1.32529223675644E-02 
2196	 1.35959891675497E-02 
2197	 1.46858522724126E-02 
2198	 1.48667213217622E-02 
2199	 1.29689032545602E-02 
2200	 0.011638296725089 
2201	 1.19927658241067E-02 
2202	 1.12361271316856E-02 
2203	 9.77068955123165E-03 
2204	 8.6448763378621E-03 
2205	 8.09261128222354E-03 
2206	 7.23813433851037E-03 
2207	 7.31275399958346E-03 
2208	 8.3893398865792E-03 
2209	 7.31279452604136E-03 
2210	 7.13411475606004E-03 
2211	 8.53889637247797E-03 
2212	 0.01011232814644 
2213	 9.55404324534907E-03 
2214	 8.69282110895956E-03 
2215	 8.83735208701728E-03 
2216	 6.93673514920334E-03 
2217	 6.73009759537542E-03 
2218	 9.68283570046847E-03 
2219	 9.28685311841165E-03 
2220	 6.11996525673306E-03 
2221	 6.40867410073011E-03 
2222	 8.25697669047164E-03 
2223	 8.68986541878122E-03 
2224	 1.07556524875439E-02 
2225	 1.09289150692707E-02 
2226	 7.87774637022368E-03 
2227	 7.22040335564899E-03 
2228	 7.11420300190969E-03 
2229	 7.0940589858883E-03 
2230	 9.07655287285636E-03 
2231	 8.93862467175154E-03 
2232	 6.48219303740303E-03 
2233	 7.3623618333018E-03 
2234	 1.03308136561903E-02 
2235	 0.010221992519993 
2236	 8.66452481149195E-03 
2237	 8.28802387796764E-03 
2238	 7.90417918020826E-03 
2239	 7.05556175156669E-03 
2240	 8.73038422090745E-03 
2241	 9.48613372204509E-03 
2242	 6.64675637508446E-03 
2243	 3.06925353012811E-03 
2244	 2.10473811911481E-03 
2245	 4.30206747011513E-03 
2246	 5.86194013996903E-03 
2247	 7.09168215667926E-03 
2248	 9.30162409015312E-03 
2249	 9.9114935808896E-03 
2250	 8.40850024216462E-03 
2251	 7.05152684480673E-03 
2252	 5.24717300166286E-03 
2253	 2.93152596245193E-03 
2254	 4.17821093768284E-03 
2255	 7.55141997684071E-03 
2256	 9.78435752078152E-03 
2257	 1.14596572569301E-02 
2258	 1.15614409465382E-02 
2259	 9.68006503127586E-03 
2260	 8.55982342254221E-03 
2261	 6.82642217483475E-03 
2262	 6.77683597554071E-03 
2263	 7.08106276356941E-03 
2264	 8.02379660865557E-03 
2265	 1.07945910712769E-02 
2266	 1.26692542775053E-02 
2267	 1.58647233313448E-02 
2268	 1.51071339974897E-02 
2269	 1.09718121864906E-02 
2270	 9.94258721649146E-03 
2271	 7.07556394510117E-03 
2272	 6.30037648223508E-03 
2273	 1.05741940084288E-02 
2274	 1.11938248345743E-02 
2275	 8.58746886275262E-03 
2276	 8.81071834542842E-03 
2277	 1.00111178572723E-02 
2278	 0.010197866049211 
2279	 1.14352039454008E-02 
2280	 0.01135542800269 
2281	 1.12421122823551E-02 
2282	 7.71075309946071E-03 
2283	 4.16965041646835E-03 
2284	 4.66594580374926E-03 
2285	 5.98597351296182E-03 
2286	 8.06360962758776E-03 
2287	 9.61122919820657E-03 
2288	 0.012504908387745 
2289	 1.36739242972191E-02 
2290	 1.12473288661547E-02 
2291	 8.87365829430548E-03 
2292	 6.24595414561673E-03 
2293	 2.01690319929246E-03 
2294	-5.89574813632582E-04 
2295	 1.93797115961165E-03 
2296	 2.37414037874878E-03 
2297	 3.58468774264693E-03 
2298	 7.53468307557193E-03 
2299	 6.19650202687521E-03 
2300	 4.98521026908135E-03 
2301	 6.60347311538986E-03 
2302	 9.33744123093707E-03 
2303	 1.50168219363429E-02 
2304	 1.95337424840078E-02 
2305	 1.82376138640492E-02 
2306	 1.17568899349129E-02 
2307	 8.47352426701902E-03 
2308	 0.010318722483181 
2309	 8.51692964168926E-03 
2310	 6.4043083118618E-03 
2311	 6.46075130200527E-03 
2312	 4.8848472980664E-03 
2313	 3.58957743660594E-03 
2314	 4.69097605266826E-04 
2315	-4.88091576510569E-03 
2316	-7.7949855248588E-03 
2317	-3.62522493350931E-03 
2318	 7.02893082537449E-03 
2319	 1.09995809838686E-02 
2320	 3.6045996748989E-03 
2321	 4.4904196345934E-04 
2322	 1.4045929740218E-03 
2323	 6.55523101155757E-03 
2324	 1.73560875611229E-02 
2325	 1.78910835045377E-02 
2326	 1.39168219361926E-02 
2327	 8.40829719297483E-03 
2328	 1.99099184053329E-03 
2329	 7.61721812909126E-04 
2330	 2.99051559789336E-03 
2331	 5.01890341098167E-03 
2332	 8.72360814571933E-03 
2333	 1.12702871276885E-02 
2334	 4.63219772255725E-03 
2335	 4.48727122746554E-03 
2336	 6.82184083918597E-03 
2337	 6.25356805966397E-03 
2338	 1.11792541552959E-02 
2339	 0.012203411815286 
2340	 1.41131157112586E-02 
2341	 1.84086813955182E-02 
2342	 1.63429200981738E-02 
2343	 1.43591184603687E-02 
2344	 9.54492724338683E-03 
2345	-8.88118261023954E-05 
2346	 7.08586252445022E-03 
2347	 9.59130269357115E-03 
2348	 1.13828766897776E-02 
2349	 2.26154287227481E-02 
2350	 1.83293686127468E-02 
2351	 3.12067751504591E-02 
2352	 4.64132416198629E-02 
2353	 4.42272969061783E-02 
2354	 4.13605270397148E-02 
2355	 0.037422309639395 
2356	 2.95805806930678E-02 
2357	 0.019758742014768 
2358	 1.66199882354236E-02 
2359	 1.36356439951457E-02 
2360	 1.49174559891398E-02 
2361	 0.010628384001594 
2362	 4.76366980345664E-03 
2363	 6.82924778626374E-03 
2364	-5.82059666655445E-03 
2365	-1.26879666902877E-02 
2366	-5.21935698726937E-03 
2367	-1.41681059940791E-02 
2368	-2.76579690175225E-02 
2369	-2.64751213493348E-02 
2370	-2.77253916936216E-02 
2371	-1.74145117738772E-02 
2372	 1.84104245708949E-02 
2373	 3.90178245913486E-02 
2374	 4.85974465565951E-02 
2375	 5.06327387612221E-02 
2376	 0.023568625821443 
2377	-1.40243716398522E-02 
2378	-2.48042481081788E-02 
2379	-7.85878559279554E-03 
2380	 1.07463752538399E-02 
2381	 2.84287925398674E-02 
2382	 2.22847117976244E-02 
2383	-5.81653741040524E-03 
2384	-4.42597740616819E-02 
2385	-5.17225962875159E-02 
2386	 1.8790939694053E-03 
2387	 3.66479803143149E-02 
2388	 6.97772305942253E-02 
2389	 5.43805710451288E-02 
2390	-1.21651074726436E-02 
2391	-1.01813749923796E-02 
2392	-1.73756649948566E-02 
2393	-4.01452899168713E-02 
2394	 1.82156156546818E-04 
2395	 1.28064355111724E-02 
2396	-3.07596937382793E-02 
2397	 2.80573036171135E-02 
2398	 0.130321898383181 
2399	 0.114592828672529 
2400	 0.14180685578828 
2401	 0.181832368949983 
2402	 7.34984766561913E-02 
2403	-5.26436105441688E-03 
2404	-1.54833823366056E-02 
2405	-5.36294542264471E-02 
2406	-3.92422757231989E-02 
2407	-1.37780423242082E-02 
2408	-3.90133540583472E-02 
2409	-0.15017371073985 
2410	-0.35846216505883 
2411	-0.300019377401177 
2412	-3.77058440050564E-02 
2413	-4.43710305174162E-02 
2414	 4.59246410855669E-02 
2415	 8.13954209494168E-02 
2416	-0.259152694393777 
2417	-0.192041569765044 
2418	 4.27397356281789E-02 
2419	-1.50313575822975E-02 
2420	-7.50752492562815E-02 
2421	-1.91810927232266E-02 
2422	-7.77591059454244E-02 
2423	-6.07864311262623E-02 
2424	 7.26135123268891E-02 
2425	 2.81645310910764E-02 
2426	 2.27522244432541E-02 
2427	 2.43144103056734E-02 
2428	-0.149202991307651 
2429	-0.168255151237198 
2430	-4.43415842405784E-02 
2431	-2.27729752395784E-02 
2432	 0.134919262537655 
2433	 0.162412656922438 
2434	-0.112030675505603 
2435	-0.123312856421828 
2436	-0.101569057463264 
2437	-0.118326848917747 
2438	 9.55440173202264E-02 
2439	 0.248410414922286 
2440	 0.151971818163693 
2441	 0.563936010060004 
2442	 1.39599913841519 
2443	 0.367024826641894 
2444	 6.47282882731302E-02 
2445	-0.579734805075272 
2446	-1.84778223282852 
2447	-10.1194997782118 
2448	 2.08170059870666 
2449	-2.09413717074009 
2450	-7.42883657893954 
2451	-1.03175634925316 
2452	-1.13417735382177 
2453	 1.4176202174752 
2454	-0.595380944104961 
2455	-0.17076973270063 
2456	-7.6423352862996E-03 
2457	-0.299102629703183 
2458	-0.321690139897074 
2459	-0.70935900697215 
2460	-1.62007647336451 
2461	-4.46866022679693 
2462	-1.02413829900102 
2463	 0.290661345402265 
2464	 0.573555979043871 
2465	 0.57657685728227 
2466	 0.682893589809552 
2467	 2.87271448993114 
2468	-2.77461174255083 
2469	-1.38772840260914 
2470	 1.63426200069642E-02 
2471	-1.10220849910753 
2472	-1.42291080796178 
2473	-2.64782767233722 
2474	-0.110348657963935 
2475	-0.293150992088604 
2476	-0.211019351824934 
2477	 0.444681647277944 
2478	 1.15364547414914 
2479	 5.06815929457231 
2480	 5.97661658708047 
2481	 0.768354015486712 
2482	 8.17301686452783E-03 
2483	-0.528598893952609 
2484	-1.43251006786279 
2485	 6.29175449851388 
2486	-10.6768459860062 
2487	-4.28699266317366 
2488	-3.98883466520148 
2489	-1.35257287026027 
2490	-1.9468756077524 
2491	-5.1205163928728 
2492	-0.666311943378014 
2493	 0.452984769882892 
2494	 2.37785090321833E-02 
2495	 0.174896978225055 
2496	 0.210809495951477 
2497	-0.997128610876228 
2498	-1.38619972851177 
2499	 15.9032007795561 
2500	 21.2926951153022 
