Wavelength	rt0628far00004.asd
350	 6.59713541517831E-02 
351	 6.85175659988419E-02 
352	 6.75139739944948E-02 
353	 6.65092852945158E-02 
354	 6.76587573188335E-02 
355	 0.06653357997219 
356	 6.67762755742563E-02 
357	 6.71089578941335E-02 
358	 6.59059382984469E-02 
359	 6.67076816682682E-02 
360	 6.67991547601649E-02 
361	 6.62863465411702E-02 
362	 6.70086227705205E-02 
363	 6.64428707057698E-02 
364	 0.066237460071529 
365	 6.68540331089462E-02 
366	 6.62274114679727E-02 
367	 6.65640987458109E-02 
368	 6.69306383374876E-02 
369	 6.64651552113268E-02 
370	 6.76730479861512E-02 
371	 6.74879187058376E-02 
372	 6.67541745377697E-02 
373	 6.80735077099396E-02 
374	 6.76263464147548E-02 
375	 0.067696089514865 
376	 6.87107815441998E-02 
377	 6.78340582145627E-02 
378	 6.88818526450333E-02 
379	 6.95734139146299E-02 
380	 6.82838436351328E-02 
381	 7.00841151307428E-02 
382	 6.99663119566387E-02 
383	 6.91299051936441E-02 
384	 7.08589215908467E-02 
385	 7.03156555721141E-02 
386	 7.06487514625422E-02 
387	 7.19544715917331E-02 
388	 7.05466047859215E-02 
389	 7.19304539692184E-02 
390	 7.27837807321444E-02 
391	 7.11099684290389E-02 
392	 7.23000478488513E-02 
393	 7.22009557508274E-02 
394	 7.18812600082893E-02 
395	 7.33157732157924E-02 
396	 7.25168211547547E-02 
397	 7.25864858474843E-02 
398	 7.34975599305068E-02 
399	 7.24756387849655E-02 
400	 7.28371940747755E-02 
401	 7.31882972776637E-02 
402	 7.26806347039057E-02 
403	 7.33612485078936E-02 
404	 7.34483407956704E-02 
405	 7.33330943227804E-02 
406	 7.38830512199666E-02 
407	 7.37637475931825E-02 
408	 7.40229757212408E-02 
409	 7.45993686382262E-02 
410	 7.43191117512137E-02 
411	 0.074793293495721 
412	 7.51937869230914E-02 
413	 7.50356276578458E-02 
414	 0.075764221059831 
415	 7.60013701883979E-02 
416	 7.60573488937611E-02 
417	 7.66818145323271E-02 
418	 7.67974331688214E-02 
419	 7.71294388676011E-02 
420	 7.77013822613358E-02 
421	 7.77054829866541E-02 
422	 7.83539987471986E-02 
423	 7.89382590135505E-02 
424	 7.89802334412975E-02 
425	 7.98069743550278E-02 
426	 8.02518142103073E-02 
427	 8.05913494776044E-02 
428	 8.15619896583186E-02 
429	 8.18247400475531E-02 
430	 8.23521499882086E-02 
431	 0.0832626161432 
432	 8.34611975124297E-02 
433	 8.41521607270304E-02 
434	 8.48738610650539E-02 
435	 8.51940518668958E-02 
436	 8.58956889343958E-02 
437	 8.63918510492077E-02 
438	 8.68360506538948E-02 
439	 8.76702480554207E-02 
440	 8.80676802001712E-02 
441	 8.86011351384002E-02 
442	 0.089387251560972 
443	 8.96486575727517E-02 
444	 9.02627026094202E-02 
445	 0.090892104225894 
446	 9.11426346104832E-02 
447	 9.17528070328677E-02 
448	 0.092215545141995 
449	 9.25686793624025E-02 
450	 9.32124717494547E-02 
451	 0.093550051293978 
452	 9.39532579281814E-02 
453	 9.45644916523412E-02 
454	 9.47489051727162E-02 
455	 9.52096751862388E-02 
456	 9.57020977780104E-02 
457	 9.58319995664029E-02 
458	 9.63586800050634E-02 
459	 9.66870731934221E-02 
460	 9.68217893112417E-02 
461	 9.73897297336618E-02 
462	 9.76459680119777E-02 
463	 9.79424603126368E-02 
464	 9.85074833068748E-02 
465	 9.85926574571049E-02 
466	 9.89293556416068E-02 
467	 9.94258522418612E-02 
468	 9.96637473983238E-02 
469	 0.100080066340301 
470	 0.100306093361991 
471	 0.100401467850103 
472	 0.10107686058729 
473	 0.101329142445857 
474	 0.101574944459251 
475	 0.102240797195064 
476	 0.102379856740496 
477	 0.102778740100726 
478	 0.103362325286967 
479	 0.103541309726124 
480	 0.104127267128652 
481	 0.104583086314185 
482	 0.104721378567654 
483	 0.105443098111883 
484	 0.105873516687837 
485	 0.10625709227009 
486	 0.107052162858468 
487	 0.107526440184403 
488	 0.10809604498797 
489	 0.108729640367038 
490	 0.108955717331457 
491	 0.10960866888677 
492	 0.110274557711219 
493	 0.110645097481774 
494	 0.111417594188721 
495	 0.111978182706179 
496	 0.112486926899117 
497	 0.1133804372574 
498	 0.113858789130646 
499	 0.114468284667605 
500	 0.115330438807878 
501	 0.115697231439022 
502	 0.116499800065884 
503	 0.117332020179258 
504	 0.117727172321759 
505	 0.118615369949527 
506	 0.119293625436157 
507	 0.119806945607979 
508	 0.120760840201415 
509	 0.121408968981305 
510	 0.122107313777136 
511	 0.123038457704613 
512	 0.123530966127642 
513	 0.124338936236198 
514	 0.125253988828153 
515	 0.12579059808827 
516	 0.126779702199565 
517	 0.127610851608566 
518	 0.128222924653347 
519	 0.129371044001151 
520	 0.130079554717956 
521	 0.130735426875705 
522	 0.13174434433136 
523	 0.132409022029279 
524	 0.133276092655532 
525	 0.13425184160611 
526	 0.134862535995856 
527	 0.135881591631215 
528	 0.13681312801665 
529	 0.137444770276406 
530	 0.138502767837011 
531	 0.13934124796235 
532	 0.140125723301896 
533	 0.141185430170811 
534	 0.141942256626636 
535	 0.142826689367534 
536	 0.143876909892879 
537	 0.14462330838295 
538	 0.145614390570903 
539	 0.146580134416583 
540	 0.147295509491948 
541	 0.148362956272161 
542	 0.14924539492156 
543	 0.150034649910239 
544	 0.151151863245056 
545	 0.151969563825771 
546	 0.152839874630581 
547	 0.153901069970304 
548	 0.154621670881113 
549	 0.155571829253815 
550	 0.156590665025769 
551	 0.157368368695415 
552	 0.158325893119143 
553	 0.159167357465322 
554	 0.159903395706209 
555	 0.16091619285075 
556	 0.161687946012504 
557	 0.162494276032699 
558	 0.163544874538864 
559	 0.164206643783777 
560	 0.165028052404926 
561	 0.16593319249988 
562	 0.166519679085427 
563	 0.167327853601273 
564	 0.168074670302951 
565	 0.168635571116722 
566	 0.169422449543811 
567	 0.169946694304472 
568	 0.170442014267256 
569	 0.171254036378556 
570	 0.171744608529167 
571	 0.172294632597961 
572	 0.172920336322796 
573	 0.173199696264456 
574	 0.173742926868107 
575	 0.174276351712006 
576	 0.174543382803554 
577	 0.17504596101354 
578	 0.175387786186614 
579	 0.175658746096139 
580	 0.176177299384556 
581	 0.176343530606818 
582	 0.176550778866695 
583	 0.176935466708879 
584	 0.176920995236547 
585	 0.177110349389702 
586	 0.177241337592412 
587	 0.176929788467849 
588	 0.177083163391721 
589	 0.177104724680088 
590	 0.176941845221794 
591	 0.177189568716373 
592	 0.177030925919806 
593	 0.176864419527102 
594	 0.176996660897902 
595	 0.176667870770667 
596	 0.176458611857649 
597	 0.176285860740612 
598	 0.175778221074068 
599	 0.175620656960344 
600	 0.175403919159248 
601	 0.175001016526093 
602	 0.175001235506326 
603	 0.174896548181867 
604	 0.174859902810014 
605	 0.175101500511542 
606	 0.174842655900434 
607	 0.174840008594441 
608	 0.17512404616746 
609	 0.174940819451407 
610	 0.175109192512342 
611	 0.175272449043204 
612	 0.175137937839039 
613	 0.175353440502137 
614	 0.175397872677905 
615	 0.175370945708352 
616	 0.175634934238913 
617	 0.17554511999108 
618	 0.175583090825373 
619	 0.175868597125001 
620	 0.175733589859341 
621	 0.17590149518416 
622	 0.176094903023846 
623	 0.175933616102728 
624	 0.176216694141065 
625	 0.176258687998537 
626	 0.176074501712391 
627	 0.176349781289707 
628	 0.176294303295209 
629	 0.176310721847123 
630	 0.176633752784111 
631	 0.17641787087273 
632	 0.176515135112135 
633	 0.176738808313854 
634	 0.176547749673712 
635	 0.176807373144452 
636	 0.176974109728432 
637	 0.176877188161904 
638	 0.177066675339109 
639	 0.176978659368111 
640	 0.176934870491567 
641	 0.177229034229536 
642	 0.176948319710221 
643	 0.176857026402781 
644	 0.17691565173169 
645	 0.176461975292181 
646	 0.176423913739977 
647	 0.176434284821168 
648	 0.17621996260494 
649	 0.176351680368986 
650	 0.176046553018413 
651	 0.175655548113482 
652	 0.175759740703674 
653	 0.175292573167167 
654	 0.174821517774537 
655	 0.174497219358629 
656	 0.173812522056042 
657	 0.173480906328296 
658	 0.173167958743297 
659	 0.172607082245403 
660	 0.172451232868357 
661	 0.172103480390784 
662	 0.171630164818926 
663	 0.17146432961022 
664	 0.171138896818235 
665	 0.170894664590712 
666	 0.170799264676889 
667	 0.170442670024885 
668	 0.170411269682015 
669	 0.170426075938943 
670	 0.170135077597802 
671	 0.170361235956554 
672	 0.170405146425434 
673	 0.170267029860961 
674	 0.170607518456872 
675	 0.170570160016655 
676	 0.170607201873806 
677	 0.1710217705275 
678	 0.171088938908029 
679	 0.171413045470265 
680	 0.171799942674303 
681	 0.17183566340561 
682	 0.172301331096665 
683	 0.172589491839145 
684	 0.17257175398033 
685	 0.172927883165384 
686	 0.172838033669155 
687	 0.172847229342149 
688	 0.173431242347102 
689	 0.173313938472723 
690	 0.173364501199947 
691	 0.173480279488246 
692	 0.173063663060896 
693	 0.173117838551071 
694	 0.173069383884382 
695	 0.172732867771784 
696	 0.172893346206414 
697	 0.172430350204128 
698	 0.171786324884505 
699	 0.171627054422199 
700	 0.170845770992247 
701	 0.170447780192056 
702	 0.170316998236432 
703	 0.169475438449017 
704	 0.168939207829027 
705	 0.168271835706818 
706	 0.167272709212135 
707	 0.166704048061745 
708	 0.16572642864532 
709	 0.164592616989672 
710	 0.163748831512725 
711	 0.162299531739834 
712	 0.160903924150977 
713	 0.159610473473655 
714	 0.157715470203148 
715	 0.15602570310547 
716	 0.154103805097134 
717	 0.151675992728609 
718	 0.149907587217982 
719	 0.147949095793467 
720	 0.146241675180002 
721	 0.144976183160271 
722	 0.143002463689699 
723	 0.140833373825484 
724	 0.138846449803198 
725	 0.13628038485818 
726	 0.134080168635255 
727	 0.131680971670708 
728	 0.128677531342836 
729	 0.126037095267875 
730	 0.122941235372197 
731	 0.119953497947265 
732	 0.117754476132364 
733	 0.115423276148131 
734	 0.11350735041405 
735	 0.112070748373882 
736	 0.110401946544857 
737	 0.109378656393438 
738	 0.108638885218793 
739	 0.107860676405648 
740	 0.107740110387976 
741	 0.107384394087408 
742	 0.106958163470486 
743	 0.107040809451108 
744	 0.106725231544444 
745	 0.106576741154604 
746	 0.106701045806213 
747	 0.106402303833116 
748	 0.106358172921974 
749	 0.106335977026646 
750	 0.106131989296911 
751	 0.106464125481439 
752	 0.106341344388635 
753	 0.106011163338516 
754	 0.106256684879686 
755	 0.106103333125407 
756	 0.10603266221202 
757	 0.106132510762341 
758	 0.105611512044158 
759	 0.105727407529252 
760	 0.105919524365491 
761	 0.10506831508234 
762	 0.1058247357434 
763	 0.105740260919824 
764	 0.105606673081097 
765	 0.106529792130313 
766	 0.106456195969583 
767	 0.106679223474551 
768	 0.107257380830098 
769	 0.107086463704637 
770	 0.107382417678936 
771	 0.10771549429936 
772	 0.107720730018135 
773	 0.108139815678245 
774	 0.108376995321328 
775	 0.108598656686072 
776	 0.109166969125926 
777	 0.109460549684814 
778	 0.109917067817459 
779	 0.110471881188595 
780	 0.110555428640896 
781	 0.111211043318099 
782	 0.111746653725432 
783	 0.111813202909275 
784	 0.112596466581641 
785	 0.113002005532222 
786	 0.113342564183096 
787	 0.114172621359951 
788	 0.114453498216915 
789	 0.115037029898101 
790	 0.11584152875507 
791	 0.11610375044549 
792	 0.117041875729843 
793	 0.117772607498403 
794	 0.117997808591972 
795	 0.118801284080821 
796	 0.119182407774713 
797	 0.119602794830344 
798	 0.120493338888265 
799	 0.120648628730484 
800	 0.12117764458006 
801	 0.121854915099162 
802	 0.121895950297728 
803	 0.122518494645757 
804	 0.122878289303049 
805	 0.122840313440121 
806	 0.123176313582636 
807	 0.123143174579027 
808	 0.123079838968659 
809	 0.123169353913141 
810	 0.12257702491009 
811	 0.122338783057203 
812	 0.122108165235847 
813	 0.121217643276374 
814	 0.121192115839474 
815	 0.12058310483718 
816	 0.11955015433925 
817	 0.119437153178568 
818	 0.118328421998571 
819	 0.117518599995146 
820	 0.117087004762084 
821	 0.115353370798377 
822	 0.113927430318471 
823	 0.112165096771029 
824	 0.109778407957634 
825	 0.108389860605627 
826	 0.106011867130689 
827	 0.103241625498772 
828	 0.101396301015792 
829	 9.83290781446598E-02 
830	 9.61263159719687E-02 
831	 9.46684740118845E-02 
832	 0.092414164068633 
833	 9.13640357694929E-02 
834	 0.090251525081145 
835	 8.88259481918674E-02 
836	 8.85719830906732E-02 
837	 8.78055089484699E-02 
838	 8.70258713903374E-02 
839	 8.66994139778552E-02 
840	 8.59425151979946E-02 
841	 8.56124935197744E-02 
842	 8.52592010943621E-02 
843	 0.084336463559443 
844	 8.42039901235272E-02 
845	 8.36520094400506E-02 
846	 0.08287268390724 
847	 8.28628697071871E-02 
848	 8.20965480883278E-02 
849	 8.16272467703268E-02 
850	 8.15995585522232E-02 
851	 8.07257767902074E-02 
852	 8.05478295616437E-02 
853	 8.03148824111845E-02 
854	 7.95953974949815E-02 
855	 7.96598861308266E-02 
856	 7.89575279310696E-02 
857	 0.078286594140245 
858	 7.84189449254988E-02 
859	 7.76291284419474E-02 
860	 7.72821506187749E-02 
861	 7.71788972174559E-02 
862	 7.65451274747062E-02 
863	 7.65213310582428E-02 
864	 7.58734717693793E-02 
865	 7.49451352800126E-02 
866	 7.53371993876019E-02 
867	 7.46287541880356E-02 
868	 7.42034299176481E-02 
869	 7.43260351196488E-02 
870	 7.32458191539479E-02 
871	 7.30099405921645E-02 
872	 7.25934432416898E-02 
873	 7.14567781443846E-02 
874	 7.16579928887633E-02 
875	 7.10012940558517E-02 
876	 0.070244513929189 
877	 7.02922753876963E-02 
878	 6.89989052703132E-02 
879	 6.88030691789841E-02 
880	 6.88466658173614E-02 
881	 0.067382363563709 
882	 6.73844002597637E-02 
883	 6.68096205286832E-02 
884	 6.58292866796702E-02 
885	 6.60979297846508E-02 
886	 6.51650415884643E-02 
887	 6.46592606827451E-02 
888	 6.47291822838823E-02 
889	 6.35430559237718E-02 
890	 6.34735543079949E-02 
891	 6.31924389143615E-02 
892	 6.21690262070096E-02 
893	 6.26691019289076E-02 
894	 6.16155696037391E-02 
895	 6.08789675420175E-02 
896	 6.18510994882446E-02 
897	 5.91293953455568E-02 
898	 5.92157097743823E-02 
899	 5.98467143021519E-02 
900	 0.057844759674629 
901	 5.87416607414007E-02 
902	 5.79653484834558E-02 
903	 5.69932987892355E-02 
904	 0.058215654280142 
905	 0.056356313889636 
906	 5.61920468908377E-02 
907	 5.67162647519423E-02 
908	 5.36406553876349E-02 
909	 5.47555660908494E-02 
910	 5.46080842975876E-02 
911	 5.27933526601107E-02 
912	 5.38340789974821E-02 
913	 0.051790170979798 
914	 5.10675713456389E-02 
915	 5.19143095262046E-02 
916	 0.049245229965676 
917	 4.96071494634676E-02 
918	 4.88585760369563E-02 
919	 4.64732873123304E-02 
920	 4.80292894740006E-02 
921	 4.63325443892681E-02 
922	 4.50859284614403E-02 
923	 4.60942153805884E-02 
924	 4.26627390516615E-02 
925	 4.24851693191183E-02 
926	 4.26398914198578E-02 
927	 3.95672002125544E-02 
928	 4.16896125861614E-02 
929	 3.91319093172501E-02 
930	 3.63536049673599E-02 
931	 4.35380335329285E-02 
932	 3.54931781253992E-02 
933	 3.74540720642079E-02 
934	 3.90420619814097E-02 
935	 2.25545652694093E-02 
936	 3.36480599580183E-02 
937	 3.19716045239387E-02 
938	 2.83371113852358E-02 
939	 3.79685244181468E-02 
940	 2.85299027315988E-02 
941	 0.03026053971715 
942	 3.50497526104622E-02 
943	 2.27770180780218E-02 
944	 2.94145092867628E-02 
945	 2.84853833356709E-02 
946	 2.37871901216455E-02 
947	 0.032494493944392 
948	 2.39405094299047E-02 
949	 2.40807626737938E-02 
950	 2.84746175690848E-02 
951	 1.88637417115736E-02 
952	 2.51601068200997E-02 
953	 2.29377861305245E-02 
954	 1.71357673138893E-02 
955	 2.75730018679598E-02 
956	 0.020963904359443 
957	 2.26281649238406E-02 
958	 2.85329603373289E-02 
959	 1.84746552691595E-02 
960	 2.37122178626027E-02 
961	 2.33417889532505E-02 
962	 1.91443944232218E-02 
963	 2.63219772157145E-02 
964	 2.13719038757595E-02 
965	 2.02209360171379E-02 
966	 2.31236515990188E-02 
967	 0.019767011130428 
968	 2.26496788791415E-02 
969	 2.30719787683219E-02 
970	 2.09861360129681E-02 
971	 2.35984614029838E-02 
972	 0.021591196065148 
973	 2.23345036926623E-02 
974	 2.45224421449983E-02 
975	 1.92141211910784E-02 
976	 0.021948560681807 
977	 2.20589089915966E-02 
978	 1.94275082986633E-02 
979	 2.31755351458856E-02 
980	 2.06314354439157E-02 
981	 2.23620768362986E-02 
982	 2.58433816163105E-02 
983	 0.01992945157776 
984	 2.22152218995523E-02 
985	 2.22650721669123E-02 
986	 2.00173569914134E-02 
987	 2.33842732812786E-02 
988	 2.12423200155205E-02 
989	 2.20931300522806E-02 
990	 2.42580968880596E-02 
991	 1.98737377820235E-02 
992	 2.17373167229923E-02 
993	 0.0212216847142 
994	 2.00778812181952E-02 
995	 2.51578746273744E-02 
996	 0.020698972853455 
997	 2.11200520688677E-02 
998	 2.45406666799431E-02 
999	 2.09897477127459E-02 
1000	 2.34443121622022E-02 
1001	 0.022874017140319 
1002	 0.022226386456395 
1003	 2.18844122058594E-02 
1004	 2.11450647970736E-02 
1005	 2.09531024349105E-02 
1006	 2.13938530164684E-02 
1007	 2.15925237103004E-02 
1008	 2.18278026354817E-02 
1009	 2.18177016502932E-02 
1010	 2.17528043512358E-02 
1011	 2.20710493406293E-02 
1012	 2.22634863332297E-02 
1013	 2.23740671381638E-02 
1014	 2.25753061316161E-02 
1015	 2.28365677027218E-02 
1016	 2.29290899883286E-02 
1017	 2.31252677272642E-02 
1018	 2.31667525002886E-02 
1019	 2.26455382261065E-02 
1020	 2.27323958944033E-02 
1021	 2.31606992503869E-02 
1022	 2.34249970684968E-02 
1023	 2.39649293970908E-02 
1024	 2.46723205460422E-02 
1025	 2.48416009222878E-02 
1026	 2.49394472036365E-02 
1027	 0.024838553576815 
1028	 2.42056829728875E-02 
1029	 2.43953202285793E-02 
1030	 2.49555949269257E-02 
1031	 2.50939849671528E-02 
1032	 2.55183183350699E-02 
1033	 2.57631656861963E-02 
1034	 2.53152684712227E-02 
1035	 2.55370520672454E-02 
1036	 2.63796146594798E-02 
1037	 2.69051610175292E-02 
1038	 2.75610009885107E-02 
1039	 2.81111562166598E-02 
1040	 2.82769377881743E-02 
1041	 2.81732124241452E-02 
1042	 2.82105880300378E-02 
1043	 0.027993629858548 
1044	 2.81288181904719E-02 
1045	 0.028506359350777 
1046	 2.87363424822377E-02 
1047	 2.90760624575079E-02 
1048	 0.029254839606739 
1049	 2.92063688996322E-02 
1050	 2.93955351751059E-02 
1051	 2.97363376357075E-02 
1052	 2.99112808707626E-02 
1053	 3.01507119693195E-02 
1054	 3.03169161379184E-02 
1055	 0.030322200149849 
1056	 3.03426430958785E-02 
1057	 3.03499405141592E-02 
1058	 3.03937279440116E-02 
1059	 0.030351629366654 
1060	 3.01478909948914E-02 
1061	 3.01807993612771E-02 
1062	 3.01915157679539E-02 
1063	 3.04446283505188E-02 
1064	 3.12649045442988E-02 
1065	 3.13618321978707E-02 
1066	 3.10074035287041E-02 
1067	 3.10821397737416E-02 
1068	 3.10211687371969E-02 
1069	 3.09499362524512E-02 
1070	 3.13223557804859E-02 
1071	 0.03144658915073 
1072	 3.12786200586587E-02 
1073	 0.030912704782474 
1074	 3.09294099173655E-02 
1075	 3.12673810474313E-02 
1076	 3.12315535833497E-02 
1077	 0.031180234656847 
1078	 3.10434511701208E-02 
1079	 3.05181909685759E-02 
1080	 3.03651200556566E-02 
1081	 3.06191042836509E-02 
1082	 3.04521346115317E-02 
1083	 0.030121864090462 
1084	 2.99136993672694E-02 
1085	 2.91624502633025E-02 
1086	 2.90018363235047E-02 
1087	 2.99448268774956E-02 
1088	 2.99384181297736E-02 
1089	 2.95453686299989E-02 
1090	 2.91659322956954E-02 
1091	 2.88810192349973E-02 
1092	 2.78760614688662E-02 
1093	 2.76768211813393E-02 
1094	 0.028377155842213 
1095	 2.83510998113207E-02 
1096	 0.028079572777338 
1097	 2.77427485520141E-02 
1098	 2.70361553538009E-02 
1099	 2.68121608519634E-02 
1100	 2.68495962683018E-02 
1101	 2.67042095826641E-02 
1102	 2.68046443415526E-02 
1103	 2.65514073841588E-02 
1104	 2.55825355205742E-02 
1105	 2.54593169963228E-02 
1106	 2.48658858303067E-02 
1107	 0.024466319130849 
1108	 2.52178979167706E-02 
1109	 0.025241342077909 
1110	 2.48708775122228E-02 
1111	 2.41843680519412E-02 
1112	 2.41584268357859E-02 
1113	 2.32719779778219E-02 
1114	 2.35010457520868E-02 
1115	 2.69882661270697E-02 
1116	 2.76642515446293E-02 
1117	 2.47356842029922E-02 
1118	 0.024865270339494 
1119	 2.69489499953484E-02 
1120	 2.67539404671653E-02 
1121	 2.83421935601685E-02 
1122	 2.94540352464443E-02 
1123	 2.39403870369353E-02 
1124	 1.74432564459574E-02 
1125	 2.06282609277424E-02 
1126	 0.02926192715468 
1127	 3.06217615918113E-02 
1128	 2.42829532305001E-02 
1129	 0.025002709706229 
1130	 2.60745735299907E-02 
1131	 2.46297651243907E-02 
1132	 2.62699666431491E-02 
1133	 2.51483407274712E-02 
1134	 1.90792845909897E-02 
1135	 1.73807902108255E-02 
1136	 1.75663592602011E-02 
1137	 1.79023945426392E-02 
1138	 1.98005769618462E-02 
1139	 1.96459849904267E-02 
1140	 1.87593031719806E-02 
1141	 1.83231683429436E-02 
1142	 1.78422206704053E-02 
1143	 0.017639213988615 
1144	 1.89444458617809E-02 
1145	 0.021030567899696 
1146	 2.17303423601447E-02 
1147	 2.00538588547189E-02 
1148	 1.73513400206237E-02 
1149	 1.56543534746384E-02 
1150	 1.59985182881382E-02 
1151	 0.019500662536338 
1152	 1.95766718332658E-02 
1153	 1.84154917838923E-02 
1154	 1.80205170746212E-02 
1155	 1.70114368996236E-02 
1156	 1.65722522779005E-02 
1157	 1.66562064146665E-02 
1158	 1.74425279809061E-02 
1159	 1.72230573018343E-02 
1160	 1.61047910954308E-02 
1161	 1.58721840028458E-02 
1162	 1.61174926310537E-02 
1163	 1.65287704227526E-02 
1164	 1.71036819406355E-02 
1165	 1.69705172567136E-02 
1166	 1.69709427873574E-02 
1167	 0.017412119560355 
1168	 1.68352189088758E-02 
1169	 1.63580190794766E-02 
1170	 0.016963243066474 
1171	 1.69547372317808E-02 
1172	 0.016454022473008 
1173	 1.65792960330117E-02 
1174	 0.017257705582693 
1175	 1.68073403475423E-02 
1176	 1.62410407280449E-02 
1177	 1.65097741093204E-02 
1178	 1.62829846083891E-02 
1179	 0.015843026452447 
1180	 1.62720452262714E-02 
1181	 1.67018546347316E-02 
1182	 1.65525067128343E-02 
1183	 1.64443424339656E-02 
1184	 1.65903331255426E-02 
1185	 1.67880789029651E-02 
1186	 1.69003457501852E-02 
1187	 1.70139904761588E-02 
1188	 1.69919105190971E-02 
1189	 1.68202336923493E-02 
1190	 1.68219619072758E-02 
1191	 1.68879755558084E-02 
1192	 1.68372001189134E-02 
1193	 0.016718060756246 
1194	 1.64944995409664E-02 
1195	 1.62897437240623E-02 
1196	 1.62897284115871E-02 
1197	 1.61926409987135E-02 
1198	 1.58222458632279E-02 
1199	 0.01579256264938 
1200	 1.59397804744017E-02 
1201	 1.61543982606052E-02 
1202	 1.65828196292962E-02 
1203	 1.64162087011422E-02 
1204	 1.58734013743892E-02 
1205	 1.57306085590375E-02 
1206	 1.57598696058519E-02 
1207	 1.58410881198021E-02 
1208	 1.56678294319302E-02 
1209	 1.52414043577146E-02 
1210	 1.51288277899204E-02 
1211	 1.54265628874851E-02 
1212	 1.59064936876154E-02 
1213	 1.61383637094404E-02 
1214	 1.62385104045658E-02 
1215	 1.59817019912009E-02 
1216	 1.57989452256406E-02 
1217	 1.59014635141317E-02 
1218	 1.60688993776343E-02 
1219	 1.61579860688265E-02 
1220	 1.61731028498834E-02 
1221	 1.60677747782703E-02 
1222	 1.61252365552184E-02 
1223	 1.64702295532531E-02 
1224	 1.64747574859479E-02 
1225	 1.63909270211859E-02 
1226	 1.63899224794204E-02 
1227	 1.62114769488117E-02 
1228	 0.016135490370976 
1229	 1.60276247520695E-02 
1230	 1.59147735608576E-02 
1231	 1.60756581798706E-02 
1232	 1.65398472847422E-02 
1233	 1.68672063325478E-02 
1234	 1.67549511497483E-02 
1235	 1.67483889330462E-02 
1236	 1.64377448219374E-02 
1237	 1.65058403996971E-02 
1238	 1.68173342380832E-02 
1239	 1.70107098026258E-02 
1240	 1.68224038247307E-02 
1241	 1.66409755743564E-02 
1242	 1.62190678989717E-02 
1243	 1.58307450036145E-02 
1244	 0.015810274824 
1245	 1.58836578641356E-02 
1246	 0.015850006592059 
1247	 1.57869237682088E-02 
1248	 1.57981280895706E-02 
1249	 1.58834358683198E-02 
1250	 1.59949104404157E-02 
1251	 1.59814877127702E-02 
1252	 1.57300626045139E-02 
1253	 1.56906522335239E-02 
1254	 1.58989061683749E-02 
1255	 1.59023156872103E-02 
1256	 0.015902671113362 
1257	 1.63446308619395E-02 
1258	 1.64862882016962E-02 
1259	 1.60919105681386E-02 
1260	 1.61087416193017E-02 
1261	 1.65953432304188E-02 
1262	 1.66105799843505E-02 
1263	 1.62590613418436E-02 
1264	 1.62361992582031E-02 
1265	 1.64105534250995E-02 
1266	 0.016490645858019 
1267	 1.66019854491693E-02 
1268	 1.67627995123537E-02 
1269	 1.66631693886008E-02 
1270	 1.65145365737973E-02 
1271	 1.65566206554485E-02 
1272	 1.66374102698882E-02 
1273	 1.67475518630713E-02 
1274	 1.68064190721448E-02 
1275	 1.68475397472698E-02 
1276	 1.68342086000797E-02 
1277	 1.67702496400764E-02 
1278	 1.65934761149746E-02 
1279	 1.65334726913886E-02 
1280	 1.68305193157269E-02 
1281	 1.68007445366327E-02 
1282	 1.65712284645518E-02 
1283	 1.65174269816566E-02 
1284	 1.63893092930317E-02 
1285	 0.016267051780014 
1286	 1.63323494067767E-02 
1287	 1.63574650643622E-02 
1288	 0.016185179777104 
1289	 1.61134353654255E-02 
1290	 1.61320715413276E-02 
1291	 1.62691512571355E-02 
1292	 1.59892237238318E-02 
1293	 1.56535521131214E-02 
1294	 1.55877470831409E-02 
1295	 1.57664690497946E-02 
1296	 1.58958362363006E-02 
1297	 1.61809525008125E-02 
1298	 1.64556514389699E-02 
1299	 1.60419801349851E-02 
1300	 1.55475180584447E-02 
1301	 1.57204806042701E-02 
1302	 0.015922594609359 
1303	 1.55446044108138E-02 
1304	 1.53799317598835E-02 
1305	 0.015865642563026 
1306	 1.60027808297088E-02 
1307	 0.015775694184043 
1308	 1.60318752778679E-02 
1309	 1.68580434674271E-02 
1310	 1.69523757786233E-02 
1311	 1.66740424431893E-02 
1312	 1.67266478374552E-02 
1313	 1.66039931694383E-02 
1314	 1.64203863302168E-02 
1315	 1.63619188319966E-02 
1316	 1.66150767097565E-02 
1317	 0.017003364915833 
1318	 1.68501601923017E-02 
1319	 0.01658513803134 
1320	 1.67405271913912E-02 
1321	 1.68220524992231E-02 
1322	 1.65871346560152E-02 
1323	 1.68043173531516E-02 
1324	 1.68210829965139E-02 
1325	 1.60592749228873E-02 
1326	 1.55879954176895E-02 
1327	 1.56063017053595E-02 
1328	 1.56164360925374E-02 
1329	 1.60125991388241E-02 
1330	 1.61837691322922E-02 
1331	 1.65628045021669E-02 
1332	 1.72882493148447E-02 
1333	 1.72828644715956E-02 
1334	 1.73473633698358E-02 
1335	 0.017551821577893 
1336	 1.78985745371087E-02 
1337	 1.70247953155749E-02 
1338	 1.53415938792559E-02 
1339	 1.50645493251291E-02 
1340	 1.41083334164475E-02 
1341	 1.35036395823813E-02 
1342	 1.47696608358412E-02 
1343	 1.56022473347196E-02 
1344	 1.55756250583503E-02 
1345	 1.59516226313847E-02 
1346	 1.88002422147195E-02 
1347	 0.020317103583415 
1348	 1.88630941517807E-02 
1349	 1.80918623509082E-02 
1350	 1.50589119194197E-02 
1351	 1.63132092955102E-02 
1352	 2.74425418460221E-02 
1353	 3.47945084411727E-02 
1354	 5.41991338192023E-02 
1355	 6.80493112801332E-02 
1356	 6.43621259915504E-02 
1357	 8.62455083772411E-02 
1358	 0.127545142333366 
1359	 0.136075715768507 
1360	 0.163125596621419 
1361	 0.211739449585091 
1362	 0.227184802114773 
1363	 0.185071782739621 
1364	 0.158600969049735 
1365	 6.11332807008932E-02 
1366	-0.101776104730556 
1367	 0.067709462420667 
1368	 0.11172499851355 
1369	-0.02582736884041 
1370	-0.041943753156897 
1371	 0.167811773134882 
1372	 0.177361554625172 
1373	-0.157638247480664 
1374	 7.78441700524042E-03 
1375	 0.605906168704972 
1376	 0.657338254746592 
1377	 0.351129934038786 
1378	 0.45974406576934 
1379	 0.55322960347639 
1380	 0.474322150410814 
1381	 0.653471504141838 
1382	 0.79209274616367 
1383	 0.613950908886999 
1384	 0.412552382252842 
1385	 0.189717801090758 
1386	 0.277044522345298 
1387	 0.428295899059679 
1388	 0.381771553812273 
1389	 0.488161159552624 
1390	 0.615681626534953 
1391	 0.32030628808711 
1392	 0.160119966197538 
1393	 1.19691483351523 
1394	 2.02745656987484 
1395	 1.65897696111208 
1396	 0.950248173658628 
1397	 0.486681868926014 
1398	 9.60968695570151E-03 
1399	-0.058654309289386 
1400	 0.39825823858011 
1401	 0.822395417626803 
1402	 0.52854309690138 
1403	 0.349371226414017 
1404	 0.449746408681691 
1405	 0.416367300566953 
1406	 0.292585461162172 
1407	 0.1122409803736 
1408	-0.070648257976639 
1409	-0.101332274147435 
1410	-9.80943214632651E-02 
1411	-8.32311111452286E-02 
1412	-1.19680152761833E-02 
1413	-1.76035262718127E-02 
1414	-7.36455804200511E-02 
1415	-5.69089146622414E-02 
1416	 1.73558079778017E-02 
1417	 9.4760615871267E-03 
1418	-0.025246310503694 
1419	-9.88692915386508E-03 
1420	-0.033741681654725 
1421	-1.33574450138541E-02 
1422	 6.30395233959238E-02 
1423	 7.66860927235152E-02 
1424	 6.85060567181692E-02 
1425	 6.06307545053985E-02 
1426	 3.31839904353297E-02 
1427	 3.40849340235523E-02 
1428	 6.16971464536494E-02 
1429	 5.32525741238143E-02 
1430	 2.50080014757299E-02 
1431	 2.15447504661751E-02 
1432	 1.52163341810472E-02 
1433	 5.0283015216568E-03 
1434	 3.01568073868517E-03 
1435	 1.12460581096879E-02 
1436	 1.12214827103342E-02 
1437	 2.00570961198981E-02 
1438	 3.51848663885418E-02 
1439	 4.10674143829584E-02 
1440	 3.53651326227836E-02 
1441	 3.19259246701593E-02 
1442	 3.09128454608222E-02 
1443	 2.72715982381766E-02 
1444	 2.37416335946583E-02 
1445	 2.14908681255498E-02 
1446	 0.014941969261686 
1447	 1.16485188066812E-02 
1448	 1.14038504370251E-02 
1449	 7.20789699415617E-03 
1450	 6.49970912358402E-03 
1451	 1.14322314049767E-02 
1452	 1.54771948456493E-02 
1453	 1.60643715898171E-02 
1454	 1.58433566114227E-02 
1455	 1.67445843954736E-02 
1456	 1.63396510008704E-02 
1457	 1.34807428869815E-02 
1458	 1.23246798753798E-02 
1459	 0.011876562983438 
1460	 1.15504177734142E-02 
1461	 1.05762038320652E-02 
1462	 1.14103203238646E-02 
1463	 0.014868384807947 
1464	 1.48218784079498E-02 
1465	 0.013343461005402 
1466	 1.31796819554518E-02 
1467	 1.12923482550338E-02 
1468	 1.08642288321498E-02 
1469	 1.29897140836196E-02 
1470	 1.29650063010778E-02 
1471	 1.13818096374935E-02 
1472	 1.06053262360795E-02 
1473	 1.00451104296023E-02 
1474	 1.02225115683778E-02 
1475	 1.02028772469649E-02 
1476	 0.011056559849285 
1477	 1.39164769584708E-02 
1478	 1.36190265842056E-02 
1479	 1.12701573328239E-02 
1480	 1.11808741650341E-02 
1481	 1.08295113269331E-02 
1482	 1.08861995220149E-02 
1483	 1.30528396961985E-02 
1484	 1.30531972821842E-02 
1485	 1.08357937181824E-02 
1486	 1.09595566575429E-02 
1487	 1.22732863014913E-02 
1488	 1.21509729815589E-02 
1489	 1.19879825186391E-02 
1490	 1.22967214074046E-02 
1491	 1.23292928984582E-02 
1492	 1.18146622399868E-02 
1493	 0.011315318425354 
1494	 1.13659784641745E-02 
1495	 1.11549884079797E-02 
1496	 1.10215225217828E-02 
1497	 1.15278720785049E-02 
1498	 0.011645404997228 
1499	 1.11085679516476E-02 
1500	 1.10875573457384E-02 
1501	 1.16416526937917E-02 
1502	 1.17392674437082E-02 
1503	 1.16886518606005E-02 
1504	 1.16910989262932E-02 
1505	 1.16597121554271E-02 
1506	 1.12061624425295E-02 
1507	 1.15599221811777E-02 
1508	 1.19219247361482E-02 
1509	 1.14066963293609E-02 
1510	 1.14302484712918E-02 
1511	 0.011853096551738 
1512	 1.14334834017542E-02 
1513	 1.10312496808851E-02 
1514	 1.13717625273154E-02 
1515	 1.16389652220711E-02 
1516	 1.16171568685075E-02 
1517	 1.19667562880467E-02 
1518	 1.22826169533288E-02 
1519	 0.011772017190329 
1520	 1.16234996305579E-02 
1521	 1.21439163859731E-02 
1522	 1.19202061110324E-02 
1523	 1.14170889531572E-02 
1524	 1.15494109403842E-02 
1525	 0.011854259111796 
1526	 1.20759624425302E-02 
1527	 1.24033144996819E-02 
1528	 1.27207290850865E-02 
1529	 1.26172562516557E-02 
1530	 1.22686275521071E-02 
1531	 1.24798413657471E-02 
1532	 1.27749127454732E-02 
1533	 1.23442823982386E-02 
1534	 1.21700629020181E-02 
1535	 1.24813228719603E-02 
1536	 1.24049063289711E-02 
1537	 1.24277239485912E-02 
1538	 1.26413976463809E-02 
1539	 1.22924978666231E-02 
1540	 1.19757780828146E-02 
1541	 0.012198514586789 
1542	 1.24008015112193E-02 
1543	 1.24790229597586E-02 
1544	 1.26635881816502E-02 
1545	 1.28696346199143E-02 
1546	 1.29023805916693E-02 
1547	 1.30215880194061E-02 
1548	 1.30808508918668E-02 
1549	 1.27272500917173E-02 
1550	 1.28063362483553E-02 
1551	 1.33839203961645E-02 
1552	 1.32946455739577E-02 
1553	 1.28850953281797E-02 
1554	 1.26707581062291E-02 
1555	 1.24712053197258E-02 
1556	 1.23984841001805E-02 
1557	 1.22381772536063E-02 
1558	 1.22149782076399E-02 
1559	 1.22431072888558E-02 
1560	 1.22937609259561E-02 
1561	 1.26639566469317E-02 
1562	 1.28622440475892E-02 
1563	 1.28774119070616E-02 
1564	 1.29908652237841E-02 
1565	 1.30590796104497E-02 
1566	 1.30850666575118E-02 
1567	 1.30189379648063E-02 
1568	 1.27894132525304E-02 
1569	 1.27088398667292E-02 
1570	 1.26764006483242E-02 
1571	 1.25602120491106E-02 
1572	 1.25810779780396E-02 
1573	 1.26694898881156E-02 
1574	 1.27841586068755E-02 
1575	 1.28593577382919E-02 
1576	 1.29237733690569E-02 
1577	 1.29061748974772E-02 
1578	 0.012905860871441 
1579	 1.32164317626488E-02 
1580	 1.33131417595624E-02 
1581	 1.31741333767998E-02 
1582	 1.32186062619227E-02 
1583	 1.31811689585193E-02 
1584	 1.31502279453051E-02 
1585	 1.32605797361195E-02 
1586	 1.32076025145838E-02 
1587	 1.31058134316349E-02 
1588	 1.32212753464762E-02 
1589	 1.34185517006973E-02 
1590	 1.35208742782554E-02 
1591	 1.34126183389729E-02 
1592	 1.32155118626477E-02 
1593	 1.32256239702491E-02 
1594	 1.31700215426649E-02 
1595	 1.30786165475803E-02 
1596	 1.30920415853228E-02 
1597	 1.28241270843947E-02 
1598	 1.27426543900325E-02 
1599	 1.29148340253025E-02 
1600	 1.28714567426905E-02 
1601	 1.27406549395258E-02 
1602	 1.25696690623023E-02 
1603	 1.26350326175558E-02 
1604	 1.28549643788564E-02 
1605	 1.29094313309072E-02 
1606	 1.29170499519797E-02 
1607	 1.28788630127102E-02 
1608	 1.28099680680714E-02 
1609	 1.27707485850482E-02 
1610	 1.29243342567916E-02 
1611	 1.31366725031776E-02 
1612	 1.31800016500667E-02 
1613	 1.30970412252313E-02 
1614	 1.29170665314306E-02 
1615	 1.28054374307415E-02 
1616	 1.26517426346866E-02 
1617	 1.29591408737082E-02 
1618	 1.35957578786837E-02 
1619	 0.013587996745068 
1620	 1.35278118060635E-02 
1621	 1.35016986403232E-02 
1622	 1.32041172106704E-02 
1623	 1.34535976747972E-02 
1624	 1.37378785126047E-02 
1625	 1.36001428671825E-02 
1626	 1.37096990394689E-02 
1627	 1.38190572005142E-02 
1628	 0.013925801039612 
1629	 1.41534653540511E-02 
1630	 1.42145838135381E-02 
1631	 1.41385742716898E-02 
1632	 0.014232671967618 
1633	 1.43545877921473E-02 
1634	 0.014292310507071 
1635	 1.43765409144506E-02 
1636	 1.45005357057798E-02 
1637	 0.014672380946073 
1638	 1.48261348411665E-02 
1639	 1.53093833234104E-02 
1640	 1.60161869693333E-02 
1641	 1.62659016255925E-02 
1642	 0.01680107234636 
1643	 1.69151741592781E-02 
1644	 1.64045808659205E-02 
1645	 1.60917139584267E-02 
1646	 1.57769139951444E-02 
1647	 1.52601651448106E-02 
1648	 1.45650047746422E-02 
1649	 1.39299872377752E-02 
1650	 1.35965315696768E-02 
1651	 0.013851757692097 
1652	 0.013819528501371 
1653	 0.013578765948741 
1654	 1.34998508240442E-02 
1655	 1.32862810017052E-02 
1656	 1.33264983375471E-02 
1657	 1.37925511158791E-02 
1658	 1.38538801599847E-02 
1659	 1.35460999249214E-02 
1660	 1.34527734537541E-02 
1661	 1.33505212598754E-02 
1662	 1.34233184464897E-02 
1663	 1.38496194049517E-02 
1664	 1.39363335656143E-02 
1665	 1.36446150277934E-02 
1666	 1.37636048625887E-02 
1667	 1.41783616915695E-02 
1668	 1.42533215012394E-02 
1669	 1.42470339196909E-02 
1670	 1.42921906225511E-02 
1671	 1.45735050878667E-02 
1672	 1.47914606773322E-02 
1673	 1.48139353047105E-02 
1674	 1.51420191741812E-02 
1675	 1.52979816054158E-02 
1676	 1.52298813164613E-02 
1677	 1.53070382124435E-02 
1678	 1.55749613600302E-02 
1679	 1.58921672689118E-02 
1680	 1.62830697048628E-02 
1681	 1.73112943061598E-02 
1682	 1.79007891957644E-02 
1683	 1.82554556569167E-02 
1684	 1.89203599274671E-02 
1685	 0.019337707483537 
1686	 1.93866013186398E-02 
1687	 1.95707783082612E-02 
1688	 0.019890664948926 
1689	 1.96869648312042E-02 
1690	 2.00221275609915E-02 
1691	 2.01589127863257E-02 
1692	 1.93247412087896E-02 
1693	 1.90357026501575E-02 
1694	 1.93164514351967E-02 
1695	 1.91901251244674E-02 
1696	 1.85626995766188E-02 
1697	 1.87213728714401E-02 
1698	 0.019865554854384 
1699	 2.05934927391683E-02 
1700	 2.19100438888448E-02 
1701	 2.31621344168637E-02 
1702	 2.25710828028123E-02 
1703	 2.13250135087832E-02 
1704	 2.09865478570561E-02 
1705	 2.07496094551489E-02 
1706	 1.97752947703093E-02 
1707	 0.019510476668085 
1708	 0.01985734369087 
1709	 1.95140931568786E-02 
1710	 1.91235967996193E-02 
1711	 1.94345898901337E-02 
1712	 1.92881966590421E-02 
1713	 1.92344802517377E-02 
1714	 1.94964499108061E-02 
1715	 1.98270889509907E-02 
1716	 1.99246144078525E-02 
1717	 2.04976929473792E-02 
1718	 2.06713973442988E-02 
1719	 2.01569174937461E-02 
1720	 1.99812798522695E-02 
1721	 2.01501859596762E-02 
1722	 0.020101381479185 
1723	 2.00034305354528E-02 
1724	 0.02003813578314 
1725	 1.94412731766079E-02 
1726	 1.91216523499062E-02 
1727	 1.99440894601391E-02 
1728	 2.04027148199658E-02 
1729	 0.020408994432817 
1730	 2.08629719910916E-02 
1731	 2.13055232934261E-02 
1732	 2.17178766382331E-02 
1733	 2.35217358662089E-02 
1734	 2.47757249106114E-02 
1735	 2.50246693244274E-02 
1736	 0.025464491136531 
1737	 2.51760598064147E-02 
1738	 0.024482757968421 
1739	 2.37228057632913E-02 
1740	 2.29471912685326E-02 
1741	 2.23848040639459E-02 
1742	 2.19693550462856E-02 
1743	 2.15477606452877E-02 
1744	 2.13600802765867E-02 
1745	 2.05376513940602E-02 
1746	 2.01480742382109E-02 
1747	 2.03261721121243E-02 
1748	 2.13047938041299E-02 
1749	 2.16213241683495E-02 
1750	 2.19832213942243E-02 
1751	 2.16045542824207E-02 
1752	 1.97892037094964E-02 
1753	 1.97871413106754E-02 
1754	 2.08124373518253E-02 
1755	 2.10699298902086E-02 
1756	 2.24585370750322E-02 
1757	 2.14973742102105E-02 
1758	 1.87673097091426E-02 
1759	 1.84333093672961E-02 
1760	 1.95742052123229E-02 
1761	 2.08537882756506E-02 
1762	 2.36913285955648E-02 
1763	 2.38338966675372E-02 
1764	 2.20977529000278E-02 
1765	 2.21148426200274E-02 
1766	 2.23339788032564E-02 
1767	 2.39394367569057E-02 
1768	 2.60500891701569E-02 
1769	 2.53160903742884E-02 
1770	 2.44664629993193E-02 
1771	 2.26728569218125E-02 
1772	 1.99120182494894E-02 
1773	 2.07733023451837E-02 
1774	 2.06800121160024E-02 
1775	 2.26018017494757E-02 
1776	 2.33399507410537E-02 
1777	 2.21939021186657E-02 
1778	 2.18341367920254E-02 
1779	 2.10649655963642E-02 
1780	 1.96011976573672E-02 
1781	 1.68239534120055E-02 
1782	 1.65003622495314E-02 
1783	 1.82491980687108E-02 
1784	 1.86555748322789E-02 
1785	 0.021201695369326 
1786	 2.10468388327621E-02 
1787	 1.58543220402956E-02 
1788	 1.53980242690573E-02 
1789	 1.81281377975206E-02 
1790	 0.023101758785784 
1791	 2.43263244847299E-02 
1792	 1.79600247671456E-02 
1793	 8.86693520609385E-03 
1794	 6.58681460162857E-03 
1795	 1.23865278918496E-02 
1796	 2.48334871835067E-02 
1797	 3.69015485211202E-02 
1798	 3.51777609599123E-02 
1799	 2.46116153170375E-02 
1800	 2.27627766864968E-02 
1801	 0.019964261080552 
1802	 1.21178716572889E-02 
1803	 1.17714413859028E-02 
1804	 2.03332269713375E-02 
1805	 3.48569198516211E-02 
1806	 0.100436190205709 
1807	 0.131008943360876 
1808	 9.54726725092176E-02 
1809	 8.81944801689271E-02 
1810	 1.32640161832838E-02 
1811	-2.36117742712209E-02 
1812	 9.60023696804244E-03 
1813	 3.85762737625263E-02 
1814	 8.62337910595564E-02 
1815	 0.116182685471481 
1816	 0.194235831147255 
1817	 0.131886911530042 
1818	-0.130281197416658 
1819	-0.289078912254073 
1820	-0.529576995768399 
1821	 2.79849889327324E-02 
1822	 0.238275813590681 
1823	 1.26999804197743 
1824	 2.34518153919018 
1825	 0.405509006222566 
1826	 0.185933832562593 
1827	 4.97747154710853E-02 
1828	 8.77595047200799E-02 
1829	 0.499096685162322 
1830	 0.529903977364445 
1831	-0.303924885520263 
1832	-0.223062671264301 
1833	-0.462286054476502 
1834	-0.248402160640016 
1835	 0.564876696369904 
1836	 0.876598935705097 
1837	 1.01779013456201 
1838	 1.01738960948922 
1839	 1.43967689502251 
1840	 0.642608503325329 
1841	 0.438845397589803 
1842	 0.569933165183485 
1843	 0.72891582343993 
1844	 1.8353998701554 
1845	 3.38456519911234 
1846	-6.35898938862534 
1847	-3.62882638225339 
1848	-107.991414255768 
1849	 4.6490071879847 
1850	 5.33131167802384 
1851	 1.98619972919565 
1852	 2.03131654637368 
1853	 1.2141773298647 
1854	 1.06028765983017 
1855	 0.99595625955035 
1856	 0.897645391712823 
1857	-2.01251984487275 
1858	-2.49915007484296 
1859	 0.148095884172627 
1860	-9.29724547827644E-02 
1861	 0.898256603046409 
1862	 1.95639623206506 
1863	 7.14424394564351 
1864	-109.53737307896 
1865	-23.2530420888481 
1866	-0.107129961997156 
1867	-0.979138953599805 
1868	-0.022861555301443 
1869	-2.76066610061378E-02 
1870	 0.145947889747982 
1871	 0.644277487696383 
1872	 0.554472901574857 
1873	 0.288281547878507 
1874	 0.819806430896307 
1875	 1.67272158493888 
1876	 1.72375559337404 
1877	 0.83543411562139 
1878	 0.794408442597945 
1879	 0.125726088889488 
1880	-8.57358894567741E-02 
1881	 0.354709333239569 
1882	 1.10676813771647 
1883	 2.34917892164333 
1884	 0.672670228623222 
1885	 0.594925256748144 
1886	 3.56160850135102 
1887	 2.49676292849232 
1888	-7.6693840772661 
1889	-5.46622599115498 
1890	 15.0720994129092 
1891	 4.13056561922669 
1892	 1.35380431700133 
1893	 1.98191407098299 
1894	 3.67081728951112 
1895	 1.17159505890967 
1896	-1.05539492304531 
1897	-0.329955105470824 
1898	-0.441853967479788 
1899	 0.681108453620261 
1900	 0.846564379632934 
1901	 1.4089562713819 
1902	 2.966237748538 
1903	 0.666256441575355 
1904	-5.02960612234324 
1905	 3.78049698387781 
1906	 2.13989828498058 
1907	 0.442223112836927 
1908	 11.6458591145673 
1909	 0.273272003277986 
1910	 50.0131640345107 
1911	 2.27543513808455 
1912	 0.720671455196914 
1913	 0.541038920752725 
1914	-1.93776185064843 
1915	-2.05921627269862 
1916	-0.372969824569822 
1917	 0.607552468553007 
1918	-29.1668898583472 
1919	 0.225542908857524 
1920	 0.435364154275858 
1921	 3.01421477696786 
1922	 4.41439587907623 
1923	 4.02737118769974 
1924	 2.44768150478494 
1925	 1.23035329785156 
1926	 0.550007419000198 
1927	 0.182117781971363 
1928	 0.114847407407749 
1929	 0.459620601780649 
1930	 1.52453462724145 
1931	 6.08525409970987 
1932	-26.176416607944 
1933	-0.246291563332937 
1934	 1.73233307904782 
1935	 0.741521017147422 
1936	-0.102780614096485 
1937	-0.557752913319504 
1938	-0.368403177333559 
1939	-0.238200119565009 
1940	 2.77993073415814E-02 
1941	-0.105949664426368 
1942	-0.069078712487947 
1943	 3.80325912603122E-02 
1944	-1.91784098994201E-02 
1945	 6.45327086732635E-02 
1946	 3.51196184631122E-02 
1947	-0.096603380504493 
1948	-0.11143877528537 
1949	-8.14024436840562E-02 
1950	-2.78368881355902E-02 
1951	 4.69279614011073E-02 
1952	 7.59340505346924E-02 
1953	 0.091006639756155 
1954	 6.69250476928231E-02 
1955	 5.63656302766222E-02 
1956	 3.26868352356776E-02 
1957	 2.24386978027668E-02 
1958	 4.31800356512184E-02 
1959	 3.17752523594652E-02 
1960	 1.71649970223207E-02 
1961	 2.75197267341151E-02 
1962	 0.025277001249381 
1963	 1.15900792405799E-02 
1964	 9.96706431977872E-03 
1965	 6.99290431457989E-03 
1966	 3.75097076606429E-03 
1967	-2.57890902457631E-03 
1968	 1.29727270159687E-03 
1969	 5.19316367194183E-03 
1970	 4.79548079922381E-03 
1971	 6.8514626208585E-03 
1972	 8.7920204205789E-03 
1973	 8.96313413734461E-03 
1974	 8.81084949759976E-03 
1975	 5.49193053750827E-03 
1976	 2.85136374378562E-03 
1977	 1.85623629653489E-03 
1978	 1.88788077865786E-03 
1979	 2.90924547345466E-03 
1980	 6.24100253791532E-03 
1981	 7.8663282225672E-03 
1982	 8.24965271387737E-03 
1983	 7.52236951436832E-03 
1984	 5.59422448777946E-03 
1985	 4.87528806643594E-03 
1986	 5.90187745091664E-03 
1987	 7.74106118495118E-03 
1988	 8.08077878957445E-03 
1989	 8.95909834272173E-03 
1990	 8.85051053007515E-03 
1991	 6.76107227307911E-03 
1992	 7.89029869941551E-03 
1993	 8.89969690332438E-03 
1994	 9.00284224471738E-03 
1995	 8.4352636388275E-03 
1996	 1.00519423080033E-02 
1997	 9.63802510787715E-03 
1998	 8.4135397924506E-03 
1999	 7.96430588030067E-03 
2000	 5.82355964434831E-03 
2001	 2.52207276850739E-03 
2002	-1.27685998281634E-03 
2003	-2.36023335697382E-03 
2004	-2.21575849285374E-03 
2005	 1.81769279742513E-03 
2006	 4.75779693864271E-03 
2007	 5.27503126049808E-03 
2008	 8.65974772033221E-03 
2009	 8.21209666069838E-03 
2010	 2.61266447257433E-04 
2011	 1.55595959785939E-03 
2012	 7.25587053435769E-03 
2013	 8.62746371532751E-03 
2014	 1.20227929281127E-02 
2015	 1.57889610925835E-02 
2016	 1.61995607371707E-02 
2017	 1.46725407558507E-02 
2018	 9.98575721532618E-03 
2019	 6.59008764908515E-03 
2020	 5.1711360108084E-03 
2021	 3.92030693813974E-03 
2022	 6.14466270339759E-03 
2023	 7.71714737560905E-03 
2024	 8.51466998598621E-03 
2025	 8.55265974627613E-03 
2026	 8.92904948888804E-03 
2027	 9.40693440778501E-03 
2028	 9.52339699187259E-03 
2029	 8.91240720919557E-03 
2030	 8.07349028113953E-03 
2031	 7.55385271707536E-03 
2032	 7.24465967082325E-03 
2033	 7.37719373575245E-03 
2034	 8.60614568380738E-03 
2035	 9.5173877643789E-03 
2036	 1.01449241029691E-02 
2037	 1.05003463873702E-02 
2038	 9.45987979449606E-03 
2039	 9.55618202965951E-03 
2040	 1.00724572056909E-02 
2041	 1.00581647583692E-02 
2042	 1.05279325316443E-02 
2043	 1.09046235116949E-02 
2044	 1.09928187485238E-02 
2045	 9.71807572753665E-03 
2046	 9.69354932461328E-03 
2047	 9.31120935103002E-03 
2048	 7.89250787914259E-03 
2049	 7.58942785653452E-03 
2050	 7.48170912310995E-03 
2051	 7.98668038446932E-03 
2052	 8.02584116316142E-03 
2053	 5.9678623928258E-03 
2054	 4.47854634506362E-03 
2055	 4.26794780226853E-03 
2056	 4.23685801713317E-03 
2057	 5.41322889394857E-03 
2058	 6.56831001598014E-03 
2059	 8.34759945439632E-03 
2060	 8.95264238550592E-03 
2061	 9.35352008325192E-03 
2062	 9.40812744098167E-03 
2063	 9.10892734205165E-03 
2064	 8.42739582509016E-03 
2065	 7.54494349963989E-03 
2066	 8.36238695495813E-03 
2067	 8.67778857698098E-03 
2068	 8.52687888976121E-03 
2069	 8.49523824111336E-03 
2070	 6.94080101594309E-03 
2071	 7.24967344995005E-03 
2072	 8.24428493357803E-03 
2073	 8.71339762095476E-03 
2074	 1.03422955106813E-02 
2075	 1.09324917034968E-02 
2076	 1.05107952990475E-02 
2077	 1.01132643700454E-02 
2078	 8.96066278270276E-03 
2079	 9.22699425374491E-03 
2080	 1.01139084982418E-02 
2081	 1.05823257922273E-02 
2082	 1.14240003879613E-02 
2083	 1.18563767042524E-02 
2084	 1.09738082781771E-02 
2085	 9.36011734746217E-03 
2086	 8.09825875094479E-03 
2087	 8.00053384941814E-03 
2088	 8.45576109103428E-03 
2089	 8.41826847974603E-03 
2090	 8.46531236480688E-03 
2091	 9.12590706865061E-03 
2092	 9.23017391476189E-03 
2093	 8.35710132900678E-03 
2094	 8.89649611290869E-03 
2095	 1.06835973959519E-02 
2096	 1.07125720904643E-02 
2097	 1.01185998869127E-02 
2098	 1.01614031775245E-02 
2099	 1.00510891555024E-02 
2100	 8.86512303471082E-03 
2101	 9.02685928777323E-03 
2102	 9.9490307575278E-03 
2103	 9.52237916488103E-03 
2104	 9.70378856874845E-03 
2105	 9.32016671536872E-03 
2106	 8.99439865811946E-03 
2107	 9.29848599738365E-03 
2108	 8.87207294609201E-03 
2109	 9.7297109881936E-03 
2110	 1.09598746564561E-02 
2111	 1.11673714928143E-02 
2112	 1.10554005504158E-02 
2113	 1.09535530447976E-02 
2114	 1.04489542512654E-02 
2115	 9.98569240476821E-03 
2116	 9.1038427750996E-03 
2117	 9.04794833557136E-03 
2118	 8.84172509070722E-03 
2119	 9.54297119482179E-03 
2120	 1.16497063096339E-02 
2121	 1.31439545189558E-02 
2122	 1.31158752423307E-02 
2123	 1.18816712452455E-02 
2124	 9.74215693298089E-03 
2125	 9.10355452079334E-03 
2126	 9.40820167943965E-03 
2127	 9.49752297079741E-03 
2128	 9.82297497950179E-03 
2129	 9.26129801715452E-03 
2130	 8.43480165379999E-03 
2131	 8.26475888912355E-03 
2132	 7.73144503800337E-03 
2133	 7.8076751485395E-03 
2134	 8.02158937656581E-03 
2135	 8.74681876162881E-03 
2136	 9.45687766776688E-03 
2137	 1.07313152560896E-02 
2138	 1.07507536811729E-02 
2139	 0.01035975042248 
2140	 1.02904715496525E-02 
2141	 9.52266984967694E-03 
2142	 0.008894616479828 
2143	 8.41756713614985E-03 
2144	 8.09459947443401E-03 
2145	 8.31242603334539E-03 
2146	 9.23704638914059E-03 
2147	 1.06385729420474E-02 
2148	 1.14085726883773E-02 
2149	 1.10367032443148E-02 
2150	 1.03454252936154E-02 
2151	 1.00793127865802E-02 
2152	 9.26504686796673E-03 
2153	 8.25175788262528E-03 
2154	 8.31954210335779E-03 
2155	 8.49816272151485E-03 
2156	 8.29732041671756E-03 
2157	 7.94774558122452E-03 
2158	 7.87921552259055E-03 
2159	 7.47921970156341E-03 
2160	 6.0598091752376E-03 
2161	 5.84054053804221E-03 
2162	 6.13860909280154E-03 
2163	 6.64598613618404E-03 
2164	 7.86840634602118E-03 
2165	 8.34708698982793E-03 
2166	 0.009433600132148 
2167	 9.69008080768005E-03 
2168	 7.88973547180194E-03 
2169	 8.35916369610671E-03 
2170	 1.10555566345859E-02 
2171	 1.10254326562544E-02 
2172	 9.90106170735926E-03 
2173	 9.92738819184509E-03 
2174	 8.63419941258296E-03 
2175	 7.18666582580221E-03 
2176	 8.00207100912785E-03 
2177	 9.8894863042578E-03 
2178	 1.04664946360268E-02 
2179	 1.04350726932249E-02 
2180	 9.46414092395082E-03 
2181	 7.9244766792338E-03 
2182	 7.56273018436028E-03 
2183	 8.39569499689815E-03 
2184	 1.07944815233812E-02 
2185	 1.22509137310451E-02 
2186	 1.20609146615713E-02 
2187	 9.64680385841441E-03 
2188	 8.89669867895781E-03 
2189	 6.92330874609294E-03 
2190	 6.83999844644451E-03 
2191	 9.78398948804034E-03 
2192	 1.03993061990752E-02 
2193	 1.01877364587631E-02 
2194	 9.93443417895588E-03 
2195	 8.37696098571886E-03 
2196	 7.65497596858069E-03 
2197	 6.91154386948321E-03 
2198	 6.27951688994159E-03 
2199	 5.70302210483418E-03 
2200	 6.64636189320456E-03 
2201	 6.63358763710333E-03 
2202	 7.32951533357951E-03 
2203	 9.65212575259835E-03 
2204	 9.91119764060434E-03 
2205	 8.70646661831342E-03 
2206	 1.17875204424327E-02 
2207	 1.27161859857076E-02 
2208	 1.01044977449365E-02 
2209	 9.53813632347517E-03 
2210	 8.32267052043938E-03 
2211	 6.62859423920913E-03 
2212	 7.06001477193642E-03 
2213	 7.69049116912287E-03 
2214	 7.7603995646385E-03 
2215	 8.09723602508958E-03 
2216	 7.52058861827181E-03 
2217	 6.76784574741852E-03 
2218	 4.26554682975597E-03 
2219	 3.79958805393801E-03 
2220	 3.66106303610598E-03 
2221	 5.28940881201728E-03 
2222	 1.04224465680863E-02 
2223	 0.01153162383677 
2224	 1.11396451560861E-02 
2225	 1.12893989819274E-02 
2226	 9.95238116322787E-03 
2227	 8.32924964690556E-03 
2228	 7.1283203138501E-03 
2229	 6.56039953092423E-03 
2230	 0.004153801934573 
2231	 2.97556144289057E-03 
2232	 3.5809634414139E-03 
2233	 4.02516988408884E-03 
2234	 4.50411145880685E-03 
2235	 5.8359318760009E-03 
2236	 5.83167160329574E-03 
2237	 5.30962029109608E-03 
2238	 5.85503548789966E-03 
2239	 5.08256949928136E-03 
2240	 3.98945529825855E-03 
2241	 5.30761124083484E-03 
2242	 6.99234529128462E-03 
2243	 8.49080637686415E-03 
2244	 1.11994138645379E-02 
2245	 1.39711451080726E-02 
2246	 0.014285636362488 
2247	 0.013883780551417 
2248	 1.46765767584934E-02 
2249	 1.46838356075311E-02 
2250	 1.17575492525421E-02 
2251	 9.47637863080428E-03 
2252	 8.63225362412155E-03 
2253	 5.98717603851723E-03 
2254	 5.35817875698315E-03 
2255	 4.67583596358983E-03 
2256	 3.08408676521141E-03 
2257	 2.95316894786245E-03 
2258	 1.4776152395128E-03 
2259	 1.20041265132917E-03 
2260	 0.002455861099196 
2261	 4.74100598316966E-03 
2262	 5.72829871012383E-03 
2263	 8.61043630883409E-03 
2264	 8.72229764838755E-03 
2265	 5.19893525427766E-03 
2266	 4.79599998894505E-03 
2267	 6.36406034117743E-03 
2268	 6.11780615481588E-03 
2269	 5.10338616855033E-03 
2270	 4.49833968401091E-03 
2271	 2.38512601680096E-03 
2272	 2.73125867657025E-03 
2273	 6.01094629370565E-03 
2274	 7.5827198279981E-03 
2275	 8.64952369235948E-03 
2276	 8.93793440213169E-03 
2277	 9.28751112900919E-03 
2278	 8.81771426266103E-03 
2279	 7.3522315364702E-03 
2280	 7.09203980637477E-03 
2281	 7.6021440166555E-03 
2282	 4.71323725852717E-03 
2283	 3.02372822926317E-03 
2284	 5.97629349577855E-03 
2285	 7.64198666203325E-03 
2286	 7.04519695626282E-03 
2287	 8.79515568801528E-03 
2288	 5.82760455369765E-03 
2289	 2.61080048648081E-03 
2290	 2.01986452219922E-03 
2291	 5.47668839724902E-05 
2292	-6.50612514115146E-04 
2293	 2.39511412908215E-04 
2294	 5.25455767486169E-03 
2295	 1.02052833783059E-02 
2296	 1.26582294314116E-02 
2297	 1.02917940733135E-02 
2298	 4.05161932996973E-03 
2299	 3.58388653307541E-03 
2300	 2.88025750216298E-03 
2301	 2.61235550069571E-03 
2302	 3.40846462015151E-03 
2303	 9.96265749323901E-06 
2304	 5.89046655317136E-04 
2305	 4.31152971424981E-03 
2306	 7.7994169019303E-03 
2307	 4.97164998460932E-03 
2308	-3.14795225719711E-03 
2309	-6.7046503032484E-03 
2310	-1.19455086950308E-02 
2311	-1.18934838585429E-02 
2312	-2.46027500979229E-03 
2313	-3.92401123732499E-05 
2314	-3.78462095118177E-03 
2315	-4.74436518505987E-03 
2316	-3.97006748742579E-03 
2317	 1.49224865435819E-03 
2318	 1.31526428831834E-02 
2319	 2.11084894651653E-02 
2320	 0.021674249197046 
2321	 1.55236113360104E-02 
2322	 1.12323159905402E-02 
2323	 1.04882165661575E-02 
2324	 7.20134259304254E-03 
2325	 7.10052846155459E-03 
2326	 1.90058989788413E-03 
2327	-4.72264879019093E-03 
2328	-3.67118737995914E-03 
2329	-2.18294009449969E-03 
2330	-8.05485553092609E-04 
2331	 2.64452449710183E-03 
2332	 6.93233143834933E-03 
2333	 3.11781281835121E-03 
2334	-3.50111231901281E-03 
2335	-4.17544115864965E-03 
2336	-7.19521388898612E-03 
2337	-8.61587705487907E-03 
2338	-0.003136429127318 
2339	-2.2218688801073E-03 
2340	-1.19146464371423E-02 
2341	-1.67453163468792E-02 
2342	-0.01578785165985 
2343	-1.70809865483207E-02 
2344	-1.42048692735389E-02 
2345	-1.45857889689338E-02 
2346	-1.72643385655573E-02 
2347	-2.18049275266378E-02 
2348	-2.50337829198513E-02 
2349	-2.90175324968778E-02 
2350	-3.19569119089486E-02 
2351	-9.11153602936217E-03 
2352	 1.05069564632753E-02 
2353	 1.96323084536007E-02 
2354	 2.11073575076333E-02 
2355	 3.99524386240917E-03 
2356	-2.70328910186954E-03 
2357	-1.93809984580217E-03 
2358	-1.40366249205346E-03 
2359	 8.71038558545515E-03 
2360	 9.5893536226191E-03 
2361	 2.84893935546096E-03 
2362	 7.50295460972492E-03 
2363	 7.11427167046337E-03 
2364	 1.15110988532977E-02 
2365	 1.72194028058751E-02 
2366	 8.17646041794203E-03 
2367	 1.20768230384286E-02 
2368	 1.13327336264082E-02 
2369	 1.20958902620544E-02 
2370	 2.66087976846773E-02 
2371	 0.020924339651921 
2372	 6.30368372553736E-03 
2373	-2.44514987827032E-02 
2374	-4.10070716150541E-02 
2375	-1.34257070761542E-02 
2376	 1.12727901198353E-03 
2377	 1.32435245078074E-02 
2378	 3.96318706745534E-02 
2379	 6.35151076182028E-02 
2380	 8.23823563694561E-02 
2381	 7.09560570471427E-02 
2382	 1.67228691978007E-02 
2383	-5.00058347198118E-02 
2384	-7.13726502957601E-02 
2385	-5.71788442371527E-02 
2386	-4.62459421991738E-02 
2387	-4.53451426512886E-02 
2388	-4.47162375294389E-02 
2389	-3.87519408968759E-02 
2390	 4.45228597858133E-03 
2391	 4.30790341219067E-02 
2392	 1.95054225517198E-02 
2393	-5.19515568848929E-03 
2394	-2.22337807722452E-02 
2395	-6.42639420332663E-02 
2396	-0.111768411265794 
2397	-0.102977536236959 
2398	-9.16995351585687E-02 
2399	-0.12462745170513 
2400	-0.108597067006916 
2401	-7.46005939821138E-02 
2402	-6.64819686085462E-02 
2403	-3.32175051403586E-02 
2404	-3.71915210872415E-02 
2405	-9.98391774618588E-02 
2406	-0.141693261806158 
2407	-0.132785945886064 
2408	-7.96866287417131E-02 
2409	-0.131459453476182 
2410	-0.259960307109567 
2411	-0.255604455200719 
2412	-0.321259358333457 
2413	-0.50062758018331 
2414	-0.537888515292316 
2415	-0.500017129052183 
2416	-0.567450173072604 
2417	-0.432492365287094 
2418	-0.302471086394134 
2419	-0.378234867088697 
2420	-0.52420116946989 
2421	-0.563873544178964 
2422	-0.397189457581426 
2423	-0.417545858835155 
2424	-0.432974845691403 
2425	-0.234508996574039 
2426	-0.234782621996791 
2427	-0.383207745042823 
2428	-0.324234675465111 
2429	-0.201305548304153 
2430	-0.145456396326509 
2431	-0.105425504888611 
2432	-0.176478583139748 
2433	-0.274065694144363 
2434	-0.286529420694562 
2435	-0.308959994840015 
2436	-0.118209418759082 
2437	 1.21394123385765E-02 
2438	-0.18231103007318 
2439	-0.219306003721729 
2440	-0.126583295521359 
2441	-0.623033804210212 
2442	-1.15521866319316 
2443	-0.187000903129083 
2444	-0.102932514653514 
2445	-0.3942474606631 
2446	-1.37873658700145 
2447	-18.3773965841566 
2448	 6.08435769704162 
2449	 5.59819827051509 
2450	 13.5550309225839 
2451	 9.5422547163274 
2452	 3.84125325295589 
2453	-10.5131958313217 
2454	-0.787695193519631 
2455	-0.410653441732872 
2456	-0.134020087444418 
2457	 0.299760687469641 
2458	 0.219753595587275 
2459	-0.524334248805804 
2460	-0.634401466343339 
2461	-0.872618491899337 
2462	-0.620208408545814 
2463	-0.812285209174048 
2464	-1.47051647500288 
2465	-1.08287142869322 
2466	-1.60128450353925 
2467	-7.19276098573437 
2468	 2.92063004916832 
2469	 1.7519732418804 
2470	 6.6483551703046 
2471	-1.12086426682384 
2472	-0.346522612231326 
2473	-0.96565477583226 
2474	 1.27627422959426 
2475	 0.611708082234309 
2476	 0.61993460041739 
2477	 0.969519951389617 
2478	 0.949913343482935 
2479	 3.20502497232396 
2480	 1.32752102178629 
2481	 0.169306666295756 
2482	 0.436353244694742 
2483	 0.205400818133785 
2484	 1.1324463850895 
2485	-5.22643047468064 
2486	 5.25311818029134 
2487	 3.18861620555194 
2488	 3.74064400280571 
2489	 1.25020152110568 
2490	 2.67584448094441 
2491	 12.1238873412479 
2492	 0.537272978260959 
2493	-0.159076883666938 
2494	 7.11622387501916E-02 
2495	 0.733014673604847 
2496	 1.85653343096185 
2497	 2.08525826410647 
2498	 2.1731387840728 
2499	-1.28172762957827 
2500	 7.61746122747081 
