Wavelength	rt0628far00001.asd
350	 5.96733270402018E-02 
351	 6.15770940079056E-02 
352	 6.03360079068474E-02 
353	 5.94358610059423E-02 
354	 6.06203333037268E-02 
355	 5.88931495957337E-02 
356	 5.96552258134008E-02 
357	 0.060435331437945 
358	 5.83394762929599E-02 
359	 5.93970333408216E-02 
360	 5.95114857051008E-02 
361	 5.88126532349431E-02 
362	 6.00459048246841E-02 
363	 5.95638645622797E-02 
364	 5.92326651091654E-02 
365	 5.97627784531819E-02 
366	 5.91189339058577E-02 
367	 5.95698337377527E-02 
368	 6.00229188521184E-02 
369	 5.94172031378444E-02 
370	 6.00552222143443E-02 
371	 5.98464491106083E-02 
372	 5.95056887395804E-02 
373	 6.08742679917348E-02 
374	 6.01886339089869E-02 
375	 6.02636614622936E-02 
376	 6.15922176465584E-02 
377	 6.07146063680576E-02 
378	 6.17074029315715E-02 
379	 6.25513411459912E-02 
380	 6.15986204925285E-02 
381	 6.29798604551771E-02 
382	 6.29966069731593E-02 
383	 6.24252368848452E-02 
384	 6.35679562676941E-02 
385	 6.30226576304985E-02 
386	 6.33712428924077E-02 
387	 6.46398236470725E-02 
388	 6.37413603619843E-02 
389	 6.48114584931773E-02 
390	 6.55245134388768E-02 
391	 6.44508717870233E-02 
392	 6.54055598460353E-02 
393	 6.52320656498868E-02 
394	 6.48837504787176E-02 
395	 6.60372809892428E-02 
396	 6.57337481810786E-02 
397	 6.60297899519892E-02 
398	 6.67002051514538E-02 
399	 0.06557774688784 
400	 0.066026764663029 
401	 6.64811606413786E-02 
402	 0.065987653874151 
403	 6.67260304101392E-02 
404	 6.68047351589916E-02 
405	 6.67111957824615E-02 
406	 6.74200779815873E-02 
407	 6.73151971801829E-02 
408	 6.76316987967653E-02 
409	 0.068306875323065 
410	 6.79676437523322E-02 
411	 6.83650518756217E-02 
412	 6.87475194732388E-02 
413	 6.86519142746618E-02 
414	 6.94747850850404E-02 
415	 0.069650848674737 
416	 6.96172796876639E-02 
417	 7.03199650572714E-02 
418	 0.070421744594066 
419	 7.07749450114986E-02 
420	 0.071449256281279 
421	 7.15665162501669E-02 
422	 7.21891467281943E-02 
423	 7.27436083484672E-02 
424	 7.28456341733401E-02 
425	 0.07362450113963 
426	 7.40272739363729E-02 
427	 7.43418755630914E-02 
428	 0.075283901497178 
429	 7.56411139203088E-02 
430	 7.61779156015046E-02 
431	 7.70438176695723E-02 
432	 7.74787839926379E-02 
433	 7.81304984029308E-02 
434	 7.87015023042438E-02 
435	 7.90161873277904E-02 
436	 7.99127760233788E-02 
437	 8.04702227536207E-02 
438	 8.08497084861132E-02 
439	 0.081681521216535 
440	 8.20715337551077E-02 
441	 8.25970402692962E-02 
442	 8.33973150470291E-02 
443	 8.37365447810575E-02 
444	 8.44205580494345E-02 
445	 8.50706956281452E-02 
446	 8.52951202369543E-02 
447	 8.59680074982861E-02 
448	 8.63915457661414E-02 
449	 8.66599755811322E-02 
450	 8.73894215216854E-02 
451	 0.087738457167044 
452	 8.80963973444085E-02 
453	 8.86515306055247E-02 
454	 8.87864328042065E-02 
455	 8.92596298176652E-02 
456	 8.97337338523792E-02 
457	 8.97331979925453E-02 
458	 9.02996742119782E-02 
459	 9.06650146315799E-02 
460	 9.07818272193448E-02 
461	 9.13649431186903E-02 
462	 9.15740203604446E-02 
463	 9.18033868039102E-02 
464	 9.23291000367732E-02 
465	 9.23868568142041E-02 
466	 9.27259150882685E-02 
467	 9.32277201541824E-02 
468	 9.34390605368471E-02 
469	 9.38827050858388E-02 
470	 9.41145243784412E-02 
471	 9.41820211776685E-02 
472	 9.48862515338022E-02 
473	 9.51319904741827E-02 
474	 9.52934272137772E-02 
475	 9.58367292724192E-02 
476	 9.60964016184027E-02 
477	 9.65565146376679E-02 
478	 9.70857008636499E-02 
479	 9.72151604705931E-02 
480	 9.77517061035314E-02 
481	 0.098233053563959 
482	 9.84641565630633E-02 
483	 0.099151516589016 
484	 9.96163211111128E-02 
485	 0.10007537887581 
486	 0.100879080336042 
487	 0.101220553994498 
488	 0.101781176897221 
489	 0.102568639664495 
490	 0.102917922059977 
491	 0.103606264012464 
492	 0.104273665686732 
493	 0.104672228570148 
494	 0.105506144406177 
495	 0.106102391466564 
496	 0.106637307009965 
497	 0.107597519213654 
498	 0.1081575124701 
499	 0.108833371119043 
500	 0.109745347548423 
501	 0.110189606250772 
502	 0.111029991529349 
503	 0.111923713561299 
504	 0.112454771832223 
505	 0.113399113713332 
506	 0.114151366574863 
507	 0.114760711324221 
508	 0.115762424195085 
509	 0.11645070098661 
510	 0.117194494337697 
511	 0.118201097923422 
512	 0.118875341449822 
513	 0.119826626618876 
514	 0.120824857456881 
515	 0.121421657266695 
516	 0.122463759697569 
517	 0.123443071550516 
518	 0.124236348348895 
519	 0.125337388188086 
520	 0.126182554130884 
521	 0.127056351638428 
522	 0.128196152901243 
523	 0.128933309668163 
524	 0.129940856515851 
525	 0.131119649999264 
526	 0.131893383643021 
527	 0.132981451644428 
528	 0.134022877648803 
529	 0.134866701007449 
530	 0.136113063044982 
531	 0.137113886073884 
532	 0.138043362776198 
533	 0.139249658723142 
534	 0.140168971088908 
535	 0.141243695268798 
536	 0.142499219714835 
537	 0.143426264157988 
538	 0.144590043881618 
539	 0.145769352262322 
540	 0.146749953809241 
541	 0.147994491119254 
542	 0.149101777860812 
543	 0.150133743409908 
544	 0.151394494825117 
545	 0.152379341912334 
546	 0.153461156991085 
547	 0.154758304628691 
548	 0.155670867348826 
549	 0.156810417891659 
550	 0.158008287308607 
551	 0.158949872031556 
552	 0.160161131804652 
553	 0.161232169227437 
554	 0.162145582570659 
555	 0.16336383291846 
556	 0.16431523033064 
557	 0.165319180466518 
558	 0.166609295383022 
559	 0.167444224390119 
560	 0.168454860064094 
561	 0.16956685025761 
562	 0.170335486794321 
563	 0.171359762681539 
564	 0.172301952680421 
565	 0.173030358894297 
566	 0.174074247509603 
567	 0.174838768929375 
568	 0.175530727610196 
569	 0.176499213573423 
570	 0.177106907218556 
571	 0.177777736164045 
572	 0.178560755172705 
573	 0.179050676332871 
574	 0.179804516179569 
575	 0.180483704371467 
576	 0.180835732140972 
577	 0.181598182967263 
578	 0.182131384143416 
579	 0.182510323115583 
580	 0.183179746439943 
581	 0.183524491794637 
582	 0.183956550053244 
583	 0.184587133491617 
584	 0.184723910238255 
585	 0.185098877710923 
586	 0.185456165181729 
587	 0.185387861722325 
588	 0.18586896775006 
589	 0.186151431960989 
590	 0.186131908720686 
591	 0.186504765090098 
592	 0.186592496183866 
593	 0.186670901471582 
594	 0.186945731341791 
595	 0.186817295900164 
596	 0.186816862478306 
597	 0.186859105925985 
598	 0.18658385216802 
599	 0.18657558654856 
600	 0.186553400026558 
601	 0.186423372594717 
602	 0.186599840723187 
603	 0.186678381453939 
604	 0.186756122749963 
605	 0.186992039241171 
606	 0.186977198991901 
607	 0.187142571481412 
608	 0.187441657954851 
609	 0.187331038743033 
610	 0.187586195490469 
611	 0.187863208342325 
612	 0.187869924605359 
613	 0.188205903353049 
614	 0.18829972442206 
615	 0.188317631419772 
616	 0.188731941997983 
617	 0.18874446898619 
618	 0.188858398097466 
619	 0.189217642306469 
620	 0.189145999768704 
621	 0.189402931554365 
622	 0.189667742610858 
623	 0.189526384083534 
624	 0.189917819158502 
625	 0.19010016902651 
626	 0.190031126150542 
627	 0.190351836969947 
628	 0.190362508533508 
629	 0.19047378610655 
630	 0.190907502842404 
631	 0.190799294382816 
632	 0.190982960940399 
633	 0.19131051990442 
634	 0.191273809608949 
635	 0.191498359105994 
636	 0.191603283536368 
637	 0.191547379253345 
638	 0.191909293325005 
639	 0.192003454796797 
640	 0.192068371509198 
641	 0.192392535601018 
642	 0.192305511719978 
643	 0.192381918280199 
644	 0.19254555165561 
645	 0.192228483202706 
646	 0.192379322029115 
647	 0.192502217392946 
648	 0.192293549143899 
649	 0.19259154835768 
650	 0.192466192820855 
651	 0.192202127668692 
652	 0.192362374655568 
653	 0.1920078280474 
654	 0.191777633565459 
655	 0.191765910617514 
656	 0.191204432005556 
657	 0.19102956159214 
658	 0.190836425143142 
659	 0.190326546061798 
660	 0.190425800070987 
661	 0.190274311976394 
662	 0.189921995246204 
663	 0.189927415848782 
664	 0.189733962690128 
665	 0.189659021773981 
666	 0.189765479377764 
667	 0.189450570410934 
668	 0.189485904409193 
669	 0.189631026945827 
670	 0.189507064215405 
671	 0.189852277845352 
672	 0.189987284969078 
673	 0.189944795999203 
674	 0.190419466742637 
675	 0.190488861053055 
676	 0.190652909567692 
677	 0.191217519898071 
678	 0.191281172945853 
679	 0.191634577266178 
680	 0.192126333818081 
681	 0.192302408103835 
682	 0.192835895997485 
683	 0.193201163566967 
684	 0.193295031547605 
685	 0.19373320619692 
686	 0.193830174553897 
687	 0.193998200657776 
688	 0.194598991111892 
689	 0.194634129537393 
690	 0.194834064749887 
691	 0.195085897120692 
692	 0.194851133528677 
693	 0.195040234012835 
694	 0.195166971875354 
695	 0.195038845677503 
696	 0.195266679500551 
697	 0.195021916767287 
698	 0.194634504927946 
699	 0.194597000244125 
700	 0.194128619037041 
701	 0.193890129386773 
702	 0.193828945229712 
703	 0.193336072509967 
704	 0.193021559161067 
705	 0.192572562147707 
706	 0.191875308407759 
707	 0.191545333391777 
708	 0.190806800867292 
709	 0.189933427838544 
710	 0.189376975305575 
711	 0.188238013017655 
712	 0.187180460516597 
713	 0.186253938143106 
714	 0.184760397581072 
715	 0.183451953098413 
716	 0.181899725078373 
717	 0.179834189358978 
718	 0.178555581624117 
719	 0.176884036387682 
720	 0.175325256203968 
721	 0.17429787076628 
722	 0.172585246274754 
723	 0.170650641460008 
724	 0.168889048770074 
725	 0.166742932361825 
726	 0.164763926935513 
727	 0.162486057486765 
728	 0.159637585317548 
729	 0.157099268454956 
730	 0.154074785406129 
731	 0.151107959597554 
732	 0.14886643342071 
733	 0.146502475517355 
734	 0.144529799838404 
735	 0.143017691658053 
736	 0.141321807700331 
737	 0.140315825249406 
738	 0.139562033606173 
739	 0.138704619453666 
740	 0.138569726354942 
741	 0.138275910942415 
742	 0.1379197753154 
743	 0.137992438469899 
744	 0.1376910941279 
745	 0.137604838730397 
746	 0.13781086326986 
747	 0.137528307128826 
748	 0.137634208829493 
749	 0.137733940512213 
750	 0.137468391598391 
751	 0.137717491984158 
752	 0.13763540216033 
753	 0.137430294407711 
754	 0.137745536892063 
755	 0.137614089320018 
756	 0.137583268250898 
757	 0.13777647876186 
758	 0.137420721799158 
759	 0.137775852597727 
760	 0.138171243294514 
761	 0.13731492427228 
762	 0.138192083146703 
763	 0.138253832320881 
764	 0.138164642516937 
765	 0.138986894641639 
766	 0.138839052859814 
767	 0.139014152774945 
768	 0.139572754472548 
769	 0.139425635352439 
770	 0.139746361292608 
771	 0.140119933814276 
772	 0.140214912385669 
773	 0.140852962748018 
774	 0.141103112445965 
775	 0.141269263751124 
776	 0.141984326490108 
777	 0.142296323915309 
778	 0.142744106036071 
779	 0.143352052859278 
780	 0.143584056253365 
781	 0.144284343642624 
782	 0.144888298789408 
783	 0.145112774560325 
784	 0.145925059429125 
785	 0.146413922680921 
786	 0.146881190656312 
787	 0.147805689106126 
788	 0.148132925786499 
789	 0.148788937116574 
790	 0.149684968662488 
791	 0.149986402725297 
792	 0.150934615654106 
793	 0.151683985955614 
794	 0.151970441152121 
795	 0.152902769867162 
796	 0.153423312255954 
797	 0.153859789531458 
798	 0.154628429960208 
799	 0.154955677604668 
800	 0.155580338065414 
801	 0.156231166910457 
802	 0.156270162758953 
803	 0.156907139470887 
804	 0.157295509986244 
805	 0.157298569213756 
806	 0.157685908364105 
807	 0.157606751296141 
808	 0.157449165042702 
809	 0.157487627388457 
810	 0.156997728397181 
811	 0.156952729725581 
812	 0.15680345746659 
813	 0.155717438807216 
814	 0.155803175688344 
815	 0.155230945135048 
816	 0.154138099622613 
817	 0.154149379137247 
818	 0.153050608618662 
819	 0.152168285758163 
820	 0.151598060317571 
821	 0.149605329853722 
822	 0.148062879901096 
823	 0.146243074964605 
824	 0.143728394051684 
825	 0.142157706413056 
826	 0.139526285907503 
827	 0.136375973815955 
828	 0.134054984645844 
829	 0.130812232444362 
830	 0.128312521260716 
831	 0.126436378682215 
832	 0.123958810525836 
833	 0.12270587099598 
834	 0.121329614275268 
835	 0.119605473790492 
836	 0.119160748080341 
837	 0.118239694643986 
838	 0.117366167460993 
839	 0.116978229848046 
840	 0.115973437548035 
841	 0.115470802475933 
842	 0.114987609706479 
843	 0.113881827717965 
844	 0.113655773960938 
845	 0.113098802912548 
846	 0.112281644436089 
847	 0.112036806504846 
848	 0.111025756626455 
849	 0.11038465649373 
850	 0.110254901089095 
851	 0.1092577388058 
852	 0.109109590323066 
853	 0.108878195092777 
854	 0.107971373452708 
855	 0.10769132986708 
856	 0.10691874453838 
857	 0.106353216359311 
858	 0.106538066610219 
859	 0.105661631307956 
860	 0.105240610200694 
861	 0.104979473430111 
862	 0.103980928911702 
863	 0.103885019756073 
864	 0.103364689263717 
865	 0.102488297114514 
866	 0.102529414881109 
867	 0.101478188040929 
868	 0.100889204766123 
869	 0.100980533742362 
870	 9.97450372959189E-02 
871	 9.95019527888216E-02 
872	 9.90785168156954E-02 
873	 9.77788197013466E-02 
874	 9.76811307426769E-02 
875	 9.67977223962113E-02 
876	 9.58690850665379E-02 
877	 9.57504129387517E-02 
878	 9.44580303732991E-02 
879	 9.40464694364082E-02 
880	 9.38003353882339E-02 
881	 9.22817537881093E-02 
882	 9.21374389607995E-02 
883	 9.13262038699359E-02 
884	 9.00664573207698E-02 
885	 9.00907284645098E-02 
886	 8.90354095304522E-02 
887	 8.85848419767835E-02 
888	 8.87265243782015E-02 
889	 8.72790664351726E-02 
890	 8.70476315292047E-02 
891	 8.65586974975041E-02 
892	 8.52421816996932E-02 
893	 8.57227069529611E-02 
894	 8.47201865658947E-02 
895	 8.38767674657735E-02 
896	 8.46275196928346E-02 
897	 8.25318785142702E-02 
898	 8.24010144778157E-02 
899	 8.24197859261987E-02 
900	 8.02868935860216E-02 
901	 8.07929952540291E-02 
902	 7.96211957661283E-02 
903	 7.82996101673686E-02 
904	 7.92679849072763E-02 
905	 7.77633848836434E-02 
906	 7.73429529126083E-02 
907	 7.73165330881376E-02 
908	 7.46282838717267E-02 
909	 7.53383395484173E-02 
910	 7.49101749752458E-02 
911	 7.29973313898004E-02 
912	 7.33456288727476E-02 
913	 7.11932270509885E-02 
914	 0.070860888104101 
915	 7.17437555614956E-02 
916	 6.76211070108118E-02 
917	 6.72996577325713E-02 
918	 0.06656187574347 
919	 6.41961998259238E-02 
920	 6.49046847760444E-02 
921	 6.24196309336812E-02 
922	 6.04816228251179E-02 
923	 6.09353370144398E-02 
924	 5.75045596898046E-02 
925	 5.74243760957366E-02 
926	 0.05696748124965 
927	 5.24498748267226E-02 
928	 5.53805514617689E-02 
929	 5.31406140366372E-02 
930	 4.97238540667703E-02 
931	 5.59546846657359E-02 
932	 4.50104342516365E-02 
933	 4.52018456586895E-02 
934	 4.85735265343958E-02 
935	 3.56418443913562E-02 
936	 4.39444068013728E-02 
937	 3.86863293912661E-02 
938	 0.032784080530209 
939	 4.20366871787071E-02 
940	 3.50649130644555E-02 
941	 3.59911617300828E-02 
942	 3.93205197752114E-02 
943	 3.01663399120435E-02 
944	 3.61682098972031E-02 
945	 3.37993822055525E-02 
946	 2.75324498647797E-02 
947	 3.41859696902196E-02 
948	 0.027680912631131 
949	 2.83972961414352E-02 
950	 3.15435011936465E-02 
951	 2.16497584241172E-02 
952	 2.67464976053724E-02 
953	 2.34946029882284E-02 
954	 1.71775388666646E-02 
955	 2.74182406259469E-02 
956	 2.22379792293776E-02 
957	 2.18202527725383E-02 
958	 2.59871645734839E-02 
959	 0.021570649116582 
960	 2.55991343038592E-02 
961	 0.022790490251744 
962	 0.017288119849458 
963	 2.34210330976228E-02 
964	 2.09622059503476E-02 
965	 2.19662607066666E-02 
966	 2.47662685551456E-02 
967	 0.01947273992988 
968	 2.22885282222857E-02 
969	 2.22091075432772E-02 
970	 1.93252020615666E-02 
971	 2.29048684363064E-02 
972	 1.96871330030845E-02 
973	 1.96198098337658E-02 
974	 0.022470804199751 
975	 1.80137454581693E-02 
976	 2.06087612052777E-02 
977	 1.98136143340773E-02 
978	 1.71709588927181E-02 
979	 2.33566604874344E-02 
980	 1.97848473725628E-02 
981	 2.00256796530516E-02 
982	 2.32794165884006E-02 
983	 1.80884887494421E-02 
984	 2.12348776537564E-02 
985	 2.09668857154355E-02 
986	 1.79959532098606E-02 
987	 2.21113128474678E-02 
988	 1.98531406596264E-02 
989	 2.01109098819773E-02 
990	 2.18122504751619E-02 
991	 1.77087186919902E-02 
992	 2.16876261726074E-02 
993	 2.17709099143208E-02 
994	 1.92953877982433E-02 
995	 2.32442251756587E-02 
996	 1.96571002998011E-02 
997	 0.020727025972298 
998	 2.34178534105483E-02 
999	 1.82887056322675E-02 
1000	 2.21176220027217E-02 
1001	 2.23779013655022E-02 
1002	 2.19310802978814E-02 
1003	 0.021930806794949 
1004	 0.022153991366462 
1005	 2.23441952753375E-02 
1006	 0.0227908689059 
1007	 2.29873566289751E-02 
1008	 2.30137512395594E-02 
1009	 2.33406682921067E-02 
1010	 2.37422900343461E-02 
1011	 2.37466107948588E-02 
1012	 2.41268290761593E-02 
1013	 2.44506177454251E-02 
1014	 0.02460909052263 
1015	 2.46509826815214E-02 
1016	 2.49665629578228E-02 
1017	 2.51689963063757E-02 
1018	 2.54929746243609E-02 
1019	 2.62409594353593E-02 
1020	 2.66406672680981E-02 
1021	 2.69013551337411E-02 
1022	 2.71108830897544E-02 
1023	 2.71141334692487E-02 
1024	 2.71331519647901E-02 
1025	 2.74375408241701E-02 
1026	 2.77597139287613E-02 
1027	 2.82626730342702E-02 
1028	 2.91569731744375E-02 
1029	 0.029549346071174 
1030	 2.99386079310938E-02 
1031	 3.01337357648577E-02 
1032	 0.02981270862119 
1033	 2.99811616532016E-02 
1034	 0.030069988401309 
1035	 3.05083859972614E-02 
1036	 3.15790065864952E-02 
1037	 3.22315407828496E-02 
1038	 3.29657941868389E-02 
1039	 3.35688713056896E-02 
1040	 3.36622123886436E-02 
1041	 3.37637114458354E-02 
1042	 3.40317776255446E-02 
1043	 3.41955609350042E-02 
1044	 3.46973461284639E-02 
1045	 0.03552804695487 
1046	 3.60997063774381E-02 
1047	 3.67893995559767E-02 
1048	 3.72936273394008E-02 
1049	 3.76040174111166E-02 
1050	 3.79813720693386E-02 
1051	 3.83750946008019E-02 
1052	 3.86909695220289E-02 
1053	 3.88886690337145E-02 
1054	 3.91696131892995E-02 
1055	 3.93042797692056E-02 
1056	 3.96663053657599E-02 
1057	 0.040156092644272 
1058	 4.09543550005516E-02 
1059	 4.12633702684317E-02 
1060	 4.14591047748276E-02 
1061	 4.17739029687983E-02 
1062	 4.18728249085786E-02 
1063	 4.20409110800333E-02 
1064	 4.24469470948609E-02 
1065	 4.26699354544481E-02 
1066	 4.27221416308029E-02 
1067	 4.27231524143368E-02 
1068	 0.04262273415576 
1069	 4.26559754377574E-02 
1070	 4.26393303994655E-02 
1071	 4.26314889477535E-02 
1072	 4.29086392272456E-02 
1073	 4.29400856302637E-02 
1074	 0.042818479061623 
1075	 4.23895521324593E-02 
1076	 4.23406152410921E-02 
1077	 4.24071474769258E-02 
1078	 4.22279948670492E-02 
1079	 4.21545398886612E-02 
1080	 4.19726925648855E-02 
1081	 4.15634579515983E-02 
1082	 4.11224163560691E-02 
1083	 4.05278337789873E-02 
1084	 4.02132820546464E-02 
1085	 0.039846160176929 
1086	 3.95610361341152E-02 
1087	 3.99334215559876E-02 
1088	 3.97660512800173E-02 
1089	 3.91077837554508E-02 
1090	 3.84769334424879E-02 
1091	 3.81502821316156E-02 
1092	 3.77749443143557E-02 
1093	 3.72751470110939E-02 
1094	 3.70107568453525E-02 
1095	 3.67334331442603E-02 
1096	 3.61551599301787E-02 
1097	 3.59012329086116E-02 
1098	 3.61566588334343E-02 
1099	 3.58986662099972E-02 
1100	 3.53074824286836E-02 
1101	 3.48930835120978E-02 
1102	 3.42003305885504E-02 
1103	 3.38680352614753E-02 
1104	 3.39827415802643E-02 
1105	 3.39949392203344E-02 
1106	 3.32499814021682E-02 
1107	 3.28560807111841E-02 
1108	 3.26534902407136E-02 
1109	 3.18411860611222E-02 
1110	 0.031591053411858 
1111	 0.032193042391098 
1112	 3.24512552628777E-02 
1113	 3.29525610953793E-02 
1114	 3.28833499538819E-02 
1115	 0.032437990005219 
1116	 0.032015615550534 
1117	 2.96143769407644E-02 
1118	 2.88494691261729E-02 
1119	 3.12199841852675E-02 
1120	 3.20255493962476E-02 
1121	 3.37996993373077E-02 
1122	 3.45260435677693E-02 
1123	 3.25511937930819E-02 
1124	 2.83926863344229E-02 
1125	 2.97626161783519E-02 
1126	 3.57874751277593E-02 
1127	 3.28127081840487E-02 
1128	 2.64709114419533E-02 
1129	 2.65991625357947E-02 
1130	 2.54591791714168E-02 
1131	 2.41709862419106E-02 
1132	 2.82645947871091E-02 
1133	 0.029224632111622 
1134	 2.65248730801221E-02 
1135	 0.02474227124862 
1136	 2.41258168685612E-02 
1137	 2.35733618689573E-02 
1138	 2.20601497700276E-02 
1139	 2.03627574664455E-02 
1140	 2.15616777268611E-02 
1141	 2.38597649077362E-02 
1142	 2.24520824554087E-02 
1143	 2.17299934266643E-02 
1144	 2.16561107442102E-02 
1145	 0.018929561465657 
1146	 0.019986680227055 
1147	 2.03606536922873E-02 
1148	 1.85740974007493E-02 
1149	 2.03800837533373E-02 
1150	 1.98398286396302E-02 
1151	 1.70302642037643E-02 
1152	 1.71272104529237E-02 
1153	 1.88788091215005E-02 
1154	 1.80493987120665E-02 
1155	 1.67456108651929E-02 
1156	 1.68533337496815E-02 
1157	 1.59344162460441E-02 
1158	 1.52276851195491E-02 
1159	 1.60546968061833E-02 
1160	 1.66720066705034E-02 
1161	 1.65118535259509E-02 
1162	 1.66864216434334E-02 
1163	 1.63155903196781E-02 
1164	 1.54345471030202E-02 
1165	 1.56907574430966E-02 
1166	 1.57567755619124E-02 
1167	 1.47561113172355E-02 
1168	 1.46107263234654E-02 
1169	 1.53194666803163E-02 
1170	 1.53908996111825E-02 
1171	 1.52347416912409E-02 
1172	 1.53879783093427E-02 
1173	 1.55768780053703E-02 
1174	 1.53566040453309E-02 
1175	 0.01494642636113 
1176	 1.50875634423539E-02 
1177	 1.54005896482011E-02 
1178	 1.52533482182509E-02 
1179	 1.50533577065491E-02 
1180	 0.015130903699901 
1181	 1.49889925167751E-02 
1182	 1.48297006957592E-02 
1183	 1.51727033177154E-02 
1184	 1.55450828237463E-02 
1185	 1.54666804031809E-02 
1186	 1.51801290708075E-02 
1187	 1.49337885728821E-02 
1188	 1.48700418921315E-02 
1189	 1.49881808618511E-02 
1190	 0.015066904696737 
1191	 1.49724544618081E-02 
1192	 1.49694074406724E-02 
1193	 1.48271386864702E-02 
1194	 1.50079726006101E-02 
1195	 1.51162798741733E-02 
1196	 1.48453855347623E-02 
1197	 1.46358050231729E-02 
1198	 1.47110986324466E-02 
1199	 1.47253953275718E-02 
1200	 1.47124577518739E-02 
1201	 1.49533527514185E-02 
1202	 1.48360787401769E-02 
1203	 0.014422549843939 
1204	 1.46366273181379E-02 
1205	 1.49160286444967E-02 
1206	 1.47263004844152E-02 
1207	 1.49099985773005E-02 
1208	 0.01524586884307 
1209	 1.49511673065959E-02 
1210	 1.46999077528317E-02 
1211	 1.50089285535441E-02 
1212	 1.51527862353405E-02 
1213	 1.49365824059032E-02 
1214	 1.48964876923636E-02 
1215	 1.49714520483998E-02 
1216	 1.49506541910691E-02 
1217	 1.47891337821055E-02 
1218	 1.48179972195269E-02 
1219	 1.49396990928535E-02 
1220	 1.47515719707425E-02 
1221	 0.014640216162927 
1222	 1.49911896756737E-02 
1223	 0.015069487627526 
1224	 1.46178095114197E-02 
1225	 1.44143000235174E-02 
1226	 1.45123819380996E-02 
1227	 1.46646812262151E-02 
1228	 1.49910261809645E-02 
1229	 1.51501998404456E-02 
1230	 1.48815053262442E-02 
1231	 1.45834917453906E-02 
1232	 1.46019421873142E-02 
1233	 1.46295671267511E-02 
1234	 1.44746395937455E-02 
1235	 0.014515465693536 
1236	 1.48675382082605E-02 
1237	 1.48669358826699E-02 
1238	 1.47766210191005E-02 
1239	 1.45638065029791E-02 
1240	 1.44437366524707E-02 
1241	 1.43373620897085E-02 
1242	 1.42923363063291E-02 
1243	 1.45405891228944E-02 
1244	 1.47166354773424E-02 
1245	 1.44417539748162E-02 
1246	 1.44110498618183E-02 
1247	 1.48411421668409E-02 
1248	 1.48203864402317E-02 
1249	 0.014528459413684 
1250	 1.46272091746512E-02 
1251	 1.47076729732958E-02 
1252	 1.46683452535279E-02 
1253	 1.48328277616842E-02 
1254	 1.49056123657257E-02 
1255	 1.47185529654185E-02 
1256	 1.46736710470272E-02 
1257	 1.49401190466782E-02 
1258	 1.49537624164336E-02 
1259	 1.46281200650237E-02 
1260	 1.46124694470601E-02 
1261	 1.48284494103144E-02 
1262	 0.014783852288946 
1263	 1.46989628000811E-02 
1264	 1.47597748013985E-02 
1265	 1.46460939618833E-02 
1266	 1.46015044792932E-02 
1267	 0.014830843607147 
1268	 1.47924736936899E-02 
1269	 1.44664040295282E-02 
1270	 1.43307354471239E-02 
1271	 1.45499664910587E-02 
1272	 1.46926891704729E-02 
1273	 1.48217064623928E-02 
1274	 1.49661197441804E-02 
1275	 1.46533381724601E-02 
1276	 1.43361431226411E-02 
1277	 1.44078642228593E-02 
1278	 1.45878736618975E-02 
1279	 1.47759572801707E-02 
1280	 1.49325999210681E-02 
1281	 1.49827272205604E-02 
1282	 1.48546261273991E-02 
1283	 1.48330105501541E-02 
1284	 1.48053809921351E-02 
1285	 1.48282272854245E-02 
1286	 1.50291585067399E-02 
1287	 1.49508633461013E-02 
1288	 0.014571076078182 
1289	 1.44391199756017E-02 
1290	 1.43233746108192E-02 
1291	 0.014234450672562 
1292	 1.41093430669284E-02 
1293	 0.014252884231658 
1294	 1.44903807333264E-02 
1295	 1.44651257341893E-02 
1296	 1.43554053607417E-02 
1297	 1.43398842581632E-02 
1298	 1.43165414358504E-02 
1299	 1.42273217685601E-02 
1300	 1.43541328959343E-02 
1301	 1.47384466535368E-02 
1302	 1.45659809026483E-02 
1303	 0.014128497735641 
1304	 1.42760165259228E-02 
1305	 1.41365416017812E-02 
1306	 1.39900918891061E-02 
1307	 1.39579094180733E-02 
1308	 0.014117187207029 
1309	 1.42720761519134E-02 
1310	 1.42192921731118E-02 
1311	 1.42055935573404E-02 
1312	 1.42897706113597E-02 
1313	 1.42139073805664E-02 
1314	 1.41177497763353E-02 
1315	 1.43284000868064E-02 
1316	 1.44666579259806E-02 
1317	 0.014198847154226 
1318	 1.40566662742624E-02 
1319	 1.40924372465355E-02 
1320	 1.42040817258961E-02 
1321	 1.42158733862924E-02 
1322	 1.44982870825599E-02 
1323	 1.48540937737781E-02 
1324	 1.51096808881704E-02 
1325	 0.014623828837365 
1326	 1.38269719024557E-02 
1327	 1.41905965443795E-02 
1328	 1.47552719816497E-02 
1329	 1.45510442545183E-02 
1330	 0.015127578159473 
1331	 1.53859001502323E-02 
1332	 1.40359472760783E-02 
1333	 1.36656154205411E-02 
1334	 1.51256944927852E-02 
1335	 1.54465291172853E-02 
1336	 1.49690184050541E-02 
1337	 1.51781774609868E-02 
1338	 1.57317907173248E-02 
1339	 1.59382151454965E-02 
1340	 1.67955150429174E-02 
1341	 1.67657625482004E-02 
1342	 1.50803526377881E-02 
1343	 1.48500967791313E-02 
1344	 1.50414753983558E-02 
1345	 0.015360163320043 
1346	 1.87968848859156E-02 
1347	 1.94597708976329E-02 
1348	 1.51983408382837E-02 
1349	 1.31986964059703E-02 
1350	 8.76063492467604E-03 
1351	 4.91489775381816E-03 
1352	 6.88292557654428E-03 
1353	 1.21627662456388E-02 
1354	 3.49392948711936E-02 
1355	 6.74675156597239E-02 
1356	 4.56163147117109E-02 
1357	-0.017725014258872 
1358	-7.25610480194633E-02 
1359	-0.038392351025648 
1360	 0.140072112059094 
1361	 0.24664619930168 
1362	 0.175948811821562 
1363	 0.206452602174568 
1364	 0.207335771239943 
1365	 7.19600704553497E-02 
1366	 0.111715185266563 
1367	 7.64712975420958E-02 
1368	 0.129974782010405 
1369	 0.377684015959805 
1370	 0.496534636467464 
1371	 0.571870198625609 
1372	 0.694582405308215 
1373	 0.884781813611298 
1374	 0.820556320898242 
1375	 0.620133493530833 
1376	 0.73347109586142 
1377	 0.870351790365876 
1378	 0.717523870397371 
1379	 0.559652133572785 
1380	 0.604089396649301 
1381	 0.442080666554707 
1382	 0.241987917094443 
1383	 0.205338719089431 
1384	 0.399004052283423 
1385	 0.693993027084244 
1386	 0.679471586693964 
1387	 0.817425979561231 
1388	 1.00556625974085 
1389	 1.04493362289757 
1390	 0.732228582971816 
1391	 0.65433901166925 
1392	 0.354619413591752 
1393	-0.31081811936592 
1394	-0.34243825941274 
1395	 0.545085004241847 
1396	 1.02247719876193 
1397	 0.899562727913084 
1398	 0.601393351547627 
1399	 0.574544519710135 
1400	 0.617491413898302 
1401	 0.14549930593166 
1402	-3.49695828550847E-02 
1403	 0.191568109408331 
1404	 0.440815442693346 
1405	 0.434205346394861 
1406	 1.12569586092599 
1407	 1.10476360034888 
1408	 0.454500594465668 
1409	 0.202529091115134 
1410	 0.303375616619068 
1411	 0.288769215367822 
1412	 0.162229951806949 
1413	 8.58155228171897E-02 
1414	 7.05094997897083E-02 
1415	 9.66674717700797E-02 
1416	 9.01560002536445E-02 
1417	 7.16801994087666E-02 
1418	 9.90503328069065E-02 
1419	 0.127891168020597 
1420	 0.188279478115102 
1421	 0.136920989393767 
1422	 4.35146611225786E-02 
1423	 4.78859880517082E-02 
1424	 3.90653001640672E-02 
1425	 3.54040473137152E-02 
1426	 8.76656137176707E-02 
1427	 9.54767545161586E-02 
1428	 6.92743010352933E-02 
1429	 5.94013430619713E-02 
1430	 5.25394137028409E-02 
1431	 4.08802263717643E-02 
1432	 1.65426402746474E-02 
1433	 1.23775353577329E-02 
1434	 1.64588900926996E-02 
1435	 2.02834268867344E-02 
1436	 5.03690083216523E-02 
1437	 5.76389485773932E-02 
1438	 2.98568039711485E-02 
1439	 2.41513532820394E-02 
1440	 2.56710346142793E-02 
1441	 1.63421480500327E-02 
1442	 3.20225019865627E-02 
1443	 4.90446113263696E-02 
1444	 3.92304787031315E-02 
1445	 3.19233631306945E-02 
1446	 3.13649987188744E-02 
1447	 2.53449925946812E-02 
1448	 2.63998814224244E-02 
1449	 2.88998954541902E-02 
1450	 2.29249133933149E-02 
1451	 1.98525871371198E-02 
1452	 2.28099509025293E-02 
1453	 2.28662818347614E-02 
1454	 2.15763067249515E-02 
1455	 0.019981193472208 
1456	 1.96867858825534E-02 
1457	 1.84772520062285E-02 
1458	 1.73811826218612E-02 
1459	 1.74527367658237E-02 
1460	 1.67448982792159E-02 
1461	 1.33910771643269E-02 
1462	 1.40565472244718E-02 
1463	 1.92663931898409E-02 
1464	 1.86510570920693E-02 
1465	 1.49129305654556E-02 
1466	 1.59736098141085E-02 
1467	 1.79445737033382E-02 
1468	 1.57195350111969E-02 
1469	 1.43466317540345E-02 
1470	 1.45046953266449E-02 
1471	 1.03539605672971E-02 
1472	 8.19077219855492E-03 
1473	 1.01244342378591E-02 
1474	 0.012127324016508 
1475	 1.35686248712316E-02 
1476	 0.012812704229326 
1477	 1.29012489979922E-02 
1478	 1.40365659621149E-02 
1479	 1.27227235650014E-02 
1480	 1.21082597829754E-02 
1481	 0.014187140582805 
1482	 1.49315925654359E-02 
1483	 1.37613572280633E-02 
1484	 1.35601677454979E-02 
1485	 1.45612863642928E-02 
1486	 1.46680522381077E-02 
1487	 1.42530456223228E-02 
1488	 1.39339558954881E-02 
1489	 0.01353178639488 
1490	 1.31816945051702E-02 
1491	 1.27936498469962E-02 
1492	 1.25125778212145E-02 
1493	 1.23467714244287E-02 
1494	 1.22192213831037E-02 
1495	 1.17279536630916E-02 
1496	 1.18139632129325E-02 
1497	 0.012796398914921 
1498	 1.27158765291146E-02 
1499	 1.19208543964946E-02 
1500	 1.19335676493553E-02 
1501	 1.21686726232333E-02 
1502	 1.18391423879122E-02 
1503	 1.16095485139381E-02 
1504	 1.16206096573955E-02 
1505	 1.12982479168267E-02 
1506	 1.07386811846556E-02 
1507	 1.11659003869997E-02 
1508	 1.15656907121407E-02 
1509	 1.16332292017747E-02 
1510	 1.17211460121231E-02 
1511	 1.15174295314148E-02 
1512	 1.13798400956199E-02 
1513	 1.10816656841281E-02 
1514	 1.09805066681012E-02 
1515	 1.11760706255395E-02 
1516	 1.12447534753478E-02 
1517	 1.15408586217626E-02 
1518	 1.14862103123196E-02 
1519	 1.12003094769945E-02 
1520	 1.12155235257672E-02 
1521	 1.10949553158382E-02 
1522	 0.01089899778775 
1523	 1.09274707514838E-02 
1524	 1.10844987846938E-02 
1525	 1.11737289720012E-02 
1526	 1.10665796461847E-02 
1527	 0.010837039653707 
1528	 1.09036430012105E-02 
1529	 1.10417508878619E-02 
1530	 1.09798073593659E-02 
1531	 1.10953980161435E-02 
1532	 1.12421573410808E-02 
1533	 1.12751302277431E-02 
1534	 1.12700580192748E-02 
1535	 1.11026727121947E-02 
1536	 1.09638206106855E-02 
1537	 1.09973544751189E-02 
1538	 1.11615730790254E-02 
1539	 1.14470431602506E-02 
1540	 1.14709843221662E-02 
1541	 1.11950892891523E-02 
1542	 1.11191221594242E-02 
1543	 1.12429162456634E-02 
1544	 0.011300441968506 
1545	 0.011225258123719 
1546	 1.12031189427486E-02 
1547	 1.12247028155579E-02 
1548	 1.11722669617327E-02 
1549	 1.13377020629041E-02 
1550	 1.15619795081336E-02 
1551	 1.16625624646058E-02 
1552	 0.011463749503863 
1553	 1.10414665727615E-02 
1554	 0.011188317297648 
1555	 1.14410155803818E-02 
1556	 0.01125888349733 
1557	 1.12302965143474E-02 
1558	 1.14187311973213E-02 
1559	 1.13361509926863E-02 
1560	 1.10812609380351E-02 
1561	 1.11671865899943E-02 
1562	 1.12189732667515E-02 
1563	 1.11547575387633E-02 
1564	 1.14957634914167E-02 
1565	 1.17997899976644E-02 
1566	 1.16414630911372E-02 
1567	 1.14338631874125E-02 
1568	 1.16389416875536E-02 
1569	 1.18845318641377E-02 
1570	 0.0118405635748 
1571	 1.17872945169482E-02 
1572	 1.16788722725083E-02 
1573	 1.16473462540867E-02 
1574	 0.011606022180734 
1575	 1.15369217727306E-02 
1576	 1.17554877587953E-02 
1577	 1.16996157879088E-02 
1578	 1.13764577930942E-02 
1579	 1.13641102103459E-02 
1580	 1.14690609800388E-02 
1581	 1.13634737655454E-02 
1582	 1.12209226939906E-02 
1583	 1.13407113279404E-02 
1584	 1.14588460456158E-02 
1585	 1.15491723384787E-02 
1586	 0.011875870087131 
1587	 1.19953947231879E-02 
1588	 1.17106403379267E-02 
1589	 1.14994351602283E-02 
1590	 1.15654106679944E-02 
1591	 1.16816062894361E-02 
1592	 1.15815211658694E-02 
1593	 1.14408271622018E-02 
1594	 1.15771361431181E-02 
1595	 1.17668323935568E-02 
1596	 1.17281989995151E-02 
1597	 1.16769428229958E-02 
1598	 1.16711347987805E-02 
1599	 0.011725020587134 
1600	 1.17692842174226E-02 
1601	 1.14002130771538E-02 
1602	 1.12073625422134E-02 
1603	 1.15280439994071E-02 
1604	 1.16324521526204E-02 
1605	 1.17298277704974E-02 
1606	 1.20112194089522E-02 
1607	 1.18773700970853E-02 
1608	 1.15791944211722E-02 
1609	 1.16983417176702E-02 
1610	 1.18588927985932E-02 
1611	 1.16696376617518E-02 
1612	 1.16235007559408E-02 
1613	 1.19530777720006E-02 
1614	 1.18746641944821E-02 
1615	 1.14267703521617E-02 
1616	 1.15801441129388E-02 
1617	 1.17002544824908E-02 
1618	 1.14203125696623E-02 
1619	 1.18642879587652E-02 
1620	 1.19381296945024E-02 
1621	 1.12892186979219E-02 
1622	 1.17458483498471E-02 
1623	 1.22003869326108E-02 
1624	 1.17929908503051E-02 
1625	 1.16514789001639E-02 
1626	 1.15593421303279E-02 
1627	 1.14907464097788E-02 
1628	 1.17415251265244E-02 
1629	 0.011979049188215 
1630	 1.20115635416759E-02 
1631	 1.18032194368726E-02 
1632	 1.17243044254855E-02 
1633	 1.19280165308969E-02 
1634	 0.012013292461827 
1635	 1.19202880910304E-02 
1636	 1.18207882058173E-02 
1637	 1.18092298413141E-02 
1638	 1.18231287851817E-02 
1639	 1.17550937394294E-02 
1640	 1.17054226856262E-02 
1641	 1.16638253284463E-02 
1642	 1.17115072779464E-02 
1643	 1.17849043852054E-02 
1644	 1.15906711461877E-02 
1645	 1.15261581290492E-02 
1646	 1.17353010602512E-02 
1647	 1.19271861097847E-02 
1648	 1.22232918751331E-02 
1649	 1.22594677598044E-02 
1650	 0.011912882101766 
1651	 1.18987468569351E-02 
1652	 1.20283174912242E-02 
1653	 1.19434511003834E-02 
1654	 1.20088529494326E-02 
1655	 1.20905240874222E-02 
1656	 1.19361546202921E-02 
1657	 1.17573874341958E-02 
1658	 1.16177204895368E-02 
1659	 1.10965545203251E-02 
1660	 1.12174746781556E-02 
1661	 1.19691483186309E-02 
1662	 1.21452765645104E-02 
1663	 0.012301066257084 
1664	 1.22888911212228E-02 
1665	 0.011845719393364 
1666	 1.19814864612978E-02 
1667	 1.24714958645682E-02 
1668	 1.24115819971746E-02 
1669	 1.23162956934764E-02 
1670	 1.19149895075302E-02 
1671	 1.19369558103267E-02 
1672	 1.20567674345042E-02 
1673	 1.17878766147484E-02 
1674	 1.19297136067118E-02 
1675	 1.24126647672338E-02 
1676	 1.21229175352684E-02 
1677	 1.17448724711333E-02 
1678	 1.21048755369018E-02 
1679	 1.21893425550107E-02 
1680	 1.19875290638117E-02 
1681	 1.20462847195266E-02 
1682	 1.17947522107356E-02 
1683	 1.15420415119899E-02 
1684	 1.19590607967719E-02 
1685	 1.24078701480075E-02 
1686	 1.21269280027408E-02 
1687	 1.15525341717942E-02 
1688	 1.13874169283929E-02 
1689	 1.12131134405977E-02 
1690	 1.13899314520567E-02 
1691	 1.20935944231961E-02 
1692	 1.22504461819594E-02 
1693	 1.22967193030201E-02 
1694	 1.23497344401594E-02 
1695	 1.18400466212224E-02 
1696	 0.011712599677997 
1697	 1.22061259434592E-02 
1698	 1.26556505878091E-02 
1699	 1.25461359246178E-02 
1700	 1.16431174197713E-02 
1701	 1.11702946601626E-02 
1702	 1.13908776906574E-02 
1703	 1.15924419902362E-02 
1704	 1.21436342985869E-02 
1705	 1.22636700477333E-02 
1706	 1.17253534721393E-02 
1707	 1.17355137207864E-02 
1708	 1.19794185872578E-02 
1709	 1.21408466123892E-02 
1710	 1.21943156960853E-02 
1711	 0.011906550628751 
1712	 1.17706231587974E-02 
1713	 1.17158653987821E-02 
1714	 1.15085213282134E-02 
1715	 1.13835892115597E-02 
1716	 1.17495793060166E-02 
1717	 1.17655661658872E-02 
1718	 1.21202025371963E-02 
1719	 1.26952726220952E-02 
1720	 1.23176381788998E-02 
1721	 1.20776927091949E-02 
1722	 1.26464579283302E-02 
1723	 1.24042460568437E-02 
1724	 1.21328374399694E-02 
1725	 1.22140178703671E-02 
1726	 1.19041626800426E-02 
1727	 1.18487976884859E-02 
1728	 1.18367963855445E-02 
1729	 0.012218186798393 
1730	 1.26091414305262E-02 
1731	 1.21324310483809E-02 
1732	 1.22505315112118E-02 
1733	 1.20412283210194E-02 
1734	 1.14944866498073E-02 
1735	 1.21733531402842E-02 
1736	 1.19809923644735E-02 
1737	 1.16107228027096E-02 
1738	 1.20058386940431E-02 
1739	 1.18306209264657E-02 
1740	 1.22328749782272E-02 
1741	 1.28633455611883E-02 
1742	 1.21914807533413E-02 
1743	 1.15828083534706E-02 
1744	 1.18892213372128E-02 
1745	 1.17262691659997E-02 
1746	 1.24679691120499E-02 
1747	 1.27766350018911E-02 
1748	 1.21843533681956E-02 
1749	 1.21531616289407E-02 
1750	 1.22713072320431E-02 
1751	 1.22115821567082E-02 
1752	 1.24514229781084E-02 
1753	 1.25822113928075E-02 
1754	 1.25810351770327E-02 
1755	 1.27995449395981E-02 
1756	 1.29637166047354E-02 
1757	 1.23253099572886E-02 
1758	 1.26263156074773E-02 
1759	 1.23582386137122E-02 
1760	 1.19590662587013E-02 
1761	 1.29622099505106E-02 
1762	 1.36187356438525E-02 
1763	 1.27540051830028E-02 
1764	 1.28451521740275E-02 
1765	 1.37154781157702E-02 
1766	 1.31590737994609E-02 
1767	 1.26438295003982E-02 
1768	 1.29152540337166E-02 
1769	 1.21008262956535E-02 
1770	 1.14931262714889E-02 
1771	 1.22681435561445E-02 
1772	 1.21818515893364E-02 
1773	 1.21202470629219E-02 
1774	 1.34318287793126E-02 
1775	 1.44467415041117E-02 
1776	 1.48012203084201E-02 
1777	 1.29934853198912E-02 
1778	 0.012684316331422 
1779	 1.39758920426625E-02 
1780	 1.46213317309063E-02 
1781	 1.55385043380641E-02 
1782	 1.55987962497972E-02 
1783	 1.42152760970283E-02 
1784	 1.45391975590305E-02 
1785	 1.68149504109929E-02 
1786	 1.65606479011101E-02 
1787	 1.50728532308331E-02 
1788	 1.45533138963693E-02 
1789	 1.08244970101244E-02 
1790	 1.51697062833604E-02 
1791	 1.92915718029353E-02 
1792	 1.55943968982153E-02 
1793	 1.79254986356353E-02 
1794	 1.88354914746184E-02 
1795	 0.014606854874295 
1796	 2.31526814365075E-02 
1797	 2.92991703024329E-02 
1798	 1.36778106979049E-02 
1799	 1.12664251562554E-02 
1800	 9.80972437492581E-03 
1801	 9.06476205288074E-03 
1802	 3.63870813967728E-02 
1803	 5.19711751260949E-02 
1804	 5.92770118447665E-02 
1805	 6.30567769758063E-02 
1806	 3.88982949154974E-02 
1807	 4.72309105575547E-02 
1808	 6.06114557101629E-02 
1809	 7.96590224820009E-02 
1810	 0.204914421470273 
1811	 0.204464110915101 
1812	-2.79644259377163E-02 
1813	-9.96661396011585E-02 
1814	-0.173488659767004 
1815	-8.54370294341684E-02 
1816	 0.317384083806676 
1817	 0.360324821656724 
1818	 0.682802844406326 
1819	 0.349327917287679 
1820	 0.391576202918376 
1821	 0.337340317661295 
1822	 0.398989708175777 
1823	 1.47723641360296 
1824	 2.69268191940395 
1825	 1.54762708812521 
1826	 1.34176170259466 
1827	 0.783394127758476 
1828	 0.607451579482102 
1829	 0.412145293433747 
1830	 0.408442550491021 
1831	 7.62089652086269E-02 
1832	 0.23937100274909 
1833	 0.7478493274352 
1834	 0.464850960278337 
1835	-2.26770251596069E-03 
1836	-0.332029411336145 
1837	-1.8037183777077 
1838	-2.027910826211 
1839	-1.98596351825788 
1840	-1.03284960518751 
1841	-0.891295410553058 
1842	-0.601954030346642 
1843	-0.576733964271272 
1844	-1.3782458653859 
1845	-2.22960477520171 
1846	 1.14787310381912 
1847	 9.14406144037068E-02 
1848	 7.81893408378918 
1849	-0.798445203169681 
1850	-0.504140242524422 
1851	-1.089944266648 
1852	-1.28541658839932 
1853	-0.149643248593764 
1854	-0.339472402543625 
1855	-0.833056800736671 
1856	-0.752189778919089 
1857	 2.22308316301931 
1858	 4.45342850416217 
1859	-0.261873105441452 
1860	 0.15020152381446 
1861	-0.812408059789727 
1862	-1.64505295003331 
1863	-4.2355514908954 
1864	 33.9247274752442 
1865	 3.78993245702677 
1866	 1.71764391252493 
1867	 2.14743126465419 
1868	 1.5794034350189 
1869	 1.23131735762283 
1870	 1.12304390922201 
1871	 0.713886255814872 
1872	 0.422253138459316 
1873	 3.72906312304678E-02 
1874	-0.171466253262386 
1875	-0.085892649073168 
1876	-6.42167861446762E-02 
1877	 0.333572883963888 
1878	 0.201317064626162 
1879	-0.639207562206135 
1880	-0.80681174827655 
1881	-0.558284328754029 
1882	-1.18960108643277 
1883	-1.81494647152802 
1884	-0.654260681574962 
1885	-1.66925216751102 
1886	-8.55204660033718 
1887	-14.4781747464765 
1888	 24.3842355648415 
1889	 11.9832480863422 
1890	-19.2811923338657 
1891	-4.7005018026444 
1892	-1.38630971805467 
1893	-1.54896998841868 
1894	-1.33063475444947 
1895	 0.146480769253216 
1896	-3.19586685014764 
1897	-1.99446680115896 
1898	-2.98539249641623 
1899	-0.673030816884247 
1900	-7.03727031421493E-02 
1901	 4.20957160816076 
1902	 37.3097224245858 
1903	-88.326783553448 
1904	 19.7875342475821 
1905	-31.5720356565178 
1906	 34.56943143292 
1907	 1.17844344689065 
1908	 8.87541987528267 
1909	 0.141146614117577 
1910	 3.45285554344123 
1911	-0.774765007789477 
1912	-0.1016456817672 
1913	-4.32388710527074E-02 
1914	 0.440325491566383 
1915	 1.12730750740883 
1916	 1.29723325497769 
1917	 0.173272006424421 
1918	 9.3602588628583 
1919	 0.400262640913923 
1920	 0.587684754692009 
1921	 2.08288502653031 
1922	 4.62760631854891 
1923	 3.14769801373924 
1924	 0.74588973748053 
1925	 0.124040682000862 
1926	 7.33402217419473E-02 
1927	 4.39590208014977E-02 
1928	 0.198743120484068 
1929	 0.785353947326578 
1930	 2.8333116420218 
1931	 10.434356750398 
1932	-34.4436558372888 
1933	-4.69914394075814 
1934	-7.67912344515156 
1935	-4.04179218180447 
1936	-2.65045568413299 
1937	-1.04049530366847 
1938	-0.113626408475403 
1939	 0.217088257577564 
1940	 0.317623490702873 
1941	 0.371961536885836 
1942	 0.400019330548478 
1943	 0.207402734223664 
1944	 9.09632530891749E-02 
1945	 9.32824693180396E-02 
1946	 0.073735245415875 
1947	 0.12877429283721 
1948	 0.16601057400205 
1949	 0.131268007266888 
1950	 0.134741952422964 
1951	 0.110621043900773 
1952	 9.41938485836677E-02 
1953	 6.16080373639482E-02 
1954	 6.83348845622658E-02 
1955	 8.01904029860016E-02 
1956	 8.33274169043558E-02 
1957	 6.72479611318229E-02 
1958	 4.70565529993062E-02 
1959	 4.31826066116718E-02 
1960	 4.76217171477293E-02 
1961	 4.39123746812575E-02 
1962	 3.37430626912085E-02 
1963	 2.45798633196411E-02 
1964	 1.12031155237554E-02 
1965	 3.87903504151487E-03 
1966	 5.97099261691119E-03 
1967	 1.46744604206528E-02 
1968	 0.018655862979104 
1969	 1.88800587366093E-02 
1970	 1.90065699686951E-02 
1971	 1.30684697547409E-02 
1972	 8.79928704154314E-03 
1973	 8.09347308492567E-03 
1974	 7.02460321858765E-03 
1975	 8.3441497855828E-03 
1976	 9.44077399385967E-03 
1977	 9.91246164674553E-03 
1978	 1.18813991653674E-02 
1979	 1.30895956559823E-02 
1980	 1.50653344867122E-02 
1981	 1.31298903892917E-02 
1982	 1.07073300416212E-02 
1983	 0.011282096889692 
1984	 1.14715273796314E-02 
1985	 1.38298485499404E-02 
1986	 1.71039690460209E-02 
1987	 1.56126257521579E-02 
1988	 0.012780659679809 
1989	 1.10516837319128E-02 
1990	 8.0122953096684E-03 
1991	 6.29730201965029E-03 
1992	 7.86318982541495E-03 
1993	 8.69689265775154E-03 
1994	 8.06711463298188E-03 
1995	 6.91720080064324E-03 
1996	 7.12074464996629E-03 
1997	 6.6756399905982E-03 
1998	 6.31870716353478E-03 
1999	 9.09886084335776E-03 
2000	 1.45845958805147E-02 
2001	 0.015888764137621 
2002	 1.08463975109178E-02 
2003	 8.40121708693206E-03 
2004	 7.90864966248498E-03 
2005	 6.53486281671565E-03 
2006	 6.89985609627212E-03 
2007	 9.6940565249614E-03 
2008	 1.23035906651945E-02 
2009	 1.15975097336658E-02 
2010	 8.98908855208384E-03 
2011	 9.00365323233508E-03 
2012	 9.06863276576898E-03 
2013	 3.59935456490788E-03 
2014	 4.15742304860747E-03 
2015	 9.12847307887725E-03 
2016	 1.07108750362745E-02 
2017	 1.35156017635514E-02 
2018	 1.37489945218834E-02 
2019	 1.14284627088558E-02 
2020	 1.13908833578762E-02 
2021	 9.57892710998589E-03 
2022	 1.00686926451799E-02 
2023	 1.15778153140252E-02 
2024	 1.11490380590833E-02 
2025	 9.65583290716584E-03 
2026	 9.51857408570421E-03 
2027	 9.24621629891868E-03 
2028	 8.16124936191915E-03 
2029	 9.96349125126342E-03 
2030	 1.04537262327889E-02 
2031	 1.01609690875377E-02 
2032	 1.02512123063283E-02 
2033	 9.79674784957231E-03 
2034	 9.31742515025165E-03 
2035	 8.74048006289862E-03 
2036	 9.1069091432045E-03 
2037	 8.70431182834063E-03 
2038	 7.14954264532049E-03 
2039	 6.91054727284262E-03 
2040	 0.007359021877436 
2041	 7.73069458121565E-03 
2042	 9.27814863246628E-03 
2043	 9.92570811499792E-03 
2044	 1.01723776802402E-02 
2045	 1.03367283878768E-02 
2046	 1.06813185461969E-02 
2047	 9.4682535206603E-03 
2048	 8.56844922827544E-03 
2049	 8.31470073677993E-03 
2050	 6.88019035563829E-03 
2051	 6.94686507440886E-03 
2052	 9.23976961039189E-03 
2053	 9.75349653759818E-03 
2054	 8.88514943769216E-03 
2055	 7.47736531222373E-03 
2056	 7.63224587012421E-03 
2057	 8.48042158261628E-03 
2058	 8.05144335763914E-03 
2059	 8.41301496650637E-03 
2060	 9.13754202965269E-03 
2061	 8.94763725987291E-03 
2062	 6.95065511229162E-03 
2063	 9.29012810797661E-03 
2064	 1.12081492280018E-02 
2065	 1.13761821946444E-02 
2066	 1.15497634104251E-02 
2067	 1.01522977803712E-02 
2068	 8.45685695212386E-03 
2069	 8.91407223613158E-03 
2070	 1.09563610771388E-02 
2071	 1.19396481206384E-02 
2072	 0.012808298886095 
2073	 1.28552420914537E-02 
2074	 1.03587828771532E-02 
2075	 9.87598414596241E-03 
2076	 1.08667461253519E-02 
2077	 1.05228391341149E-02 
2078	 9.90306177739307E-03 
2079	 9.90838723949272E-03 
2080	 9.32592937947911E-03 
2081	 9.35705310736565E-03 
2082	 1.06777122664889E-02 
2083	 1.11207945121537E-02 
2084	 1.19560217767655E-02 
2085	 1.16938949164857E-02 
2086	 9.91409582075448E-03 
2087	 1.00331166224601E-02 
2088	 1.02201473486748E-02 
2089	 9.60841915386685E-03 
2090	 9.73854025379713E-03 
2091	 9.27882763969045E-03 
2092	 9.37471881465164E-03 
2093	 9.44918021725646E-03 
2094	 9.42829889413063E-03 
2095	 9.77580943086629E-03 
2096	 9.98102687214446E-03 
2097	 1.00272946418609E-02 
2098	 9.58587288090757E-03 
2099	 8.9217639525461E-03 
2100	 8.67476110488032E-03 
2101	 8.71714207362183E-03 
2102	 8.67270153260263E-03 
2103	 8.54555186988396E-03 
2104	 8.87360280733605E-03 
2105	 9.97089963731169E-03 
2106	 1.05967982725116E-02 
2107	 1.10951693853634E-02 
2108	 1.13353363331561E-02 
2109	 9.94649303640608E-03 
2110	 8.09236025883028E-03 
2111	 8.05168845602959E-03 
2112	 9.60592063169847E-03 
2113	 9.80140687224097E-03 
2114	 9.85486509607796E-03 
2115	 1.00601832143917E-02 
2116	 9.2620483896721E-03 
2117	 8.99829672185888E-03 
2118	 9.71541765188681E-03 
2119	 1.01823862280506E-02 
2120	 1.02064093661472E-02 
2121	 1.07695618169606E-02 
2122	 1.16565219782201E-02 
2123	 1.18084340175236E-02 
2124	 1.18598209216342E-02 
2125	 1.20383916216149E-02 
2126	 1.21348492608903E-02 
2127	 1.20765569321044E-02 
2128	 1.14675672022273E-02 
2129	 1.06539221993751E-02 
2130	 1.02075770182733E-02 
2131	 9.6211461598137E-03 
2132	 9.46708719697196E-03 
2133	 9.7639965662442E-03 
2134	 9.90331993149518E-03 
2135	 1.04143883185604E-02 
2136	 0.01056061665734 
2137	 1.03292518418454E-02 
2138	 1.00383046450267E-02 
2139	 9.18166974957058E-03 
2140	 9.01714056200851E-03 
2141	 9.5006869377391E-03 
2142	 9.64615490627863E-03 
2143	 9.80081668603172E-03 
2144	 1.05514370813114E-02 
2145	 1.02410599889122E-02 
2146	 9.84058576320111E-03 
2147	 1.07246371811659E-02 
2148	 1.04870565095322E-02 
2149	 9.63348505393917E-03 
2150	 1.06345458250438E-02 
2151	 1.11818326306924E-02 
2152	 1.00090768843357E-02 
2153	 1.09430421303493E-02 
2154	 1.16236152651992E-02 
2155	 1.12605265977611E-02 
2156	 1.28511949093744E-02 
2157	 1.33978544934823E-02 
2158	 1.34140040552274E-02 
2159	 1.32378543350865E-02 
2160	 0.013088661777115 
2161	 1.23215439443869E-02 
2162	 1.04244835230017E-02 
2163	 9.46985196948726E-03 
2164	 8.44327922863122E-03 
2165	 8.18576114645468E-03 
2166	 8.76427238942212E-03 
2167	 9.14260891559516E-03 
2168	 1.07036161271621E-02 
2169	 1.06843332040219E-02 
2170	 9.23173401903274E-03 
2171	 8.85279992007615E-03 
2172	 9.89641754327133E-03 
2173	 8.95731828152137E-03 
2174	 8.76626302292902E-03 
2175	 9.9955545680089E-03 
2176	 9.05788940376131E-03 
2177	 8.62712390854636E-03 
2178	 8.61336280666114E-03 
2179	 8.04263678749537E-03 
2180	 8.41444804387405E-03 
2181	 9.29877360249828E-03 
2182	 1.11586082797385E-02 
2183	 1.36204884804401E-02 
2184	 1.49435055108665E-02 
2185	 1.44639059568211E-02 
2186	 1.45456449786062E-02 
2187	 1.37254263552377E-02 
2188	 1.38531439979881E-02 
2189	 1.59195322356678E-02 
2190	 1.53427877015027E-02 
2191	 1.23525012528476E-02 
2192	 1.11302836238326E-02 
2193	 8.89642489598506E-03 
2194	 7.06542806252547E-03 
2195	 7.42155499381636E-03 
2196	 7.19951261582573E-03 
2197	 4.98734742585522E-03 
2198	 5.06116666280643E-03 
2199	 7.27954030557401E-03 
2200	 8.42378799787994E-03 
2201	 1.02288231159501E-02 
2202	 1.16305152041731E-02 
2203	 9.73509905897277E-03 
2204	 0.010517968600604 
2205	 1.14634415715596E-02 
2206	 1.04473289098869E-02 
2207	 1.11306100312274E-02 
2208	 1.11089081394575E-02 
2209	 0.010344064073224 
2210	 1.10418144769699E-02 
2211	 1.34502387494804E-02 
2212	 1.46797476831146E-02 
2213	 1.38719183325908E-02 
2214	 1.39891475445044E-02 
2215	 1.48105097135368E-02 
2216	 1.42179360290457E-02 
2217	 1.37442327674628E-02 
2218	 0.013982031448061 
2219	 1.38352819342921E-02 
2220	 1.25490395937078E-02 
2221	 0.012220107958937 
2222	 1.30581151616889E-02 
2223	 0.012957376915682 
2224	 1.22469388683761E-02 
2225	 1.13173656326743E-02 
2226	 1.00044312880766E-02 
2227	 9.77448443696209E-03 
2228	 0.010444383229995 
2229	 9.45290643581689E-03 
2230	 6.8882165663217E-03 
2231	 6.03602604069213E-03 
2232	 4.42576159708975E-03 
2233	 4.77005406149629E-03 
2234	 8.35319065896327E-03 
2235	 1.11429195786199E-02 
2236	 1.11255849549995E-02 
2237	 1.03057092521755E-02 
2238	 1.10945737980591E-02 
2239	 1.14818246652261E-02 
2240	 1.09177951253804E-02 
2241	 1.11561954922448E-02 
2242	 8.34471812589313E-03 
2243	 5.84614518721421E-03 
2244	 4.11660557499565E-03 
2245	 3.09408165581028E-03 
2246	 3.21280180997194E-03 
2247	 1.50444622395774E-03 
2248	 2.70678731206425E-03 
2249	 4.82173398134012E-03 
2250	 5.3219167312611E-03 
2251	 7.87274784553663E-03 
2252	 1.11243620599315E-02 
2253	 0.013598754270121 
2254	 1.47606557272513E-02 
2255	 1.41806693153357E-02 
2256	 1.10322888465843E-02 
2257	 7.15954521051315E-03 
2258	 5.62701205295061E-03 
2259	 5.47635551552527E-03 
2260	 7.32675609032373E-03 
2261	 1.37372861409478E-02 
2262	 1.55802517019428E-02 
2263	 1.82462148875689E-02 
2264	 1.76935520717274E-02 
2265	 1.08987861848977E-02 
2266	 9.03420915069292E-03 
2267	 0.008756167067107 
2268	 8.01282626081388E-03 
2269	 9.51830256107878E-03 
2270	 9.80245722758511E-03 
2271	 8.54869141449609E-03 
2272	 7.09287759852098E-03 
2273	 4.06107203878156E-03 
2274	 5.02370537734348E-03 
2275	 8.9815331454694E-03 
2276	 1.04610605383348E-02 
2277	 1.37831449134239E-02 
2278	 1.56727970179489E-02 
2279	 1.47752852602226E-02 
2280	 1.37923115971847E-02 
2281	 1.30036646627503E-02 
2282	 1.27055049281005E-02 
2283	 9.11899725165115E-03 
2284	 3.50761733134781E-03 
2285	 2.87366869800988E-03 
2286	 6.50020598530238E-03 
2287	 9.90080846682201E-03 
2288	 1.36060902601808E-02 
2289	 1.42202841293207E-02 
2290	 9.41960996530975E-03 
2291	 8.06723822553795E-03 
2292	 9.66363068193184E-03 
2293	 9.20297684523958E-03 
2294	 6.14315110870416E-03 
2295	-2.99969675032139E-03 
2296	-6.48732463341664E-03 
2297	-4.54666949849583E-03 
2298	-1.93074898447646E-03 
2299	 1.77959190993473E-03 
2300	 3.68171629672555E-03 
2301	 5.64417662533632E-03 
2302	 3.45592561086877E-03 
2303	 4.43490645908059E-03 
2304	 5.94910624806342E-03 
2305	 1.44181781668081E-03 
2306	 1.63856320029806E-03 
2307	 3.86070281944677E-03 
2308	 3.43787894643522E-03 
2309	 5.9440227565974E-03 
2310	 9.17372843610866E-03 
2311	 1.07353952316346E-02 
2312	 1.42669960537202E-02 
2313	 2.04811111563927E-02 
2314	 2.30856647426349E-02 
2315	 2.17117848732162E-02 
2316	 2.28727309060232E-02 
2317	 0.023688558214872 
2318	 1.88802957307117E-02 
2319	 1.56853810465753E-02 
2320	 1.18948527306546E-02 
2321	-1.13154084704392E-03 
2322	-6.63703920024626E-04 
2323	 9.69599616155193E-03 
2324	 1.16163055515245E-02 
2325	 1.60843331288746E-02 
2326	 1.89432417715805E-02 
2327	 0.015652495221417 
2328	 1.70418684740838E-02 
2329	 0.024205809068502 
2330	 2.04449970402833E-02 
2331	 7.80316614005511E-03 
2332	-9.94921890376895E-04 
2333	-7.29016251672889E-03 
2334	-4.84924837917635E-03 
2335	 7.96868527199694E-03 
2336	 1.23996762176502E-02 
2337	 7.42484210954238E-03 
2338	 7.12163285915332E-03 
2339	 1.33961676843858E-02 
2340	 2.22339176335652E-02 
2341	 2.71469127593797E-02 
2342	 3.18191358603058E-02 
2343	 2.69978354624088E-02 
2344	 2.29218485035996E-02 
2345	 2.97262836909645E-02 
2346	 0.013842215239192 
2347	-7.8963036940486E-04 
2348	 3.70475471519595E-03 
2349	 2.7061704996176E-03 
2350	 8.17792098190959E-03 
2351	 1.29676502477778E-02 
2352	 3.98090674564781E-03 
2353	 1.74043987062445E-03 
2354	 1.02352897034066E-02 
2355	 9.11896908551234E-03 
2356	 8.82011557054856E-03 
2357	 1.48704901582185E-02 
2358	 1.13815905844979E-02 
2359	 1.14416660109179E-02 
2360	 1.59115532396355E-02 
2361	 1.27802376162705E-02 
2362	 1.62318285356965E-02 
2363	 2.37071574436309E-02 
2364	 1.97741288992258E-02 
2365	 1.87685585409013E-02 
2366	 8.19132931835281E-03 
2367	-1.00264077763993E-02 
2368	-0.013491818730795 
2369	-0.01327110447502 
2370	-6.40924781335996E-03 
2371	-9.95316539227465E-03 
2372	-0.017479775507014 
2373	-8.67984772095534E-03 
2374	-1.82656006625186E-02 
2375	-5.79189205671393E-03 
2376	 2.46610159779135E-02 
2377	 1.57813189157777E-02 
2378	-7.92178567236469E-03 
2379	-3.27258034916464E-02 
2380	-5.98000418484375E-02 
2381	-6.77106983675675E-02 
2382	-2.28934573258162E-02 
2383	 1.85352576605276E-02 
2384	 0.015146970710046 
2385	-2.56048690516886E-02 
2386	-7.49611478236715E-02 
2387	-8.19487012166845E-02 
2388	-5.21582005192772E-02 
2389	-1.85748731073191E-02 
2390	-3.11498260308317E-02 
2391	-5.30127301962219E-02 
2392	-3.00387330696265E-02 
2393	-1.50115062249584E-03 
2394	 0.030845201029371 
2395	 4.16256567533885E-02 
2396	-4.45009988936857E-03 
2397	-3.73995312312611E-02 
2398	-3.92075687742989E-02 
2399	-2.90468343466626E-02 
2400	 1.81960866711114E-02 
2401	 2.62328441080244E-02 
2402	 4.77753790526109E-02 
2403	 9.70417480991719E-02 
2404	 0.052327642467946 
2405	 1.96004456371582E-02 
2406	 1.62953090300258E-02 
2407	 7.23786633756019E-03 
2408	 3.07668125480411E-03 
2409	 4.59679298724503E-02 
2410	 0.170497521517748 
2411	 0.153994067233925 
2412	 0.1575974204783 
2413	 0.147588491968542 
2414	-0.311088077392682 
2415	-0.499528539612509 
2416	-0.375041894272456 
2417	-0.324078795453032 
2418	 2.37965464524838E-02 
2419	 0.21377113810779 
2420	 8.48263211980788E-02 
2421	 0.16241478795303 
2422	 0.191398435183323 
2423	 9.85080843149101E-02 
2424	 0.157893939688193 
2425	 0.139941989594691 
2426	-1.46360525770474E-02 
2427	-9.88754063484022E-02 
2428	-2.71031071401912E-02 
2429	-1.53564015360261E-03 
2430	 2.68270671662085E-02 
2431	 7.26847170270137E-02 
2432	 4.72683672029327E-02 
2433	-5.69638722025662E-02 
2434	-0.169021370196515 
2435	-0.158124875413914 
2436	 1.08759256667738E-02 
2437	 4.54746903377409E-02 
2438	-0.118372890910837 
2439	-0.119607575172655 
2440	-9.55277227463363E-02 
2441	-0.405621606862971 
2442	 0.578809985659064 
2443	 1.03064734713646 
2444	 0.238157932488841 
2445	 0.271108465698313 
2446	 1.07427652555552 
2447	-3.08698215870124 
2448	 1.84685539583597E-02 
2449	-6.31020376161571 
2450	-13.7513168886315 
2451	-5.80466394968974 
2452	 0.150962572592491 
2453	-5.4871393717684 
2454	-1.04573450461303 
2455	-0.778201764182461 
2456	-0.227961213563731 
2457	-0.162851834240916 
2458	 3.40184097171357E-02 
2459	 0.762550939485364 
2460	 0.242952619882696 
2461	-0.204068686684195 
2462	 0.583213849928011 
2463	 1.67577314287052E-02 
2464	 0.302591727739861 
2465	 0.460595030698175 
2466	 0.087034727575661 
2467	 1.13155490765255 
2468	-1.69325261662537 
2469	-0.522654376141494 
2470	-1.72791812446785 
2471	 0.152365513454592 
2472	-1.12066815309776 
2473	-5.41234872530222 
2474	 1.62333032606691 
2475	 0.585988044631989 
2476	 0.469316375034281 
2477	 0.650183693691211 
2478	 0.899661498928277 
2479	 7.11124163400457E-02 
2480	-2.86281454174524 
2481	-1.11190693590331 
2482	-1.07664271852464 
2483	-0.733472819930134 
2484	-0.27002909296963 
2485	-1.94324731004597 
2486	 1.05984019972311 
2487	 0.755785966158078 
2488	 2.88810030296628 
2489	 0.909717200542395 
2490	 1.17761606635179 
2491	 4.82208738198034 
2492	 0.218861188079884 
2493	 0.376394140734112 
2494	-0.258068615622765 
2495	-0.306947457013595 
2496	-0.6366881237332 
2497	-1.08135465969184 
2498	-0.73733731696399 
2499	-1.57625073742042 
2500	 2.89159906347468 
