Wavelength	rt0628far00007.asd
350	 0.056348108824714 
351	 5.81790174297035E-02 
352	 5.66410523622503E-02 
353	 5.56297325262055E-02 
354	 5.70009666892835E-02 
355	 0.055201697564243 
356	 0.055676873029576 
357	 5.65580090614204E-02 
358	 5.52452948111295E-02 
359	 5.61416403587104E-02 
360	 5.57030368955095E-02 
361	 5.45647317014843E-02 
362	 0.055811896600027 
363	 5.54424176981368E-02 
364	 5.52597255389942E-02 
365	 5.58742489169456E-02 
366	 5.50367954818001E-02 
367	 5.53305103596181E-02 
368	 5.56468336568044E-02 
369	 0.054940879057491 
370	 5.60207377680702E-02 
371	 5.59370483873197E-02 
372	 5.52972307064025E-02 
373	 5.63313207747132E-02 
374	 5.55924940743083E-02 
375	 5.56228693338554E-02 
376	 5.68156053603549E-02 
377	 5.59352050578422E-02 
378	 5.67915307419838E-02 
379	 5.73786738792926E-02 
380	 5.62128705105414E-02 
381	 5.78565124641933E-02 
382	 5.78123726740767E-02 
383	 5.70164384981656E-02 
384	 5.82874392461666E-02 
385	 5.76355514636262E-02 
386	 5.80114433015462E-02 
387	 5.93737319116208E-02 
388	 5.80582907529971E-02 
389	 5.92317870790372E-02 
390	 5.99013652017932E-02 
391	 5.82934455642017E-02 
392	 5.94553131987377E-02 
393	 5.94024630582456E-02 
394	 5.89932493547758E-02 
395	 6.00339498505909E-02 
396	 5.92449743816443E-02 
397	 5.93963512981963E-02 
398	 6.02928154873274E-02 
399	 5.92002216938237E-02 
400	 5.96366628479819E-02 
401	 6.00267424064043E-02 
402	 0.059406647002569 
403	 5.99754274634884E-02 
404	 5.98936509614871E-02 
405	 5.97576806052703E-02 
406	 6.05773263749058E-02 
407	 6.02761365291065E-02 
408	 6.04061969218619E-02 
409	 6.10102128992033E-02 
410	 0.060573271980829 
411	 6.10467893756962E-02 
412	 6.14011300414615E-02 
413	 6.10455804161629E-02 
414	 6.17871715112722E-02 
415	 0.06192067011978 
416	 0.06185091046192 
417	 6.25159205732997E-02 
418	 6.24821473792792E-02 
419	 6.27590842744399E-02 
420	 6.33985251253124E-02 
421	 6.33107074286289E-02 
422	 6.38154055460924E-02 
423	 6.42885317090333E-02 
424	 6.42693688554917E-02 
425	 0.064915350295595 
426	 6.52509112347977E-02 
427	 6.55395076295529E-02 
428	 6.64211127969513E-02 
429	 6.66562599799549E-02 
430	 6.70667157474813E-02 
431	 6.77832443236171E-02 
432	 6.79309745151408E-02 
433	 6.84987763943658E-02 
434	 6.90371758168459E-02 
435	 6.92100905715548E-02 
436	 7.00189589540051E-02 
437	 7.04377352411251E-02 
438	 7.06736898649315E-02 
439	 0.071456099077198 
440	 7.16739617020285E-02 
441	 7.20605193063453E-02 
442	 7.28079354587617E-02 
443	 0.073024743507151 
444	 0.073610422518119 
445	 0.074144349645488 
446	 7.42042359389566E-02 
447	 7.48051441923118E-02 
448	 7.52432489285689E-02 
449	 7.55063873698215E-02 
450	 7.60623431748887E-02 
451	 7.63342752202101E-02 
452	 7.66669581812681E-02 
453	 7.71942633671521E-02 
454	 7.73329833211492E-02 
455	 0.077669372188069 
456	 7.80641416039095E-02 
457	 7.82420896121006E-02 
458	 7.86976081611263E-02 
459	 7.89823709375441E-02 
460	 7.91333101671211E-02 
461	 7.96741790763166E-02 
462	 7.97898618494775E-02 
463	 7.99906070072314E-02 
464	 8.05943650593759E-02 
465	 8.06321672762473E-02 
466	 8.08964262024845E-02 
467	 8.13272014263041E-02 
468	 0.081525024372539 
469	 8.19247916190555E-02 
470	 8.21152974999458E-02 
471	 8.21396045572534E-02 
472	 8.27302827465047E-02 
473	 8.29475480233695E-02 
474	 8.31601918316991E-02 
475	 8.37436552747655E-02 
476	 8.37968846813408E-02 
477	 8.41547185487629E-02 
478	 8.47084546177722E-02 
479	 8.47899969989906E-02 
480	 8.53056432048492E-02 
481	 8.56909541573394E-02 
482	 8.57499652984943E-02 
483	 8.64520080611703E-02 
484	 0.086811517029355 
485	 8.71246192149335E-02 
486	 8.78983682977344E-02 
487	 8.80797414968598E-02 
488	 8.84893238544332E-02 
489	 8.91688890393254E-02 
490	 8.93693083272469E-02 
491	 8.99216535710352E-02 
492	 9.04564213008363E-02 
493	 9.07139552437826E-02 
494	 9.14090091274258E-02 
495	 9.18914557313707E-02 
496	 9.22762904189764E-02 
497	 9.29726049922006E-02 
498	 9.33245532220977E-02 
499	 9.38250795032657E-02 
500	 9.45658644234978E-02 
501	 9.48387715792323E-02 
502	 9.55402739553955E-02 
503	 9.62794333269221E-02 
504	 9.65909289881349E-02 
505	 9.72911679765309E-02 
506	 9.77945850373453E-02 
507	 9.81697508166324E-02 
508	 9.89680502414014E-02 
509	 9.94610490949374E-02 
510	 0.100038492879809 
511	 0.100880118108416 
512	 0.101218471769315 
513	 0.101886613567643 
514	 0.102659095818003 
515	 0.103004462529265 
516	 0.10379630854418 
517	 0.104482988997619 
518	 0.104973711120815 
519	 0.105888363259459 
520	 0.106419135972678 
521	 0.10694123294515 
522	 0.10781623720533 
523	 0.108360771513298 
524	 0.109035031967536 
525	 0.109802801038112 
526	 0.110324511724959 
527	 0.111126571200932 
528	 0.111841743506347 
529	 0.112334243756713 
530	 0.113197909075129 
531	 0.113842454203384 
532	 0.114459724842312 
533	 0.115379011054335 
534	 0.11591990349207 
535	 0.116588599828693 
536	 0.117451360352078 
537	 0.118001303650113 
538	 0.118811142848629 
539	 0.119584111097994 
540	 0.120079659381083 
541	 0.120958850374813 
542	 0.121652992073962 
543	 0.122242006901978 
544	 0.123149330100809 
545	 0.12375984446742 
546	 0.124469744401989 
547	 0.125397711606845 
548	 0.125860715569303 
549	 0.126561509600011 
550	 0.127369787575524 
551	 0.127963461232487 
552	 0.128724976472867 
553	 0.129394545939919 
554	 0.12999277598028 
555	 0.130877670718776 
556	 0.131458953111512 
557	 0.13207015943496 
558	 0.132968005332283 
559	 0.133404736827529 
560	 0.134043423089281 
561	 0.134808707967639 
562	 0.13523013380207 
563	 0.135892598061095 
564	 0.13644990827372 
565	 0.136779199047839 
566	 0.137443721104466 
567	 0.137871038892061 
568	 0.138251340528506 
569	 0.138905409074957 
570	 0.139204654129238 
571	 0.139573089568331 
572	 0.140053704955339 
573	 0.14023021307571 
574	 0.140684066145869 
575	 0.141094952096683 
576	 0.141204907569652 
577	 0.141670570136753 
578	 0.141933088395428 
579	 0.142052795662624 
580	 0.142409601073137 
581	 0.14245592143495 
582	 0.142582817529342 
583	 0.142905272641631 
584	 0.142809429976303 
585	 0.142882929020152 
586	 0.142905929143616 
587	 0.142543816044671 
588	 0.142653914536104 
589	 0.142575943118776 
590	 0.142274801836838 
591	 0.142437349968517 
592	 0.142248433953257 
593	 0.142023241393356 
594	 0.142024521633417 
595	 0.141615231058981 
596	 0.141337379759388 
597	 0.141091663809565 
598	 0.140502003938673 
599	 0.140240567206727 
600	 0.139929710494664 
601	 0.139468096239162 
602	 0.139455873507473 
603	 0.139300865024296 
604	 0.139176761946386 
605	 0.139334808813517 
606	 0.139076175620823 
607	 0.139062234112871 
608	 0.139289996942283 
609	 0.139045922068659 
610	 0.139162646578906 
611	 0.139285509420007 
612	 0.139121235435183 
613	 0.139326603112546 
614	 0.139338281970111 
615	 0.139241618812989 
616	 0.139413214630246 
617	 0.139295986088039 
618	 0.13929920735319 
619	 0.139527560150607 
620	 0.139424771216684 
621	 0.139547613096453 
622	 0.139668285405815 
623	 0.139488807362185 
624	 0.13967397131111 
625	 0.139653369110731 
626	 0.139448721210328 
627	 0.13964812437785 
628	 0.139585651761824 
629	 0.139581619855531 
630	 0.139829293561248 
631	 0.13966031596547 
632	 0.139767305434039 
633	 0.139936582078447 
634	 0.139669246450341 
635	 0.139871327896411 
636	 0.139981741288914 
637	 0.139841207333763 
638	 0.140063459813556 
639	 0.139976597204762 
640	 0.139846108985596 
641	 0.139989260787033 
642	 0.139739197620081 
643	 0.139735624188062 
644	 0.139851294942684 
645	 0.139375326897347 
646	 0.13926874368735 
647	 0.139192356722089 
648	 0.13890976088705 
649	 0.139044517862152 
650	 0.138732615255777 
651	 0.138312531731986 
652	 0.138375165231393 
653	 0.137794666851022 
654	 0.13731857860184 
655	 0.13708889582496 
656	 0.136301785819671 
657	 0.135986870486506 
658	 0.135674334156894 
659	 0.134998086337666 
660	 0.134911577169672 
661	 0.134546007787516 
662	 0.134032172242753 
663	 0.134030554983885 
664	 0.133663657799411 
665	 0.133366248772547 
666	 0.133307686051356 
667	 0.132874034628285 
668	 0.132799445751345 
669	 0.132814693806062 
670	 0.13252312352711 
671	 0.132664923575723 
672	 0.132665639871887 
673	 0.132550821797549 
674	 0.132903582173443 
675	 0.132833130013661 
676	 0.132825004907924 
677	 0.133197370606022 
678	 0.133145710318769 
679	 0.133412609488477 
680	 0.133757650740819 
681	 0.133656555823808 
682	 0.133973435698259 
683	 0.134195904933764 
684	 0.134193175110382 
685	 0.134511976314151 
686	 0.134345324569215 
687	 0.13425597698658 
688	 0.134749942087829 
689	 0.134544264656118 
690	 0.134592884845868 
691	 0.134722058316132 
692	 0.134188023374565 
693	 0.134210502729071 
694	 0.134094189128446 
695	 0.133614728293288 
696	 0.133704597505831 
697	 0.133231023493632 
698	 0.132553469304143 
699	 0.132280444744159 
700	 0.131525483164294 
701	 0.131047752419916 
702	 0.130767201430021 
703	 0.129948008541503 
704	 0.129326309129513 
705	 0.128582663991199 
706	 0.127604571009717 
707	 0.127051433009351 
708	 0.126051544453309 
709	 0.124878150364773 
710	 0.124023398504699 
711	 0.122634161356591 
712	 0.121259641056907 
713	 0.119939022056921 
714	 0.11807805672389 
715	 0.116626021384842 
716	 0.115002200585318 
717	 0.112721290849713 
718	 0.111100054925985 
719	 0.109139896475759 
720	 0.10742170753659 
721	 0.106294375465513 
722	 0.10445318019911 
723	 0.102455087665039 
724	 0.100685024471855 
725	 9.83659261399855E-02 
726	 9.64116933907391E-02 
727	 9.42514695054414E-02 
728	 0.091503946934932 
729	 8.92432437883852E-02 
730	 8.64746339072796E-02 
731	 8.37700984635449E-02 
732	 8.19040774789615E-02 
733	 7.98708223757798E-02 
734	 7.81941332781488E-02 
735	 0.076954065030093 
736	 7.55056186101934E-02 
737	 7.47090600697107E-02 
738	 7.41149450039971E-02 
739	 7.33525719123643E-02 
740	 0.073230709812131 
741	 7.28781991440262E-02 
742	 7.24517593979761E-02 
743	 7.25136139650726E-02 
744	 7.22153843776409E-02 
745	 7.21136438419746E-02 
746	 7.22700981935716E-02 
747	 7.19094592878721E-02 
748	 7.19410614094545E-02 
749	 7.20181984420093E-02 
750	 7.17893108435481E-02 
751	 7.20195103961561E-02 
752	 0.071827358730293 
753	 7.14907568863812E-02 
754	 7.17611290832658E-02 
755	 7.15581450735003E-02 
756	 7.15010363722141E-02 
757	 7.17149210533037E-02 
758	 7.12901751745401E-02 
759	 7.16206840895881E-02 
760	 7.19791291241943E-02 
761	 7.09602026091571E-02 
762	 0.071655903700807 
763	 7.15581404157366E-02 
764	 7.13101107407658E-02 
765	 7.19587335491768E-02 
766	 7.17926696239288E-02 
767	 7.19208105374607E-02 
768	 7.23774493734439E-02 
769	 7.21900394501116E-02 
770	 7.24087320975965E-02 
771	 7.26842543439419E-02 
772	 7.27097569556676E-02 
773	 7.31007747659683E-02 
774	 7.32077655872192E-02 
775	 7.33138354836529E-02 
776	 7.39118151794796E-02 
777	 7.40938360386839E-02 
778	 7.44312146377848E-02 
779	 7.49272660500396E-02 
780	 7.49763863824332E-02 
781	 7.54931865372918E-02 
782	 7.59586016685509E-02 
783	 7.60814365084353E-02 
784	 7.67122928326997E-02 
785	 7.70252405269111E-02 
786	 7.73290537567877E-02 
787	 7.80786505246559E-02 
788	 7.81744279608554E-02 
789	 7.86846346798034E-02 
790	 7.95106850587478E-02 
791	 7.96791780898449E-02 
792	 8.04466673776046E-02 
793	 8.10128949070765E-02 
794	 0.081134265748506 
795	 8.18998292650738E-02 
796	 8.22101576116907E-02 
797	 0.082516289008226 
798	 8.32818946540799E-02 
799	 8.33906262914076E-02 
800	 8.38639292794078E-02 
801	 8.44790988968208E-02 
802	 8.44927670745208E-02 
803	 8.50274294659512E-02 
804	 8.53796699726795E-02 
805	 8.54037638120108E-02 
806	 8.56899987377516E-02 
807	 8.56728093999287E-02 
808	 8.55875440509764E-02 
809	 0.085579397385605 
810	 8.50962260661339E-02 
811	 8.49859599559063E-02 
812	 8.48325210856375E-02 
813	 8.39550768509826E-02 
814	 8.39360881315677E-02 
815	 8.34654027050572E-02 
816	 8.26711134847384E-02 
817	 8.27303146876562E-02 
818	 8.17675363237453E-02 
819	 8.11197027119523E-02 
820	 0.080862914072764 
821	 7.92436371574331E-02 
822	 7.79594917617737E-02 
823	 7.65085736039853E-02 
824	 7.45638454914433E-02 
825	 7.33550173307271E-02 
826	 7.14065258688043E-02 
827	 6.91530011379954E-02 
828	 6.75919029797303E-02 
829	 6.52308281156613E-02 
830	 6.35091121187275E-02 
831	 6.22038474885236E-02 
832	 6.01235350972241E-02 
833	 0.059519894263078 
834	 5.88284198050037E-02 
835	 5.76338498506542E-02 
836	 5.75154397594225E-02 
837	 5.67813429186208E-02 
838	 5.61139257414361E-02 
839	 5.60186908664038E-02 
840	 5.51881466862636E-02 
841	 5.48598872368983E-02 
842	 5.46390378758574E-02 
843	 5.38978838855513E-02 
844	 5.38905471379303E-02 
845	 5.35500450108805E-02 
846	 5.29833627493484E-02 
847	 5.29872881248025E-02 
848	 5.23315211329963E-02 
849	 5.20082936962377E-02 
850	 0.052089646702613 
851	 5.12661379526364E-02 
852	 5.12795530889913E-02 
853	 5.11965238821882E-02 
854	 5.04611633174262E-02 
855	 0.050512905238338 
856	 4.99644859825176E-02 
857	 4.95233711295014E-02 
858	 4.98206613970556E-02 
859	 4.90782376157491E-02 
860	 4.89858163706642E-02 
861	 4.91167343681726E-02 
862	 4.83189083452479E-02 
863	 4.82608189172805E-02 
864	 4.78128864364736E-02 
865	 4.71084400314826E-02 
866	 4.73582418172056E-02 
867	 4.67164965335616E-02 
868	 4.64120412781236E-02 
869	 4.66286841828745E-02 
870	 4.57575544286084E-02 
871	 4.56669088445992E-02 
872	 4.54340043708117E-02 
873	 4.45308059504046E-02 
874	 4.46804894616998E-02 
875	 4.41784907092033E-02 
876	 4.36055396301231E-02 
877	 4.36752995388295E-02 
878	 4.28399170580194E-02 
879	 4.26985610209952E-02 
880	 4.27287156774484E-02 
881	 4.18303566249434E-02 
882	 0.041925300566617 
883	 4.15017410931898E-02 
884	 0.040748780145905 
885	 4.09519773867007E-02 
886	 0.039972272409203 
887	 3.96602227697352E-02 
888	 4.00617265354397E-02 
889	 3.89275788423329E-02 
890	 3.89770780796236E-02 
891	 3.87149782392225E-02 
892	 3.76660316459349E-02 
893	 3.87388772778219E-02 
894	 3.78913754832763E-02 
895	 3.70215944411785E-02 
896	 3.79970906082733E-02 
897	 3.61956541980187E-02 
898	 3.64874622578895E-02 
899	 3.70118243617895E-02 
900	 3.53740772576767E-02 
901	 3.62837786670984E-02 
902	 3.53420420620723E-02 
903	 3.44060325038004E-02 
904	 3.61191745566077E-02 
905	 3.45239353261177E-02 
906	 3.43832358335257E-02 
907	 0.03511251865556 
908	 3.28862801909942E-02 
909	 3.37894793781568E-02 
910	 0.03339215272134 
911	 3.17365302495824E-02 
912	 3.30083962373898E-02 
913	 3.14306039755938E-02 
914	 3.14022256663261E-02 
915	 3.27568452951775E-02 
916	 2.98029632701529E-02 
917	 3.07060654000471E-02 
918	 0.030483805968178 
919	 2.81135408684404E-02 
920	 2.95862336282848E-02 
921	 0.028322198885815 
922	 2.75182667447397E-02 
923	 2.86715359747993E-02 
924	 2.56824735024591E-02 
925	 2.61607193602771E-02 
926	 2.67979491047291E-02 
927	 2.37863864188821E-02 
928	 2.63606359105121E-02 
929	 2.39720736982253E-02 
930	 2.16729040378983E-02 
931	 3.05875037366368E-02 
932	 2.25119329926083E-02 
933	 2.41044644462204E-02 
934	 2.71326052527874E-02 
935	 1.40168221077646E-02 
936	 2.50860815898485E-02 
937	 2.26785574837271E-02 
938	 1.82326904525949E-02 
939	 0.026892253855118 
940	 1.67389504199185E-02 
941	 1.82024763311706E-02 
942	 2.43637098343419E-02 
943	 1.57803429638624E-02 
944	 2.32320411983461E-02 
945	 0.02054045623102 
946	 1.41243179514104E-02 
947	 2.38439246736895E-02 
948	 1.63045434556391E-02 
949	 1.74313699798481E-02 
950	 2.15787920923641E-02 
951	 9.89042939645531E-03 
952	 1.95794656703145E-02 
953	 1.88935277830862E-02 
954	 1.13035743242596E-02 
955	 2.01361991928215E-02 
956	 1.44242720017925E-02 
957	 1.55534156151197E-02 
958	 2.02533790913501E-02 
959	 1.16543488130117E-02 
960	 1.72055515585739E-02 
961	 1.62086099932622E-02 
962	 1.08761515217588E-02 
963	 1.70057282994482E-02 
964	 1.36199570930092E-02 
965	 1.36601436468477E-02 
966	 1.61496144546098E-02 
967	 0.01147881888513 
968	 1.50826892164829E-02 
969	 1.54675025746053E-02 
970	 1.25790923929124E-02 
971	 1.59174371588951E-02 
972	 1.34442923808605E-02 
973	 1.32762545380035E-02 
974	 1.54874462849931E-02 
975	 1.20733009555795E-02 
976	 1.44866885898953E-02 
977	 1.49043826617748E-02 
978	 1.36166700394554E-02 
979	 1.75484128527396E-02 
980	 1.44852589655334E-02 
981	 1.39921025101836E-02 
982	 1.57102467897007E-02 
983	 1.20110113710225E-02 
984	 1.54950600928981E-02 
985	 1.54614612742583E-02 
986	 1.27457553687386E-02 
987	 1.65062079184692E-02 
988	 1.55211653919814E-02 
989	 1.53975108524736E-02 
990	 1.55513911774653E-02 
991	 1.17153816746802E-02 
992	 1.49147345090972E-02 
993	 1.43627446846721E-02 
994	 1.19015058416442E-02 
995	 1.61325086612489E-02 
996	 1.20388380344701E-02 
997	 1.30559864384222E-02 
998	 1.59862521745045E-02 
999	 1.05585851641881E-02 
1000	 1.48063017960618E-02 
1001	 1.45722132175431E-02 
1002	 1.45453354895116E-02 
1003	 1.44427702326505E-02 
1004	 1.42021237371739E-02 
1005	 1.40947244605744E-02 
1006	 1.38545404538906E-02 
1007	 1.40117707153561E-02 
1008	 1.41300174960177E-02 
1009	 1.40558564307836E-02 
1010	 1.44574127853531E-02 
1011	 1.45178101342544E-02 
1012	 1.48549734016213E-02 
1013	 1.52193197873336E-02 
1014	 1.53605629594347E-02 
1015	 1.55694462976365E-02 
1016	 1.53858850173853E-02 
1017	 1.45375795613015E-02 
1018	 0.014413960283242 
1019	 1.43394986468382E-02 
1020	 1.43692959280113E-02 
1021	 1.49030004970062E-02 
1022	 1.52697655109307E-02 
1023	 1.55355109747773E-02 
1024	 1.54697109750988E-02 
1025	 1.53889556443034E-02 
1026	 1.56619634176406E-02 
1027	 1.57984889327688E-02 
1028	 1.58186764212626E-02 
1029	 1.60686438641771E-02 
1030	 0.016570133489287 
1031	 1.67554257129515E-02 
1032	 1.69294351910256E-02 
1033	 1.70324915485915E-02 
1034	 1.69319911986948E-02 
1035	 1.68735197181623E-02 
1036	 1.67861800416035E-02 
1037	 1.67523454381212E-02 
1038	 1.67383821971198E-02 
1039	 1.65925441664894E-02 
1040	 1.67153105020279E-02 
1041	 1.68097980380543E-02 
1042	 1.70912229628609E-02 
1043	 1.75892790595762E-02 
1044	 1.79177613110804E-02 
1045	 1.84458282477163E-02 
1046	 1.85632672572748E-02 
1047	 1.83383699710853E-02 
1048	 1.82641329474974E-02 
1049	 1.78725120622159E-02 
1050	 1.78964798148881E-02 
1051	 1.81661137809522E-02 
1052	 1.84575649746153E-02 
1053	 0.019245929090132 
1054	 1.95321946777449E-02 
1055	 0.019608154045667 
1056	 1.96196834126624E-02 
1057	 1.94715132327082E-02 
1058	 1.88146840284343E-02 
1059	 1.88347767932499E-02 
1060	 1.90803649967299E-02 
1061	 1.93008183189157E-02 
1062	 1.99661997469602E-02 
1063	 2.01299717017652E-02 
1064	 2.00730026905402E-02 
1065	 2.00089931332429E-02 
1066	 1.95715272699809E-02 
1067	 1.94863137695633E-02 
1068	 1.96330384017339E-02 
1069	 1.96201705848362E-02 
1070	 1.96057191752875E-02 
1071	 1.97020283035154E-02 
1072	 1.98497113918223E-02 
1073	 1.98908964729984E-02 
1074	 1.98455835018752E-02 
1075	 1.99061593715182E-02 
1076	 1.98119142665277E-02 
1077	 1.93568156100384E-02 
1078	 1.92784698877506E-02 
1079	 1.94484152947786E-02 
1080	 1.94015302866724E-02 
1081	 1.93743552323551E-02 
1082	 1.93343004938778E-02 
1083	 0.019121297246591 
1084	 1.90823664284902E-02 
1085	 1.93868412571959E-02 
1086	 1.92587211604351E-02 
1087	 1.87358200734418E-02 
1088	 1.85289067295575E-02 
1089	 1.80524080143048E-02 
1090	 1.79394570234703E-02 
1091	 0.018041128358611 
1092	 1.87629544284955E-02 
1093	 1.87879803025067E-02 
1094	 1.87693358273812E-02 
1095	 1.84584505831429E-02 
1096	 1.74143592557567E-02 
1097	 1.71152350371939E-02 
1098	 1.69200151925779E-02 
1099	 1.69208823553848E-02 
1100	 0.01775980384642 
1101	 1.79650133162193E-02 
1102	 0.017933787635278 
1103	 1.78325182552718E-02 
1104	 1.75485362401079E-02 
1105	 1.67128951373255E-02 
1106	 0.016224787773547 
1107	 1.65732073332139E-02 
1108	 1.64645516560288E-02 
1109	 1.65471804797639E-02 
1110	 1.64520397747103E-02 
1111	 1.56377485859666E-02 
1112	 1.58564681856683E-02 
1113	 0.017322185699721 
1114	 1.75609774203679E-02 
1115	 0.018159689183019 
1116	 1.81830005927757E-02 
1117	 1.50647520766574E-02 
1118	 1.39464185118389E-02 
1119	 1.50657287795804E-02 
1120	 1.56541078828445E-02 
1121	 1.81858908474175E-02 
1122	 1.94182000368677E-02 
1123	 2.06983645432625E-02 
1124	 1.89904546074822E-02 
1125	 1.73380537971749E-02 
1126	 2.20505468616994E-02 
1127	 2.25584311660065E-02 
1128	 1.92773385376135E-02 
1129	 0.020593055716283 
1130	 2.29254323275847E-02 
1131	 2.08251641633708E-02 
1132	 0.022190376014553 
1133	 2.00177678020496E-02 
1134	 8.38649454720545E-03 
1135	 8.26250739536901E-03 
1136	 1.55443415069736E-02 
1137	 1.50177464895201E-02 
1138	 1.36801389160722E-02 
1139	 1.54262938074204E-02 
1140	 1.22577976053837E-02 
1141	 1.00094807233318E-02 
1142	 1.33942252878357E-02 
1143	 1.73364699865415E-02 
1144	 1.77838596477783E-02 
1145	 1.47929631644606E-02 
1146	 1.18637682793087E-02 
1147	 1.26568795150702E-02 
1148	 1.28544403835826E-02 
1149	 1.28626047210547E-02 
1150	 0.013723524884591 
1151	 1.43013766973229E-02 
1152	 1.41107437663288E-02 
1153	 1.50399062260863E-02 
1154	 1.49814154457488E-02 
1155	 1.45542303881201E-02 
1156	 1.30012071245641E-02 
1157	 1.20707918866786E-02 
1158	 1.20120363832773E-02 
1159	 1.18885673752155E-02 
1160	 1.20551099018123E-02 
1161	 1.27724943340486E-02 
1162	 1.30749983100848E-02 
1163	 1.30282033837008E-02 
1164	 1.29077507004995E-02 
1165	 1.22156763064411E-02 
1166	 1.17950115327115E-02 
1167	 0.011706240688493 
1168	 1.14387650993952E-02 
1169	 1.15986821336466E-02 
1170	 1.16032747808941E-02 
1171	 1.14693404459142E-02 
1172	 1.10385659259864E-02 
1173	 1.12893110515471E-02 
1174	 1.19624065841446E-02 
1175	 1.18556003452501E-02 
1176	 1.18670846707735E-02 
1177	 1.19350379022585E-02 
1178	 1.13137643150955E-02 
1179	 1.12716144139994E-02 
1180	 1.19498378773749E-02 
1181	 0.012085951661458 
1182	 1.18107037276063E-02 
1183	 1.16827616615686E-02 
1184	 1.16762633451946E-02 
1185	 1.19528557517789E-02 
1186	 1.22880611292532E-02 
1187	 1.22705598618173E-02 
1188	 1.20114558043276E-02 
1189	 1.17684228738144E-02 
1190	 1.17496605690006E-02 
1191	 1.18334815263022E-02 
1192	 1.18193780297379E-02 
1193	 1.18871165662842E-02 
1194	 1.17486556476256E-02 
1195	 1.13615864642207E-02 
1196	 1.11953974256614E-02 
1197	 1.12694131282417E-02 
1198	 0.011282200772482 
1199	 1.12081315261582E-02 
1200	 0.01124703872739 
1201	 1.17197099868679E-02 
1202	 1.19102143527441E-02 
1203	 1.17808694646184E-02 
1204	 1.18366303210622E-02 
1205	 1.17692218278981E-02 
1206	 1.15055824254367E-02 
1207	 1.14841252877575E-02 
1208	 1.18026115573745E-02 
1209	 1.17046948371397E-02 
1210	 1.14136625202983E-02 
1211	 1.14310408728453E-02 
1212	 1.14009602197316E-02 
1213	 1.13849171327617E-02 
1214	 1.13869525391617E-02 
1215	 1.15366133811514E-02 
1216	 1.16007166138531E-02 
1217	 1.14305612686093E-02 
1218	 1.12107362474625E-02 
1219	 1.12601751516262E-02 
1220	 1.13888622792549E-02 
1221	 0.011433011407878 
1222	 1.14790650335589E-02 
1223	 1.14865281268041E-02 
1224	 1.13587703385018E-02 
1225	 1.14527160485979E-02 
1226	 1.18224572827604E-02 
1227	 1.16882226957336E-02 
1228	 0.011467663047855 
1229	 1.16673668313174E-02 
1230	 1.15940964501522E-02 
1231	 1.12423866170672E-02 
1232	 1.12178131094982E-02 
1233	 1.14504814969722E-02 
1234	 1.13938594832169E-02 
1235	 1.12946749410824E-02 
1236	 1.14599444652818E-02 
1237	 1.15523111782582E-02 
1238	 1.13332713122117E-02 
1239	 1.12420026038918E-02 
1240	 1.15651075805904E-02 
1241	 1.17725080985507E-02 
1242	 1.15193674592523E-02 
1243	 0.011266598624691 
1244	 1.14143409412536E-02 
1245	 1.13273345283349E-02 
1246	 1.10183629452656E-02 
1247	 1.11566464062981E-02 
1248	 1.13346032440029E-02 
1249	 1.11554316938498E-02 
1250	 1.11528020151926E-02 
1251	 1.14543031137119E-02 
1252	 1.13477232723125E-02 
1253	 0.011046656465728 
1254	 1.12698852230056E-02 
1255	 0.011539357997221 
1256	 1.15582405947572E-02 
1257	 1.13881805014726E-02 
1258	 0.011342483255538 
1259	 0.011210057348753 
1260	 1.11846691070868E-02 
1261	 1.12898391244201E-02 
1262	 1.13626136662549E-02 
1263	 1.15493459736697E-02 
1264	 1.14338192333326E-02 
1265	 1.14280616220591E-02 
1266	 1.17206059512991E-02 
1267	 1.17129697589483E-02 
1268	 1.15093378553943E-02 
1269	 1.15489778191817E-02 
1270	 1.16418764628862E-02 
1271	 0.011694238047176 
1272	 1.17132756085399E-02 
1273	 1.16409997154466E-02 
1274	 0.01151119050048 
1275	 1.12436253211436E-02 
1276	 1.10983028685878E-02 
1277	 1.14395250570494E-02 
1278	 1.14476363057375E-02 
1279	 0.011179404593703 
1280	 1.14764103260719E-02 
1281	 1.15182701983614E-02 
1282	 1.09139117611449E-02 
1283	 1.07902466111096E-02 
1284	 1.10362367885188E-02 
1285	 1.11510131802721E-02 
1286	 1.15435719606154E-02 
1287	 1.16332953925805E-02 
1288	 1.14086199597825E-02 
1289	 1.14393159483714E-02 
1290	 1.14954733583882E-02 
1291	 1.12920128126994E-02 
1292	 1.10891551691596E-02 
1293	 1.13160944975502E-02 
1294	 1.15111613416485E-02 
1295	 1.10479167215932E-02 
1296	 1.05824319676992E-02 
1297	 1.08852021659804E-02 
1298	 0.011070080555627 
1299	 1.07094680089804E-02 
1300	 1.07488237010594E-02 
1301	 1.11482930579956E-02 
1302	 1.11329066962732E-02 
1303	 1.10617723415339E-02 
1304	 1.12330862896269E-02 
1305	 1.11469093468065E-02 
1306	 0.011066121028205 
1307	 1.08222985594585E-02 
1308	 1.09564292833826E-02 
1309	 1.13195470214882E-02 
1310	 1.12615630966437E-02 
1311	 0.011239485905362 
1312	 1.13337076991443E-02 
1313	 1.10899140326886E-02 
1314	 1.09528446132538E-02 
1315	 1.09892157996706E-02 
1316	 1.11431934927081E-02 
1317	 1.14584319703816E-02 
1318	 1.16175411919418E-02 
1319	 1.19553359352473E-02 
1320	 1.20347941844367E-02 
1321	 1.15732859934494E-02 
1322	 1.12115984795978E-02 
1323	 1.18013084690047E-02 
1324	 1.26053344937692E-02 
1325	 1.25820560097274E-02 
1326	 1.24700331306117E-02 
1327	 1.23320757603759E-02 
1328	 1.21163828928865E-02 
1329	 1.22998411092676E-02 
1330	 1.31856644938195E-02 
1331	 1.43470919830041E-02 
1332	 1.31675146032361E-02 
1333	 1.12477703785068E-02 
1334	 1.16335212322429E-02 
1335	 1.11266372015072E-02 
1336	 9.19566602257499E-03 
1337	 9.29130581297631E-03 
1338	 1.13496958743796E-02 
1339	 1.20911573863141E-02 
1340	 1.31337892567302E-02 
1341	 1.37400414147009E-02 
1342	 1.39644699601716E-02 
1343	 1.40626611874681E-02 
1344	 1.40636614383005E-02 
1345	 1.34846690864314E-02 
1346	 1.00863501998257E-02 
1347	 0.009296585051739 
1348	 1.18401085768226E-02 
1349	 1.23751088566358E-02 
1350	 1.56456373068707E-02 
1351	 1.90417049710543E-02 
1352	 7.46793302639201E-03 
1353	 8.28958077253394E-03 
1354	 0.045808069975474 
1355	 0.111320860551894 
1356	 0.134272166881848 
1357	 0.10375581354434 
1358	 1.28713877640214E-02 
1359	-2.76187706816082E-02 
1360	 0.124462467806514 
1361	 0.272998359378473 
1362	 0.293501104287582 
1363	 0.284085394898605 
1364	 0.20240616959992 
1365	 0.195065946467523 
1366	 0.24127988625125 
1367	 0.085813018643493 
1368	-1.17562200451658E-02 
1369	-0.335560242071608 
1370	-0.23874214110829 
1371	 0.166004140735831 
1372	 0.3200942553549 
1373	 0.838635381179735 
1374	 0.995268216062877 
1375	 0.626012714083766 
1376	 0.647259519757281 
1377	 0.565824353226921 
1378	 0.611414463413508 
1379	 0.975892971752228 
1380	 1.11066712035956 
1381	 0.999412510151622 
1382	 1.00474671945013 
1383	 1.15551833244557 
1384	 0.995189490850699 
1385	 0.450329969778753 
1386	 0.316478851396608 
1387	 0.158332403726778 
1388	 6.61681406551011E-04 
1389	 4.22816986496744E-02 
1390	 0.360060577013429 
1391	 0.757481339212208 
1392	 1.21988790874449 
1393	 1.26246785712689 
1394	 0.837274993139734 
1395	 0.304669372347322 
1396	 0.11881620024536 
1397	 0.544064371144319 
1398	 0.679546349598308 
1399	 0.74018633308059 
1400	 1.31311331868421 
1401	 0.866212042898989 
1402	 0.428345678849872 
1403	 0.696712652073419 
1404	 0.531497509477065 
1405	 0.192374700754361 
1406	 1.03135008252441E-02 
1407	 0.311028533640675 
1408	 0.577698729919298 
1409	 0.281188925150138 
1410	 0.203418617742 
1411	 0.250619180216916 
1412	 9.21055071374039E-02 
1413	 1.40142640615724E-02 
1414	 0.152250229711338 
1415	 0.230301978465116 
1416	 0.153419493422359 
1417	 8.21357262005719E-02 
1418	 0.162397480154369 
1419	 0.141111352546389 
1420	 3.01444927178942E-02 
1421	-2.68248994773512E-02 
1422	-8.43474488106678E-02 
1423	-6.37947678499606E-02 
1424	-2.63372879514067E-03 
1425	-7.27492232044125E-03 
1426	-2.02359024298858E-02 
1427	-5.21765537420351E-03 
1428	-8.38907377012659E-03 
1429	-7.15563940503024E-03 
1430	 3.55557843704168E-02 
1431	 4.95172843141492E-02 
1432	 3.49654275686497E-02 
1433	 2.72857853370768E-02 
1434	 1.14085849339357E-02 
1435	 4.01999857287923E-03 
1436	-1.15713541776348E-02 
1437	-3.99658181430747E-04 
1438	 2.44070280812041E-02 
1439	 3.43214838000974E-02 
1440	 1.92672122917943E-02 
1441	 1.10410225331053E-02 
1442	 1.02269891347749E-02 
1443	 6.95778720151463E-03 
1444	 1.48885365543051E-02 
1445	 1.83147712727972E-02 
1446	 9.47980411564997E-03 
1447	 1.04054115233782E-02 
1448	 1.77347620941024E-02 
1449	 1.66661479396215E-02 
1450	 1.13011443006095E-02 
1451	 7.52180846081573E-03 
1452	 8.79853240220464E-03 
1453	 1.21935922035939E-02 
1454	 1.08434336092385E-02 
1455	 1.01002981537124E-02 
1456	 1.10807164327313E-02 
1457	 9.51823061249697E-03 
1458	 9.13498283077797E-03 
1459	 1.26232566144719E-02 
1460	 1.28117118410155E-02 
1461	 9.51363073698875E-03 
1462	 8.56180837867702E-03 
1463	 8.56333777359837E-03 
1464	 8.8215331224605E-03 
1465	 9.75557403857515E-03 
1466	 9.03899216370983E-03 
1467	 6.56436904299324E-03 
1468	 9.04330615732738E-03 
1469	 1.47583991473286E-02 
1470	 1.53153064526454E-02 
1471	 1.75361043450344E-02 
1472	 1.82220736799409E-02 
1473	 1.33488883122984E-02 
1474	 1.11383456839777E-02 
1475	 1.03371026275558E-02 
1476	 1.06748148099748E-02 
1477	 1.17040008570532E-02 
1478	 1.12880255599697E-02 
1479	 1.18488930367986E-02 
1480	 1.19572791599305E-02 
1481	 9.79012806462206E-03 
1482	 9.50630741434786E-03 
1483	 1.12397244954113E-02 
1484	 0.011307542655566 
1485	 1.07333098367304E-02 
1486	 1.07422702210941E-02 
1487	 1.07044340086315E-02 
1488	 1.03653525693606E-02 
1489	 9.95847630809094E-03 
1490	 9.90739603844522E-03 
1491	 9.9093735829658E-03 
1492	 9.87813366819808E-03 
1493	 0.010085181698679 
1494	 1.00213244941363E-02 
1495	 9.50058402915866E-03 
1496	 9.47800961537855E-03 
1497	 9.97837717060255E-03 
1498	 9.93856450251733E-03 
1499	 9.5719461790113E-03 
1500	 9.56623521722529E-03 
1501	 9.56729084248052E-03 
1502	 9.46314718664507E-03 
1503	 9.45950953477632E-03 
1504	 9.59930048682734E-03 
1505	 9.76243556055435E-03 
1506	 9.78521934036581E-03 
1507	 9.66744885993951E-03 
1508	 9.46945360462371E-03 
1509	 9.67252150074554E-03 
1510	 9.81931886297543E-03 
1511	 9.70832352799306E-03 
1512	 9.48740111925483E-03 
1513	 8.97423470995352E-03 
1514	 8.9085928768979E-03 
1515	 9.23572972283624E-03 
1516	 9.3808088299185E-03 
1517	 9.33594014814459E-03 
1518	 9.20279891363472E-03 
1519	 9.17073717367959E-03 
1520	 9.0658346012959E-03 
1521	 9.20340498176988E-03 
1522	 9.45892060501109E-03 
1523	 9.44096437362164E-03 
1524	 9.61595215717529E-03 
1525	 9.73240439989799E-03 
1526	 9.44623455370397E-03 
1527	 9.05641800147042E-03 
1528	 9.21044485108814E-03 
1529	 9.55516326349998E-03 
1530	 9.10650740192586E-03 
1531	 8.86602290636626E-03 
1532	 9.13707995038903E-03 
1533	 9.16865177050263E-03 
1534	 9.38927575617666E-03 
1535	 9.44600864302463E-03 
1536	 9.34326881803763E-03 
1537	 9.42798317967708E-03 
1538	 9.13077354612729E-03 
1539	 9.13885224377441E-03 
1540	 9.46580281112503E-03 
1541	 9.34372629699242E-03 
1542	 9.40313092213473E-03 
1543	 9.59889351757612E-03 
1544	 9.5449474853118E-03 
1545	 9.51139747818294E-03 
1546	 9.50275235779977E-03 
1547	 9.45329720155005E-03 
1548	 9.4233834481543E-03 
1549	 9.50385123171159E-03 
1550	 9.60459014519051E-03 
1551	 9.5318868498922E-03 
1552	 9.48463580751459E-03 
1553	 9.56275059804397E-03 
1554	 9.5448488834774E-03 
1555	 9.48805382123769E-03 
1556	 9.4639040934921E-03 
1557	 9.39625880794637E-03 
1558	 9.40158481276254E-03 
1559	 9.45042640283291E-03 
1560	 9.39899193322079E-03 
1561	 9.29217168333287E-03 
1562	 9.16759188245884E-03 
1563	 9.35277017293368E-03 
1564	 9.61325501348223E-03 
1565	 9.58461560931142E-03 
1566	 9.69942937577972E-03 
1567	 9.78393601642868E-03 
1568	 9.76157430114505E-03 
1569	 9.82838106419964E-03 
1570	 9.71348043067815E-03 
1571	 9.70429004869755E-03 
1572	 9.80499465487562E-03 
1573	 9.7107955899417E-03 
1574	 0.009787458064626 
1575	 9.71083544747146E-03 
1576	 9.53117349784493E-03 
1577	 9.94450110307427E-03 
1578	 1.02393325009183E-02 
1579	 1.00256608969393E-02 
1580	 9.86347236900254E-03 
1581	 9.56992518971548E-03 
1582	 9.32747666541378E-03 
1583	 9.56968802444039E-03 
1584	 9.57555411868011E-03 
1585	 9.55881487802659E-03 
1586	 9.88304172212632E-03 
1587	 9.88419485480803E-03 
1588	 9.82063379448177E-03 
1589	 9.8244468652103E-03 
1590	 9.8308560027829E-03 
1591	 9.92198723840362E-03 
1592	 9.88556860394944E-03 
1593	 9.86571398672622E-03 
1594	 9.61509008947108E-03 
1595	 9.11573612450298E-03 
1596	 9.4020672349064E-03 
1597	 9.93268123168175E-03 
1598	 9.7359404423353E-03 
1599	 9.75001148866114E-03 
1600	 9.96253242833718E-03 
1601	 9.91933423193265E-03 
1602	 1.01530013526462E-02 
1603	 1.04429085736369E-02 
1604	 1.02602208446253E-02 
1605	 0.010067784860011 
1606	 1.00977393374897E-02 
1607	 9.94598829575768E-03 
1608	 9.9767206359921E-03 
1609	 0.010172667714023 
1610	 9.9640345582448E-03 
1611	 9.66320670953537E-03 
1612	 9.55670646082563E-03 
1613	 9.64326630496522E-03 
1614	 9.77673355036419E-03 
1615	 9.7852874171741E-03 
1616	 9.89514666832315E-03 
1617	 1.00597420972922E-02 
1618	 1.00940430178274E-02 
1619	 1.03429996917528E-02 
1620	 1.06751303661564E-02 
1621	 1.02820491505315E-02 
1622	 9.73671076382083E-03 
1623	 9.61227414922922E-03 
1624	 9.50399661177187E-03 
1625	 9.59168817655255E-03 
1626	 9.77466877307815E-03 
1627	 9.7914309951764E-03 
1628	 9.6775093652046E-03 
1629	 9.6755417974936E-03 
1630	 9.94899971120922E-03 
1631	 9.9905456657274E-03 
1632	 1.00501667057615E-02 
1633	 1.02804879330968E-02 
1634	 1.01096153402487E-02 
1635	 9.89236791399612E-03 
1636	 9.88773422426115E-03 
1637	 9.77358836100404E-03 
1638	 9.67256864132062E-03 
1639	 9.89766058968676E-03 
1640	 9.93547527447676E-03 
1641	 9.61253936642455E-03 
1642	 9.57938124367694E-03 
1643	 9.77174838816616E-03 
1644	 9.72914531269096E-03 
1645	 9.70059884545045E-03 
1646	 9.87799803403023E-03 
1647	 9.9612128505188E-03 
1648	 9.9630294863892E-03 
1649	 1.00384212847715E-02 
1650	 1.00326563973411E-02 
1651	 9.5599720281929E-03 
1652	 9.49699070600286E-03 
1653	 9.80602114799128E-03 
1654	 9.86149751288458E-03 
1655	 1.02054333050678E-02 
1656	 1.03035333593023E-02 
1657	 1.01938004573747E-02 
1658	 0.010130879459659 
1659	 9.75291795011086E-03 
1660	 9.46337099015456E-03 
1661	 9.3414071754838E-03 
1662	 9.4151158719125E-03 
1663	 9.58834814730027E-03 
1664	 0.009602233034939 
1665	 9.48201124650617E-03 
1666	 9.53146094720792E-03 
1667	 9.92340830486916E-03 
1668	 0.010528377462588 
1669	 1.00684926976707E-02 
1670	 1.00195084777136E-02 
1671	 1.00972765298741E-02 
1672	 9.4933234722927E-03 
1673	 9.61229257821633E-03 
1674	 1.00685068383346E-02 
1675	 9.63784903201754E-03 
1676	 9.43150300431075E-03 
1677	 9.9810903542354E-03 
1678	 1.00835972915041E-02 
1679	 9.7075577713225E-03 
1680	 9.61216080394663E-03 
1681	 9.81429228641259E-03 
1682	 9.92488142012053E-03 
1683	 0.010035409879568 
1684	 1.04981536180468E-02 
1685	 1.06127250009122E-02 
1686	 9.99735128700156E-03 
1687	 9.76253631565294E-03 
1688	 1.02172615486207E-02 
1689	 1.03844798235569E-02 
1690	 1.02442529304614E-02 
1691	 1.03806480359194E-02 
1692	 1.00150588303797E-02 
1693	 9.50140698558018E-03 
1694	 1.02395959684265E-02 
1695	 1.07224404300526E-02 
1696	 1.02530982983775E-02 
1697	 1.00250614093262E-02 
1698	 9.74660660389586E-03 
1699	 9.71120770420054E-03 
1700	 1.01632269639411E-02 
1701	 1.02732395326432E-02 
1702	 1.02139155134616E-02 
1703	 0.010151312384022 
1704	 9.93584582805175E-03 
1705	 9.95419517357604E-03 
1706	 1.01634756073554E-02 
1707	 0.010155434857973 
1708	 1.01877639960467E-02 
1709	 1.03486334330815E-02 
1710	 1.00583073555491E-02 
1711	 9.60975876914413E-03 
1712	 9.52448670458646E-03 
1713	 9.83155694137506E-03 
1714	 9.79104998693495E-03 
1715	 9.73342815783102E-03 
1716	 9.80046201795542E-03 
1717	 9.49210087713699E-03 
1718	 9.62256438766404E-03 
1719	 9.64431884262561E-03 
1720	 9.24375853501005E-03 
1721	 9.87606323608769E-03 
1722	 1.06558230027624E-02 
1723	 1.04089876392304E-02 
1724	 1.03034513068884E-02 
1725	 1.01932763860382E-02 
1726	 9.89671481112144E-03 
1727	 9.90663971827132E-03 
1728	 9.72653497401967E-03 
1729	 9.50938011188732E-03 
1730	 9.54586147133462E-03 
1731	 9.84145926549637E-03 
1732	 1.04048046037934E-02 
1733	 1.10285187032679E-02 
1734	 1.12744953767245E-02 
1735	 1.06291086120872E-02 
1736	 9.95980522215545E-03 
1737	 9.82261669681057E-03 
1738	 0.009813602366581 
1739	 1.01853874490668E-02 
1740	 1.09509712931979E-02 
1741	 1.13022096782164E-02 
1742	 0.010716782630414 
1743	 1.05843391986016E-02 
1744	 0.01139714885542 
1745	 1.10866735440462E-02 
1746	 1.09972351029573E-02 
1747	 1.07926749077582E-02 
1748	 9.53880950780874E-03 
1749	 9.48636808103194E-03 
1750	 9.99345322787438E-03 
1751	 1.00372248443991E-02 
1752	 1.08734356910117E-02 
1753	 1.11324527864402E-02 
1754	 1.05667965644147E-02 
1755	 0.010648159146185 
1756	 1.09611979599043E-02 
1757	 1.07920599412531E-02 
1758	 1.11156077282259E-02 
1759	 1.02622248631295E-02 
1760	 9.17039491217915E-03 
1761	 9.93602066678704E-03 
1762	 1.06919776922849E-02 
1763	 1.13881915896868E-02 
1764	 1.26653560054482E-02 
1765	 1.12252175636039E-02 
1766	 9.66946478852634E-03 
1767	 1.06393661713472E-02 
1768	 1.07845338353096E-02 
1769	 1.08935851511614E-02 
1770	 1.16866783085283E-02 
1771	 1.02227993506339E-02 
1772	 8.93654957434415E-03 
1773	 1.12940131630354E-02 
1774	 1.21122860004051E-02 
1775	 1.21045722705732E-02 
1776	 1.24579244961192E-02 
1777	 9.90986623571073E-03 
1778	 9.22897030078382E-03 
1779	 1.10071184204916E-02 
1780	 1.10854481938212E-02 
1781	 1.10014843643309E-02 
1782	 1.11976115577079E-02 
1783	 1.07184272611315E-02 
1784	 1.05778932546333E-02 
1785	 1.04855763611629E-02 
1786	 1.09038382098062E-02 
1787	 1.17457898436823E-02 
1788	 0.012688948127292 
1789	 1.37626871364062E-02 
1790	 1.44992858154392E-02 
1791	 1.75264224717004E-02 
1792	 1.69120616374051E-02 
1793	 2.03120799497832E-02 
1794	 1.73182376618163E-02 
1795	 8.08087030671559E-03 
1796	 1.37541524227312E-02 
1797	 1.59804093480226E-02 
1798	 2.02520966742261E-02 
1799	 4.24538867561025E-02 
1800	 3.30094498368659E-02 
1801	 2.90650944363399E-02 
1802	 2.25293026265263E-02 
1803	 1.36957620448417E-02 
1804	 1.78073296262649E-04 
1805	-6.0592879046829E-03 
1806	-6.82420135062559E-03 
1807	 9.40464241858118E-03 
1808	 7.91469175309799E-02 
1809	 0.111516542804877 
1810	 0.13795862635922 
1811	 0.111040090278794 
1812	-0.102121612932053 
1813	-0.191114930615794 
1814	-0.228250171341841 
1815	-0.23290431058334 
1816	-1.56909242511111E-02 
1817	-9.68751029312662E-02 
1818	 1.8782830644703E-03 
1819	 2.28589091627295E-02 
1820	-5.53969360662167E-02 
1821	-0.101988703079364 
1822	-9.96882821586172E-02 
1823	-0.337056272436454 
1824	-3.20966523643604E-02 
1825	 0.944434099572116 
1826	 0.809728242712441 
1827	 0.213097675603255 
1828	 0.121340665027231 
1829	-0.3685737281215 
1830	-0.469750588249458 
1831	-0.324905506730773 
1832	-0.244009308971799 
1833	 9.40521720608794E-03 
1834	 0.415123317568324 
1835	 0.885478058725247 
1836	 0.920919594649706 
1837	 0.681181356536856 
1838	 0.421252806420012 
1839	-0.55798957657711 
1840	-1.1145982393108 
1841	-0.532915956096565 
1842	-9.87940207925023E-02 
1843	-0.161305307362645 
1844	-0.878685163842942 
1845	-1.2579128579323 
1846	 0.700660902335776 
1847	 0.819967486463674 
1848	 55.310138343031 
1849	-2.45132795562816 
1850	-3.20926399767342 
1851	-1.79093035384011 
1852	-2.17067219835952 
1853	-1.51760681215236 
1854	-1.01279173890041 
1855	-1.07435294634962 
1856	-1.0769648082873 
1857	-4.29218825750615 
1858	-10.3311431151479 
1859	 0.980774564378677 
1860	 0.624751491541037 
1861	 0.322582965450072 
1862	-4.1302233778656E-03 
1863	-1.06217121200455 
1864	 42.2238837367661 
1865	 12.8518711465292 
1866	-4.3730680879958 
1867	-2.69429246237384 
1868	-1.03348914238798 
1869	-0.482449366364388 
1870	-0.404008346038937 
1871	 0.109396320220689 
1872	 0.355404428760022 
1873	 0.370172283570801 
1874	 0.51209098533197 
1875	 0.706355620720986 
1876	 0.775632371940555 
1877	 0.683837222778949 
1878	 0.80073356078201 
1879	 1.01373964832462 
1880	 0.662875144973329 
1881	 0.148503345115092 
1882	 5.48299233299338E-02 
1883	-0.859783432221185 
1884	-0.171374579461895 
1885	-0.341071697450713 
1886	-4.99483802733643 
1887	-11.439553577224 
1888	 18.140688634415 
1889	 7.43458104703893 
1890	 1.05144490386213 
1891	 1.07792869522203 
1892	 0.670066566161886 
1893	 8.62727596318044E-02 
1894	-1.29326970713447 
1895	-0.153338532295961 
1896	 5.44690530720605 
1897	 0.901550676645229 
1898	 1.13418321429812 
1899	 0.977829769818281 
1900	 1.5586465995689 
1901	 9.55532228869344 
1902	 42.8223623975215 
1903	-39.6285892036361 
1904	 13.7940986891452 
1905	-22.7493258407266 
1906	 13.9101391193843 
1907	 1.84684671881507 
1908	 35.544621966017 
1909	-2.50915324491471 
1910	-40.8450933621032 
1911	-2.25550077964509 
1912	-0.771632767417854 
1913	-0.753841770268565 
1914	-7.23948101119418 
1915	-4.55315103829033 
1916	 3.02354585663444E-02 
1917	 0.35195487547497 
1918	-13.0743521841039 
1919	 0.551128915296791 
1920	 0.411458673930947 
1921	 0.747055949739416 
1922	 1.17541990736606 
1923	 0.627291848472895 
1924	-0.192172564578045 
1925	-0.402467718682174 
1926	-0.612011924494388 
1927	-0.564745008085491 
1928	-0.60891132636519 
1929	-1.23789692361237 
1930	-4.98049291326704 
1931	-16.9435100272736 
1932	 44.5976079543236 
1933	 3.00101281356524 
1934	 2.70289127765442 
1935	 0.959574035447139 
1936	 0.478011521345237 
1937	 0.837218401993364 
1938	 0.666301259644021 
1939	 0.458267018551155 
1940	 0.234463373130414 
1941	 0.18985752316229 
1942	 1.88437166132478E-02 
1943	-9.16627323675315E-03 
1944	 3.71200522353437E-02 
1945	-1.85740305982573E-02 
1946	 4.48179565000058E-02 
1947	 8.20491964002445E-02 
1948	 2.18563940708838E-03 
1949	 3.14711538330039E-03 
1950	 5.83762472883267E-02 
1951	 5.38055238818449E-02 
1952	 5.85067233159352E-02 
1953	 9.67873550428686E-02 
1954	 0.130710676014132 
1955	 0.101315522927377 
1956	 0.059499121071226 
1957	 4.78693459197986E-02 
1958	 6.50244177065725E-02 
1959	 5.14600575396842E-02 
1960	 3.42470254176854E-02 
1961	 0.03223577311422 
1962	 1.84488323487548E-02 
1963	 6.63228433433316E-03 
1964	 9.44953538617993E-03 
1965	 1.02298785228239E-02 
1966	 8.19099659238749E-03 
1967	 4.08201119559005E-03 
1968	 2.77042357237075E-03 
1969	 5.14998639770593E-03 
1970	 5.93917682238935E-03 
1971	 3.94861600380591E-03 
1972	 5.49073005166846E-03 
1973	 6.27368212598478E-03 
1974	 7.97300243410966E-03 
1975	 1.34562045040128E-02 
1976	 1.58670783289906E-02 
1977	 1.25708607746747E-02 
1978	 8.80474094738958E-03 
1979	 7.67650089927615E-03 
1980	 6.00810021061271E-03 
1981	 5.96507419304482E-03 
1982	 8.27897268689727E-03 
1983	 8.98581958034253E-03 
1984	 9.29129911318044E-03 
1985	 9.68291944659696E-03 
1986	 8.46015053546097E-03 
1987	 8.19912126075845E-03 
1988	 7.65572498928772E-03 
1989	 6.60182062319141E-03 
1990	 6.61032255406955E-03 
1991	 7.35040605125576E-03 
1992	 7.45864482850931E-03 
1993	 6.79744823871068E-03 
1994	 6.89876697230049E-03 
1995	 7.91176507611807E-03 
1996	 8.26419145033544E-03 
1997	 8.81159228079165E-03 
1998	 1.05585868897981E-02 
1999	 1.02229708416438E-02 
2000	 1.13995846888837E-02 
2001	 1.02589019562143E-02 
2002	 6.24110821832524E-03 
2003	 8.39684133833011E-03 
2004	 1.01948432245536E-02 
2005	 9.93593442222446E-03 
2006	 1.14780279839794E-02 
2007	 6.97744251470586E-03 
2008	 1.31925827227468E-03 
2009	 8.96020448481523E-04 
2010	 6.74936671922364E-03 
2011	 7.14480004261136E-03 
2012	 7.45450990551438E-03 
2013	 8.65240057966023E-03 
2014	 6.74749797892847E-03 
2015	 7.82414241618998E-03 
2016	 1.20739200005061E-02 
2017	 1.52506693631411E-02 
2018	 1.51242909415208E-02 
2019	 0.013067822930809 
2020	 1.11912105411616E-02 
2021	 9.27700551338108E-03 
2022	 8.14632601427095E-03 
2023	 7.73861344959135E-03 
2024	 7.77251426466815E-03 
2025	 7.80760312168852E-03 
2026	 8.02699085590501E-03 
2027	 8.36969722362149E-03 
2028	 1.01192241720876E-02 
2029	 1.02533713281461E-02 
2030	 9.82536412055062E-03 
2031	 9.99646827763753E-03 
2032	 8.53747361510669E-03 
2033	 7.77721043401958E-03 
2034	 8.9983464702131E-03 
2035	 9.29294435757454E-03 
2036	 9.13250379108767E-03 
2037	 9.60985596627339E-03 
2038	 8.37881149900546E-03 
2039	 7.46315902143768E-03 
2040	 6.29219860049924E-03 
2041	 5.8770116159108E-03 
2042	 5.26874285484237E-03 
2043	 5.45590774852882E-03 
2044	 6.62483261965074E-03 
2045	 7.66019002702898E-03 
2046	 7.93977138295626E-03 
2047	 8.21053120288115E-03 
2048	 8.6292995219225E-03 
2049	 8.04406508476071E-03 
2050	 8.02040315035441E-03 
2051	 7.93561669549864E-03 
2052	 7.95127331438747E-03 
2053	 8.52259921375839E-03 
2054	 6.70383553471918E-03 
2055	 5.16546599350797E-03 
2056	 5.24339594336997E-03 
2057	 5.54744257924861E-03 
2058	 5.44652435313636E-03 
2059	 7.43574704032192E-03 
2060	 8.05573672892295E-03 
2061	 6.85956306693019E-03 
2062	 6.75057943777218E-03 
2063	 7.63535400568259E-03 
2064	 8.30651253743847E-03 
2065	 9.06522606327589E-03 
2066	 8.44226478079402E-03 
2067	 7.19021692699221E-03 
2068	 7.34967475317674E-03 
2069	 8.4019065679587E-03 
2070	 8.5803359702432E-03 
2071	 8.94178372711891E-03 
2072	 9.65259867034346E-03 
2073	 9.55009178499635E-03 
2074	 8.42769365857706E-03 
2075	 7.73805068272538E-03 
2076	 6.74553576346857E-03 
2077	 6.56855164038969E-03 
2078	 7.20785179786467E-03 
2079	 6.75511971873828E-03 
2080	 6.21231378129089E-03 
2081	 5.33861864823893E-03 
2082	 5.2198180591062E-03 
2083	 5.3712180051023E-03 
2084	 5.59245278575127E-03 
2085	 6.04330662650789E-03 
2086	 5.77234754861936E-03 
2087	 5.6661392146706E-03 
2088	 5.61577391605034E-03 
2089	 5.08985869524178E-03 
2090	 4.83805393210569E-03 
2091	 4.41656285484226E-03 
2092	 4.7090521647496E-03 
2093	 6.3956979843714E-03 
2094	 7.44079669123555E-03 
2095	 8.86816443622161E-03 
2096	 9.07237783799856E-03 
2097	 8.51827810545586E-03 
2098	 8.29375387563199E-03 
2099	 7.56532875163704E-03 
2100	 6.33050679068402E-03 
2101	 6.92895481889141E-03 
2102	 7.5869688976036E-03 
2103	 7.01995585455693E-03 
2104	 6.90021119967175E-03 
2105	 6.45986076277005E-03 
2106	 5.90560674657011E-03 
2107	 6.05611012854498E-03 
2108	 6.45896272266183E-03 
2109	 6.96437398909647E-03 
2110	 7.81398609347397E-03 
2111	 8.42400589142497E-03 
2112	 8.27708373570021E-03 
2113	 8.74986038863155E-03 
2114	 9.30589958083114E-03 
2115	 9.56205205187662E-03 
2116	 1.01610453468044E-02 
2117	 1.06041603774315E-02 
2118	 1.04617211837425E-02 
2119	 1.01032983664409E-02 
2120	 9.38947656413893E-03 
2121	 9.62279262409518E-03 
2122	 0.009528511555997 
2123	 9.84965857109236E-03 
2124	 1.07467656232786E-02 
2125	 0.011354753340448 
2126	 9.64294499873412E-03 
2127	 8.48611617024447E-03 
2128	 8.99539468702797E-03 
2129	 9.02685927015029E-03 
2130	 9.86827663585355E-03 
2131	 1.07689981898938E-02 
2132	 1.00364034640462E-02 
2133	 8.54495240812562E-03 
2134	 7.77919255344112E-03 
2135	 7.55850148541025E-03 
2136	 6.97738410710205E-03 
2137	 5.80753021860532E-03 
2138	 5.75817700823049E-03 
2139	 6.41040994140007E-03 
2140	 6.62751874585144E-03 
2141	 7.96462758264016E-03 
2142	 8.19662590959144E-03 
2143	 7.72460261652362E-03 
2144	 6.39917271345917E-03 
2145	 6.30631985995493E-03 
2146	 5.42962097255156E-03 
2147	 3.76644883315114E-03 
2148	 4.44671790948684E-03 
2149	 5.01396668730717E-03 
2150	 5.06658599272754E-03 
2151	 6.04091592153256E-03 
2152	 6.06244639078346E-03 
2153	 6.74802005554056E-03 
2154	 7.66392445246254E-03 
2155	 7.22072308482163E-03 
2156	 7.79041261152917E-03 
2157	 8.2419898016261E-03 
2158	 7.36252498466045E-03 
2159	 7.37365915439941E-03 
2160	 8.92769223149845E-03 
2161	 9.06426090854752E-03 
2162	 8.03979309803542E-03 
2163	 8.10430822443879E-03 
2164	 8.2059150622898E-03 
2165	 8.74396920119136E-03 
2166	 1.09506792642372E-02 
2167	 1.14418563193476E-02 
2168	 1.02810679199551E-02 
2169	 1.03804072587297E-02 
2170	 1.11362170960982E-02 
2171	 9.86207423406711E-03 
2172	 8.90431978822909E-03 
2173	 1.08171035145176E-02 
2174	 1.00106322585053E-02 
2175	 7.80432315593736E-03 
2176	 8.02851860870895E-03 
2177	 7.53663756360394E-03 
2178	 7.30939997846564E-03 
2179	 9.9972281486843E-03 
2180	 1.24116492151765E-02 
2181	 1.24255128380091E-02 
2182	 1.14537268787078E-02 
2183	 1.02128316879907E-02 
2184	 8.59730527275402E-03 
2185	 7.36939168941619E-03 
2186	 6.5084519336235E-03 
2187	 6.68191643555923E-03 
2188	 7.01697976758016E-03 
2189	 7.83360283327886E-03 
2190	 7.6663679652787E-03 
2191	 7.85252700581742E-03 
2192	 7.76265080744784E-03 
2193	 5.88031450125846E-03 
2194	 5.48508277530752E-03 
2195	 6.22175898977537E-03 
2196	 7.16596940324894E-03 
2197	 9.22946174628385E-03 
2198	 9.76170865610902E-03 
2199	 1.03013714363466E-02 
2200	 1.02032451507408E-02 
2201	 8.16412668716812E-03 
2202	 9.15500777378864E-03 
2203	 9.15068091259001E-03 
2204	 8.18122110634548E-03 
2205	 9.6277336871799E-03 
2206	 8.59488946356679E-03 
2207	 8.32952898916114E-03 
2208	 1.03122234903289E-02 
2209	 9.44687493557033E-03 
2210	 7.3942522149927E-03 
2211	 8.21874793525742E-03 
2212	 9.18755025887417E-03 
2213	 9.4383411215725E-03 
2214	 9.51425525028702E-03 
2215	 9.19649127815966E-03 
2216	 9.59977290213771E-03 
2217	 8.4045874461214E-03 
2218	 5.83236423247043E-03 
2219	 6.33811448464867E-03 
2220	 7.30575732128628E-03 
2221	 7.15456412561819E-03 
2222	 9.81964963575493E-03 
2223	 1.05781325705617E-02 
2224	 7.93284067286001E-03 
2225	 7.41259983654952E-03 
2226	 8.73172795608119E-03 
2227	 8.48067670477695E-03 
2228	 6.62054645795654E-03 
2229	 6.66484977354179E-03 
2230	 8.45603193926925E-03 
2231	 8.46236309264954E-03 
2232	 7.7073614380256E-03 
2233	 7.92490855521305E-03 
2234	 7.63366128923708E-03 
2235	 7.28771745627111E-03 
2236	 6.69856079582822E-03 
2237	 7.65297897770971E-03 
2238	 8.93150277656999E-03 
2239	 7.70597621096153E-03 
2240	 6.6719487081462E-03 
2241	 8.33978118876949E-03 
2242	 8.03063086005268E-03 
2243	 6.64010220660686E-03 
2244	 6.99347933327523E-03 
2245	 5.86413134075417E-03 
2246	 5.25577323267103E-03 
2247	 7.01085149163602E-03 
2248	 5.84012709319586E-03 
2249	 3.43795221919563E-03 
2250	 4.39941270795162E-03 
2251	 2.94974463670263E-03 
2252	 2.26787171944677E-03 
2253	 7.35011778493862E-03 
2254	 9.43086712889095E-03 
2255	 7.7817893256173E-03 
2256	 7.20690159901881E-03 
2257	 5.17227572313392E-03 
2258	 3.1513807084881E-03 
2259	 3.7768155424691E-03 
2260	 4.08314072165111E-03 
2261	 6.05947500036888E-03 
2262	 7.34156405867013E-03 
2263	 8.1692085185787E-03 
2264	 9.49983190010465E-03 
2265	 0.011021494575904 
2266	 1.21690489064248E-02 
2267	 1.44199005846121E-02 
2268	 1.44886390641804E-02 
2269	 1.34975913809631E-02 
2270	 1.18727391349241E-02 
2271	 7.81867955575286E-03 
2272	 6.33857914854675E-03 
2273	 4.98911526887499E-03 
2274	 4.34018793099987E-03 
2275	 5.13380268641347E-03 
2276	 4.9747486678327E-03 
2277	 5.33307305525082E-03 
2278	 6.71249061337641E-03 
2279	 8.8335981679836E-03 
2280	 0.010569497637576 
2281	 1.42084017755892E-02 
2282	 1.24128122143275E-02 
2283	 8.11497764343526E-03 
2284	 8.5458587050662E-03 
2285	 8.0597114921791E-03 
2286	 9.28812638369435E-03 
2287	 0.01402872634616 
2288	 1.34594308063541E-02 
2289	 1.22408232334909E-02 
2290	 1.04510128129935E-02 
2291	 1.03272668787335E-02 
2292	 1.45020410172176E-02 
2293	 1.39317819398046E-02 
2294	 1.27677670625932E-02 
2295	 1.18154818828679E-02 
2296	 3.30146797504728E-03 
2297	 2.65863830062631E-04 
2298	 5.12659577566022E-03 
2299	 5.58310765720497E-03 
2300	 7.99467121489785E-03 
2301	 9.20010030366468E-03 
2302	 4.22576156028609E-03 
2303	 2.70135450602627E-03 
2304	 3.7829970852672E-03 
2305	 6.1233158942826E-03 
2306	 9.79059514316813E-03 
2307	 9.21765313209402E-03 
2308	 7.44010838687889E-03 
2309	 1.01176711188149E-02 
2310	 1.12261530191678E-02 
2311	 1.01780298479399E-02 
2312	 1.31717692607931E-02 
2313	 1.25817323959732E-02 
2314	 9.28648996794846E-03 
2315	 1.17914524263533E-02 
2316	 1.39596523300082E-02 
2317	 1.89065422461203E-02 
2318	 2.14603352540741E-02 
2319	 1.02252861094053E-02 
2320	 4.08966645367665E-03 
2321	 3.59440070250513E-03 
2322	-1.4275355450235E-03 
2323	-1.098390026769E-04 
2324	 4.67976833723357E-03 
2325	 4.10799752835272E-03 
2326	 3.64600864128797E-03 
2327	 1.22491154669691E-02 
2328	 2.47414288183778E-02 
2329	 2.90967062438117E-02 
2330	 2.95793706588222E-02 
2331	 2.91639352522062E-02 
2332	 1.98473076963682E-02 
2333	 1.23046008208864E-02 
2334	 9.6432753918452E-03 
2335	 8.6604160812546E-03 
2336	 8.18403061718827E-03 
2337	 7.97619785238454E-03 
2338	 1.23217689706805E-02 
2339	 4.39413405973944E-03 
2340	-4.9159678408985E-03 
2341	-1.13694768811424E-02 
2342	-2.39759893549677E-02 
2343	-2.41774895899861E-02 
2344	-2.21222917967346E-02 
2345	-2.19385419304858E-02 
2346	-1.64674702356614E-02 
2347	-1.20834174999258E-02 
2348	-1.34348209801007E-03 
2349	 8.85683080840967E-03 
2350	 1.34406303126112E-02 
2351	 1.56003946080285E-02 
2352	 1.05687167239142E-02 
2353	 8.72342551482329E-03 
2354	 1.54403665992234E-02 
2355	 2.23936317100829E-02 
2356	 3.01017380394689E-02 
2357	 3.81373727078733E-02 
2358	 2.93993842702266E-02 
2359	 1.20685282607618E-02 
2360	-1.13487418383591E-03 
2361	-1.77065686776574E-02 
2362	-2.06068351433729E-02 
2363	-7.17129855052783E-03 
2364	 1.80961920465171E-03 
2365	 2.65269117115813E-02 
2366	 4.57791817078835E-02 
2367	 2.35492600699121E-02 
2368	 5.13856717404764E-03 
2369	-9.50638773339007E-03 
2370	-1.88256348173392E-02 
2371	 8.2468489023262E-03 
2372	 4.08085375055567E-02 
2373	 5.07185691397168E-02 
2374	 3.39030609671385E-02 
2375	 1.22845029432872E-02 
2376	 1.73060503940025E-02 
2377	 3.33752122415041E-02 
2378	 5.90358874849755E-02 
2379	 9.52768741216087E-02 
2380	 8.22101235909776E-02 
2381	 1.72600328539609E-02 
2382	-1.95737439819534E-02 
2383	-5.91625076858345E-02 
2384	-0.072319197356306 
2385	-5.11373564297434E-03 
2386	 2.64535174841466E-02 
2387	 1.47015848617025E-02 
2388	-1.26117473673272E-02 
2389	-3.58634330831218E-02 
2390	-3.92145669594248E-02 
2391	-4.66337077426624E-02 
2392	 1.0173099391809E-03 
2393	 4.87777772409094E-02 
2394	 4.78890784783659E-02 
2395	 6.63853689270383E-02 
2396	 4.73096837465843E-02 
2397	 0.006100813181856 
2398	-1.97640129979094E-02 
2399	-1.18582164725976E-02 
2400	 1.75255287801105E-02 
2401	-1.65514485747584E-02 
2402	-0.037237451874257 
2403	-4.04461076399578E-02 
2404	-4.58777715279792E-02 
2405	 2.6634387473908E-03 
2406	 5.92418391163955E-02 
2407	 5.43773917586293E-02 
2408	 1.20766196856216E-03 
2409	-5.64677683330738E-02 
2410	-0.133809965065396 
2411	-0.321632987599819 
2412	-0.516271756883144 
2413	-0.623202825357356 
2414	-0.563175189741303 
2415	-3.06103885469626E-02 
2416	 0.12722804930766 
2417	 0.121032879191666 
2418	 6.54938531567535E-02 
2419	-4.15058895836334E-02 
2420	-5.30534120975637E-02 
2421	-0.129259545363582 
2422	-0.233865425551252 
2423	-0.343316763198898 
2424	-0.313393442012847 
2425	-0.171068408144036 
2426	-6.29221059924287E-02 
2427	-0.152925260607984 
2428	-0.388515695310254 
2429	-0.304289922437722 
2430	-0.263904491765759 
2431	-0.276662058079105 
2432	 4.93276041718927E-02 
2433	 0.247390314155426 
2434	 1.70255712371582E-02 
2435	 3.89088319598023E-03 
2436	 9.96206696587699E-02 
2437	-5.02661163866311E-02 
2438	-0.115540795898965 
2439	 1.07573297620759E-03 
2440	-6.74871205963547E-02 
2441	-8.38423211244227E-02 
2442	 0.267339570805544 
2443	-0.192888196770625 
2444	-0.228672930805978 
2445	-0.305262432017143 
2446	-1.19834182144615 
2447	 0.826864088694398 
2448	-0.652976518009121 
2449	 1.00760385156005 
2450	 2.0837232320555 
2451	 2.82916173596114 
2452	 0.609151718790223 
2453	-2.40725425684804 
2454	-0.293038197174911 
2455	-6.35738019024607E-02 
2456	-0.16994856090709 
2457	-0.17500897963063 
2458	-0.367452945739755 
2459	-0.465230048608284 
2460	-0.340309952350565 
2461	-0.874903709690089 
2462	-0.178647270098694 
2463	-0.667269436152147 
2464	-0.882534541043251 
2465	-0.156672372155226 
2466	-0.322242706036518 
2467	-1.09753766775627 
2468	-0.146648444043333 
2469	 9.03261606087766E-02 
2470	 1.89459115692296 
2471	-0.431606385588372 
2472	-0.353756194855615 
2473	-4.89768291563952 
2474	 1.76269309499622 
2475	 0.482723796460003 
2476	 0.376619860933326 
2477	-1.65212709707954E-02 
2478	-0.699539863520002 
2479	-1.84828455186628 
2480	 0.925870900982856 
2481	 0.624573435796969 
2482	 0.359577359356834 
2483	-0.30718763307969 
2484	-0.997606685058637 
2485	-0.435393463334417 
2486	 9.27837070570068 
2487	 5.32093443649235 
2488	 5.74435368864019 
2489	 0.718959488811125 
2490	 3.15457848585815E-02 
2491	 0.780087530982292 
2492	 0.672437511635144 
2493	 0.738014268042877 
2494	-1.04433963233517E-02 
2495	-0.257731248819385 
2496	-0.926488830950992 
2497	-1.02722928952198 
2498	 1.17889360229402E-02 
2499	-21.9587305777857 
2500	-62.1891735716781 
