Wavelength	rt0628close00000.asd
350	 7.84709294355592E-02 
351	 8.07456757028762E-02 
352	 7.94617140892527E-02 
353	 0.07835621046826 
354	 7.93873427290405E-02 
355	 0.077162911763773 
356	 7.77061374475712E-02 
357	 7.85560709834273E-02 
358	 7.65842545221959E-02 
359	 7.75600002715122E-02 
360	 7.71523868960488E-02 
361	 0.075914440818318 
362	 7.72979897170367E-02 
363	 7.65987952332761E-02 
364	 7.60621244441278E-02 
365	 7.65823941238801E-02 
366	 7.57543654859587E-02 
367	 7.59002465956099E-02 
368	 7.60007312134178E-02 
369	 0.075149659922075 
370	 7.60754596971631E-02 
371	 0.075925496846672 
372	 7.53610026081483E-02 
373	 7.65458872061104E-02 
374	 7.52239879809203E-02 
375	 7.49914758990708E-02 
376	 7.64490140681224E-02 
377	 7.51905386420618E-02 
378	 7.58675587821919E-02 
379	 7.63461420916736E-02 
380	 7.49308357254444E-02 
381	 7.64156630902556E-02 
382	 7.62412992823866E-02 
383	 7.52370739435858E-02 
384	 7.61753255014913E-02 
385	 7.55648668248683E-02 
386	 7.59964863881858E-02 
387	 7.72112544938629E-02 
388	 7.55788731240515E-02 
389	 7.63093676249462E-02 
390	 7.68610883752986E-02 
391	 7.54991635020792E-02 
392	 7.61577466835122E-02 
393	 7.59380808132899E-02 
394	 0.075613785225504 
395	 7.65340864201615E-02 
396	 7.55186626714034E-02 
397	 7.55323192903603E-02 
398	 7.64705477363486E-02 
399	 7.55686863363039E-02 
400	 7.57003469243943E-02 
401	 7.57156767167994E-02 
402	 0.075017322026684 
403	 7.57223688406768E-02 
404	 7.55539054978242E-02 
405	 0.075167158972291 
406	 7.58095917973501E-02 
407	 7.54188902749908E-02 
408	 7.54810088034113E-02 
409	 7.60170305026093E-02 
410	 7.55343887698366E-02 
411	 7.57814705508559E-02 
412	 7.59498777854477E-02 
413	 7.55741180108817E-02 
414	 7.61911637010046E-02 
415	 7.61256558574969E-02 
416	 7.58511299842483E-02 
417	 7.63789495329273E-02 
418	 7.62372885359951E-02 
419	 0.076393473876794 
420	 7.68818169962194E-02 
421	 7.66212426625271E-02 
422	 7.68901473600149E-02 
423	 7.72185348757552E-02 
424	 7.71916592174216E-02 
425	 7.76095268728528E-02 
426	 7.77166688736172E-02 
427	 7.78033780953875E-02 
428	 7.84543692341855E-02 
429	 7.84887025534463E-02 
430	 7.86508171750798E-02 
431	 7.91074147393814E-02 
432	 7.91577145104639E-02 
433	 7.96225257003278E-02 
434	 7.99734647645834E-02 
435	 7.98564127275136E-02 
436	 8.03368393499395E-02 
437	 8.05409711314429E-02 
438	 8.06228287234454E-02 
439	 8.11670942494707E-02 
440	 8.12144259295291E-02 
441	 8.14304452510573E-02 
442	 8.19547336876866E-02 
443	 8.18983770596611E-02 
444	 8.21807057931511E-02 
445	 8.25073003578008E-02 
446	 8.25038469256411E-02 
447	 8.28490985498953E-02 
448	 8.29505236212823E-02 
449	 8.29226623273948E-02 
450	 8.33368730516508E-02 
451	 8.33782676979613E-02 
452	 8.34518663088243E-02 
453	 8.37519385773173E-02 
454	 8.36596289135624E-02 
455	 8.38340916304857E-02 
456	 8.40473515458313E-02 
457	 8.39269504757856E-02 
458	 8.41532727505564E-02 
459	 8.42055920834889E-02 
460	 8.40955671259731E-02 
461	 8.43836872378854E-02 
462	 8.42888945212298E-02 
463	 0.084271253528366 
464	 8.46182772903123E-02 
465	 8.44371804854368E-02 
466	 8.44607759843866E-02 
467	 8.46194470763437E-02 
468	 8.45392440622216E-02 
469	 8.47415686142906E-02 
470	 8.47423347666701E-02 
471	 8.45478125277584E-02 
472	 8.49240989273718E-02 
473	 8.48431307980697E-02 
474	 8.47889077053773E-02 
475	 8.52264773983102E-02 
476	 0.085070241455556 
477	 8.51889088622464E-02 
478	 8.55065496930979E-02 
479	 8.53834303326512E-02 
480	 8.57264947290839E-02 
481	 8.59401609701324E-02 
482	 8.57960291200742E-02 
483	 8.62359333866249E-02 
484	 8.63129370867893E-02 
485	 8.63720356597936E-02 
486	 0.086959344735584 
487	 8.70139421169644E-02 
488	 8.71771588412514E-02 
489	 0.087530326412719 
490	 8.75647545437057E-02 
491	 8.79150418752133E-02 
492	 8.82085059649053E-02 
493	 0.088225105616836 
494	 8.87401204244675E-02 
495	 8.89353494581268E-02 
496	 0.089005487525636 
497	 8.95323844999642E-02 
498	 8.96555871758234E-02 
499	 8.98805848916224E-02 
500	 9.03391213912917E-02 
501	 9.03708535215029E-02 
502	 9.07662207817368E-02 
503	 9.11806858835968E-02 
504	 9.12341381971929E-02 
505	 9.18024423565729E-02 
506	 9.21267846297684E-02 
507	 9.22897561596706E-02 
508	 9.29894628163756E-02 
509	 9.32100162957028E-02 
510	 0.093548724367017 
511	 9.42945384163848E-02 
512	 9.43678671600301E-02 
513	 9.48122305066342E-02 
514	 9.54175490425508E-02 
515	 9.55849791726124E-02 
516	 9.61504332408032E-02 
517	 9.65658245920178E-02 
518	 9.67789432019231E-02 
519	 9.74792083977609E-02 
520	 9.78518498713918E-02 
521	 9.81808949687935E-02 
522	 9.87738792948988E-02 
523	 9.90854365091642E-02 
524	 9.95302114397779E-02 
525	 0.100060045635291 
526	 0.100348067890059 
527	 0.100937012379799 
528	 0.101459087837707 
529	 0.101768283104335 
530	 0.102436377485865 
531	 0.10286606621647 
532	 0.103276237704857 
533	 0.10402604687434 
534	 0.104387857555989 
535	 0.104898885444011 
536	 0.105599671143755 
537	 0.105892056818255 
538	 0.106499735592044 
539	 0.107104179662786 
540	 0.10740929977725 
541	 0.1080494533379 
542	 0.108580380551225 
543	 0.1090333220829 
544	 0.10969749029102 
545	 0.110165227807678 
546	 0.110736738615974 
547	 0.111491866968515 
548	 0.111900642009236 
549	 0.112509037052468 
550	 0.113146127093976 
551	 0.113517476478589 
552	 0.114160152613358 
553	 0.114679683330419 
554	 0.115061141395112 
555	 0.115758186524347 
556	 0.116206930876036 
557	 0.116670440858731 
558	 0.11736272753918 
559	 0.117665953746331 
560	 0.118164770228355 
561	 0.118758119018244 
562	 0.118991410377566 
563	 0.11953518603343 
564	 0.119993896021108 
565	 0.120191804148969 
566	 0.120664076432387 
567	 0.120917795333498 
568	 0.12114428737064 
569	 0.121650914675691 
570	 0.12189322184346 
571	 0.122208306526269 
572	 0.122605198131747 
573	 0.122702362911493 
574	 0.123063353189625 
575	 0.12344992495352 
576	 0.123642692349498 
577	 0.124127512018911 
578	 0.124453248105799 
579	 0.124707140957353 
580	 0.125237703210761 
581	 0.125435667612998 
582	 0.125694940536903 
583	 0.126116216192607 
584	 0.126012950648917 
585	 0.126123499967528 
586	 0.126112132533468 
587	 0.125509098827143 
588	 0.125528694997342 
589	 0.125603698776606 
590	 0.125615982812247 
591	 0.126032290421052 
592	 0.126067919957428 
593	 0.126147074050992 
594	 0.126594165298273 
595	 0.126652564258697 
596	 0.12690698514328 
597	 0.127234888689756 
598	 0.127207798512902 
599	 0.127574799643301 
600	 0.127839727805555 
601	 0.127828274823064 
602	 0.128187891234349 
603	 0.128253390756668 
604	 0.128230437417261 
605	 0.128455565463547 
606	 0.128403246610402 
607	 0.128501886256101 
608	 0.128732888359865 
609	 0.128602650961535 
610	 0.128773701629815 
611	 0.128892262408335 
612	 0.128707411888401 
613	 0.128929513387786 
614	 0.128971475946006 
615	 0.128911133897795 
616	 0.129120943070184 
617	 0.12900596488113 
618	 0.128987525237769 
619	 0.129190814059364 
620	 0.129083841088743 
621	 0.129208645939207 
622	 0.129315524980847 
623	 0.129091655176275 
624	 0.129244019525799 
625	 0.129106926595582 
626	 0.128732032935187 
627	 0.128856964388741 
628	 0.128771511369374 
629	 0.12883168943819 
630	 0.129214219026022 
631	 0.129072820276234 
632	 0.129195783364262 
633	 0.129429980818971 
634	 0.129299366576193 
635	 0.129572714235071 
636	 0.129704714848132 
637	 0.12958027749656 
638	 0.129873897018245 
639	 0.129845663191332 
640	 0.129813607928473 
641	 0.130123723868898 
642	 0.129921416692116 
643	 0.129881838737785 
644	 0.129876436361366 
645	 0.129176238106256 
646	 0.128988698719884 
647	 0.129030793739398 
648	 0.129029219142517 
649	 0.129491550819833 
650	 0.12948233348457 
651	 0.129342863891671 
652	 0.129700128998686 
653	 0.129503883115462 
654	 0.129438107805833 
655	 0.129666325896742 
656	 0.129467560635804 
657	 0.129704640338189 
658	 0.129909252375916 
659	 0.129737687387648 
660	 0.130034624791602 
661	 0.13007995297428 
662	 0.129968015963393 
663	 0.130220628113737 
664	 0.130127346602101 
665	 0.130131541911173 
666	 0.130370260939015 
667	 0.130154873593888 
668	 0.130293096081278 
669	 0.130470780959785 
670	 0.130242051023135 
671	 0.130476616445103 
672	 0.130556928776399 
673	 0.130474049535788 
674	 0.130797234793455 
675	 0.130733571820875 
676	 0.130713689433469 
677	 0.131004738237889 
678	 0.130831944795645 
679	 0.130977034174052 
680	 0.131228967429185 
681	 0.131071224224553 
682	 0.131289911011465 
683	 0.131412932060144 
684	 0.131223123619983 
685	 0.130956466669779 
686	 0.130244969119393 
687	 0.129887826812344 
688	 0.130436397791797 
689	 0.13042994260506 
690	 0.130520415342431 
691	 0.130543698725709 
692	 0.129967137782951 
693	 0.130087066802305 
694	 0.130434242834099 
695	 0.130664868230587 
696	 0.131183757210506 
697	 0.131001376294278 
698	 0.130555254022445 
699	 0.130544101946211 
700	 0.130312126048595 
701	 0.130570984514013 
702	 0.131097424623292 
703	 0.131001043366987 
704	 0.131001432690675 
705	 0.130945364685174 
706	 0.130800733807681 
707	 0.131121389382099 
708	 0.131105513840042 
709	 0.131010279972518 
710	 0.131277370988288 
711	 0.131021542197263 
712	 0.130813030531525 
713	 0.130620498035571 
714	 0.129699235899404 
715	 0.128735421538688 
716	 0.127581908533769 
717	 0.12628484201091 
718	 0.125947555562759 
719	 0.126100599901107 
720	 0.126512880003842 
721	 0.12702086075307 
722	 0.126224578712447 
723	 0.125373603213077 
724	 0.125082166911888 
725	 0.124448580177497 
726	 0.124204334460645 
727	 0.123840706813311 
728	 0.123034352469448 
729	 0.122742631796209 
730	 0.122387584440147 
731	 0.122217977161157 
732	 0.122553995743486 
733	 0.1221913017038 
734	 0.121736807289186 
735	 0.121463009525781 
736	 0.121094117314155 
737	 0.121183361071069 
738	 0.121306161435498 
739	 0.121164997317524 
740	 0.121588705084097 
741	 0.121745921647183 
742	 0.121775267561606 
743	 0.122194899756674 
744	 0.122109919184073 
745	 0.12218611949906 
746	 0.122530265739774 
747	 0.122308268442465 
748	 0.122415622745432 
749	 0.122557264305246 
750	 0.122444793928544 
751	 0.122895537215452 
752	 0.122850284173645 
753	 0.122589601999696 
754	 0.122957187314283 
755	 0.12278397482717 
756	 0.12269663756669 
757	 0.122724238004777 
758	 0.121508805894924 
759	 0.120279402526059 
760	 0.118892720668107 
761	 0.117717143760111 
762	 0.118349538282525 
763	 0.118858527200929 
764	 0.119730234047159 
765	 0.121584705775963 
766	 0.122208499392907 
767	 0.122859489346957 
768	 0.123616902662517 
769	 0.123425444325179 
770	 0.123681832404446 
771	 0.12395980072403 
772	 0.123880125413269 
773	 0.124252346141995 
774	 0.124287918777957 
775	 0.124261226848455 
776	 0.124709887454741 
777	 0.124731785351197 
778	 0.124874734813924 
779	 0.125141887610338 
780	 0.124954500872419 
781	 0.125305847763716 
782	 0.125511483622289 
783	 0.125203924303704 
784	 0.125457425465595 
785	 0.12532632696226 
786	 0.125116622492605 
787	 0.125345657308263 
788	 0.125073666179556 
789	 0.125145529313647 
790	 0.125556396770147 
791	 0.125633675424033 
792	 0.126228494720229 
793	 0.126466641121265 
794	 0.126086292919101 
795	 0.126168353286711 
796	 0.126099685734719 
797	 0.126184270572061 
798	 0.126603735512118 
799	 0.126253669896123 
800	 0.126291418370803 
801	 0.126574791869719 
802	 0.12638723336095 
803	 0.126850175103649 
804	 0.127189190340831 
805	 0.127191160555238 
806	 0.12739125176354 
807	 0.127082099559878 
808	 0.126675142808053 
809	 0.12643668523916 
810	 0.125599184113972 
811	 0.125125740347009 
812	 0.12469272313678 
813	 0.123686232736784 
814	 0.123530685706683 
815	 0.123023235215395 
816	 0.122436720942357 
817	 0.123054108222435 
818	 0.122996655952539 
819	 0.123015344513022 
820	 0.123127927896296 
821	 0.122111054563537 
822	 0.121768814192453 
823	 0.121468698441182 
824	 0.120654742456758 
825	 0.120513025991867 
826	 0.119513769612838 
827	 0.118316364660477 
828	 0.118083380129518 
829	 0.116913597688796 
830	 0.116274484305086 
831	 0.115973713061356 
832	 0.114782999557634 
833	 0.114718653563544 
834	 0.114537214749924 
835	 0.113935650413952 
836	 0.114254145633181 
837	 0.113815541157053 
838	 0.113434743272625 
839	 0.113707795821743 
840	 0.113238979178008 
841	 0.113345036098101 
842	 0.113455872685605 
843	 0.112803965028632 
844	 0.113121805817763 
845	 0.112864627612301 
846	 0.112220482426634 
847	 0.1124172757903 
848	 0.111925205669324 
849	 0.111683497938052 
850	 0.111805767744875 
851	 0.111102771866985 
852	 0.111180322509316 
853	 0.111185367935831 
854	 0.1105986149189 
855	 0.110715004805296 
856	 0.110263737377207 
857	 0.109913673076564 
858	 0.110264283950963 
859	 0.109707536424477 
860	 0.109557391353488 
861	 0.109594935544909 
862	 0.109065946453331 
863	 0.10922682215577 
864	 0.108869007062737 
865	 0.108211370233331 
866	 0.108647436236254 
867	 0.108060822559765 
868	 0.107759900567818 
869	 0.108001072745701 
870	 0.10716971754257 
871	 0.107059568799828 
872	 0.106847670676793 
873	 0.106080519677822 
874	 0.106433593550197 
875	 0.105834255554651 
876	 0.105190773449717 
877	 0.105499783604591 
878	 0.104480877180506 
879	 0.104311583555384 
880	 0.104409627938321 
881	 0.103383244269924 
882	 0.103457181252442 
883	 0.103035742704023 
884	 0.102290821100895 
885	 0.10253561190134 
886	 0.101486871775662 
887	 0.101046066430493 
888	 0.101319315931924 
889	 0.100097113445629 
890	 0.100110313090691 
891	 9.98555267436385E-02 
892	 9.86781939383405E-02 
893	 9.90011827015859E-02 
894	 9.76966907188828E-02 
895	 9.64069731143889E-02 
896	 9.67370752380683E-02 
897	 9.50404094227365E-02 
898	 9.48744201184768E-02 
899	 9.48794481629518E-02 
900	 9.34477432397799E-02 
901	 9.45873862085616E-02 
902	 9.40851565134328E-02 
903	 9.34190912679439E-02 
904	 9.48362984557641E-02 
905	 9.28828440389697E-02 
906	 9.24028919067755E-02 
907	 9.27111177845852E-02 
908	 8.98672066798588E-02 
909	 9.06865974469117E-02 
910	 9.01965239899003E-02 
911	 8.84244699834617E-02 
912	 9.00214372226265E-02 
913	 8.83722152501924E-02 
914	 8.77258989452248E-02 
915	 8.84115722065826E-02 
916	 8.56005418689521E-02 
917	 8.58057454744477E-02 
918	 8.54731455902268E-02 
919	 8.37926672630196E-02 
920	 0.084982609468853 
921	 8.34023116795574E-02 
922	 8.18607071238403E-02 
923	 8.19215265716892E-02 
924	 7.90281947045578E-02 
925	 7.89350981362951E-02 
926	 7.86960900060049E-02 
927	 7.51619021511303E-02 
928	 7.64529795153382E-02 
929	 7.27967576053335E-02 
930	 0.068430593605661 
931	 7.33208874153589E-02 
932	 6.33948223888454E-02 
933	 6.33468843974882E-02 
934	 0.065392389305532 
935	 5.25633453887397E-02 
936	 6.11252146841935E-02 
937	 5.76502235650723E-02 
938	 5.31784926750388E-02 
939	 0.061572335362169 
940	 5.24945509006856E-02 
941	 0.051856226322182 
942	 5.48779643906258E-02 
943	 4.68272899260711E-02 
944	 0.055877971378684 
945	 5.06057583130239E-02 
946	 4.01528276550668E-02 
947	 5.00251367952889E-02 
948	 3.95265678814739E-02 
949	 3.83831048021054E-02 
950	 4.31504771270031E-02 
951	 3.42465696176003E-02 
952	 4.07424064469214E-02 
953	 3.83694530327562E-02 
954	 3.15103951022984E-02 
955	 3.93595538341516E-02 
956	 3.04112593231938E-02 
957	 3.03891563603961E-02 
958	 3.68204793844038E-02 
959	 0.030389890168115 
960	 3.38874670692078E-02 
961	 3.24935960032282E-02 
962	 2.82636991995662E-02 
963	 0.032929646581686 
964	 2.84590492976161E-02 
965	 2.86512400598558E-02 
966	 3.21472975959059E-02 
967	 2.82453062036252E-02 
968	 0.031453294857712 
969	 3.13539767704822E-02 
970	 2.84826675272012E-02 
971	 3.22494348979088E-02 
972	 0.029896087558194 
973	 3.00586518697616E-02 
974	 3.26167368101496E-02 
975	 2.87502532784043E-02 
976	 3.10674679973295E-02 
977	 3.06768212049244E-02 
978	 2.85241720823874E-02 
979	 3.32346151555136E-02 
980	 2.93956698540169E-02 
981	 3.00476680623785E-02 
982	 3.36184388021791E-02 
983	 2.82854586013444E-02 
984	 3.23271646724566E-02 
985	 3.31217237913629E-02 
986	 3.03860210021087E-02 
987	 3.35624222174494E-02 
988	 3.22538396298958E-02 
989	 3.31844477371387E-02 
990	 3.44514385332499E-02 
991	 2.94828837691912E-02 
992	 3.27549248206711E-02 
993	 3.23445367382945E-02 
994	 3.03207015641691E-02 
995	 3.62148272464871E-02 
996	 3.29155942704742E-02 
997	 3.40478214533849E-02 
998	 3.72888159954514E-02 
999	 3.29282479216472E-02 
1000	 3.61319628945513E-02 
1001	 3.91740274083702E-02 
1002	 3.92802963338547E-02 
1003	 3.96445210163998E-02 
1004	 3.98722090975427E-02 
1005	 4.02555679395512E-02 
1006	 4.11181837690819E-02 
1007	 4.14222231261906E-02 
1008	 4.14625360218935E-02 
1009	 4.21240670373627E-02 
1010	 4.23217794208576E-02 
1011	 4.26786324916817E-02 
1012	 4.33546318954996E-02 
1013	 4.38114586996422E-02 
1014	 4.44857611862483E-02 
1015	 4.54257518642999E-02 
1016	 4.61003369243862E-02 
1017	 4.68054794256563E-02 
1018	 4.74267569488375E-02 
1019	 4.79480408903777E-02 
1020	 0.04844188695059 
1021	 4.89203216913184E-02 
1022	 4.91214235045749E-02 
1023	 4.98474516972195E-02 
1024	 5.05255837594669E-02 
1025	 5.15474199700229E-02 
1026	 5.26508177052999E-02 
1027	 5.34459824655699E-02 
1028	 5.40258954823921E-02 
1029	 5.48314839361131E-02 
1030	 5.55615839062951E-02 
1031	 5.64039071260519E-02 
1032	 5.75296661159887E-02 
1033	 5.82917463514634E-02 
1034	 5.89332845183737E-02 
1035	 5.94596183770278E-02 
1036	 5.95249119199659E-02 
1037	 6.00222052234608E-02 
1038	 6.03984501142778E-02 
1039	 6.13872723159788E-02 
1040	 6.24483056892759E-02 
1041	 6.36068284626156E-02 
1042	 6.45425477757694E-02 
1043	 6.55072510284011E-02 
1044	 6.61169419573599E-02 
1045	 6.64607052975774E-02 
1046	 6.69310470942526E-02 
1047	 6.70212718887436E-02 
1048	 6.76478602159113E-02 
1049	 6.88360173211352E-02 
1050	 6.94827428525499E-02 
1051	 7.01198846549546E-02 
1052	 0.070650878651051 
1053	 7.06372485438567E-02 
1054	 7.09911227486455E-02 
1055	 0.07170137286694 
1056	 7.22241483773737E-02 
1057	 0.072719577093541 
1058	 7.33406884185533E-02 
1059	 0.073617062711231 
1060	 7.35033722676175E-02 
1061	 0.073846694448891 
1062	 7.42555118856844E-02 
1063	 7.46260240928308E-02 
1064	 0.075362036009798 
1065	 7.57077886506018E-02 
1066	 7.56922165667854E-02 
1067	 7.58566846927055E-02 
1068	 7.60372096824022E-02 
1069	 7.61498778169135E-02 
1070	 7.64539118028245E-02 
1071	 7.64231560588328E-02 
1072	 7.61240109324109E-02 
1073	 7.56962964633602E-02 
1074	 7.55352966430044E-02 
1075	 7.52841638184565E-02 
1076	 0.075146636988906 
1077	 7.54088368615374E-02 
1078	 7.51878420792099E-02 
1079	 7.46679029881165E-02 
1080	 7.42358392876358E-02 
1081	 7.34688196544547E-02 
1082	 7.31686445358034E-02 
1083	 7.33013332895427E-02 
1084	 7.30192060428699E-02 
1085	 0.072930719162425 
1086	 7.24863962563042E-02 
1087	 7.13171887667869E-02 
1088	 7.05997660703166E-02 
1089	 7.00113121222791E-02 
1090	 6.93012307147219E-02 
1091	 6.89877264546933E-02 
1092	 6.92062459089708E-02 
1093	 6.87583460304514E-02 
1094	 6.82166918165049E-02 
1095	 6.76060053808472E-02 
1096	 6.63113376897233E-02 
1097	 0.065697628621753 
1098	 6.58635480661393E-02 
1099	 6.52809002830662E-02 
1100	 6.43999296833889E-02 
1101	 6.36173717431568E-02 
1102	 6.22289151622196E-02 
1103	 0.061213133589569 
1104	 6.04425764658098E-02 
1105	 5.99991738123976E-02 
1106	 5.95524883735389E-02 
1107	 5.90850100270446E-02 
1108	 5.84625067791041E-02 
1109	 5.82305689450074E-02 
1110	 5.75329371822171E-02 
1111	 5.60092603108679E-02 
1112	 5.53502081201683E-02 
1113	 5.52133634728476E-02 
1114	 5.47160093962893E-02 
1115	 5.51155240792981E-02 
1116	 5.44741931565558E-02 
1117	 5.15526486384571E-02 
1118	 5.03577400074318E-02 
1119	 5.08097673120812E-02 
1120	 5.01092893655024E-02 
1121	 5.22199080646993E-02 
1122	 0.049757172642366 
1123	 4.50131775906396E-02 
1124	 4.77067810625474E-02 
1125	 4.78659644441358E-02 
1126	 4.52355625833634E-02 
1127	 4.15790828466083E-02 
1128	 3.52762838040466E-02 
1129	 3.53829781753546E-02 
1130	 4.14593833362492E-02 
1131	 4.01897523659817E-02 
1132	 3.84585806207546E-02 
1133	 3.65966837471192E-02 
1134	 3.12375541626833E-02 
1135	 3.00615344214953E-02 
1136	 3.15944193918869E-02 
1137	 3.10094884301766E-02 
1138	 3.03692951715403E-02 
1139	 2.93024266230521E-02 
1140	 2.62861088245926E-02 
1141	 2.54714127455376E-02 
1142	 2.60493004352075E-02 
1143	 2.42000595589611E-02 
1144	 2.38545813283346E-02 
1145	 2.53576063501095E-02 
1146	 2.36119794242998E-02 
1147	 0.021600961390324 
1148	 0.020973274576373 
1149	 1.96162781324809E-02 
1150	 1.90276025341166E-02 
1151	 0.020365886351463 
1152	 1.98613279907306E-02 
1153	 0.018305681654315 
1154	 1.75705869115641E-02 
1155	 1.67746232393114E-02 
1156	 1.66622326759817E-02 
1157	 1.64056168797921E-02 
1158	 1.62821230128997E-02 
1159	 1.72975707273971E-02 
1160	 1.73158993256058E-02 
1161	 1.63201062242158E-02 
1162	 1.63579465116831E-02 
1163	 1.65241719889399E-02 
1164	 0.016442383457056 
1165	 1.69884904334446E-02 
1166	 1.70337133804766E-02 
1167	 0.016379239235076 
1168	 1.63899980697065E-02 
1169	 1.62611187058014E-02 
1170	 1.59070212668933E-02 
1171	 1.59884352255992E-02 
1172	 1.62941282469877E-02 
1173	 1.62349191307765E-02 
1174	 1.60395891817342E-02 
1175	 1.66715602774049E-02 
1176	 0.0167659616253 
1177	 1.61830742316651E-02 
1178	 0.016153174424929 
1179	 1.62058499559261E-02 
1180	 1.58815304658279E-02 
1181	 1.60066360369776E-02 
1182	 1.65643913439736E-02 
1183	 1.64146371818523E-02 
1184	 0.015705283540356 
1185	 1.56658982567921E-02 
1186	 1.58457242975474E-02 
1187	 1.57515968408192E-02 
1188	 1.62515058078892E-02 
1189	 1.66269695485779E-02 
1190	 1.62738240646801E-02 
1191	 1.62677033260315E-02 
1192	 1.62319523489613E-02 
1193	 1.62635747703751E-02 
1194	 1.61123976476465E-02 
1195	 1.62148263030717E-02 
1196	 1.61534355253894E-02 
1197	 1.62110742645559E-02 
1198	 1.63938030204618E-02 
1199	 1.62375073356985E-02 
1200	 1.63921037213133E-02 
1201	 1.65641769463418E-02 
1202	 1.65181686865055E-02 
1203	 1.67659471175259E-02 
1204	 1.67534275043784E-02 
1205	 1.66509488344883E-02 
1206	 1.67804577135371E-02 
1207	 1.67394002961276E-02 
1208	 1.66806926084874E-02 
1209	 1.67762157803287E-02 
1210	 1.67364772929999E-02 
1211	 1.67256610488738E-02 
1212	 1.70222073098286E-02 
1213	 1.70942386627608E-02 
1214	 0.016986879973807 
1215	 1.66858822023619E-02 
1216	 1.67104372093933E-02 
1217	 1.67942147583637E-02 
1218	 1.67349116427898E-02 
1219	 1.70007083961903E-02 
1220	 1.73084258429592E-02 
1221	 1.72211302667517E-02 
1222	 1.71536816837583E-02 
1223	 1.72193947775207E-02 
1224	 1.72408692145583E-02 
1225	 1.72824257841983E-02 
1226	 1.75490298001595E-02 
1227	 1.78990189238251E-02 
1228	 1.78080507846883E-02 
1229	 1.74684035055223E-02 
1230	 1.74463269124002E-02 
1231	 1.74652572051063E-02 
1232	 1.72874893368634E-02 
1233	 1.72768856400759E-02 
1234	 1.73389045683939E-02 
1235	 1.73811996791748E-02 
1236	 1.72659754232584E-02 
1237	 0.017360940344238 
1238	 1.76682702051384E-02 
1239	 1.79727771723239E-02 
1240	 1.78945093175138E-02 
1241	 1.79915523663384E-02 
1242	 1.82076445800418E-02 
1243	 1.79184419967826E-02 
1244	 1.75854746232332E-02 
1245	 1.75375928706836E-02 
1246	 1.76895190386754E-02 
1247	 1.75899587838311E-02 
1248	 1.73611966220399E-02 
1249	 1.75113619697645E-02 
1250	 1.76556598238867E-02 
1251	 0.01763434957323 
1252	 1.78860467302376E-02 
1253	 0.018247645650925 
1254	 1.81646114065538E-02 
1255	 1.80531604865263E-02 
1256	 1.80632893801407E-02 
1257	 1.81885180604232E-02 
1258	 1.81190902536565E-02 
1259	 1.79942239227842E-02 
1260	 1.79987807938494E-02 
1261	 1.79417977903441E-02 
1262	 1.78441114930302E-02 
1263	 1.78241335995481E-02 
1264	 1.77719004021126E-02 
1265	 1.75919302238916E-02 
1266	 1.77083947315925E-02 
1267	 1.76943611144335E-02 
1268	 1.75382072973509E-02 
1269	 1.76731629490317E-02 
1270	 1.78619634536832E-02 
1271	 0.017768810458219 
1272	 0.0175433286715 
1273	 1.76274064464204E-02 
1274	 1.80407741340391E-02 
1275	 0.018211838455909 
1276	 1.81529596854501E-02 
1277	 0.018111267195176 
1278	 1.78757678450424E-02 
1279	 0.017571920231144 
1280	 0.017686724652306 
1281	 1.77031678510701E-02 
1282	 1.73198054282376E-02 
1283	 1.72405068038075E-02 
1284	 1.77597352881744E-02 
1285	 1.77597211908798E-02 
1286	 1.74112913991835E-02 
1287	 1.73977754428807E-02 
1288	 1.72723000051908E-02 
1289	 1.71659330409831E-02 
1290	 1.71702615830237E-02 
1291	 1.75537419461526E-02 
1292	 1.76728550024528E-02 
1293	 1.73698985560192E-02 
1294	 1.71842818850362E-02 
1295	 1.71031598633999E-02 
1296	 1.68454901791847E-02 
1297	 1.66180050354408E-02 
1298	 1.65327258650764E-02 
1299	 0.016164921880696 
1300	 1.56981741238699E-02 
1301	 1.56746742830111E-02 
1302	 1.58672548662024E-02 
1303	 1.57746029714951E-02 
1304	 1.57049483095925E-02 
1305	 1.57992967966215E-02 
1306	 1.56526724429193E-02 
1307	 1.54047562123065E-02 
1308	 1.52170070338167E-02 
1309	 1.47745484009653E-02 
1310	 1.43944557044616E-02 
1311	 1.41089815086549E-02 
1312	 1.39715595635284E-02 
1313	 0.013896475787538 
1314	 1.37411646306375E-02 
1315	 1.36551817364902E-02 
1316	 0.01374872499286 
1317	 1.39283194243736E-02 
1318	 1.38911853897023E-02 
1319	 1.41280616536335E-02 
1320	 1.40573280432741E-02 
1321	 1.34089093808275E-02 
1322	 1.30414470094908E-02 
1323	 0.01267482689133 
1324	 1.20177481307314E-02 
1325	 1.22242270156646E-02 
1326	 1.24122143829267E-02 
1327	 1.20853236062355E-02 
1328	 1.22668526366729E-02 
1329	 0.012406799418586 
1330	 1.19371872769089E-02 
1331	 0.011516941109818 
1332	 1.12812079732371E-02 
1333	 1.04616296456667E-02 
1334	 9.42194053644906E-03 
1335	 8.91847185906142E-03 
1336	 9.5048826047534E-03 
1337	 9.98744181393262E-03 
1338	 1.08090505945247E-02 
1339	 1.08211353680888E-02 
1340	 1.09809998820691E-02 
1341	 1.11622550104585E-02 
1342	 9.8827740313476E-03 
1343	 9.28970557696861E-03 
1344	 1.03054471437422E-02 
1345	 1.05515730128306E-02 
1346	 9.25895428156916E-03 
1347	 8.74330557785819E-03 
1348	 1.09196569203041E-02 
1349	 9.65335379860358E-03 
1350	-1.31692897361149E-03 
1351	-4.63719638272396E-03 
1352	 6.62173265759666E-03 
1353	 3.95320929359703E-03 
1354	-3.17409013146985E-03 
1355	 5.86937244947654E-03 
1356	-1.11316573327312E-02 
1357	-5.59565876992549E-02 
1358	-6.64346165036632E-02 
1359	-5.52629926314479E-02 
1360	-7.43970729766258E-03 
1361	-4.67048225931684E-02 
1362	-9.82800843551683E-02 
1363	 5.02900813971706E-02 
1364	 0.131950530926221 
1365	 2.60775719204272E-02 
1366	-0.170739224352789 
1367	-0.137627135923245 
1368	-6.28445185736591E-02 
1369	 4.53738756498349E-02 
1370	-0.042512535112734 
1371	-4.61866504336076E-02 
1372	-4.10046829594436E-02 
1373	-0.418741305039275 
1374	-0.507746580172675 
1375	-9.97415208673015E-02 
1376	-2.21038300860834E-02 
1377	-0.327426349787175 
1378	-0.264694076969016 
1379	 0.127016890941933 
1380	 8.71770684248628E-02 
1381	-0.356210710165625 
1382	-0.448598765695489 
1383	-0.888167536007858 
1384	-1.05825316183907 
1385	-0.422659097114348 
1386	-7.79128748920246E-02 
1387	 0.275047426708561 
1388	 0.254855160599412 
1389	-0.565585752851838 
1390	-0.626473443680403 
1391	-0.505245880232396 
1392	-0.933812637612936 
1393	-0.64359693710519 
1394	-0.508721414882748 
1395	-0.596390737203509 
1396	-0.43352522896539 
1397	-0.570947546228472 
1398	-0.35487139698613 
1399	-0.552430156910697 
1400	-1.01340392925125 
1401	-3.38670859099977E-02 
1402	 0.220203984697133 
1403	-9.24567413587636E-02 
1404	 0.135816190595388 
1405	 0.176971434488899 
1406	-0.442286701892621 
1407	-0.46801463719615 
1408	-0.191539188272086 
1409	-0.145540439306083 
1410	-0.116526458511168 
1411	-0.10505608607174 
1412	-9.43547328253253E-02 
1413	-9.28416715012948E-02 
1414	-0.146663730169186 
1415	-0.155480173995766 
1416	-0.169353765094141 
1417	-7.63433469942666E-02 
1418	 7.22752672086534E-02 
1419	 8.27301869439447E-02 
1420	 7.27164552730505E-02 
1421	 7.44464688504912E-02 
1422	 6.43012555416809E-02 
1423	 2.98658669366759E-02 
1424	-1.02189545343275E-02 
1425	-1.54418020584135E-02 
1426	-3.85815964520477E-02 
1427	-4.14447592592266E-02 
1428	-7.95900086516432E-03 
1429	 4.66397723211392E-03 
1430	 1.04490564394616E-02 
1431	 1.05443510458479E-02 
1432	-5.40729462242651E-04 
1433	 2.96553267386443E-03 
1434	 1.35812484236709E-02 
1435	 1.40324608420877E-02 
1436	 0.025587330447735 
1437	 2.21625902084277E-02 
1438	 8.04916445157674E-03 
1439	 2.78207761775892E-03 
1440	-2.03889759302557E-02 
1441	-2.51615058689974E-02 
1442	-3.54634826072882E-04 
1443	 7.36089048633957E-03 
1444	 1.45455888615678E-02 
1445	 2.53711095646432E-02 
1446	 1.60742928411137E-02 
1447	 7.25461975718706E-03 
1448	 4.71284661300683E-03 
1449	 1.6254557962341E-03 
1450	 2.71946497345989E-03 
1451	 3.74731069957951E-03 
1452	 6.4857565319607E-03 
1453	 9.70967060491333E-03 
1454	 1.05007842937633E-02 
1455	 8.89882280077788E-03 
1456	 8.63735476827976E-03 
1457	 8.96468236648681E-03 
1458	 8.7996884003268E-03 
1459	 7.49042169986332E-03 
1460	 7.98402350177755E-03 
1461	 1.00215908253791E-02 
1462	 9.68554065647137E-03 
1463	 0.009732764688428 
1464	 0.008629011073436 
1465	 3.25353690617722E-03 
1466	 2.39554813843465E-03 
1467	 4.82098868050266E-03 
1468	 4.85114552188486E-03 
1469	 5.80844236819117E-03 
1470	 6.33734584496437E-03 
1471	 6.07435101628909E-03 
1472	 4.73089977239744E-03 
1473	 1.8820034327779E-03 
1474	 2.32940278879128E-03 
1475	 3.39222847692284E-03 
1476	 3.63125320923521E-03 
1477	 6.31609935234472E-03 
1478	 7.12099867768476E-03 
1479	 5.72457008429824E-03 
1480	 5.19342240004301E-03 
1481	 4.15060792070084E-03 
1482	 5.06370259485214E-03 
1483	 7.76263136803724E-03 
1484	 7.64774756182788E-03 
1485	 6.79836685894413E-03 
1486	 7.17579786409334E-03 
1487	 7.11131958660723E-03 
1488	 6.75596087030561E-03 
1489	 7.09465261430788E-03 
1490	 7.22236285222051E-03 
1491	 6.15128006691678E-03 
1492	 6.18809592482264E-03 
1493	 7.70246761218674E-03 
1494	 7.70552500231573E-03 
1495	 6.80493296565011E-03 
1496	 6.85103367014774E-03 
1497	 7.17856624574588E-03 
1498	 6.86038822971134E-03 
1499	 6.08021523055786E-03 
1500	 6.3232916262598E-03 
1501	 7.24746300491726E-03 
1502	 6.99916798903697E-03 
1503	 6.37329302688238E-03 
1504	 6.73260623251368E-03 
1505	 6.90088281759509E-03 
1506	 6.84050591069463E-03 
1507	 7.11043842786165E-03 
1508	 7.36399429685371E-03 
1509	 7.21519609559809E-03 
1510	 6.61197937836583E-03 
1511	 6.63593826160888E-03 
1512	 7.34708112697248E-03 
1513	 7.10494223207315E-03 
1514	 6.72091036539709E-03 
1515	 7.21336526338374E-03 
1516	 7.42385249324812E-03 
1517	 7.48079862621101E-03 
1518	 7.66649352802184E-03 
1519	 7.56031769242651E-03 
1520	 7.50182635610212E-03 
1521	 7.41370082842645E-03 
1522	 7.17847643376518E-03 
1523	 7.20281432805734E-03 
1524	 7.38146651279812E-03 
1525	 7.37613943617882E-03 
1526	 7.33646939348607E-03 
1527	 7.2559735072708E-03 
1528	 7.03464408163958E-03 
1529	 7.06837490295444E-03 
1530	 7.27595137403863E-03 
1531	 7.28631046255113E-03 
1532	 7.34838373967177E-03 
1533	 7.50804549263065E-03 
1534	 7.59260899899375E-03 
1535	 7.64055150267548E-03 
1536	 7.47559939718411E-03 
1537	 7.46830688772896E-03 
1538	 7.90296488490475E-03 
1539	 7.94952148683517E-03 
1540	 7.82643894315152E-03 
1541	 8.11657348393042E-03 
1542	 8.06287352465932E-03 
1543	 7.8914869425125E-03 
1544	 8.2302652447609E-03 
1545	 8.33432720807287E-03 
1546	 8.22090509322726E-03 
1547	 8.36241502447009E-03 
1548	 8.39548432116158E-03 
1549	 8.4027048783406E-03 
1550	 8.34621261755696E-03 
1551	 8.30048608840056E-03 
1552	 8.70445171830436E-03 
1553	 9.00975129711891E-03 
1554	 8.8341985907149E-03 
1555	 8.70417559839071E-03 
1556	 8.75768538595963E-03 
1557	 8.80235697112792E-03 
1558	 8.68827049196925E-03 
1559	 8.38625309804399E-03 
1560	 8.30752824370545E-03 
1561	 8.39861473518245E-03 
1562	 8.53178056737077E-03 
1563	 8.73643616047068E-03 
1564	 8.67147864090074E-03 
1565	 8.56573192054364E-03 
1566	 8.73121132137908E-03 
1567	 9.02291717831314E-03 
1568	 9.25486596998395E-03 
1569	 9.27341831871964E-03 
1570	 9.10065053395177E-03 
1571	 9.01820531551769E-03 
1572	 9.05075604478204E-03 
1573	 8.95270397515891E-03 
1574	 9.03862530796208E-03 
1575	 9.0381116350716E-03 
1576	 8.73528760951296E-03 
1577	 8.63704755473915E-03 
1578	 8.54004597765434E-03 
1579	 8.57851787504983E-03 
1580	 8.75827111906598E-03 
1581	 8.66380504089399E-03 
1582	 8.52650974374465E-03 
1583	 8.61254539163825E-03 
1584	 8.69353761956796E-03 
1585	 8.65878871660053E-03 
1586	 8.89886292270332E-03 
1587	 8.97995254151916E-03 
1588	 8.76365900597164E-03 
1589	 8.83815552546225E-03 
1590	 8.78225677895145E-03 
1591	 8.56808097569499E-03 
1592	 8.67328001296119E-03 
1593	 9.00069427337773E-03 
1594	 9.16638661821985E-03 
1595	 9.00447584719953E-03 
1596	 8.93524125405953E-03 
1597	 8.95867440482879E-03 
1598	 8.7141494834165E-03 
1599	 8.67167154508878E-03 
1600	 9.01034709505215E-03 
1601	 8.95761676885602E-03 
1602	 8.87481918612054E-03 
1603	 9.29942074958734E-03 
1604	 9.22034135667561E-03 
1605	 8.86070054022153E-03 
1606	 9.27193375537529E-03 
1607	 9.58958537256211E-03 
1608	 9.34090459414556E-03 
1609	 9.45266645898197E-03 
1610	 9.63298431784795E-03 
1611	 9.37117676048176E-03 
1612	 9.26689038421208E-03 
1613	 9.20508969911859E-03 
1614	 8.79419403766879E-03 
1615	 8.73162539332526E-03 
1616	 9.22429449765447E-03 
1617	 9.39939723258609E-03 
1618	 9.22901726646743E-03 
1619	 9.10589258291544E-03 
1620	 8.85082013976645E-03 
1621	 8.89826158009619E-03 
1622	 9.43895674848108E-03 
1623	 9.40079914134707E-03 
1624	 9.04992118037408E-03 
1625	 9.13225018027659E-03 
1626	 9.01279473774759E-03 
1627	 9.04141081466243E-03 
1628	 9.33111588999854E-03 
1629	 9.14858227907483E-03 
1630	 8.96610688746481E-03 
1631	 8.96761935519942E-03 
1632	 8.89532247561639E-03 
1633	 9.09199595941558E-03 
1634	 9.26382981813343E-03 
1635	 9.23873825803147E-03 
1636	 9.35360245466465E-03 
1637	 9.28611689439121E-03 
1638	 0.009193919098403 
1639	 9.29220290440602E-03 
1640	 9.38275515998849E-03 
1641	 9.2745179564885E-03 
1642	 9.14029240265652E-03 
1643	 9.52590510820205E-03 
1644	 9.51180750355288E-03 
1645	 9.08018283949606E-03 
1646	 9.3180302248442E-03 
1647	 9.31184841631124E-03 
1648	 9.12861170890385E-03 
1649	 9.39198253307812E-03 
1650	 9.10097522038036E-03 
1651	 8.59344948530047E-03 
1652	 8.64697496466586E-03 
1653	 8.87001533987231E-03 
1654	 9.00912102598106E-03 
1655	 9.38496830509359E-03 
1656	 9.45856274021803E-03 
1657	 9.20811610912062E-03 
1658	 9.28638299901882E-03 
1659	 9.25926187741901E-03 
1660	 9.18560794564984E-03 
1661	 9.61261822812487E-03 
1662	 9.66235253176833E-03 
1663	 9.11855817200107E-03 
1664	 9.1159117590833E-03 
1665	 9.39352027123237E-03 
1666	 9.38792362008032E-03 
1667	 9.63850942395016E-03 
1668	 9.67605160822819E-03 
1669	 9.3709235546338E-03 
1670	 9.51759294223599E-03 
1671	 9.88758629750706E-03 
1672	 1.01625854119862E-02 
1673	 9.80574476364715E-03 
1674	 0.009243507994329 
1675	 9.18571267743832E-03 
1676	 9.0747924773105E-03 
1677	 9.04497161748322E-03 
1678	 9.46281287552874E-03 
1679	 9.41949048431823E-03 
1680	 8.8009372444881E-03 
1681	 8.92136140086673E-03 
1682	 9.60227013744472E-03 
1683	 9.62100624295268E-03 
1684	 9.65894797305156E-03 
1685	 9.92953799869945E-03 
1686	 9.4416643397316E-03 
1687	 8.98657463535769E-03 
1688	 9.14151078332269E-03 
1689	 8.95315996169458E-03 
1690	 8.75858196464716E-03 
1691	 8.91203278221025E-03 
1692	 8.97176840530298E-03 
1693	 9.08851005515161E-03 
1694	 8.85208142233046E-03 
1695	 8.9115613788542E-03 
1696	 9.56295704153282E-03 
1697	 9.63585125555791E-03 
1698	 9.80797684688143E-03 
1699	 9.68060767288478E-03 
1700	 8.74507468429825E-03 
1701	 8.64828972814448E-03 
1702	 9.17036590783617E-03 
1703	 9.49388206009395E-03 
1704	 9.44345259466306E-03 
1705	 9.06795574407916E-03 
1706	 8.65635599643702E-03 
1707	 8.31834581691124E-03 
1708	 8.58109009978729E-03 
1709	 8.92301421123494E-03 
1710	 8.85039683973305E-03 
1711	 9.11423547292316E-03 
1712	 9.30290406702327E-03 
1713	 8.56142540770897E-03 
1714	 8.70604352350335E-03 
1715	 8.8217844728237E-03 
1716	 8.8897811546506E-03 
1717	 9.54206845407231E-03 
1718	 9.60287856880197E-03 
1719	 9.33863983998136E-03 
1720	 9.07137198043892E-03 
1721	 8.58141698095995E-03 
1722	 8.56519840682978E-03 
1723	 8.76734774686389E-03 
1724	 9.28463657263097E-03 
1725	 0.010110837607563 
1726	 1.00446741881569E-02 
1727	 0.00935224486088 
1728	 9.30610951776631E-03 
1729	 9.49767727699991E-03 
1730	 9.17917844745959E-03 
1731	 9.53579710513751E-03 
1732	 9.83781014600343E-03 
1733	 8.91480928054815E-03 
1734	 8.91734436993705E-03 
1735	 9.7138753280656E-03 
1736	 9.50646195466827E-03 
1737	 9.56129366671045E-03 
1738	 9.4629395533829E-03 
1739	 8.17381558513824E-03 
1740	 7.6294378398044E-03 
1741	 7.89005377890672E-03 
1742	 8.27407236689421E-03 
1743	 8.73648198549639E-03 
1744	 9.02742661324167E-03 
1745	 9.35087594328623E-03 
1746	 9.25775241349094E-03 
1747	 9.19474257372362E-03 
1748	 8.55682199007801E-03 
1749	 8.18934689156114E-03 
1750	 7.95625521528537E-03 
1751	 8.35149922338665E-03 
1752	 9.74158512467994E-03 
1753	 9.90571450323225E-03 
1754	 9.69923420189906E-03 
1755	 9.5090779154529E-03 
1756	 7.80580681603823E-03 
1757	 8.14415179504575E-03 
1758	 9.6433996747487E-03 
1759	 9.09554435209689E-03 
1760	 9.49312934458111E-03 
1761	 1.01993694473403E-02 
1762	 8.33279400513052E-03 
1763	 8.29139153279995E-03 
1764	 9.59610096926157E-03 
1765	 8.91409011691753E-03 
1766	 8.88905354260008E-03 
1767	 8.37788964814257E-03 
1768	 6.59971951006898E-03 
1769	 6.65172745319708E-03 
1770	 8.25534305364888E-03 
1771	 1.02581858563655E-02 
1772	 1.09346185379088E-02 
1773	 9.09255794616157E-03 
1774	 6.88979622686287E-03 
1775	 6.04085713150793E-03 
1776	 6.32923347823674E-03 
1777	 1.10720461450069E-02 
1778	 0.011667770235789 
1779	 8.54257890239958E-03 
1780	 7.63518437031408E-03 
1781	 5.19432278232071E-03 
1782	 4.9655576822308E-03 
1783	 8.93552628359656E-03 
1784	 9.42140843282856E-03 
1785	 7.66382663482891E-03 
1786	 7.54179287926976E-03 
1787	 6.56093065278885E-03 
1788	 6.97971493735404E-03 
1789	 1.05283058077755E-02 
1790	 1.15646562336158E-02 
1791	 1.23122586053317E-02 
1792	 0.013733011768632 
1793	 1.10942966471255E-02 
1794	 0.012410165168761 
1795	 1.66968730820651E-02 
1796	 1.62996221645957E-02 
1797	 0.018782262196809 
1798	 1.63598187783333E-02 
1799	 7.44272917204434E-03 
1800	 1.46944131449231E-02 
1801	 1.37401412665554E-02 
1802	 3.16813324837036E-03 
1803	 9.23981727752746E-03 
1804	 3.62717330079663E-02 
1805	 4.40231750282212E-02 
1806	 6.84228798314972E-02 
1807	 8.22066241534162E-02 
1808	-3.46060222881088E-03 
1809	-5.07852575289386E-02 
1810	-3.67745388382571E-02 
1811	-6.81014439571203E-02 
1812	-0.196874183942202 
1813	-0.242078005736014 
1814	-0.108882886156199 
1815	-0.112115944985828 
1816	-0.117553087883031 
1817	-0.188751302302814 
1818	-0.3927339047591 
1819	-1.22764922371412E-02 
1820	 0.282231062568309 
1821	 0.386689922414534 
1822	 0.466809437196608 
1823	 0.839970373399165 
1824	 0.617534912261185 
1825	-0.211330064489967 
1826	-0.408830033104076 
1827	-0.701647148082089 
1828	-0.701317896417033 
1829	-0.409859703872769 
1830	-0.284028750071584 
1831	-0.557633101881558 
1832	-0.540605392491458 
1833	-0.315754327321215 
1834	-0.332868915505002 
1835	-0.495640297315538 
1836	-0.694871251973478 
1837	-1.55653058614631 
1838	-1.47442202660128 
1839	-1.43018603865803 
1840	-0.589383209042993 
1841	-7.00344749824979E-02 
1842	 2.18818411595846E-02 
1843	-2.14296011423747E-02 
1844	-0.88578450808171 
1845	-1.83839193085686 
1846	 3.9575516584475 
1847	 2.34512115875954 
1848	 84.8882805268146 
1849	-1.70589449417327 
1850	-1.24457881032862 
1851	-0.355176051386565 
1852	-1.03497769702382 
1853	-2.08920903440138 
1854	-1.92217549491851 
1855	-0.687479464266688 
1856	-0.717716837487622 
1857	 2.25906006287618 
1858	 1.02089003792561 
1859	-0.856197347271668 
1860	-1.19728224925392 
1861	-0.660354632528366 
1862	-0.465469765992538 
1863	-1.49715818016151 
1864	 19.2518725715302 
1865	 9.27283126182285 
1866	-6.49402653815286 
1867	-4.82970172134808 
1868	-3.3999080296898 
1869	-2.82263774983854 
1870	-2.78919836177369 
1871	-1.45443201808631 
1872	-1.24596608951097 
1873	-1.01514974397073 
1874	-0.804994243632264 
1875	-1.11427980062743 
1876	-0.917402231300807 
1877	-0.34514231943676 
1878	-0.313543685133628 
1879	-0.272477835434032 
1880	-0.366666222990604 
1881	-0.948578903046533 
1882	-1.28685653466632 
1883	-0.308575612754348 
1884	 5.03280881263957E-02 
1885	-0.137693543227161 
1886	-2.52948243078099 
1887	-15.6511463336775 
1888	 34.137872653922 
1889	 16.6407432503389 
1890	-9.18646736763747 
1891	-2.1555018679373 
1892	-0.822869905669047 
1893	-1.66594574310414 
1894	-7.18185033234409 
1895	-4.55886674045144 
1896	 24.1795764657618 
1897	 1.87935852248068 
1898	-0.346505628328536 
1899	-1.22363948298637 
1900	-1.53247258605595 
1901	-1.22583860121303 
1902	 3.13744779587848 
1903	-29.7793625053885 
1904	 8.04969767388373 
1905	-10.1734047833139 
1906	 18.0417608310014 
1907	 1.28021799097592 
1908	 16.1965300400887 
1909	-1.16126648484485 
1910	-0.209705169071391 
1911	 1.70146955247019 
1912	 1.12110046801615 
1913	 0.926769415547082 
1914	-2.43386955422799 
1915	-3.95237728835572 
1916	-2.48140736077949 
1917	-4.96959200206916 
1918	 27.5396721075062 
1919	-0.516847073253562 
1920	-0.997882598664981 
1921	-2.72785528818532 
1922	-3.52443351692927 
1923	-1.57317211158863 
1924	 0.889747425201543 
1925	 1.49772267523599 
1926	 1.37587890549941 
1927	 0.685836858725052 
1928	 0.369972625497296 
1929	-4.16506314813558E-03 
1930	-0.849719385063521 
1931	-8.453544652198 
1932	 63.525878165259 
1933	 6.64462244620534 
1934	 7.75665931575775 
1935	 4.20834356542048 
1936	 1.57436157118814 
1937	 0.110792478530215 
1938	-0.323698419936114 
1939	-0.148169145651746 
1940	 0.186269506274894 
1941	 0.183973060614072 
1942	 0.211117575878774 
1943	 0.268110190107417 
1944	 8.94694825008512E-02 
1945	 7.80451111100971E-02 
1946	 0.114033051980879 
1947	 8.85761623807453E-02 
1948	 9.31659503021246E-02 
1949	 4.64229065551168E-02 
1950	 0.043402136916912 
1951	 0.087117403248139 
1952	 9.66379427730085E-02 
1953	 9.14419943200827E-02 
1954	 6.83088804833621E-02 
1955	 6.42545035197245E-02 
1956	 8.26447898039106E-02 
1957	 5.54405860995941E-02 
1958	 3.19471139343862E-02 
1959	 0.029274175632595 
1960	 1.11168063115474E-02 
1961	 9.95789505337473E-03 
1962	 1.62253188746385E-02 
1963	 1.65820401260263E-02 
1964	 1.45675419877985E-02 
1965	 1.38276030370406E-02 
1966	 0.01433732862662 
1967	 1.58332737032082E-02 
1968	 1.31243979293848E-02 
1969	 0.014140268460947 
1970	 1.82340540644464E-02 
1971	 1.45413024325967E-02 
1972	 0.009194617237575 
1973	 8.59175396804892E-03 
1974	 7.67462153263074E-03 
1975	 7.30753873684385E-03 
1976	 1.10942116290783E-02 
1977	 1.27282699647887E-02 
1978	 1.04878997249183E-02 
1979	 1.00788373262519E-02 
1980	 1.02916812469827E-02 
1981	 1.06442405842703E-02 
1982	 9.24931370154609E-03 
1983	 9.13456171924885E-03 
1984	 9.17669358666659E-03 
1985	 7.40133713636384E-03 
1986	 6.5697105553964E-03 
1987	 7.05965031012079E-03 
1988	 6.73936172210173E-03 
1989	 6.99903826243393E-03 
1990	 6.37955233173045E-03 
1991	 5.36155529498409E-03 
1992	 6.46951679919388E-03 
1993	 5.52867661747936E-03 
1994	 4.02452609064974E-03 
1995	 2.61343980023409E-03 
1996	 2.08896140014813E-03 
1997	-2.10014986641049E-03 
1998	-4.0456963315313E-03 
1999	-1.54192188764575E-04 
2000	 1.31710774622833E-03 
2001	 2.74316351996631E-03 
2002	 7.37539702318859E-03 
2003	 6.90949486007891E-03 
2004	 7.71266434436243E-03 
2005	 9.37597432148276E-03 
2006	 6.93371595332456E-03 
2007	 1.14804287874483E-02 
2008	 1.36379769820736E-02 
2009	 1.22180874730444E-02 
2010	 6.30093553969003E-03 
2011	 6.78114462910459E-03 
2012	 7.32280835444614E-03 
2013	 6.63391847509987E-03 
2014	 1.02521310270791E-02 
2015	 1.44136726355767E-02 
2016	 1.44460157734523E-02 
2017	 1.62155074249722E-02 
2018	 1.79483372321482E-02 
2019	 1.62520686139487E-02 
2020	 1.32561093872719E-02 
2021	 1.11171250785098E-02 
2022	 1.04888733074408E-02 
2023	 9.47194510051245E-03 
2024	 8.83867406684065E-03 
2025	 8.63682634368946E-03 
2026	 8.42110525782349E-03 
2027	 7.84508309270666E-03 
2028	 8.22117201066537E-03 
2029	 8.6805956808659E-03 
2030	 8.18711227878491E-03 
2031	 9.00041209898696E-03 
2032	 1.04175206298126E-02 
2033	 9.84167054922406E-03 
2034	 9.61179744347107E-03 
2035	 8.73067218849381E-03 
2036	 7.25568956093145E-03 
2037	 8.57947950007987E-03 
2038	 1.05099183251593E-02 
2039	 1.06671114254542E-02 
2040	 1.06096626061728E-02 
2041	 9.64346540949122E-03 
2042	 5.16584549673555E-03 
2043	 4.38891031801823E-03 
2044	 5.13100246431146E-03 
2045	 6.44496444840898E-03 
2046	 8.9860016594076E-03 
2047	 1.07080345908016E-02 
2048	 1.03418892738897E-02 
2049	 9.99763569351807E-03 
2050	 8.39930132740153E-03 
2051	 7.8308886812417E-03 
2052	 7.41542193290041E-03 
2053	 5.60681006655307E-03 
2054	 6.0074502066665E-03 
2055	 6.54079858916929E-03 
2056	 6.88815275902936E-03 
2057	 8.21774228112116E-03 
2058	 9.10575107879986E-03 
2059	 9.63968925699356E-03 
2060	 9.52068640119172E-03 
2061	 9.52547342980975E-03 
2062	 7.77274052089585E-03 
2063	 6.53272413253198E-03 
2064	 0.007702852638914 
2065	 6.84407276908177E-03 
2066	 6.77819893417716E-03 
2067	 9.38892805094775E-03 
2068	 9.11285551270805E-03 
2069	 9.71712090929367E-03 
2070	 1.07941096026796E-02 
2071	 8.12012676094706E-03 
2072	 6.66286756144655E-03 
2073	 6.17663876612663E-03 
2074	 6.88172951180578E-03 
2075	 6.21701251137346E-03 
2076	 5.12859127377449E-03 
2077	 5.21658592437052E-03 
2078	 5.04772304401168E-03 
2079	 4.95525322375354E-03 
2080	 5.94678743012687E-03 
2081	 6.99962729400488E-03 
2082	 6.49529546792247E-03 
2083	 6.29038321149675E-03 
2084	 7.43624088792345E-03 
2085	 8.29865011731742E-03 
2086	 8.20024580316018E-03 
2087	 8.28345365036033E-03 
2088	 8.0205959105948E-03 
2089	 7.39881257660406E-03 
2090	 6.56869033097395E-03 
2091	 0.006802655893314 
2092	 6.94342808425432E-03 
2093	 7.01696582845944E-03 
2094	 6.95066034161109E-03 
2095	 7.39368789105678E-03 
2096	 7.50076061163085E-03 
2097	 7.33827051258126E-03 
2098	 7.2700889037342E-03 
2099	 7.32386675516919E-03 
2100	 6.81207648582792E-03 
2101	 6.79976200279854E-03 
2102	 7.06315370475138E-03 
2103	 7.65275123540187E-03 
2104	 8.46679099706246E-03 
2105	 7.86588453818288E-03 
2106	 7.31229041767321E-03 
2107	 6.27507784453407E-03 
2108	 5.41214151061428E-03 
2109	 6.16777112607059E-03 
2110	 7.03229596477813E-03 
2111	 7.6256945020149E-03 
2112	 6.73534398140697E-03 
2113	 6.69181522643909E-03 
2114	 6.1778443688896E-03 
2115	 6.01770334525158E-03 
2116	 6.85539502401544E-03 
2117	 7.31667875145846E-03 
2118	 7.22307666466089E-03 
2119	 6.87250149430817E-03 
2120	 6.39069442584484E-03 
2121	 6.28981440630679E-03 
2122	 5.45431335240553E-03 
2123	 5.03714630757897E-03 
2124	 6.25937025866663E-03 
2125	 7.3871846772034E-03 
2126	 7.69728174004939E-03 
2127	 7.61370463286911E-03 
2128	 7.45176985011943E-03 
2129	 6.70352773297702E-03 
2130	 6.40023874344268E-03 
2131	 7.31570545689972E-03 
2132	 7.33737602735494E-03 
2133	 6.96850363853365E-03 
2134	 6.73727711272605E-03 
2135	 6.29700238222795E-03 
2136	 6.1499176333917E-03 
2137	 5.9000381198513E-03 
2138	 5.98608933862282E-03 
2139	 6.59911818200445E-03 
2140	 6.91363050863339E-03 
2141	 7.34392898272398E-03 
2142	 7.78941764862596E-03 
2143	 8.33327841988099E-03 
2144	 8.4631424510735E-03 
2145	 8.04272331070344E-03 
2146	 8.20164617925614E-03 
2147	 8.65618394879971E-03 
2148	 8.79627592402847E-03 
2149	 8.90903353925064E-03 
2150	 8.37912477542026E-03 
2151	 7.99359461993103E-03 
2152	 7.03471200285112E-03 
2153	 7.22609548355463E-03 
2154	 9.01548277284207E-03 
2155	 8.24800127235524E-03 
2156	 8.10159227206329E-03 
2157	 8.11204460794127E-03 
2158	 7.31068171234787E-03 
2159	 6.94792139284826E-03 
2160	 7.20213589633905E-03 
2161	 7.26371018516044E-03 
2162	 7.54079144191592E-03 
2163	 7.76765687287713E-03 
2164	 8.30843117669405E-03 
2165	 8.67953450122127E-03 
2166	 8.14875111564492E-03 
2167	 8.27234571741289E-03 
2168	 9.41015824230037E-03 
2169	 9.64417201032875E-03 
2170	 9.55502470557239E-03 
2171	 9.84983611354777E-03 
2172	 9.88891432130957E-03 
2173	 8.79457282054646E-03 
2174	 8.23547285660825E-03 
2175	 7.21015332846243E-03 
2176	 5.39445191654146E-03 
2177	 6.26166830482141E-03 
2178	 7.29670240548409E-03 
2179	 7.79613351394531E-03 
2180	 8.67228633773593E-03 
2181	 7.26559867388592E-03 
2182	 5.65111800220912E-03 
2183	 5.8907821221622E-03 
2184	 6.27135633927991E-03 
2185	 6.76215348617238E-03 
2186	 7.10534125102766E-03 
2187	 7.56248657735515E-03 
2188	 7.25956056420194E-03 
2189	 6.7158339212992E-03 
2190	 6.19351045940498E-03 
2191	 4.92654615959748E-03 
2192	 4.39009257508123E-03 
2193	 3.65169213392089E-03 
2194	 3.91244849599553E-03 
2195	 5.56984825391464E-03 
2196	 6.8409702776421E-03 
2197	 8.92023339763508E-03 
2198	 9.90077726436122E-03 
2199	 9.70353633739914E-03 
2200	 1.00877707166304E-02 
2201	 1.18403925419657E-02 
2202	 0.01220124067807 
2203	 1.39367918891371E-02 
2204	 0.013532191847585 
2205	 1.13080107198445E-02 
2206	 1.23191219147049E-02 
2207	 1.12533814558095E-02 
2208	 1.15777185390435E-02 
2209	 1.36567866620707E-02 
2210	 1.18665235212916E-02 
2211	 9.59631109598016E-03 
2212	 7.74125007400743E-03 
2213	 6.56848612986763E-03 
2214	 7.84033497427187E-03 
2215	 9.60543065411247E-03 
2216	 1.11495369586591E-02 
2217	 1.19826273629174E-02 
2218	 1.13425028327782E-02 
2219	 9.96434092166805E-03 
2220	 8.20459530618973E-03 
2221	 7.40930527494565E-03 
2222	 4.95233466169996E-03 
2223	 4.3862868988055E-03 
2224	 6.63139883725382E-03 
2225	 6.47577585755211E-03 
2226	 4.85339385011908E-03 
2227	 5.46818329821255E-03 
2228	 6.34070152397423E-03 
2229	 6.7734292419931E-03 
2230	 8.9935177355885E-03 
2231	 1.01491060509049E-02 
2232	 1.08219813649084E-02 
2233	 1.06629896931459E-02 
2234	 1.06172726140461E-02 
2235	 7.87978194217498E-03 
2236	 5.83467708849896E-03 
2237	 5.97193707315224E-03 
2238	 1.03899918425956E-02 
2239	 1.45977046618319E-02 
2240	 1.34032305293891E-02 
2241	 1.14213472033372E-02 
2242	 8.25291162604313E-03 
2243	 4.07316940675159E-03 
2244	 5.36840997244128E-03 
2245	 8.90322695754137E-03 
2246	 8.76324710386225E-03 
2247	 1.05487036561338E-02 
2248	 1.36779517405466E-02 
2249	 0.012364320314659 
2250	 1.36947633396796E-02 
2251	 1.67000015803383E-02 
2252	 1.48883117813333E-02 
2253	 1.50257816906365E-02 
2254	 1.47692417959198E-02 
2255	 1.02874394274957E-02 
2256	 9.31020174834036E-03 
2257	 9.8587563597292E-03 
2258	 9.5353299268548E-03 
2259	 9.37054266308312E-03 
2260	 8.20904354153829E-03 
2261	 5.40482303377234E-03 
2262	 3.27752585615978E-03 
2263	-1.87304372640044E-05 
2264	-4.05715994332989E-05 
2265	 2.38898837148108E-03 
2266	 2.90953122656594E-03 
2267	 4.42152069251461E-03 
2268	 5.84303584822272E-03 
2269	 5.86773910500988E-03 
2270	 6.73806683902993E-03 
2271	 9.44865675855736E-03 
2272	 1.05363814011752E-02 
2273	 1.00156356018007E-02 
2274	 1.01927922844644E-02 
2275	 1.04806623603926E-02 
2276	 1.03613906500138E-02 
2277	 1.10087393638766E-02 
2278	 0.010863371635011 
2279	 7.4335764833483E-03 
2280	 8.37079149499216E-03 
2281	 1.29269056771591E-02 
2282	 1.38662580597621E-02 
2283	 1.41933012068143E-02 
2284	 1.69728724611082E-02 
2285	 1.03996328906384E-02 
2286	 5.49228007716457E-03 
2287	 7.71049488113933E-03 
2288	 5.95657986209419E-03 
2289	 7.33988425091789E-03 
2290	 1.05356009383269E-02 
2291	 1.18578493568837E-02 
2292	 1.41811976648561E-02 
2293	 0.015321619277439 
2294	 1.77710606332132E-02 
2295	 1.54927983684648E-02 
2296	 1.02149954467639E-02 
2297	 1.09457722977419E-02 
2298	 8.62872703163431E-03 
2299	 5.17368491534242E-03 
2300	 0.00808207442873 
2301	 1.00670911526414E-02 
2302	 1.03681355618658E-02 
2303	 6.41713091268633E-03 
2304	-4.85433280566928E-04 
2305	-2.61525049984576E-04 
2306	 0.001293716350543 
2307	 3.59348053427607E-03 
2308	 0.010440287706336 
2309	 8.89091921705865E-03 
2310	 5.09461324604761E-03 
2311	 7.4690589059154E-03 
2312	 8.9126170635065E-03 
2313	 1.44102988363889E-02 
2314	 1.41791456909514E-02 
2315	 1.33107380477508E-02 
2316	 1.97709527365607E-02 
2317	 1.39072615963417E-02 
2318	 7.39922375543227E-03 
2319	 9.6819013125237E-03 
2320	 8.88771973946315E-03 
2321	 1.03471582113918E-02 
2322	 1.90102565894527E-02 
2323	 2.41133450812147E-02 
2324	 1.99664556533365E-02 
2325	 1.08492698291253E-02 
2326	 8.56749208734677E-03 
2327	 1.29261860080791E-02 
2328	 1.20977146486224E-02 
2329	 1.27916330520504E-02 
2330	 1.60844571743957E-02 
2331	 1.23190763905303E-02 
2332	 1.25991066607795E-02 
2333	 1.98331682217443E-02 
2334	 1.92116771236958E-02 
2335	 1.24104332349262E-02 
2336	 5.83785172678761E-03 
2337	 4.89780949480738E-03 
2338	 7.31955348796641E-03 
2339	 6.14420990251401E-03 
2340	 3.50367119507074E-03 
2341	 2.41162155140442E-03 
2342	-6.94548435973051E-04 
2343	-3.37420179613356E-04 
2344	 1.07287746763695E-02 
2345	 2.68318933357932E-03 
2346	-1.77306980292162E-02 
2347	-3.10632730934015E-02 
2348	-4.71038008168062E-02 
2349	-4.32947929183301E-02 
2350	-3.04235030582167E-02 
2351	-1.87357683473712E-02 
2352	-9.48681063649272E-03 
2353	-1.40320833327894E-02 
2354	-1.93367890385009E-02 
2355	-2.90928729725971E-02 
2356	-3.57969339448604E-02 
2357	-2.88617698870547E-02 
2358	-2.08576068738689E-02 
2359	-2.50978504372963E-03 
2360	 1.48632223016329E-02 
2361	 1.37002971631635E-02 
2362	 2.79590594569048E-02 
2363	 3.93320735612197E-02 
2364	 0.025404218587268 
2365	 2.97660712122459E-02 
2366	 3.38562833396574E-02 
2367	 3.30452746892019E-02 
2368	 4.90438095075771E-02 
2369	 4.83846197934437E-02 
2370	 0.032408832678117 
2371	-1.07294254733764E-03 
2372	-2.28558035029485E-02 
2373	 2.13569385274955E-02 
2374	 0.042296717500307 
2375	 2.30888995614764E-02 
2376	 2.45695678422643E-02 
2377	-1.82811886925407E-03 
2378	-2.42857795951483E-02 
2379	 3.09348307220399E-03 
2380	 1.34369755718892E-02 
2381	-7.75945341307599E-03 
2382	-4.30997733369732E-02 
2383	-4.92090907180161E-02 
2384	-4.16395843915709E-02 
2385	-2.13438988265605E-02 
2386	 4.28272442279117E-02 
2387	 4.92751736580787E-02 
2388	 4.38280269202951E-02 
2389	 4.97468452923438E-02 
2390	 4.57929273020613E-03 
2391	 4.01419292760816E-03 
2392	 2.44267426165935E-02 
2393	 4.08114811824705E-02 
2394	 4.91953996659129E-02 
2395	-9.2894085042713E-03 
2396	-9.39982619887925E-02 
2397	-0.164096106254356 
2398	-0.169087275379813 
2399	-0.133060892974832 
2400	-8.91691853729038E-02 
2401	-7.84613758375651E-02 
2402	-0.105276407784883 
2403	-9.14135199654619E-02 
2404	-0.030383075755918 
2405	 1.61860225522258E-02 
2406	 7.14470482996844E-03 
2407	-1.60322120064008E-02 
2408	 1.74911055318258E-02 
2409	 3.77696044304901E-02 
2410	 0.085564519359729 
2411	 0.181275453090298 
2412	 0.134835152084624 
2413	 0.105071550703466 
2414	 0.125561209022433 
2415	 0.125119036434576 
2416	 7.82874911003906E-02 
2417	 0.01567549612475 
2418	 0.135674597767243 
2419	 0.123959568858707 
2420	-1.37585605819603E-02 
2421	-8.04834661353959E-02 
2422	-0.113606102430054 
2423	-2.15820060135184E-02 
2424	 8.02037538031245E-02 
2425	 1.48688023104652E-02 
2426	-1.56295482143082E-02 
2427	-7.62516351242278E-02 
2428	-0.266865653478256 
2429	-0.367202537788044 
2430	-0.441429388107471 
2431	-0.493288368031632 
2432	-0.390047294872296 
2433	-0.123235742214362 
2434	-1.85263886199053E-02 
2435	-0.112763668266975 
2436	-0.22085982843153 
2437	-0.134499201903168 
2438	-0.162571677700695 
2439	-0.240621991972952 
2440	-6.21925172930232E-03 
2441	 0.13518692174764 
2442	 0.333580707742255 
2443	 0.406430478277309 
2444	 1.54315405916075E-02 
2445	-0.489643375752282 
2446	-1.24456281190989 
2447	-9.24838361184495 
2448	 3.1890700124844 
2449	 7.7043739458876 
2450	 18.7958760713144 
2451	 8.39545665213886 
2452	 2.23911755530149 
2453	 1.28533958033472 
2454	 0.353733816742674 
2455	 0.36335556241574 
2456	 0.745922894901461 
2457	 0.323963112485657 
2458	 0.187199716201421 
2459	 1.24950486839151 
2460	 2.08782971385281 
2461	 5.84963378248873 
2462	 4.57150597459416 
2463	 1.76837309855562 
2464	 0.492189064289335 
2465	 8.87063589204228E-02 
2466	-9.39035011796381E-02 
2467	-1.99530032410413 
2468	 0.469331766568203 
2469	-0.499584340216426 
2470	-4.24011725569942 
2471	 1.1192380967703 
2472	 1.43332121206312 
2473	 4.68813148974575 
2474	-0.641761958153991 
2475	-0.37881483341838 
2476	-0.518443561101968 
2477	-0.259388513882829 
2478	-0.803109625276527 
2479	-6.06084476398914 
2480	-3.14805247348772 
2481	-0.743745017211816 
2482	-1.40373068176492 
2483	-0.678781938639458 
2484	-0.576024700164448 
2485	 5.32333939903183 
2486	-3.16987897758667 
2487	-1.40137789167447 
2488	-2.24996221873234 
2489	-0.468696569332915 
2490	-0.845430047511428 
2491	-3.48398094282271 
2492	-0.683930923156531 
2493	-1.11140814150686 
2494	-0.374128207350714 
2495	-0.130194403768512 
2496	-0.258813213097121 
2497	-0.287662367667456 
2498	-0.905291257886117 
2499	 7.93612225736139 
2500	 0.145056034228592 
