Wavelength	rt0628west00006.asd
350	 0.072456821799942 
351	 7.17483885340776E-02 
352	 7.19763544388045E-02 
353	 7.21767146741315E-02 
354	 7.17229094063349E-02 
355	 0.071728338919526 
356	 7.22056081904323E-02 
357	 0.07252968135317 
358	 7.21889031872927E-02 
359	 7.20219449243484E-02 
360	 7.21786000288564E-02 
361	 7.24269009350974E-02 
362	 7.23731913933938E-02 
363	 7.26219319526633E-02 
364	 7.26744095780008E-02 
365	 7.24797125998837E-02 
366	 7.28435730220676E-02 
367	 0.073166012058898 
368	 7.32055353427064E-02 
369	 7.30305472591491E-02 
370	 7.34336945923634E-02 
371	 7.36601775052586E-02 
372	 7.37249686638414E-02 
373	 7.40001409772086E-02 
374	 7.36045144310973E-02 
375	 7.37874450403126E-02 
376	 0.074659092689756 
377	 7.45530706170341E-02 
378	 7.49939179521151E-02 
379	 7.52612670227021E-02 
380	 7.48335841482379E-02 
381	 7.53896871618229E-02 
382	 7.61340333231298E-02 
383	 7.66811604330641E-02 
384	 7.68778982442975E-02 
385	 7.66742232738081E-02 
386	 7.68895446354525E-02 
387	 7.75623180415002E-02 
388	 7.78286650707755E-02 
389	 7.78042862256646E-02 
390	 7.79267021395561E-02 
391	 7.83869021858808E-02 
392	 7.86330787727868E-02 
393	 7.90130309456355E-02 
394	 7.93363784578033E-02 
395	 0.079393336373077 
396	 0.079919184482939 
397	 8.02277333566713E-02 
398	 8.03037209157196E-02 
399	 8.07185378175951E-02 
400	 0.080720861175095 
401	 0.080856884835545 
402	 8.14297976370028E-02 
403	 8.18238446900528E-02 
404	 8.19806100982799E-02 
405	 8.20808674796999E-02 
406	 8.23542661057874E-02 
407	 8.26685781531768E-02 
408	 8.28568491007669E-02 
409	 8.29780278496243E-02 
410	 8.32968676302584E-02 
411	 8.37826216178752E-02 
412	 8.41634926239317E-02 
413	 8.43460394775729E-02 
414	 8.47595468273296E-02 
415	 8.50845702511081E-02 
416	 8.53314603978804E-02 
417	 0.085661651009975 
418	 8.62998967596677E-02 
419	 8.68444592472609E-02 
420	 8.71287039584515E-02 
421	 8.72962151898754E-02 
422	 8.78271914334521E-02 
423	 8.84609919055694E-02 
424	 8.89412231429993E-02 
425	 8.95112591620443E-02 
426	 8.98924326464661E-02 
427	 9.03081760196678E-02 
428	 0.091108372129308 
429	 9.17001551216303E-02 
430	 9.23442676561845E-02 
431	 9.30764393999511E-02 
432	 9.35888601453711E-02 
433	 9.41506068530408E-02 
434	 9.48422688082406E-02 
435	 9.56109392710931E-02 
436	 9.61453011058275E-02 
437	 9.67080511314348E-02 
438	 9.73372451092627E-02 
439	 9.79556952247907E-02 
440	 9.86883129195508E-02 
441	 9.93289900845824E-02 
442	 9.98232411969925E-02 
443	 0.100385397862967 
444	 0.100884339908227 
445	 0.101423067908462 
446	 0.102076558386096 
447	 0.102591959030363 
448	 0.103047969816529 
449	 0.103480286459092 
450	 0.103890103159454 
451	 0.104279980527463 
452	 0.104663168901313 
453	 0.10505204769854 
454	 0.105454442020036 
455	 0.105855178392846 
456	 0.106210470444906 
457	 0.106499421361634 
458	 0.106873062098037 
459	 0.107212604533789 
460	 0.107499694254989 
461	 0.107824230365806 
462	 0.108093955435075 
463	 0.108366943221261 
464	 0.108674795102603 
465	 0.108876969275672 
466	 0.10921652657574 
467	 0.109620049201738 
468	 0.109885075108401 
469	 0.110123438314392 
470	 0.110445821877963 
471	 0.110842555647795 
472	 0.1111459953372 
473	 0.111550006809476 
474	 0.111932363710205 
475	 0.112195177213934 
476	 0.112623630589552 
477	 0.113013408115941 
478	 0.113372767006957 
479	 0.113837427948914 
480	 0.114172586716635 
481	 0.114583040668597 
482	 0.115157846573447 
483	 0.115634653010147 
484	 0.11611157115388 
485	 0.11665433062399 
486	 0.117301866279456 
487	 0.118011142349417 
488	 0.118552664259697 
489	 0.119021083202248 
490	 0.119801203571663 
491	 0.12044699498345 
492	 0.12103678270046 
493	 0.121707106034336 
494	 0.122481215623365 
495	 0.12324860865476 
496	 0.124021131468264 
497	 0.124848637007507 
498	 0.125503240619508 
499	 0.12616716612907 
500	 0.127003888836928 
501	 0.128089161483164 
502	 0.128982517585236 
503	 0.129789026731392 
504	 0.130699924793763 
505	 0.131514566755038 
506	 0.132356776523261 
507	 0.13327653909484 
508	 0.134243078433829 
509	 0.135017145064711 
510	 0.135858994223246 
511	 0.136903009482433 
512	 0.137815656565475 
513	 0.138733585602098 
514	 0.139711237610719 
515	 0.140761536865893 
516	 0.14185584857367 
517	 0.142970844308215 
518	 0.144104296189799 
519	 0.145284204029962 
520	 0.146276180111271 
521	 0.14731981940806 
522	 0.148596552298825 
523	 0.149662044890374 
524	 0.150847002879978 
525	 0.152132601208038 
526	 0.153278932253488 
527	 0.154526651533753 
528	 0.155811810702381 
529	 0.157069530465765 
530	 0.158322611692798 
531	 0.159578381320454 
532	 0.160878860161566 
533	 0.162248150047983 
534	 0.163583020904429 
535	 0.164822792224767 
536	 0.166069196015832 
537	 0.167585348529944 
538	 0.169057989379556 
539	 0.170513477311725 
540	 0.172018444130993 
541	 0.173503753733374 
542	 0.174932726830419 
543	 0.176337063887597 
544	 0.17778606138531 
545	 0.179165592665446 
546	 0.180610139886121 
547	 0.182148772538106 
548	 0.183558897814987 
549	 0.184938513505029 
550	 0.186328885412033 
551	 0.18776174581144 
552	 0.189298816363726 
553	 0.190737515146077 
554	 0.192048288087177 
555	 0.193402250970525 
556	 0.194830903458261 
557	 0.19632450264642 
558	 0.197823516462337 
559	 0.199224059053031 
560	 0.200606321127202 
561	 0.201966203672865 
562	 0.203267069635215 
563	 0.20463255983458 
564	 0.205961921377753 
565	 0.207202502685309 
566	 0.208455088947973 
567	 0.20967090195161 
568	 0.21092881435209 
569	 0.212273784736888 
570	 0.213336411277357 
571	 0.21434184564666 
572	 0.215385448168403 
573	 0.216379628673808 
574	 0.21736716471432 
575	 0.21834168675986 
576	 0.219277501101922 
577	 0.220141447525508 
578	 0.220975198514686 
579	 0.221780030187842 
580	 0.222531250458712 
581	 0.223191014131338 
582	 0.223937691897411 
583	 0.224803489358036 
584	 0.225504560423762 
585	 0.226207549383735 
586	 0.2269838790541 
587	 0.227862035942468 
588	 0.228745709077324 
589	 0.22953519972052 
590	 0.23011171998096 
591	 0.230425696381517 
592	 0.23071730320326 
593	 0.231009940421793 
594	 0.231280874585103 
595	 0.231584587524398 
596	 0.231654754182394 
597	 0.23161403215337 
598	 0.231769355361657 
599	 0.231899069092075 
600	 0.231972087466879 
601	 0.232051660328444 
602	 0.232332242918717 
603	 0.232527478377497 
604	 0.23274274923713 
605	 0.233143407017195 
606	 0.233530355632313 
607	 0.233810418760258 
608	 0.234061525704231 
609	 0.234517733524998 
610	 0.234934628913315 
611	 0.235236365576642 
612	 0.235447963473577 
613	 0.23576167146466 
614	 0.236109993271785 
615	 0.23645934374856 
616	 0.236792761474923 
617	 0.237158466681739 
618	 0.237413764959888 
619	 0.23758017849682 
620	 0.237966441299976 
621	 0.238325539469612 
622	 0.238673535007627 
623	 0.239074030210261 
624	 0.239404599917085 
625	 0.239785324609189 
626	 0.240209147914169 
627	 0.240539113885162 
628	 0.240802367871328 
629	 0.241114665152646 
630	 0.241482226474629 
631	 0.241544170843544 
632	 0.241753929965245 
633	 0.242065713031098 
634	 0.24223766945202 
635	 0.242514988409886 
636	 0.242836106682032 
637	 0.243111616596931 
638	 0.243256254640491 
639	 0.243388535943909 
640	 0.243614382874559 
641	 0.243974312283661 
642	 0.244297854776499 
643	 0.24457775141936 
644	 0.244923108415954 
645	 0.24551316192872 
646	 0.246068261155463 
647	 0.246353296197739 
648	 0.246337650829507 
649	 0.246414969643596 
650	 0.246574749380481 
651	 0.246694495988834 
652	 0.246653762825843 
653	 0.246782866337432 
654	 0.246899856670554 
655	 0.246883088324176 
656	 0.246758743655779 
657	 0.246542783241033 
658	 0.246383972443289 
659	 0.246366520068261 
660	 0.246364575224328 
661	 0.246371401636467 
662	 0.246405200334382 
663	 0.246494095824922 
664	 0.24656773108145 
665	 0.246748849536764 
666	 0.247038036835728 
667	 0.247168548604893 
668	 0.24737512015283 
669	 0.247628525021318 
670	 0.247842847187779 
671	 0.248095104092387 
672	 0.248412677804016 
673	 0.248774463738441 
674	 0.249120995739874 
675	 0.249536574498588 
676	 0.249976748580751 
677	 0.250391573459228 
678	 0.250762462514268 
679	 0.251233656067094 
680	 0.25171401753878 
681	 0.252050088947577 
682	 0.252467754181795 
683	 0.252975988532816 
684	 0.253593147761693 
685	 0.25445205976205 
686	 0.255423576818111 
687	 0.256165248245984 
688	 0.256462608336523 
689	 0.256753716799312 
690	 0.257074779056609 
691	 0.257568807684588 
692	 0.258375668120981 
693	 0.258756877136835 
694	 0.25875959367179 
695	 0.258601479490255 
696	 0.25844554731722 
697	 0.258652893588942 
698	 0.259097079149539 
699	 0.259445320964399 
700	 0.259465781480738 
701	 0.259231348814343 
702	 0.258933081314036 
703	 0.258788510750716 
704	 0.258697993998732 
705	 0.258470539990478 
706	 0.258044472368955 
707	 0.257641041888807 
708	 0.257166958135137 
709	 0.256588786052744 
710	 0.255920037205643 
711	 0.255306723780879 
712	 0.254636898059783 
713	 0.253963667069034 
714	 0.253514783549175 
715	 0.253298443157494 
716	 0.253072277196151 
717	 0.252490496638329 
718	 0.251456149120767 
719	 0.249509159567721 
720	 0.247546684799914 
721	 0.246100443979215 
722	 0.245003883603531 
723	 0.243954417707909 
724	 0.24265374849862 
725	 0.240451896048933 
726	 0.238364115199912 
727	 0.236124707614111 
728	 0.233402313218451 
729	 0.230531737469499 
730	 0.227223805958331 
731	 0.22374522146233 
732	 0.220411814624851 
733	 0.217914198598984 
734	 0.215790118901484 
735	 0.213851445749246 
736	 0.212280003911616 
737	 0.210920981431534 
738	 0.209855610431127 
739	 0.209141822729647 
740	 0.20854069293424 
741	 0.208103852025087 
742	 0.207820707889796 
743	 0.207647074186445 
744	 0.2075947788993 
745	 0.207551125523666 
746	 0.207487145363604 
747	 0.207497584205232 
748	 0.207560979291914 
749	 0.207600474887644 
750	 0.207591345741553 
751	 0.207739194924283 
752	 0.207792072756257 
753	 0.207789840824808 
754	 0.207907657600697 
755	 0.20796156412478 
756	 0.208101366249585 
757	 0.208470614775103 
758	 0.209369834332205 
759	 0.210916551560003 
760	 0.212652443213027 
761	 0.212949710529736 
762	 0.213101858192264 
763	 0.212685775778197 
764	 0.212013097475707 
765	 0.211477948741151 
766	 0.210983845946263 
767	 0.210762964862097 
768	 0.210858149862032 
769	 0.21115325248307 
770	 0.211374541250526 
771	 0.21161334460163 
772	 0.211989113160956 
773	 0.212490248514043 
774	 0.212936576060899 
775	 0.213296602822937 
776	 0.213652935189492 
777	 0.214246909147049 
778	 0.214841999505658 
779	 0.215379095074271 
780	 0.216014307482949 
781	 0.216724648890033 
782	 0.21743555127232 
783	 0.218118419198558 
784	 0.21887492076997 
785	 0.219660986382714 
786	 0.220459741259019 
787	 0.221288405815891 
788	 0.222327148835965 
789	 0.223269779668764 
790	 0.223981945449925 
791	 0.22453493591559 
792	 0.225032387246735 
793	 0.225683412060447 
794	 0.226567443876321 
795	 0.227521361075219 
796	 0.228281573021708 
797	 0.228939137538813 
798	 0.22965617663663 
799	 0.230297069484495 
800	 0.230880752025551 
801	 0.231393183109492 
802	 0.231813357388017 
803	 0.232121751736674 
804	 0.23235813372812 
805	 0.232537018049823 
806	 0.232647541656459 
807	 0.233001064515941 
808	 0.233311307770771 
809	 0.233367536751649 
810	 0.233481246374985 
811	 0.233809034417577 
812	 0.234154263391417 
813	 0.234155556868457 
814	 0.233860260522593 
815	 0.23339897135091 
816	 0.232766978983757 
817	 0.231830728741381 
818	 0.230462229004033 
819	 0.229268245337869 
820	 0.22823788851719 
821	 0.226671311573619 
822	 0.224731568966456 
823	 0.222377083331678 
824	 0.219787067018081 
825	 0.217293461768993 
826	 0.214556245763219 
827	 0.211337314903657 
828	 0.207793660329018 
829	 0.20452888760663 
830	 0.201375485757809 
831	 0.19845244952442 
832	 0.19613648115688 
833	 0.193802289366556 
834	 0.191869264106174 
835	 0.190432116331314 
836	 0.189069746080177 
837	 0.187809336207948 
838	 0.186677275809419 
839	 0.185680910538542 
840	 0.184760475952832 
841	 0.183807131343486 
842	 0.182943309995342 
843	 0.182265309039959 
844	 0.181311818387362 
845	 0.180437451714661 
846	 0.179645945979105 
847	 0.178733943040257 
848	 0.178153980931011 
849	 0.177498736494368 
850	 0.176666342730706 
851	 0.176041934427988 
852	 0.175418308183368 
853	 0.174608987060199 
854	 0.173672905734311 
855	 0.173115389351706 
856	 0.172631187761044 
857	 0.17207715206521 
858	 0.171405413181382 
859	 0.170730450242142 
860	 0.170068064740952 
861	 0.169395455852505 
862	 0.168675069035287 
863	 0.167957417953975 
864	 0.167355962130455 
865	 0.166815252004551 
866	 0.16613645239542 
867	 0.165338119277241 
868	 0.164791359105602 
869	 0.164350013570891 
870	 0.16320550884442 
871	 0.162224712669318 
872	 0.161567712170802 
873	 0.16103932358357 
874	 0.160029383665706 
875	 0.158928619550257 
876	 0.157946615447119 
877	 0.157162950378506 
878	 0.156442435795205 
879	 0.155429833748612 
880	 0.154425970972949 
881	 0.153836563390396 
882	 0.152715847383195 
883	 0.151736482240481 
884	 0.150990809675423 
885	 0.150121164283685 
886	 0.149455284996794 
887	 0.148638314037438 
888	 0.147716918622413 
889	 0.147225744070816 
890	 0.146752748413878 
891	 0.146206002438163 
892	 0.145547853620767 
893	 0.144746389228721 
894	 0.144675462005523 
895	 0.144662594846468 
896	 0.143955293756804 
897	 0.143436901687804 
898	 0.142010123511887 
899	 0.140847103134128 
900	 0.140896394785916 
901	 0.13968393604474 
902	 0.138438124301504 
903	 0.137504340711422 
904	 0.136797396342631 
905	 0.135961327777783 
906	 0.135547718625599 
907	 0.134937530397417 
908	 0.133052781221569 
909	 0.132547577042913 
910	 0.131946342554706 
911	 0.130743094185798 
912	 0.129664141680001 
913	 0.128398188420682 
914	 0.12674716805845 
915	 0.125047273814045 
916	 0.123922320832948 
917	 0.120143693636265 
918	 0.117369155534188 
919	 0.116591166616038 
920	 0.114376759091139 
921	 0.11241081629662 
922	 0.110267604722368 
923	 0.107674076136507 
924	 0.105534473200363 
925	 0.104489128476082 
926	 0.103706313571004 
927	 0.102289280074926 
928	 0.101514133953704 
929	 9.98459648337513E-02 
930	 0.095718294141549 
931	 8.94804419067604E-02 
932	 9.30532837799082E-02 
933	 9.77772072140724E-02 
934	 9.56497987247483E-02 
935	 8.64279750711753E-02 
936	 0.080044838939632 
937	 8.53637751234439E-02 
938	 8.66068495471941E-02 
939	 7.21307795877841E-02 
940	 6.83875090678244E-02 
941	 6.94985980923563E-02 
942	 7.02312391273348E-02 
943	 6.66261549477274E-02 
944	 6.10505119917175E-02 
945	 5.97969055461574E-02 
946	 6.12713879328529E-02 
947	 6.03402941918026E-02 
948	 6.27385397049978E-02 
949	 6.28347983862521E-02 
950	 5.79820589640179E-02 
951	 5.05814143709809E-02 
952	 5.59989679192259E-02 
953	 5.87952786982353E-02 
954	 5.40615812765269E-02 
955	 4.70266886821782E-02 
956	 4.59993316663038E-02 
957	 4.86122316175211E-02 
958	 4.95142351710207E-02 
959	 4.46662743457992E-02 
960	 4.43245690795668E-02 
961	 0.044863295541196 
962	 4.46984797497043E-02 
963	 4.44433622369863E-02 
964	 4.24315302618114E-02 
965	 4.21648732488899E-02 
966	 4.33281382889461E-02 
967	 4.31952026713763E-02 
968	 4.32474324749879E-02 
969	 4.20665466143028E-02 
970	 4.10663341975205E-02 
971	 4.31989493874268E-02 
972	 4.23647625497752E-02 
973	 4.06466606499132E-02 
974	 4.05863019310449E-02 
975	 0.043149676630458 
976	 4.10840875602301E-02 
977	 0.039808778900779 
978	 4.12966640355829E-02 
979	 4.27365636313269E-02 
980	 4.00339805890013E-02 
981	 3.85353263881375E-02 
982	 0.039441970041658 
983	 4.00366051372171E-02 
984	 0.040932857806133 
985	 4.06875856712837E-02 
986	 4.00755481272091E-02 
987	 4.09899585619763E-02 
988	 3.95803728262186E-02 
989	 4.04786998321741E-02 
990	 4.25351169128071E-02 
991	 4.09843904901978E-02 
992	 4.07787653367373E-02 
993	 4.10253608264303E-02 
994	 4.13389107168535E-02 
995	 4.17315068035556E-02 
996	 4.03577216443419E-02 
997	 4.07557093269544E-02 
998	 0.042202584993398 
999	 4.18976202031855E-02 
1000	 4.26782514963503E-02 
1001	 3.97540839640994E-02 
1002	 0.039792412523369 
1003	 4.00125369699713E-02 
1004	 4.04634017376453E-02 
1005	 4.07548716458309E-02 
1006	 4.10922279524847E-02 
1007	 4.15223760415019E-02 
1008	 4.13567842543683E-02 
1009	 4.10653300701872E-02 
1010	 4.10600148554519E-02 
1011	 4.12389499071971E-02 
1012	 4.24659785795954E-02 
1013	 4.36889674650371E-02 
1014	 4.42918427070891E-02 
1015	 0.044793979164069 
1016	 4.50497037624689E-02 
1017	 4.42400679765458E-02 
1018	 4.45743145336654E-02 
1019	 4.55987822177179E-02 
1020	 4.63403868820312E-02 
1021	 4.75518890182564E-02 
1022	 4.83774955255325E-02 
1023	 4.86480399967573E-02 
1024	 4.94637564930953E-02 
1025	 4.98262068776129E-02 
1026	 5.00011690805099E-02 
1027	 5.04440367541197E-02 
1028	 5.07512590359746E-02 
1029	 5.12504873117677E-02 
1030	 5.20239426187796E-02 
1031	 5.26141127363295E-02 
1032	 5.32352610653541E-02 
1033	 5.37393187259456E-02 
1034	 5.40073987198277E-02 
1035	 5.47108853296538E-02 
1036	 5.55525159072338E-02 
1037	 5.63822593328472E-02 
1038	 5.75363017139841E-02 
1039	 5.85947320481093E-02 
1040	 5.91901134465089E-02 
1041	 5.97617143289891E-02 
1042	 6.04605920532749E-02 
1043	 6.08632183881147E-02 
1044	 6.18465368699943E-02 
1045	 6.32600255332762E-02 
1046	 6.44442265493696E-02 
1047	 6.58989506148663E-02 
1048	 6.71422580866483E-02 
1049	 6.85446246512567E-02 
1050	 6.93528424941289E-02 
1051	 6.97672353669565E-02 
1052	 0.070227996428724 
1053	 6.99012306648589E-02 
1054	 7.02188081262659E-02 
1055	 7.11152594296973E-02 
1056	 7.17657978509055E-02 
1057	 7.24496550860751E-02 
1058	 7.34485720241558E-02 
1059	 7.39386201792986E-02 
1060	 7.40097244819682E-02 
1061	 7.44406011638979E-02 
1062	 7.49439317463808E-02 
1063	 0.075235055234594 
1064	 7.55695303432778E-02 
1065	 7.58387294826814E-02 
1066	 7.58399403225805E-02 
1067	 7.59540342620962E-02 
1068	 7.61858282563244E-02 
1069	 7.63719181032184E-02 
1070	 7.67092662425551E-02 
1071	 7.66839576838556E-02 
1072	 7.62202151359819E-02 
1073	 7.61011946947856E-02 
1074	 7.61050359921204E-02 
1075	 7.60590442649128E-02 
1076	 7.59567969165409E-02 
1077	 0.076184543320214 
1078	 7.60846299662892E-02 
1079	 7.57335398823276E-02 
1080	 7.52232083763219E-02 
1081	 7.45369407871669E-02 
1082	 7.40026850036844E-02 
1083	 7.32726695113316E-02 
1084	 7.25866135114487E-02 
1085	 0.072153690620298 
1086	 7.15891126907467E-02 
1087	 7.05248663878296E-02 
1088	 6.99013728354547E-02 
1089	 6.98138668372495E-02 
1090	 6.93204877154836E-02 
1091	 6.87736212818899E-02 
1092	 6.83714227560384E-02 
1093	 0.0678140711769 
1094	 6.69248920728749E-02 
1095	 6.62964909915433E-02 
1096	 6.58359736144004E-02 
1097	 6.52205960720482E-02 
1098	 6.43498444366965E-02 
1099	 6.35565669581913E-02 
1100	 6.28752608843398E-02 
1101	 6.22890281579991E-02 
1102	 6.17492356951562E-02 
1103	 0.061257070979034 
1104	 6.14568661746156E-02 
1105	 6.02494716107157E-02 
1106	 5.91263687126524E-02 
1107	 5.90685412266184E-02 
1108	 5.75279689472326E-02 
1109	 5.62247443458432E-02 
1110	 5.64738565156215E-02 
1111	 5.81037038463147E-02 
1112	 5.82918881348212E-02 
1113	 6.04470447147168E-02 
1114	 6.07757445446475E-02 
1115	 5.68508277463013E-02 
1116	 5.57255065939976E-02 
1117	 5.67411686791956E-02 
1118	 5.61847148130217E-02 
1119	 5.59300896922166E-02 
1120	 5.55250131288757E-02 
1121	 5.24385277599575E-02 
1122	 5.18193991455413E-02 
1123	 5.51686852502733E-02 
1124	 5.56538921553215E-02 
1125	 5.44278625107195E-02 
1126	 5.12195407217167E-02 
1127	 4.47838061322453E-02 
1128	 4.18905241076139E-02 
1129	 4.12726789069337E-02 
1130	 4.28322412613637E-02 
1131	 4.41909521661182E-02 
1132	 4.84115590391906E-02 
1133	 4.67691121862908E-02 
1134	 4.36538017032306E-02 
1135	 4.12901552758218E-02 
1136	 0.035169401975794 
1137	 3.40062186013328E-02 
1138	 3.56704077136523E-02 
1139	 3.59320060019984E-02 
1140	 3.70470210253357E-02 
1141	 3.82454835590594E-02 
1142	 3.65758386305605E-02 
1143	 3.49489687241485E-02 
1144	 3.44135736273514E-02 
1145	 0.033533188312529 
1146	 3.39987017588417E-02 
1147	 3.60401989175468E-02 
1148	 0.035650537121754 
1149	 3.39513964234335E-02 
1150	 3.41695922567257E-02 
1151	 3.51646003214705E-02 
1152	 3.53496660621244E-02 
1153	 3.62950886494237E-02 
1154	 3.57707786970301E-02 
1155	 3.45748222433491E-02 
1156	 3.36259411720182E-02 
1157	 3.23228464447475E-02 
1158	 3.30715415329165E-02 
1159	 3.47439934152842E-02 
1160	 3.41279897469234E-02 
1161	 3.40626637384227E-02 
1162	 3.45634966286124E-02 
1163	 3.33413777161947E-02 
1164	 3.26878489859365E-02 
1165	 3.31673408269314E-02 
1166	 3.27283461792469E-02 
1167	 3.22578732151413E-02 
1168	 0.032764155995399 
1169	 3.27773813419822E-02 
1170	 3.21848747828643E-02 
1171	 3.20134972562035E-02 
1172	 3.23739069142719E-02 
1173	 0.032192677921209 
1174	 3.15737616785513E-02 
1175	 0.031580640393345 
1176	 3.16570557750135E-02 
1177	 3.17734259281323E-02 
1178	 3.25613171213183E-02 
1179	 3.27700403737993E-02 
1180	 3.23614861180991E-02 
1181	 3.21852511612021E-02 
1182	 3.17456421682973E-02 
1183	 3.19053912060045E-02 
1184	 3.28367061416994E-02 
1185	 3.28653347207822E-02 
1186	 3.25665966938787E-02 
1187	 3.30270940754666E-02 
1188	 3.31657700555928E-02 
1189	 3.29339271068803E-02 
1190	 3.29975061731698E-02 
1191	 3.28160671522241E-02 
1192	 3.24014897500501E-02 
1193	 3.15153916619913E-02 
1194	 3.12107576183163E-02 
1195	 3.15428054889952E-02 
1196	 3.15033387180826E-02 
1197	 0.031346095447693 
1198	 3.15414765390579E-02 
1199	 3.10984071375544E-02 
1200	 3.02376321359002E-02 
1201	 3.01469354029659E-02 
1202	 3.08538273893469E-02 
1203	 3.12263646490149E-02 
1204	 3.12784340615492E-02 
1205	 3.16026744740756E-02 
1206	 3.11968895079398E-02 
1207	 3.06090510558178E-02 
1208	 3.10422248626369E-02 
1209	 3.12486260091681E-02 
1210	 3.10103883881565E-02 
1211	 3.12864375730905E-02 
1212	 3.13715508616497E-02 
1213	 3.09874491720598E-02 
1214	 0.030800348848341 
1215	 0.030749164425227 
1216	 3.07149368315164E-02 
1217	 3.07861509241304E-02 
1218	 3.11314441562718E-02 
1219	 3.11447931393913E-02 
1220	 3.08776575848272E-02 
1221	 3.07216125860329E-02 
1222	 0.030476802189391 
1223	 3.04960341024486E-02 
1224	 3.07123635817822E-02 
1225	 3.05301928651331E-02 
1226	 3.04823510019542E-02 
1227	 3.05377731812676E-02 
1228	 3.05570747868422E-02 
1229	 3.07718037436087E-02 
1230	 3.06716280386109E-02 
1231	 3.05900657591946E-02 
1232	 3.08436698271122E-02 
1233	 3.09011242727118E-02 
1234	 3.05938927494192E-02 
1235	 0.030540464378526 
1236	 3.05324602801366E-02 
1237	 3.05481651289178E-02 
1238	 3.06313537250535E-02 
1239	 3.08454339457314E-02 
1240	 3.07904580493337E-02 
1241	 3.04613726622701E-02 
1242	 3.02728796862552E-02 
1243	 3.02955239701611E-02 
1244	 3.04142204936438E-02 
1245	 3.05600980162274E-02 
1246	 3.05427388957064E-02 
1247	 3.03231541658643E-02 
1248	 3.04269228373003E-02 
1249	 3.05350136398526E-02 
1250	 3.04058962802184E-02 
1251	 0.03052518487649 
1252	 3.06266141485125E-02 
1253	 3.05668148205001E-02 
1254	 3.06465311373482E-02 
1255	 3.07619581389769E-02 
1256	 3.06518108431547E-02 
1257	 3.00473789371434E-02 
1258	 3.01581298326624E-02 
1259	 0.030802300685893 
1260	 3.07235062299591E-02 
1261	 3.06067028173218E-02 
1262	 3.07237566245318E-02 
1263	 0.030517595738753 
1264	 3.01008135267534E-02 
1265	 3.03862679854836E-02 
1266	 3.07425195439873E-02 
1267	 3.03402462997387E-02 
1268	 2.99384803534097E-02 
1269	 3.02462945201014E-02 
1270	 3.06229506787486E-02 
1271	 3.04856215634145E-02 
1272	 3.03690556484541E-02 
1273	 3.05082819413476E-02 
1274	 3.02289168363979E-02 
1275	 2.98672860574733E-02 
1276	 3.01279158477911E-02 
1277	 0.030476696141639 
1278	 0.030442535380585 
1279	 3.03259689548877E-02 
1280	 3.03806218377359E-02 
1281	 3.04916438911872E-02 
1282	 3.02957329859196E-02 
1283	 3.02845240745798E-02 
1284	 3.08569747842002E-02 
1285	 3.09279638361153E-02 
1286	 3.02159526562231E-02 
1287	 3.02118336835945E-02 
1288	 3.10285137474073E-02 
1289	 3.09584050669491E-02 
1290	 3.04616598693143E-02 
1291	 0.030324026498792 
1292	 3.04846751035241E-02 
1293	 0.03038906325325 
1294	 3.05770198227369E-02 
1295	 3.09737581196565E-02 
1296	 3.08350381490125E-02 
1297	 3.00583872857779E-02 
1298	 2.99807598970944E-02 
1299	 3.03167993560762E-02 
1300	 3.03174511424538E-02 
1301	 3.02601784709286E-02 
1302	 2.98689978007401E-02 
1303	 2.96213272188246E-02 
1304	 2.97702363708811E-02 
1305	 2.97386756338615E-02 
1306	 2.95690197763339E-02 
1307	 2.92426051112375E-02 
1308	 2.93602736986372E-02 
1309	 2.96116102756289E-02 
1310	 2.95783569036703E-02 
1311	 2.98975188849722E-02 
1312	 3.00534064146455E-02 
1313	 2.97334131999186E-02 
1314	 2.96085565900538E-02 
1315	 2.95772442671647E-02 
1316	 2.97040245716926E-02 
1317	 2.97646199864316E-02 
1318	 2.98942714220523E-02 
1319	 3.07086581522541E-02 
1320	 3.09062930398938E-02 
1321	 3.05586673170169E-02 
1322	 0.030427364426438 
1323	 3.04024996193942E-02 
1324	 3.02419037500069E-02 
1325	 3.07888860234382E-02 
1326	 3.13158305340193E-02 
1327	 3.10579424445878E-02 
1328	 0.030073453371372 
1329	 0.029880583407179 
1330	 0.030359234165074 
1331	 3.07806797381819E-02 
1332	 3.16106465251552E-02 
1333	 3.15396574597378E-02 
1334	 3.12281538316253E-02 
1335	 3.06003351594586E-02 
1336	 2.91029792674356E-02 
1337	 2.84982288242229E-02 
1338	 2.80065362437213E-02 
1339	 2.82469524819593E-02 
1340	 2.97631603589426E-02 
1341	 3.03220820027524E-02 
1342	 3.10590164347228E-02 
1343	 3.13040520161155E-02 
1344	 3.09432717772016E-02 
1345	 3.06167561058383E-02 
1346	 2.99526731579647E-02 
1347	 2.82609844258052E-02 
1348	 2.07248295887303E-02 
1349	 1.84452383786687E-02 
1350	 2.65902403251772E-02 
1351	 2.91174053936015E-02 
1352	 0.042586214229719 
1353	 5.14096216494066E-02 
1354	 0.031434936224914 
1355	-4.35791443999298E-03 
1356	-1.73960210219632E-02 
1357	-0.032346140257224 
1358	-1.20607900674973E-02 
1359	 1.58941366956151E-02 
1360	-5.10797447046691E-02 
1361	-0.167180164253574 
1362	-0.245106128139346 
1363	-0.189427854173143 
1364	-0.13934731574363 
1365	-6.03776266047347E-02 
1366	 1.39705997415043E-02 
1367	-0.171639795760089 
1368	-0.211827228784634 
1369	-0.203111952630172 
1370	-0.212279480486157 
1371	-0.153057008917312 
1372	-0.183546518721445 
1373	-0.420089615394097 
1374	-0.349259155992936 
1375	-0.10805927772565 
1376	-0.124368776045645 
1377	-0.173722300456246 
1378	-0.183951618789714 
1379	-0.537545220188016 
1380	-0.48793580224162 
1381	 0.229402904184581 
1382	 0.274191686873562 
1383	-8.51017511995723E-02 
1384	-0.231178332011282 
1385	-0.640996259083592 
1386	-0.666211474663326 
1387	-5.29560374066613E-02 
1388	 4.03017838130712E-03 
1389	-0.208126336971417 
1390	-0.188600498757818 
1391	-9.59969979655565E-02 
1392	-0.265704794982011 
1393	-0.369752056283772 
1394	-0.545743183100536 
1395	-2.26506092072847 
1396	-1.23902528913814 
1397	-5.61525326637209E-03 
1398	 0.222384200203084 
1399	 9.14470089867914E-02 
1400	-0.24123073794614 
1401	-0.286468659645312 
1402	-0.476142099758701 
1403	-0.362998528063551 
1404	-7.49006945751994E-02 
1405	-6.07332986612504E-02 
1406	-0.357655113540935 
1407	-0.432985234609795 
1408	-0.252302132483395 
1409	-0.284896977255396 
1410	-0.512868411788008 
1411	-0.363443243883426 
1412	-0.151978576014418 
1413	-0.131601605517806 
1414	-3.63690120490512E-02 
1415	-5.68440333361894E-02 
1416	-0.31205054298448 
1417	-0.301522119694707 
1418	-0.150226750167751 
1419	-0.130364153274905 
1420	-0.141536781978329 
1421	-0.077747855837886 
1422	 2.02914006527997E-02 
1423	 0.01362902667454 
1424	-2.52751086039738E-02 
1425	-1.44728314034231E-02 
1426	-1.77674354622619E-02 
1427	-2.83314129443636E-02 
1428	 1.07346447514743E-03 
1429	 5.13249333113216E-03 
1430	-5.82257356329481E-02 
1431	-5.96755171683499E-02 
1432	-3.28368386566691E-03 
1433	 7.39442108470226E-03 
1434	 2.51597629629962E-02 
1435	 3.74272066144063E-02 
1436	 1.56626778362332E-02 
1437	 4.64275016102046E-03 
1438	 1.94842302636758E-02 
1439	 7.94963134584128E-03 
1440	 1.14603227416946E-02 
1441	 2.89354744125123E-02 
1442	 2.43648894149758E-02 
1443	 1.84204448753589E-02 
1444	 3.00537311975365E-02 
1445	 3.13976822890908E-02 
1446	 1.31835039551085E-02 
1447	 1.37499664388815E-02 
1448	 2.32457268280503E-02 
1449	 1.92564856660872E-02 
1450	 1.70863252551502E-02 
1451	 2.31213807905371E-02 
1452	 2.72429082506752E-02 
1453	 2.38379903634629E-02 
1454	 2.29607181020898E-02 
1455	 2.97125633477083E-02 
1456	 2.99055604396066E-02 
1457	 2.37458414245764E-02 
1458	 0.021747325519989 
1459	 2.11572750895357E-02 
1460	 2.23646363798238E-02 
1461	 2.42378747422361E-02 
1462	 2.39469281528296E-02 
1463	 2.54465865335622E-02 
1464	 2.66194964380752E-02 
1465	 2.47285004415922E-02 
1466	 2.42516025271847E-02 
1467	 2.70836390686161E-02 
1468	 2.73860817530739E-02 
1469	 2.34324400328674E-02 
1470	 2.38060754628394E-02 
1471	 2.86511980482233E-02 
1472	 2.75142176185677E-02 
1473	 2.26513086722746E-02 
1474	 2.35033996827378E-02 
1475	 2.59314084551856E-02 
1476	 2.46490059732272E-02 
1477	 2.56248143281512E-02 
1478	 0.024699598997168 
1479	 1.77521787573032E-02 
1480	 1.71368630319736E-02 
1481	 2.03748790265556E-02 
1482	 2.18802723096677E-02 
1483	 0.02403512014793 
1484	 2.48496898190808E-02 
1485	 2.56176279590931E-02 
1486	 2.56297117103389E-02 
1487	 2.46734406268407E-02 
1488	 0.02467092255442 
1489	 2.47586609054539E-02 
1490	 2.44484490644621E-02 
1491	 2.45569897670013E-02 
1492	 2.42133347625235E-02 
1493	 2.29979376441809E-02 
1494	 2.29213720677786E-02 
1495	 2.34411462429759E-02 
1496	 2.34348573986311E-02 
1497	 2.35513941668579E-02 
1498	 2.35472748644913E-02 
1499	 0.023253160120233 
1500	 2.32323631962971E-02 
1501	 2.33368478023934E-02 
1502	 2.34812820430243E-02 
1503	 2.38830896371336E-02 
1504	 2.38609124100667E-02 
1505	 2.34990470548603E-02 
1506	 2.34861708423198E-02 
1507	 2.35038077838273E-02 
1508	 2.32852715775774E-02 
1509	 2.31716783403409E-02 
1510	 2.31872278242293E-02 
1511	 2.29794395704782E-02 
1512	 0.022513840976693 
1513	 2.28347287613255E-02 
1514	 2.33334125684677E-02 
1515	 2.32160926683071E-02 
1516	 2.32995421869418E-02 
1517	 2.31987194074631E-02 
1518	 2.28460648442739E-02 
1519	 2.25124697716762E-02 
1520	 0.022297497093896 
1521	 2.22260442207191E-02 
1522	 2.20697602911366E-02 
1523	 2.24365279194146E-02 
1524	 2.28658633847072E-02 
1525	 2.27685462202326E-02 
1526	 2.27229096667861E-02 
1527	 2.27629038403975E-02 
1528	 2.27726972529088E-02 
1529	 2.25195813833801E-02 
1530	 2.19608217859301E-02 
1531	 2.17169087819456E-02 
1532	 2.15797040603843E-02 
1533	 2.15947170871503E-02 
1534	 2.20861642767592E-02 
1535	 2.22365703492054E-02 
1536	 0.022057365147461 
1537	 2.17260053199328E-02 
1538	 2.15760883005407E-02 
1539	 2.19232305661725E-02 
1540	 2.20499310702248E-02 
1541	 2.22095046316354E-02 
1542	 2.24326746864564E-02 
1543	 2.23338708940508E-02 
1544	 2.23496043613053E-02 
1545	 2.26739255317013E-02 
1546	 2.28638445283237E-02 
1547	 2.25740288086466E-02 
1548	 2.22815682080777E-02 
1549	 2.21617340084663E-02 
1550	 2.21696328519345E-02 
1551	 2.23876104861118E-02 
1552	 2.23933927951487E-02 
1553	 2.22645844468429E-02 
1554	 2.22989310624216E-02 
1555	 2.21860082972652E-02 
1556	 2.19897682436087E-02 
1557	 2.22013466729651E-02 
1558	 2.23140159410613E-02 
1559	 2.20213245462157E-02 
1560	 2.22550832776935E-02 
1561	 2.28264128259116E-02 
1562	 2.28364781048204E-02 
1563	 2.29274701326932E-02 
1564	 2.32752105686619E-02 
1565	 2.30864021187955E-02 
1566	 2.28407645381168E-02 
1567	 2.29495008316388E-02 
1568	 2.30929636520395E-02 
1569	 2.33594023959313E-02 
1570	 2.35259701843823E-02 
1571	 2.34333362178094E-02 
1572	 2.34098633517552E-02 
1573	 0.023564056427366 
1574	 2.36181542881328E-02 
1575	 2.34570548868574E-02 
1576	 0.02355786949622 
1577	 2.35216670477687E-02 
1578	 2.33029722494522E-02 
1579	 2.34067231018311E-02 
1580	 2.34729118120489E-02 
1581	 2.34231431688441E-02 
1582	 2.33906887105143E-02 
1583	 2.36323049617692E-02 
1584	 2.40643399985739E-02 
1585	 2.40447818462326E-02 
1586	 2.37555584941576E-02 
1587	 2.38008007792819E-02 
1588	 2.36286816973414E-02 
1589	 2.33849139448547E-02 
1590	 2.36668965945113E-02 
1591	 2.36207296223575E-02 
1592	 2.33691157227852E-02 
1593	 2.36174013172195E-02 
1594	 2.36225152818061E-02 
1595	 2.35239685296019E-02 
1596	 2.39304788101818E-02 
1597	 2.38888895390229E-02 
1598	 0.023715643429119 
1599	 2.39259010585561E-02 
1600	 2.39022167672465E-02 
1601	 2.39661826171866E-02 
1602	 2.42181100356424E-02 
1603	 2.44285595365731E-02 
1604	 2.46234564311753E-02 
1605	 2.49119441473175E-02 
1606	 2.51975354557839E-02 
1607	 2.50896738772527E-02 
1608	 2.45447915593397E-02 
1609	 2.44768409751599E-02 
1610	 2.49391502408266E-02 
1611	 2.52061318956275E-02 
1612	 2.53493759213445E-02 
1613	 2.51458815995396E-02 
1614	 2.50231521802603E-02 
1615	 0.025116558864836 
1616	 0.025060962072798 
1617	 2.51514074848198E-02 
1618	 0.025265626443882 
1619	 2.52232785469334E-02 
1620	 2.53817567609943E-02 
1621	 2.58732850026222E-02 
1622	 2.57666776449468E-02 
1623	 2.49220613906219E-02 
1624	 2.46619587255877E-02 
1625	 2.48700023168491E-02 
1626	 2.46922975558267E-02 
1627	 2.48715636806334E-02 
1628	 2.51830877634517E-02 
1629	 2.47190003512629E-02 
1630	 0.024601037201861 
1631	 2.50646378240603E-02 
1632	 2.52272619722712E-02 
1633	 2.52684259953232E-02 
1634	 2.50904299639274E-02 
1635	 0.024836204200087 
1636	 0.024930339771046 
1637	 2.52877220073621E-02 
1638	 2.55743446670036E-02 
1639	 2.53855868553228E-02 
1640	 2.49674810309129E-02 
1641	 2.47495627705755E-02 
1642	 2.47692190595798E-02 
1643	 2.48464399622884E-02 
1644	 0.025052368930402 
1645	 2.51323034793977E-02 
1646	 2.49346243363551E-02 
1647	 2.49190007921895E-02 
1648	 2.50744944066591E-02 
1649	 2.50495590031102E-02 
1650	 2.47421342853805E-02 
1651	 0.024458015484144 
1652	 2.45746201215305E-02 
1653	 2.45996748000749E-02 
1654	 2.47465872448587E-02 
1655	 2.52892693559859E-02 
1656	 2.53322196085909E-02 
1657	 2.50042205634608E-02 
1658	 2.52444889679218E-02 
1659	 2.55379367399964E-02 
1660	 2.53946095269999E-02 
1661	 2.55040284836661E-02 
1662	 2.57386141226249E-02 
1663	 2.56543688066996E-02 
1664	 2.54023778895675E-02 
1665	 2.51246516952507E-02 
1666	 2.50025747942579E-02 
1667	 2.48597883559799E-02 
1668	 2.51026739746103E-02 
1669	 2.50901706346251E-02 
1670	 2.60516395106688E-02 
1671	 0.026347947026477 
1672	 2.59389058521334E-02 
1673	 2.61361308221822E-02 
1674	 2.65399894752008E-02 
1675	 2.63641867311887E-02 
1676	 2.56528362035899E-02 
1677	 2.53547794478679E-02 
1678	 2.52461044790062E-02 
1679	 2.53505944916612E-02 
1680	 2.59216598512543E-02 
1681	 2.60459586082044E-02 
1682	 2.59321262538462E-02 
1683	 2.59274334559513E-02 
1684	 2.55973013988438E-02 
1685	 2.56096444832274E-02 
1686	 2.57680869841287E-02 
1687	 0.025529314455175 
1688	 2.55306725677003E-02 
1689	 2.59397205538055E-02 
1690	 2.64398333022393E-02 
1691	 2.64078377908606E-02 
1692	 2.62117414129605E-02 
1693	 2.62403253956726E-02 
1694	 0.02613492260816 
1695	 2.60580982557841E-02 
1696	 2.60756052657482E-02 
1697	 2.63114980578989E-02 
1698	 2.64144788677284E-02 
1699	 2.61252060930608E-02 
1700	 2.61137327292876E-02 
1701	 2.65783269090093E-02 
1702	 2.68111476739586E-02 
1703	 2.60676884783122E-02 
1704	 2.57894029678457E-02 
1705	 2.68271171545197E-02 
1706	 2.73258547113494E-02 
1707	 2.73418163375519E-02 
1708	 2.77720877829509E-02 
1709	 2.71215167591028E-02 
1710	 2.57208136705022E-02 
1711	 2.65163697738864E-02 
1712	 2.73582681530782E-02 
1713	 2.66584157419345E-02 
1714	 2.70067985385089E-02 
1715	 2.76269783008067E-02 
1716	 2.73260457917491E-02 
1717	 2.68730703358123E-02 
1718	 2.62277610962402E-02 
1719	 2.59685833829927E-02 
1720	 2.64857118036025E-02 
1721	 2.71827987987825E-02 
1722	 2.68851846382051E-02 
1723	 2.66373474694632E-02 
1724	 2.63695637574455E-02 
1725	 0.026142497897392 
1726	 2.67823474202013E-02 
1727	 2.69588778410711E-02 
1728	 2.68953979926476E-02 
1729	 2.67230602623242E-02 
1730	 2.62438686453256E-02 
1731	 2.64479008147524E-02 
1732	 2.71005913605815E-02 
1733	 2.68497421362544E-02 
1734	 2.59645243818528E-02 
1735	 0.025667816568593 
1736	 2.52589754083126E-02 
1737	 2.55139389240788E-02 
1738	 2.62137313722113E-02 
1739	 2.58165858308335E-02 
1740	 2.55513875256205E-02 
1741	 2.51783702988357E-02 
1742	 2.44021394323272E-02 
1743	 2.46427218485413E-02 
1744	 2.51064678934781E-02 
1745	 2.47350877239058E-02 
1746	 0.024021556213952 
1747	 0.024154279750052 
1748	 2.45836288737912E-02 
1749	 2.47867015025141E-02 
1750	 2.61115873495152E-02 
1751	 0.026101558187965 
1752	 2.43050308812495E-02 
1753	 2.40157198927512E-02 
1754	 2.41569488937619E-02 
1755	 2.41686609181034E-02 
1756	 2.46299620193427E-02 
1757	 2.37141900753101E-02 
1758	 2.37381606332976E-02 
1759	 2.41244884862026E-02 
1760	 2.58323280354491E-02 
1761	 2.71790001400918E-02 
1762	 0.026734507534592 
1763	 2.56172404233668E-02 
1764	 2.40810604900286E-02 
1765	 2.34999417493679E-02 
1766	 2.52747600782287E-02 
1767	 2.65539412894229E-02 
1768	 2.61574399593632E-02 
1769	 2.55656900728926E-02 
1770	 2.45905216193564E-02 
1771	 2.54293146729613E-02 
1772	 2.73786206243759E-02 
1773	 2.77575725052453E-02 
1774	 2.74834653389468E-02 
1775	 2.57440593383183E-02 
1776	 2.54780195328498E-02 
1777	 2.79224552825705E-02 
1778	 0.028635199063674 
1779	 2.90356005579007E-02 
1780	 2.87693788405346E-02 
1781	 2.64373697518685E-02 
1782	 2.49190365730694E-02 
1783	 2.28790599362765E-02 
1784	 2.14484018184834E-02 
1785	 2.04364758915629E-02 
1786	 2.16464819649855E-02 
1787	 2.52741822225101E-02 
1788	 0.025738030668459 
1789	 2.72242561626437E-02 
1790	 2.50537382208073E-02 
1791	 2.26760322140766E-02 
1792	 2.09380422524359E-02 
1793	 1.44720400625038E-02 
1794	 8.75064131448175E-03 
1795	 1.20988442105575E-02 
1796	 2.39822567482453E-02 
1797	 3.08537459721029E-02 
1798	 2.15624436844624E-02 
1799	 7.24515365973424E-03 
1800	 6.21105638445265E-04 
1801	-5.22252742995897E-03 
1802	 3.18563352339681E-02 
1803	 3.77981480182122E-02 
1804	-1.57642535314624E-02 
1805	-3.62004756950044E-02 
1806	-5.09498295715387E-02 
1807	-8.79552096114271E-02 
1808	-0.118308261987103 
1809	-0.11616261033266 
1810	-0.121579563751468 
1811	-7.77991700341234E-02 
1812	 0.159518375225779 
1813	 0.233044786455705 
1814	 0.241813644749421 
1815	 8.34739603207312E-02 
1816	-0.45901925865455 
1817	-0.407825324711016 
1818	-0.967633656246806 
1819	-2.48114016399444 
1820	-0.407388147010929 
1821	-0.485115941502537 
1822	-0.528344955214088 
1823	-0.335420692033467 
1824	-0.43014780142526 
1825	-1.10754739750956 
1826	-1.18971180097478 
1827	-1.18798793650967 
1828	-0.876294321161783 
1829	 0.557535711397996 
1830	 0.494225401280351 
1831	-4.10339577042131 
1832	-10.6891055468285 
1833	 2.48439195435821 
1834	 1.53486283638841 
1835	 0.787481531731098 
1836	 0.709391678886141 
1837	 1.91890163602936 
1838	 3.83268088609997 
1839	 2.73138433028352 
1840	-1.77334272542354 
1841	-0.014594438137861 
1842	 1.87025139781086E-02 
1843	 0.589157983944039 
1844	 1.33451311916878 
1845	 1.66634844171248 
1846	 5.77503094317521 
1847	 9.04088760789398 
1848	 3.56045157775609 
1849	-0.131126788553021 
1850	-2.17823685839626 
1851	 3.19525855604303 
1852	 0.251442678670762 
1853	 8.15683249214318E-02 
1854	 7.37832458015924E-02 
1855	 8.46872166676769E-02 
1856	 7.68446345097612E-02 
1857	 10.801529190566 
1858	-2.33661092178864 
1859	 1.06113057412086 
1860	 0.707333249494976 
1861	 0.29805476932058 
1862	 0.13074716014587 
1863	 1.70303372248728 
1864	 3.00978481810345 
1865	 3.64485179686034 
1866	 4.13371346621074 
1867	 2.2100509055887 
1868	 1.15495963959498 
1869	 0.798351317471223 
1870	 0.414515767263387 
1871	 0.820026088263124 
1872	 1.99839425667701E-04 
1873	-2.22030206006684 
1874	-0.325183521623545 
1875	 0.570923484294442 
1876	 1.63388793665994 
1877	-0.425271895471732 
1878	-0.452248832017541 
1879	 1.96680988155111 
1880	 1.05574257113465 
1881	 6.24381654992984E-02 
1882	-0.459132035894552 
1883	-0.453953649372156 
1884	-0.584866450982017 
1885	-0.549308056773666 
1886	-0.132701456013291 
1887	-0.052966156445494 
1888	-0.133446125299047 
1889	-6.44810834402119E-02 
1890	 0.364610301632841 
1891	-1.33525914482384 
1892	 2.08252486918518 
1893	-0.112197139095302 
1894	-0.205335092233254 
1895	-1.93923115686739 
1896	-4.78121575274527 
1897	-7.49151875906289 
1898	-2.54907426063093 
1899	-1.7512640928397 
1900	-2.64218199341794 
1901	-3.20210578994767 
1902	-2.14385122773325 
1903	-5.5914812229465 
1904	-18.9262954918511 
1905	-0.034146046356104 
1906	 0.61882313985702 
1907	-32.0090455126041 
1908	-1.41179721229792 
1909	-0.307314177440394 
1910	-0.164851284614021 
1911	-0.166075495874163 
1912	-0.3471944353731 
1913	-0.247646974902238 
1914	-0.397360658705183 
1915	-0.285561827083551 
1916	 0.767131318467268 
1917	 2.47248289505812 
1918	-1.18005892433126 
1919	 0.882281123883247 
1920	 3.39523780039272 
1921	-2.58363667672613 
1922	 1.77352147803055 
1923	-18.2329646628782 
1924	-1.74470841668334 
1925	-1.06388054992142 
1926	-0.782240110191636 
1927	-0.224081896608391 
1928	 0.207233131022863 
1929	-0.081694676574347 
1930	-1.28741534225888 
1931	-1.32061588412664 
1932	-1.22745310329906 
1933	-2.72168429953132 
1934	-1.59900728683338 
1935	-0.976015958651246 
1936	-1.98946146069734 
1937	-1.62928569003768 
1938	-1.09229650373079 
1939	-0.710425817256928 
1940	-0.129519998531637 
1941	 0.192143915207017 
1942	 0.266102259083865 
1943	 0.304417571210001 
1944	 0.136691015399039 
1945	 9.14562146786327E-02 
1946	 0.15698468811708 
1947	 0.160520084496068 
1948	 9.01012623459249E-02 
1949	 3.54172997034147E-02 
1950	 4.10487999360627E-02 
1951	-1.34501019033657E-02 
1952	-4.42103521384963E-02 
1953	-7.42186531544096E-02 
1954	-2.59388558639649E-02 
1955	-4.11485142859758E-02 
1956	-9.94925714663585E-03 
1957	 2.96450046134254E-02 
1958	-8.92780092193455E-03 
1959	-4.70979297143601E-02 
1960	-3.42550637249094E-02 
1961	-3.8938078178322E-03 
1962	 5.65013524442185E-03 
1963	 1.61383493205116E-02 
1964	 1.32566229519647E-02 
1965	 4.15398673324519E-03 
1966	 5.78578473460542E-03 
1967	 1.42420451687943E-02 
1968	 1.87922410456461E-02 
1969	 1.94849775539397E-02 
1970	 0.021208895662145 
1971	 2.27862759947093E-02 
1972	 0.025543811462645 
1973	 2.66890695591111E-02 
1974	 2.27394990935382E-02 
1975	 1.79794119552884E-02 
1976	 1.61338080971192E-02 
1977	 1.26455554560167E-02 
1978	 1.11474025747962E-02 
1979	 1.29461888131942E-02 
1980	 1.64869719174415E-02 
1981	 1.54835413274232E-02 
1982	 1.73644718474343E-02 
1983	 2.31599286715037E-02 
1984	 0.021447603300162 
1985	 2.04478345375047E-02 
1986	 2.14719281579065E-02 
1987	 1.83450321349113E-02 
1988	 1.73790472721646E-02 
1989	 1.92489314552263E-02 
1990	 2.00941444473507E-02 
1991	 1.88102833517443E-02 
1992	 0.016589618758191 
1993	 1.55502241854745E-02 
1994	 1.42210594317274E-02 
1995	 1.23199281313205E-02 
1996	 0.012662870805304 
1997	 1.79735816730471E-02 
1998	 0.019287248907686 
1999	 1.78430023685357E-02 
2000	 2.08463236380529E-02 
2001	 0.01708692633127 
2002	 8.8517939691547E-03 
2003	 8.38566385205121E-03 
2004	 0.011788945589145 
2005	 1.13652716248086E-02 
2006	 1.55304844178552E-02 
2007	 2.65816970209275E-02 
2008	 2.74171825637238E-02 
2009	 0.028600208313092 
2010	 3.31666166293404E-02 
2011	 3.19336708330746E-02 
2012	 2.13948983988741E-02 
2013	 2.12478970241544E-02 
2014	 2.20415916053694E-02 
2015	 2.09455309858564E-02 
2016	 2.49849802390781E-02 
2017	 2.64986964024466E-02 
2018	 2.30526480963947E-02 
2019	 1.93853358771565E-02 
2020	 1.97160404871612E-02 
2021	 1.92957801414658E-02 
2022	 1.77194220984425E-02 
2023	 1.78144785050577E-02 
2024	 1.78374515833691E-02 
2025	 1.64116809068286E-02 
2026	 1.56467899844579E-02 
2027	 1.58966626232848E-02 
2028	 0.015820869761628 
2029	 1.55419245292859E-02 
2030	 1.55473222876245E-02 
2031	 1.75780564782295E-02 
2032	 1.99412912728287E-02 
2033	 1.93189049567227E-02 
2034	 1.80543561179413E-02 
2035	 1.73562762245709E-02 
2036	 1.56987157450899E-02 
2037	 1.65091207706217E-02 
2038	 1.88693201999294E-02 
2039	 1.94933123002265E-02 
2040	 1.93000779025738E-02 
2041	 1.97000613901451E-02 
2042	 1.91365571355265E-02 
2043	 1.93133196666961E-02 
2044	 2.05580815767337E-02 
2045	 2.10417443888433E-02 
2046	 1.95620451248068E-02 
2047	 2.00425070504027E-02 
2048	 1.95456377749135E-02 
2049	 1.80487467752273E-02 
2050	 2.00812156166304E-02 
2051	 1.98070633888879E-02 
2052	 1.83147819771275E-02 
2053	 1.94334322906351E-02 
2054	 1.99623584702987E-02 
2055	 2.05482141629822E-02 
2056	 2.01773532126962E-02 
2057	 1.84216705509202E-02 
2058	 1.88198753888945E-02 
2059	 0.019335074765901 
2060	 1.93805118577579E-02 
2061	 2.09236894903561E-02 
2062	 2.28145956499744E-02 
2063	 2.02149199856227E-02 
2064	 1.86547529703326E-02 
2065	 1.76043361832682E-02 
2066	 0.017861976445545 
2067	 1.74979597551854E-02 
2068	 1.63026278412136E-02 
2069	 1.79280659159807E-02 
2070	 0.017140553853076 
2071	 1.74288782593216E-02 
2072	 0.020629156332395 
2073	 2.15367609890201E-02 
2074	 2.15268422555511E-02 
2075	 2.10033210889543E-02 
2076	 1.90848220368394E-02 
2077	 1.87335493921694E-02 
2078	 1.92238758895869E-02 
2079	 0.018562428005664 
2080	 1.78175502765776E-02 
2081	 1.75780125913804E-02 
2082	 1.64467172854456E-02 
2083	 1.55493856355671E-02 
2084	 1.67072759998479E-02 
2085	 0.016365643154505 
2086	 1.49879624767742E-02 
2087	 0.015477342689586 
2088	 1.61093136826653E-02 
2089	 1.65271030305909E-02 
2090	 1.72234638124713E-02 
2091	 0.016770521467155 
2092	 1.70363495617216E-02 
2093	 1.73548308889149E-02 
2094	 1.71072370911199E-02 
2095	 1.71111623948748E-02 
2096	 1.74025705278143E-02 
2097	 1.68862000162836E-02 
2098	 1.68258506537914E-02 
2099	 1.79678629374424E-02 
2100	 1.74684399531732E-02 
2101	 1.73230988417565E-02 
2102	 1.79880894053977E-02 
2103	 1.85674557924896E-02 
2104	 1.95371963002102E-02 
2105	 1.98045456344251E-02 
2106	 1.92203374545197E-02 
2107	 2.07502588072249E-02 
2108	 2.21988667583945E-02 
2109	 2.12011846490646E-02 
2110	 2.08655039203113E-02 
2111	 2.00848718391834E-02 
2112	 1.80446192732513E-02 
2113	 0.018064052841914 
2114	 2.16603199157004E-02 
2115	 2.19730674594574E-02 
2116	 2.09884201003648E-02 
2117	 2.08049739357482E-02 
2118	 1.89036523909385E-02 
2119	 1.83543568962522E-02 
2120	 1.85245435975457E-02 
2121	 2.00652143168074E-02 
2122	 0.021056499363393 
2123	 2.18636678081781E-02 
2124	 2.21538705099306E-02 
2125	 2.15542219462579E-02 
2126	 2.18765892909934E-02 
2127	 2.19472827007762E-02 
2128	 2.10043333288498E-02 
2129	 2.06690351171741E-02 
2130	 2.10614445048223E-02 
2131	 2.09364672061573E-02 
2132	 2.10394371802549E-02 
2133	 2.19815190069501E-02 
2134	 2.20960604424147E-02 
2135	 2.03553371105992E-02 
2136	 2.05200681352263E-02 
2137	 2.22384370574895E-02 
2138	 2.27933492156279E-02 
2139	 2.33076839631671E-02 
2140	 2.34711359504975E-02 
2141	 2.27045940914263E-02 
2142	 2.23594196457897E-02 
2143	 2.15159432688292E-02 
2144	 2.28073447409085E-02 
2145	 2.27085796540675E-02 
2146	 2.24713596508342E-02 
2147	 2.28407200082809E-02 
2148	 2.18157632499847E-02 
2149	 2.21343356811926E-02 
2150	 2.27548328994341E-02 
2151	 0.021880945456901 
2152	 2.16976516078592E-02 
2153	 0.021394633138269 
2154	 2.17195792629267E-02 
2155	 2.31499878485109E-02 
2156	 2.30963688485716E-02 
2157	 2.37067376161615E-02 
2158	 2.51892857780655E-02 
2159	 2.43673119731525E-02 
2160	 2.18395637286177E-02 
2161	 2.12736424047603E-02 
2162	 1.95398673933477E-02 
2163	 1.91430943218677E-02 
2164	 2.16137727853652E-02 
2165	 2.22103713196846E-02 
2166	 2.22679272611862E-02 
2167	 2.18842184611115E-02 
2168	 2.04912009535827E-02 
2169	 1.95741761476397E-02 
2170	 1.86151187025143E-02 
2171	 1.66654937332659E-02 
2172	 1.67766586992527E-02 
2173	 1.92680898087845E-02 
2174	 2.08755871013248E-02 
2175	 2.28923240972278E-02 
2176	 2.29918014953483E-02 
2177	 2.12707791095678E-02 
2178	 2.06441901074474E-02 
2179	 1.93184059384273E-02 
2180	 1.86032347518232E-02 
2181	 1.91472640205331E-02 
2182	 1.89866678034368E-02 
2183	 1.93713232411171E-02 
2184	 2.04038018962787E-02 
2185	 1.91893319401089E-02 
2186	 1.98330844284232E-02 
2187	 2.20157318844513E-02 
2188	 2.31784731774434E-02 
2189	 2.53148141542099E-02 
2190	 2.59906848511267E-02 
2191	 2.55223982853171E-02 
2192	 2.40539223976174E-02 
2193	 1.95911890450877E-02 
2194	 1.83861053884269E-02 
2195	 1.87581696665814E-02 
2196	 1.78303147546851E-02 
2197	 1.83679791074373E-02 
2198	 1.87398423912733E-02 
2199	 1.76494662350261E-02 
2200	 1.69822215352471E-02 
2201	 1.84520870969841E-02 
2202	 1.97360953877396E-02 
2203	 2.04091410430714E-02 
2204	 2.14443297955177E-02 
2205	 2.22667955415202E-02 
2206	 2.11955909154701E-02 
2207	 1.97070183424063E-02 
2208	 1.95284435645949E-02 
2209	 1.97469509093478E-02 
2210	 2.04729807565851E-02 
2211	 1.85383541804095E-02 
2212	 1.58708264934771E-02 
2213	 1.70773630197808E-02 
2214	 1.62977773075237E-02 
2215	 1.71028697821066E-02 
2216	 2.05578973650301E-02 
2217	 2.06826590986179E-02 
2218	 1.67509128498408E-02 
2219	 1.62402035752816E-02 
2220	 1.58419388526803E-02 
2221	 1.68263920214711E-02 
2222	 2.01637901631503E-02 
2223	 2.20177116924965E-02 
2224	 2.41578543328915E-02 
2225	 2.53433617269623E-02 
2226	 2.66023144082563E-02 
2227	 2.46981222757191E-02 
2228	 1.99286692922999E-02 
2229	 0.018003690688062 
2230	 1.42578661617123E-02 
2231	 1.30999386365211E-02 
2232	 1.58077835886403E-02 
2233	 1.70845275988838E-02 
2234	 1.83554879241479E-02 
2235	 1.92756926272003E-02 
2236	 1.90290510193743E-02 
2237	 0.020000100848055 
2238	 2.10761780083774E-02 
2239	 2.03652398003894E-02 
2240	 2.25927778322718E-02 
2241	 2.10600789909486E-02 
2242	 1.81251079859697E-02 
2243	 1.91913717771983E-02 
2244	 1.85057802304587E-02 
2245	 1.83973517570817E-02 
2246	 1.85521689144376E-02 
2247	 1.71306859490051E-02 
2248	 2.05083323740508E-02 
2249	 2.50892421168585E-02 
2250	 2.56997255030894E-02 
2251	 2.48802758544028E-02 
2252	 2.33729347617527E-02 
2253	 2.12470685498772E-02 
2254	 2.08109202446119E-02 
2255	 2.28094753466083E-02 
2256	 2.11713572684192E-02 
2257	 1.87005680617617E-02 
2258	 0.017286023430332 
2259	 1.82411754373903E-02 
2260	 1.95113800081054E-02 
2261	 2.07469608894336E-02 
2262	 2.09599601397035E-02 
2263	 2.38040201384769E-02 
2264	 2.36995629521064E-02 
2265	 2.04627939642551E-02 
2266	 1.89807324953791E-02 
2267	 1.56243740923005E-02 
2268	 1.44878311020376E-02 
2269	 1.54125559474994E-02 
2270	 1.68485082116623E-02 
2271	 0.02125881231843 
2272	 2.34304684788547E-02 
2273	 2.43511329473673E-02 
2274	 2.47727708548743E-02 
2275	 2.54385564490702E-02 
2276	 2.39271120414369E-02 
2277	 1.79790729233873E-02 
2278	 1.64793146373616E-02 
2279	 1.62846126272442E-02 
2280	 1.53114575704432E-02 
2281	 1.52356883729279E-02 
2282	 2.01976421686382E-02 
2283	 1.88549388618473E-02 
2284	 1.66886671709312E-02 
2285	 1.98642312096303E-02 
2286	 1.90009207728476E-02 
2287	 2.15107583915875E-02 
2288	 2.52701329793277E-02 
2289	 1.81270321062552E-02 
2290	 1.54693050527056E-02 
2291	 1.83602484419072E-02 
2292	 1.48338403893526E-02 
2293	 1.74335680133068E-02 
2294	 2.40254759815865E-02 
2295	 2.08889499299203E-02 
2296	 1.63788877092165E-02 
2297	 1.66547618173882E-02 
2298	 1.94144533258987E-02 
2299	 2.04640230096082E-02 
2300	 1.88314437552491E-02 
2301	 1.60472721456298E-02 
2302	 1.37324360802187E-02 
2303	 1.72412370602909E-02 
2304	 2.18951590556209E-02 
2305	 2.68164043316968E-02 
2306	 2.97551364732931E-02 
2307	 2.17128779411245E-02 
2308	 1.68494985142098E-02 
2309	 2.02810540575066E-02 
2310	 1.89446462585044E-02 
2311	 1.76637471752351E-02 
2312	 2.07954923624608E-02 
2313	 1.98090991301885E-02 
2314	 1.31803432435271E-02 
2315	 0.0112511243759 
2316	 1.20275823955165E-02 
2317	 9.04394565854833E-03 
2318	 1.05526761811677E-02 
2319	 0.012217264971496 
2320	 1.22999436595025E-02 
2321	 1.94256177575382E-02 
2322	 2.38254464114091E-02 
2323	 2.71950277593336E-02 
2324	 0.028154845619337 
2325	 2.26355993175957E-02 
2326	 2.05995078569193E-02 
2327	 1.59429559553303E-02 
2328	 8.77642859188533E-03 
2329	 2.53296680035424E-03 
2330	-4.94776919686585E-03 
2331	-2.11590157471333E-03 
2332	 8.29752462542428E-03 
2333	 8.83779686597099E-03 
2334	 1.34236869199726E-02 
2335	 1.51746335020219E-02 
2336	 1.07414426661591E-02 
2337	 2.10109361306019E-02 
2338	 2.17975351258464E-02 
2339	 1.64188542019019E-02 
2340	 1.70203196543757E-02 
2341	 2.22424526585536E-02 
2342	 0.027518651767997 
2343	 3.21233383196253E-02 
2344	 3.94426993623935E-02 
2345	 4.23429325357602E-02 
2346	 3.83135703329511E-02 
2347	 1.96678481499475E-02 
2348	 9.90479329458481E-03 
2349	 6.95815806262004E-03 
2350	 2.42446081912621E-03 
2351	 3.67083344559886E-03 
2352	-8.28624046846737E-03 
2353	-2.02751846775625E-02 
2354	-3.51845179505206E-02 
2355	-4.41650129089056E-02 
2356	-2.34010192852898E-02 
2357	-2.85259838802145E-02 
2358	-3.31173535773428E-02 
2359	-9.18691680582511E-05 
2360	 1.03365555683353E-02 
2361	 1.99664896493605E-02 
2362	 4.08806024865619E-02 
2363	 4.41233294431965E-02 
2364	 0.036388412075787 
2365	 2.11770956865808E-02 
2366	 1.39846519513495E-02 
2367	 0.016894466015848 
2368	 1.41465353391896E-02 
2369	 0.012886389327528 
2370	 2.72388977956869E-02 
2371	 3.52355752848318E-02 
2372	 6.37665449205042E-02 
2373	 9.48240196943315E-02 
2374	 8.15082795272097E-02 
2375	 6.78997859300635E-02 
2376	 4.20290856800814E-02 
2377	 2.37316445357296E-02 
2378	 2.94629834940512E-02 
2379	 2.23224523188429E-02 
2380	 1.12056310905011E-02 
2381	 8.71945448404998E-03 
2382	 4.11795512527119E-02 
2383	 6.88257005544027E-02 
2384	 8.44692688854789E-02 
2385	 0.104140960847683 
2386	 9.23496162403466E-02 
2387	 6.05038623574161E-02 
2388	 1.20935950822091E-02 
2389	-1.37117712677753E-02 
2390	-7.60613167026459E-02 
2391	-0.114033815547464 
2392	-0.057286564937359 
2393	-6.43236702916563E-02 
2394	-6.15749669871639E-02 
2395	-4.55584651873866E-02 
2396	-0.07998402330465 
2397	-7.45844147023963E-02 
2398	-0.101686299922534 
2399	-0.131017285827186 
2400	-0.113644249535952 
2401	-0.142232992419842 
2402	-0.140887733373976 
2403	-9.61963873734321E-02 
2404	-7.26755373640796E-02 
2405	-7.62717024061912E-02 
2406	-9.58272566462536E-02 
2407	-0.116144179573778 
2408	-0.123748194286628 
2409	-4.20328716876382E-02 
2410	 3.98343786098771E-02 
2411	 5.68618272036628E-02 
2412	 0.149169676178955 
2413	 2.43243093339311E-02 
2414	-0.135467509290994 
2415	-1.35773623151818E-02 
2416	-0.126920870058083 
2417	-0.132829919165011 
2418	 1.59868544487991E-02 
2419	 3.91108408600072E-02 
2420	 4.35055922888741E-02 
2421	 0.076133385287304 
2422	 0.133755376690577 
2423	 0.104842035562851 
2424	 2.99920725460803E-02 
2425	-6.50762740982771E-02 
2426	-8.06430144321567E-02 
2427	-4.29831353991451E-02 
2428	-2.71471883861429E-03 
2429	-1.23124519736553E-02 
2430	-3.12929615323545E-02 
2431	 0.123470100240291 
2432	 0.14547669834673 
2433	-5.28787392088764E-02 
2434	 4.21898606300082E-02 
2435	-0.481597721868034 
2436	-0.103871520305761 
2437	 0.627444949695113 
2438	 0.608424365512365 
2439	 0.269947217667473 
2440	 0.362718842734396 
2441	-0.173716258884097 
2442	-0.426426645299625 
2443	-0.746805876639021 
2444	-0.797632228204834 
2445	-0.21593576728584 
2446	-0.070497623342655 
2447	 0.115721414074859 
2448	 0.059028157799299 
2449	-0.345010799662835 
2450	-0.528510601956402 
2451	-0.660397233963091 
2452	-1.23642651638628 
2453	-4.14568745201729 
2454	 6.52965027291863 
2455	 2.0715913327818 
2456	 3.48567646118413 
2457	 2.17019532596074 
2458	 0.51327082359194 
2459	 0.662205909541542 
2460	 1.70425463973385 
2461	-14.4345596153901 
2462	 0.617537445152321 
2463	 1.09480678965412 
2464	 1.66394136935456 
2465	 1.39657924103614 
2466	 1.30135311624055 
2467	 1.75005114005493 
2468	-0.160769397917663 
2469	 8.87457409903374E-02 
2470	 0.543541442385039 
2471	 0.391293050949124 
2472	 0.462506608578437 
2473	-1.12977258089879 
2474	 1.10145732012072 
2475	 3.09374697681637 
2476	-0.727155401087169 
2477	-0.382809693014894 
2478	-0.106864229316787 
2479	 1.6510938825608 
2480	 7.50981043808852 
2481	-3.4443273437322 
2482	-2.87559456467816 
2483	-10.8762534403729 
2484	-0.678565990757984 
2485	 0.52708994505307 
2486	-1.5499986407211 
2487	-2.73099463678453 
2488	 4.56788420318657 
2489	 1.58789825199679 
2490	 0.492960323498343 
2491	 0.503405070627771 
2492	 0.741890005028655 
2493	 2.32984855982553 
2494	 4.53418457629434 
2495	 8.00369591836522 
2496	 4.01862910874494 
2497	 3.22689457681207 
2498	 41.8839768654407 
2499	 3.57112708476608 
2500	 4.77417160803913 
