Wavelength	rt0628close00001.asd
350	 7.08204886274075E-02 
351	 7.28852982974474E-02 
352	 7.15589524324143E-02 
353	 7.04683600532873E-02 
354	 7.14891676445106E-02 
355	 6.95287085079878E-02 
356	 6.99981854635415E-02 
357	 0.070823348120946 
358	 6.92647049977675E-02 
359	 7.01245945297529E-02 
360	 6.96752369657132E-02 
361	 6.84396966820097E-02 
362	 6.94665340738442E-02 
363	 6.87614433357745E-02 
364	 6.83821077842227E-02 
365	 6.90774848572978E-02 
366	 6.85476206671997E-02 
367	 6.86712852068578E-02 
368	 0.068818390299558 
369	 6.83389022604082E-02 
370	 6.89608222143943E-02 
371	 6.84159718279484E-02 
372	 6.76262305948676E-02 
373	 6.88344637394086E-02 
374	 6.81591413747613E-02 
375	 6.81692187632193E-02 
376	 6.92561749701725E-02 
377	 6.80775149037542E-02 
378	 6.86186260426393E-02 
379	 6.90073274256556E-02 
380	 6.77666880586886E-02 
381	 6.91343422736589E-02 
382	 6.88521471975142E-02 
383	 6.79600161036545E-02 
384	 6.92632294103324E-02 
385	 6.85294142741385E-02 
386	 6.85864714617694E-02 
387	 6.95796795822886E-02 
388	 6.83096596925559E-02 
389	 6.91873236700123E-02 
390	 6.97759028229329E-02 
391	 6.85115996766424E-02 
392	 6.92229154249975E-02 
393	 6.87007690329764E-02 
394	 6.81702902350008E-02 
395	 6.94787032491497E-02 
396	 6.87240600737319E-02 
397	 0.068789730702781 
398	 6.96465796339435E-02 
399	 6.86907727288419E-02 
400	 6.87560667961301E-02 
401	 6.88403170675458E-02 
402	 6.83005183995496E-02 
403	 6.86709416702374E-02 
404	 6.86290641437102E-02 
405	 6.84929669139956E-02 
406	 6.89128797973686E-02 
407	 6.87225159634001E-02 
408	 6.89496633427149E-02 
409	 6.94468638665892E-02 
410	 6.89170116079479E-02 
411	 6.91758042851881E-02 
412	 6.93569138333199E-02 
413	 6.89434369237095E-02 
414	 6.94706507665842E-02 
415	 6.95764754170183E-02 
416	 6.94724781036708E-02 
417	 6.98108350435858E-02 
418	 6.97245808140034E-02 
419	 6.99285659699609E-02 
420	 7.03747003189528E-02 
421	 0.0701421368395 
422	 7.04955771656378E-02 
423	 7.08244093085229E-02 
424	 0.070667188839557 
425	 7.11016164461775E-02 
426	 7.12798431561522E-02 
427	 7.13927952821065E-02 
428	 7.19636583090041E-02 
429	 7.20466153972945E-02 
430	 7.23536636495895E-02 
431	 7.29277354342344E-02 
432	 7.28805376998198E-02 
433	 7.32739074092701E-02 
434	 7.36711725027329E-02 
435	 7.36927927801043E-02 
436	 7.41589599177632E-02 
437	 7.43454452240896E-02 
438	 7.44424377771656E-02 
439	 7.50121853952107E-02 
440	 7.51477046755842E-02 
441	 7.54361618224666E-02 
442	 7.59716769520724E-02 
443	 7.58837724445811E-02 
444	 7.62201415449101E-02 
445	 7.65931932166853E-02 
446	 7.65461113563376E-02 
447	 7.69668597976773E-02 
448	 7.71831772468787E-02 
449	 7.72536266500901E-02 
450	 7.77168647212621E-02 
451	 7.77288767955103E-02 
452	 7.77913641399759E-02 
453	 7.81521006092107E-02 
454	 0.078129679183243 
455	 7.83240562496609E-02 
456	 7.85336364894621E-02 
457	 7.84473244672322E-02 
458	 7.87919025127317E-02 
459	 0.078906546656368 
460	 7.88053066655875E-02 
461	 7.91951621666564E-02 
462	 7.91788707610855E-02 
463	 7.91889648742638E-02 
464	 7.95258011608393E-02 
465	 7.93589598395223E-02 
466	 7.94641334479303E-02 
467	 7.97212595937253E-02 
468	 7.96730348714172E-02 
469	 7.99113961439242E-02 
470	 7.99787158947205E-02 
471	 7.98596114184217E-02 
472	 8.02408184996422E-02 
473	 8.02524228978924E-02 
474	 8.02989863727071E-02 
475	 8.07564533699392E-02 
476	 8.06551406868112E-02 
477	 8.07533333053647E-02 
478	 8.10646606911258E-02 
479	 8.11355770083721E-02 
480	 8.15224057017572E-02 
481	 8.17241338154041E-02 
482	 8.16066289591451E-02 
483	 8.20740642935744E-02 
484	 8.22701746908654E-02 
485	 8.24171167000555E-02 
486	 8.29363487533933E-02 
487	 8.30725973351226E-02 
488	 8.33433071035227E-02 
489	 8.37582051270796E-02 
490	 8.38154604709005E-02 
491	 8.42118522195289E-02 
492	 8.45840874996458E-02 
493	 8.46863348206501E-02 
494	 8.51957056513398E-02 
495	 8.54751624095549E-02 
496	 8.56886790415166E-02 
497	 8.62814292646509E-02 
498	 8.63607736861524E-02 
499	 8.66532610580451E-02 
500	 8.72982466769626E-02 
501	 8.72788350432503E-02 
502	 8.76692690514362E-02 
503	 8.81635600915082E-02 
504	 8.83313426224854E-02 
505	 8.89436817366243E-02 
506	 8.93483366904012E-02 
507	 8.96093172512435E-02 
508	 9.03198921855994E-02 
509	 9.07026048831163E-02 
510	 9.11265447429674E-02 
511	 0.091788596695976 
512	 0.092016474903678 
513	 9.25397979908732E-02 
514	 9.31440087485671E-02 
515	 9.33546550511196E-02 
516	 9.40419504184796E-02 
517	 9.45808201774424E-02 
518	 9.48854584850483E-02 
519	 9.56809950941978E-02 
520	 9.60927488156474E-02 
521	 9.64527461544427E-02 
522	 9.71153082685891E-02 
523	 9.74890958047092E-02 
524	 9.80066311813327E-02 
525	 9.86249429697397E-02 
526	 9.90126712360208E-02 
527	 0.099712758982838 
528	 0.100322802950385 
529	 0.100688298078911 
530	 0.101429482968244 
531	 0.101937838026801 
532	 0.102426598885356 
533	 0.103253597163381 
534	 0.103714400772877 
535	 0.104320501628481 
536	 0.105111485911761 
537	 0.1055179079292 
538	 0.106147806833458 
539	 0.106775342403515 
540	 0.107195314810412 
541	 0.107960335085102 
542	 0.108573734973168 
543	 0.109105711695886 
544	 0.109924033708942 
545	 0.110453822789673 
546	 0.111075576865052 
547	 0.111929106776849 
548	 0.112445089957088 
549	 0.113165923287357 
550	 0.11390416750295 
551	 0.114355210725514 
552	 0.115094023676234 
553	 0.115733745281808 
554	 0.116228188810623 
555	 0.116961314068335 
556	 0.117517382597448 
557	 0.11807448106042 
558	 0.118777103829772 
559	 0.119181070365646 
560	 0.119784861784454 
561	 0.120475995841348 
562	 0.120826740420349 
563	 0.121412222751777 
564	 0.121913656936807 
565	 0.122201666428853 
566	 0.122758298038074 
567	 0.123065477228721 
568	 0.123347969572229 
569	 0.123957449465673 
570	 0.124309715695457 
571	 0.124709420436795 
572	 0.125161984633791 
573	 0.125313135756503 
574	 0.125781036024117 
575	 0.126278003731903 
576	 0.126536375780757 
577	 0.127083930958986 
578	 0.127477513940383 
579	 0.127782284173171 
580	 0.128315923172725 
581	 0.128550601410565 
582	 0.128835009094477 
583	 0.129270356534567 
584	 0.129295745121768 
585	 0.129405400824169 
586	 0.129331893785045 
587	 0.128758067884911 
588	 0.128797898657499 
589	 0.128859695281355 
590	 0.128874065403587 
591	 0.129415915158493 
592	 0.129540980762243 
593	 0.129636172895604 
594	 0.130047780994656 
595	 0.130139592621907 
596	 0.130396641868666 
597	 0.130711198630741 
598	 0.130724893683591 
599	 0.131130626436403 
600	 0.131400162312513 
601	 0.131356580680656 
602	 0.131681979307296 
603	 0.131813485359437 
604	 0.131892650721247 
605	 0.132150215333642 
606	 0.132055593804354 
607	 0.132160996635572 
608	 0.132466736713577 
609	 0.13238336177869 
610	 0.132576174483443 
611	 0.132728120598074 
612	 0.132607092318078 
613	 0.132863713459844 
614	 0.132932650836824 
615	 0.132911123230462 
616	 0.133183324316802 
617	 0.133103913139159 
618	 0.133156017140549 
619	 0.13345671849041 
620	 0.13332986982076 
621	 0.133474096042318 
622	 0.133627028969965 
623	 0.133429713417462 
624	 0.133669521060531 
625	 0.133572762177254 
626	 0.133184673517982 
627	 0.133339142012279 
628	 0.13335606272119 
629	 0.133476540074394 
630	 0.133826205056865 
631	 0.133742844051749 
632	 0.133938999994639 
633	 0.134219273911777 
634	 0.134098298112175 
635	 0.13448450412591 
636	 0.134668961577473 
637	 0.134498785743684 
638	 0.134827361547444 
639	 0.134847796953742 
640	 0.134844258978645 
641	 0.135155810072376 
642	 0.135011090643892 
643	 0.134960026569398 
644	 0.134906796274466 
645	 0.134279164224603 
646	 0.134171259256748 
647	 0.134252681250599 
648	 0.134233916805762 
649	 0.134640486889855 
650	 0.134656154633627 
651	 0.134565239429267 
652	 0.134888885672866 
653	 0.134676100739363 
654	 0.134534423357849 
655	 0.134658676285595 
656	 0.134526861287062 
657	 0.134738467227767 
658	 0.13490921270812 
659	 0.134780950191253 
660	 0.135073410420582 
661	 0.135076292653638 
662	 0.13493157795578 
663	 0.135221313616528 
664	 0.135144411931811 
665	 0.135118555761419 
666	 0.13530770063513 
667	 0.135129071014395 
668	 0.135276379883103 
669	 0.135464564370483 
670	 0.135299360323615 
671	 0.135572604672021 
672	 0.135656343469861 
673	 0.13556618913523 
674	 0.135921741023168 
675	 0.135881857142489 
676	 0.135932181953633 
677	 0.136354338673666 
678	 0.136238633363077 
679	 0.136455585660526 
680	 0.136779965141274 
681	 0.136652129865795 
682	 0.136952109090535 
683	 0.137139306771022 
684	 0.136958095435395 
685	 0.136661763813225 
686	 0.135975982493694 
687	 0.13571098687938 
688	 0.136363265970984 
689	 0.136377868879987 
690	 0.13653294108402 
691	 0.136586140708663 
692	 0.135840351457678 
693	 0.136019962400814 
694	 0.136458651013782 
695	 0.136697654209396 
696	 0.137329732673872 
697	 0.137095910810856 
698	 0.136486811557797 
699	 0.136356493619248 
700	 0.13612152025554 
701	 0.136379570706355 
702	 0.136851890256039 
703	 0.136659666725393 
704	 0.136626415482938 
705	 0.136523075745676 
706	 0.136276804009246 
707	 0.136536983750992 
708	 0.136425016357105 
709	 0.13617294798449 
710	 0.136234172314784 
711	 0.135823081774152 
712	 0.135410849860641 
713	 0.134968463949262 
714	 0.133861060518504 
715	 0.132610331802473 
716	 0.131009400012499 
717	 0.129181128584754 
718	 0.128599532684318 
719	 0.12854470695157 
720	 0.128748762665285 
721	 0.129058369908793 
722	 0.127990776217219 
723	 0.126784871826109 
724	 0.126092543123236 
725	 0.125009922308174 
726	 0.124423972335808 
727	 0.123764326044648 
728	 0.12259971733684 
729	 0.121767738770733 
730	 0.120948196085618 
731	 0.120399067595005 
732	 0.120315545466646 
733	 0.119536360060748 
734	 0.118727547979378 
735	 0.118176566295412 
736	 0.117558665848247 
737	 0.117437489355586 
738	 0.117441707053302 
739	 0.117275305673815 
740	 0.117577785782845 
741	 0.117640123270999 
742	 0.117599070834376 
743	 0.117922649550044 
744	 0.117850013632957 
745	 0.117918204340382 
746	 0.118201619911712 
747	 0.117995902482125 
748	 0.118070860076708 
749	 0.118186638633178 
750	 0.118093544427696 
751	 0.118426673860545 
752	 0.118383100947128 
753	 0.118173370493714 
754	 0.118435888709434 
755	 0.118299711517945 
756	 0.118265583309867 
757	 0.118283270202096 
758	 0.11702348494236 
759	 0.115569106522246 
760	 0.113993063101002 
761	 0.113064796471138 
762	 0.113897907364427 
763	 0.11453673920816 
764	 0.115451882992126 
765	 0.117295615844618 
766	 0.117928600069575 
767	 0.118562186172485 
768	 0.119328731030145 
769	 0.119318086896041 
770	 0.1195869150188 
771	 0.119847774394674 
772	 0.119856931209472 
773	 0.120271268521077 
774	 0.120389034966358 
775	 0.120456572342247 
776	 0.12095573133189 
777	 0.121070707765402 
778	 0.121305074321882 
779	 0.121650377423229 
780	 0.12155615422437 
781	 0.121962478796633 
782	 0.122255518678765 
783	 0.12210845386919 
784	 0.122527676811906 
785	 0.122496515593667 
786	 0.122351172705832 
787	 0.122670129820711 
788	 0.122482070348247 
789	 0.122739346424528 
790	 0.123369796675176 
791	 0.1235236891203 
792	 0.124319410117033 
793	 0.124696132730113 
794	 0.124356961038205 
795	 0.124689328555265 
796	 0.124718982951785 
797	 0.124848290707027 
798	 0.125410264932173 
799	 0.125149460433107 
800	 0.12528408364014 
801	 0.125652087646207 
802	 0.125502281089758 
803	 0.126153183055988 
804	 0.126604602212326 
805	 0.126581037943061 
806	 0.126769798458659 
807	 0.126548783870522 
808	 0.126236806775039 
809	 0.125998150203644 
810	 0.12503749105224 
811	 0.124516975472977 
812	 0.124031752845265 
813	 0.122806918696671 
814	 0.122485127432236 
815	 0.121975797206044 
816	 0.121438308988799 
817	 0.121900681402883 
818	 0.12160512350487 
819	 0.121580026286895 
820	 0.121780574371916 
821	 0.120518014249261 
822	 0.119793478576746 
823	 0.119205494702581 
824	 0.118267623513841 
825	 0.117877443277974 
826	 0.116418552844328 
827	 0.114625750805214 
828	 0.113851354663537 
829	 0.112218663657622 
830	 0.111172168575082 
831	 0.110571250772268 
832	 0.109272888466995 
833	 0.109034099065283 
834	 0.108673830396185 
835	 0.107896398057779 
836	 0.107933532289536 
837	 0.107485888929942 
838	 0.107165522190313 
839	 0.10733842638694 
840	 0.106631064661572 
841	 0.10656119826579 
842	 0.106588057684482 
843	 0.105883174913188 
844	 0.106058957192729 
845	 0.1057583843587 
846	 0.105121080859587 
847	 0.10518666835995 
848	 0.104607021380754 
849	 0.104267982441104 
850	 0.104286969522707 
851	 0.103573141770651 
852	 0.103602561061216 
853	 0.10358814446207 
854	 0.103036039760329 
855	 0.103098442103814 
856	 0.102580953959954 
857	 0.102195760568363 
858	 0.102524539397198 
859	 0.101738890267159 
860	 0.10161629376488 
861	 0.101727045719882 
862	 0.100907110922834 
863	 0.101079828779387 
864	 0.100780555024179 
865	 0.100040826265026 
866	 0.100237575434324 
867	 9.96464343598595E-02 
868	 9.93834288751696E-02 
869	 9.95354838464497E-02 
870	 9.84757497463279E-02 
871	 9.84737304612631E-02 
872	 9.82945987968249E-02 
873	 9.72371238418164E-02 
874	 9.75319527526322E-02 
875	 9.69428474691464E-02 
876	 0.09626529898421 
877	 9.64477164977934E-02 
878	 9.53637209032544E-02 
879	 0.09511079512135 
880	 9.50795388316923E-02 
881	 9.39196878524365E-02 
882	 0.094114571579852 
883	 9.36337341927539E-02 
884	 9.26881499356755E-02 
885	 9.29735190500558E-02 
886	 9.20183900716883E-02 
887	 9.16201028317494E-02 
888	 9.18316774844594E-02 
889	 9.04512839671739E-02 
890	 9.02988778591673E-02 
891	 8.99504184230496E-02 
892	 0.088764920616547 
893	 0.089059883886145 
894	 0.087549240910729 
895	 8.62246922787974E-02 
896	 0.086818151065116 
897	 8.45437848058179E-02 
898	 8.44697605848436E-02 
899	 8.45624127091033E-02 
900	 8.24785936307414E-02 
901	 0.084141953916806 
902	 8.36134149174513E-02 
903	 8.24770586036986E-02 
904	 8.37355715171268E-02 
905	 8.21488290723131E-02 
906	 8.17098389462793E-02 
907	 0.081863085552651 
908	 7.93984422421402E-02 
909	 8.01227534718672E-02 
910	 7.96067164897735E-02 
911	 7.76492887419239E-02 
912	 7.81248286219831E-02 
913	 7.64256732745471E-02 
914	 7.60526993527014E-02 
915	 7.67666785563103E-02 
916	 7.38895041389964E-02 
917	 7.46598875721167E-02 
918	 7.43213257969253E-02 
919	 7.19508075645831E-02 
920	 7.32748521927964E-02 
921	 7.17205031058313E-02 
922	 0.070450014247512 
923	 0.070986333658011 
924	 6.73980408030889E-02 
925	 6.69583135043774E-02 
926	 6.66802150018225E-02 
927	 6.30813559974159E-02 
928	 6.48552481158484E-02 
929	 6.12901947798176E-02 
930	 5.69733242427399E-02 
931	 6.27052990176287E-02 
932	 5.18767385370068E-02 
933	 5.24752011034475E-02 
934	 5.44970168107037E-02 
935	 3.84107377131557E-02 
936	 4.94568668720266E-02 
937	 4.61196171701133E-02 
938	 4.09100700733303E-02 
939	 5.07707130063555E-02 
940	 4.25130154897052E-02 
941	 4.25598051145061E-02 
942	 4.61306210839832E-02 
943	 3.78367595482988E-02 
944	 4.28568239406288E-02 
945	 3.96438767435582E-02 
946	 3.38539445610759E-02 
947	 4.16597068937745E-02 
948	 3.10006287349935E-02 
949	 3.30705109491058E-02 
950	 4.08914278756779E-02 
951	 3.01812845778705E-02 
952	 3.52746642164017E-02 
953	 3.27227342898697E-02 
954	 0.026919806690986 
955	 3.65554702469742E-02 
956	 2.97362133774801E-02 
957	 2.90149692230127E-02 
958	 3.37435508417511E-02 
959	 2.87017361274658E-02 
960	 3.23895359083501E-02 
961	 3.01375358464468E-02 
962	 2.57673767721111E-02 
963	 3.27291243139603E-02 
964	 3.03131765464526E-02 
965	 3.04985112942063E-02 
966	 3.24659475197087E-02 
967	 2.74266388157338E-02 
968	 3.01685795751037E-02 
969	 3.07743682122778E-02 
970	 2.89869923887609E-02 
971	 3.25252283351532E-02 
972	 2.84353512532464E-02 
973	 2.78375759475378E-02 
974	 3.13469536851581E-02 
975	 0.028707451755861 
976	 3.16449040107026E-02 
977	 3.08524582013027E-02 
978	 2.76612083543587E-02 
979	 3.17265259599393E-02 
980	 2.92181356568859E-02 
981	 3.03329963693926E-02 
982	 3.34629567683548E-02 
983	 2.88064763826608E-02 
984	 3.17030759495683E-02 
985	 3.20041892902227E-02 
986	 3.00244686228653E-02 
987	 3.38828743239465E-02 
988	 3.25812596621499E-02 
989	 3.27381919668626E-02 
990	 3.37899636598223E-02 
991	 3.05647288456306E-02 
992	 3.28083639272633E-02 
993	 3.21704793153874E-02 
994	 3.03981527172914E-02 
995	 3.45455309791473E-02 
996	 3.23708530143337E-02 
997	 3.36919181715879E-02 
998	 3.56566754219481E-02 
999	 3.05649366322993E-02 
1000	 3.48174099915763E-02 
1001	 3.45731344134459E-02 
1002	 3.49163592354756E-02 
1003	 3.51431910193567E-02 
1004	 3.53716724493961E-02 
1005	 3.55889464765162E-02 
1006	 3.56205639689437E-02 
1007	 3.58851143334917E-02 
1008	 3.63275304535382E-02 
1009	 0.036601415369004 
1010	 3.74843752882584E-02 
1011	 3.80887899836152E-02 
1012	 0.037988461004277 
1013	 3.81319926843982E-02 
1014	 3.80880771270145E-02 
1015	 3.72955824928455E-02 
1016	 3.73513039817057E-02 
1017	 3.78251912342111E-02 
1018	 0.038383797662719 
1019	 3.95079831420431E-02 
1020	 4.01257500941654E-02 
1021	 4.08172824076714E-02 
1022	 4.11216605791718E-02 
1023	 0.041044805223842 
1024	 4.09499383141089E-02 
1025	 4.12471171209487E-02 
1026	 0.041714164376476 
1027	 4.23372479783205E-02 
1028	 4.35023677270789E-02 
1029	 4.41786202812364E-02 
1030	 4.47790571609445E-02 
1031	 4.51995556731607E-02 
1032	 4.54969843007422E-02 
1033	 4.55874562993193E-02 
1034	 4.51302284191571E-02 
1035	 4.53158384989798E-02 
1036	 4.54519016658487E-02 
1037	 4.59268861577551E-02 
1038	 4.71086515293021E-02 
1039	 4.81231830869388E-02 
1040	 4.88798478483879E-02 
1041	 4.94825931900873E-02 
1042	 4.99224525853206E-02 
1043	 4.99993736240732E-02 
1044	 5.04180055285076E-02 
1045	 5.07964889851115E-02 
1046	 5.13521435817681E-02 
1047	 5.22589976699379E-02 
1048	 5.27007817044778E-02 
1049	 5.30027272003392E-02 
1050	 5.33462710406705E-02 
1051	 0.053382329609676 
1052	 5.36186608559247E-02 
1053	 5.40618119545484E-02 
1054	 5.43913354770137E-02 
1055	 5.45838692999556E-02 
1056	 5.49190627102244E-02 
1057	 5.53171200738953E-02 
1058	 5.57178256546581E-02 
1059	 5.62906484863803E-02 
1060	 5.72349931550648E-02 
1061	 5.76180173265035E-02 
1062	 5.80299784034974E-02 
1063	 5.79968405743687E-02 
1064	 5.71617657980879E-02 
1065	 5.69888813698045E-02 
1066	 5.66939803415264E-02 
1067	 5.68083532973635E-02 
1068	 5.76489754333552E-02 
1069	 0.058047810742091 
1070	 5.86234533094344E-02 
1071	 5.88369073753683E-02 
1072	 5.87420460634266E-02 
1073	 5.83757854469916E-02 
1074	 0.058292277635398 
1075	 5.82354954810543E-02 
1076	 5.79682344971322E-02 
1077	 5.76857589656521E-02 
1078	 5.74595998475945E-02 
1079	 5.67509765034745E-02 
1080	 5.67018858492135E-02 
1081	 5.75381964953374E-02 
1082	 5.75035421987618E-02 
1083	 5.73129926841029E-02 
1084	 5.70382587354048E-02 
1085	 5.58649216080667E-02 
1086	 5.54033692907755E-02 
1087	 5.57548354460463E-02 
1088	 0.055525590092318 
1089	 5.53299293602263E-02 
1090	 5.48002530153705E-02 
1091	 5.43506958710642E-02 
1092	 5.33403854248256E-02 
1093	 0.052953111941023 
1094	 5.32111092034133E-02 
1095	 5.27274506116883E-02 
1096	 5.18317185152882E-02 
1097	 5.13381121835901E-02 
1098	 5.05703316730215E-02 
1099	 5.01504890489614E-02 
1100	 5.06045611297744E-02 
1101	 5.02100544359373E-02 
1102	 4.90348940043875E-02 
1103	 4.84223772212224E-02 
1104	 4.74038170993244E-02 
1105	 4.72090418817896E-02 
1106	 4.72403466687325E-02 
1107	 4.73216553695072E-02 
1108	 4.73381230121455E-02 
1109	 4.63962606137039E-02 
1110	 4.61791105749358E-02 
1111	 4.67802959781525E-02 
1112	 4.62803812693414E-02 
1113	 4.43827577076801E-02 
1114	 0.044384773593621 
1115	 4.52815631730421E-02 
1116	 4.50276576621337E-02 
1117	 4.68731330365511E-02 
1118	 0.048217084317724 
1119	 4.65867060940019E-02 
1120	 4.54618783052733E-02 
1121	 4.62400132673214E-02 
1122	 4.50743656506747E-02 
1123	 0.041897941166963 
1124	 3.79948495262271E-02 
1125	 3.64618844627708E-02 
1126	 4.06111388229043E-02 
1127	 4.65605690721106E-02 
1128	 4.74494739873783E-02 
1129	 4.63068800647071E-02 
1130	 4.34598141168427E-02 
1131	 4.07458372577582E-02 
1132	 3.69416332486295E-02 
1133	 3.44373009105112E-02 
1134	 0.030651400966778 
1135	 0.02925767047519 
1136	 2.90643168253512E-02 
1137	 2.84088439676289E-02 
1138	 2.77296550556253E-02 
1139	 2.98601955745864E-02 
1140	 3.08624213500385E-02 
1141	 0.028159745160127 
1142	 2.72204826422499E-02 
1143	 2.83240851484069E-02 
1144	 2.69606179428256E-02 
1145	 2.65450584082209E-02 
1146	 2.75844985921829E-02 
1147	 2.61466890486282E-02 
1148	 2.41571157911031E-02 
1149	 2.43685383134173E-02 
1150	 2.41980357416159E-02 
1151	 2.35535916664918E-02 
1152	 2.29302810839192E-02 
1153	 2.21988939920246E-02 
1154	 2.24811346355703E-02 
1155	 0.022873970495373 
1156	 2.35078529094747E-02 
1157	 2.31612299390495E-02 
1158	 2.34475588221614E-02 
1159	 2.39247992688471E-02 
1160	 2.34323062959527E-02 
1161	 2.34797465679716E-02 
1162	 2.35836354511847E-02 
1163	 2.26663301250876E-02 
1164	 0.022448174329185 
1165	 2.34907688735057E-02 
1166	 2.39851101214521E-02 
1167	 2.37613571801471E-02 
1168	 2.36916375360603E-02 
1169	 2.36075507487928E-02 
1170	 0.023618820357301 
1171	 2.35912812837635E-02 
1172	 2.39480682701325E-02 
1173	 2.40030791413965E-02 
1174	 2.37710878955933E-02 
1175	 2.36283517840458E-02 
1176	 2.33527839489608E-02 
1177	 2.34260427952167E-02 
1178	 0.02365548100201 
1179	 2.36812793021685E-02 
1180	 2.41556387299639E-02 
1181	 2.45917360759658E-02 
1182	 0.024255722717961 
1183	 2.37522902762001E-02 
1184	 2.38491835774431E-02 
1185	 2.41578163052663E-02 
1186	 2.37511650956201E-02 
1187	 2.34514698925273E-02 
1188	 2.35468819377594E-02 
1189	 0.023184222919845 
1190	 2.31109578885224E-02 
1191	 2.34615515248815E-02 
1192	 2.36167735054546E-02 
1193	 2.34264799178311E-02 
1194	 2.33641233460037E-02 
1195	 2.33993349337861E-02 
1196	 2.32023615340579E-02 
1197	 2.32184207730953E-02 
1198	 0.023213108335146 
1199	 2.31467671774522E-02 
1200	 2.32419678697299E-02 
1201	 2.32604250860324E-02 
1202	 2.32926567756506E-02 
1203	 2.33756763837282E-02 
1204	 2.34935234891108E-02 
1205	 2.35542283199353E-02 
1206	 2.32742608702683E-02 
1207	 2.30438229573339E-02 
1208	 2.33533339458712E-02 
1209	 2.35790201646686E-02 
1210	 2.34737098315392E-02 
1211	 0.023534435494412 
1212	 2.36020443422837E-02 
1213	 2.35880644708935E-02 
1214	 2.34747374181096E-02 
1215	 2.33628079306805E-02 
1216	 2.32231929154168E-02 
1217	 2.33533670658417E-02 
1218	 2.35426046646282E-02 
1219	 2.38512109563081E-02 
1220	 2.42929500090995E-02 
1221	 0.024158187192824 
1222	 2.39091843474676E-02 
1223	 0.023912163151101 
1224	 2.38127914016296E-02 
1225	 2.38286697813535E-02 
1226	 2.39089610578224E-02 
1227	 2.39533208271598E-02 
1228	 2.39589417785985E-02 
1229	 2.39630705250013E-02 
1230	 2.40775730553196E-02 
1231	 0.024055148890286 
1232	 0.02407147218548 
1233	 2.44687831146834E-02 
1234	 2.46215917490513E-02 
1235	 2.45461113223143E-02 
1236	 0.024276764665065 
1237	 2.43198594281248E-02 
1238	 2.43373278022979E-02 
1239	 0.024041018756543 
1240	 2.41119615791106E-02 
1241	 2.43454363102418E-02 
1242	 2.41320921401951E-02 
1243	 2.40467141074152E-02 
1244	 0.024396017419922 
1245	 2.44326901519929E-02 
1246	 2.41081448118562E-02 
1247	 2.40549956917684E-02 
1248	 0.024214146592436 
1249	 2.40888115201416E-02 
1250	 2.39293961911179E-02 
1251	 2.41158913416568E-02 
1252	 2.41586641728152E-02 
1253	 2.40222808946057E-02 
1254	 2.40083429876951E-02 
1255	 2.39724965061868E-02 
1256	 0.023945410406483 
1257	 2.38137532442329E-02 
1258	 2.36477924814624E-02 
1259	 2.34161478542654E-02 
1260	 0.023396448023246 
1261	 2.35520992729898E-02 
1262	 2.34499092347565E-02 
1263	 2.33245550212462E-02 
1264	 2.33321707490611E-02 
1265	 2.34725729063013E-02 
1266	 2.31789700005429E-02 
1267	 2.30718775789338E-02 
1268	 2.34199822358064E-02 
1269	 2.34800223069648E-02 
1270	 2.33409102406569E-02 
1271	 2.34792778891339E-02 
1272	 2.35934546587679E-02 
1273	 2.35161843989411E-02 
1274	 0.023486896010914 
1275	 0.023573346682122 
1276	 2.38461684418133E-02 
1277	 2.38436406322849E-02 
1278	 2.35159555274538E-02 
1279	 2.33298900003945E-02 
1280	 2.33393569655104E-02 
1281	 2.32693009434831E-02 
1282	 2.32072392150004E-02 
1283	 2.31754756741421E-02 
1284	 2.32141040402101E-02 
1285	 2.30380627690322E-02 
1286	 2.28008956542231E-02 
1287	 2.25698598376961E-02 
1288	 2.20337560074171E-02 
1289	 2.19100994040798E-02 
1290	 2.21032443895363E-02 
1291	 2.20303570888749E-02 
1292	 2.18349190521592E-02 
1293	 2.16784333607616E-02 
1294	 2.14127319965994E-02 
1295	 2.13003639881218E-02 
1296	 2.13321974633342E-02 
1297	 2.13218733362199E-02 
1298	 2.11248762291848E-02 
1299	 2.07625867123633E-02 
1300	 2.07402909155724E-02 
1301	 2.08572081630427E-02 
1302	 2.05029611778006E-02 
1303	 2.02310558569874E-02 
1304	 2.01625771124874E-02 
1305	 1.97504961654386E-02 
1306	 1.96229161299121E-02 
1307	 1.99007231657269E-02 
1308	 1.97888884062944E-02 
1309	 1.94056305184416E-02 
1310	 1.92125807828707E-02 
1311	 1.90141320946966E-02 
1312	 1.87039780971551E-02 
1313	 0.018352548585891 
1314	 1.82818164170572E-02 
1315	 1.82778962960253E-02 
1316	 0.018150254740941 
1317	 1.83453870860566E-02 
1318	 1.82073883481996E-02 
1319	 1.75662091698576E-02 
1320	 0.01721398309931 
1321	 1.66964752273243E-02 
1322	 1.67380844340066E-02 
1323	 0.016873981957822 
1324	 1.66697687653144E-02 
1325	 0.016639258655809 
1326	 1.68129441646839E-02 
1327	 1.67021956295692E-02 
1328	 1.67480418045946E-02 
1329	 1.72055375828672E-02 
1330	 1.70442575208391E-02 
1331	 1.67324178758489E-02 
1332	 0.016559900280338 
1333	 1.59093462202189E-02 
1334	 1.56269836966463E-02 
1335	 1.50846953537447E-02 
1336	 1.48980331421254E-02 
1337	 1.44598943222388E-02 
1338	 1.33291776159254E-02 
1339	 1.30793836122701E-02 
1340	 1.33225026163271E-02 
1341	 1.37091315194994E-02 
1342	 1.53046583751849E-02 
1343	 1.56926038844898E-02 
1344	 0.015235804826536 
1345	 1.61311209087571E-02 
1346	 1.81447124647824E-02 
1347	 0.017652680489542 
1348	 1.49375136326968E-02 
1349	 0.014695902192444 
1350	 7.40917136654432E-03 
1351	 6.17598459347293E-03 
1352	 4.43433654195129E-02 
1353	 6.15491873428723E-02 
1354	 4.26449818794347E-02 
1355	-7.80447464616658E-04 
1356	 7.99585130490408E-03 
1357	 1.66532925170632E-02 
1358	 2.45929085431421E-02 
1359	 0.145657319473107 
1360	 0.215207501043972 
1361	 0.2356833489889 
1362	 0.374473506920611 
1363	 0.474548459972752 
1364	 0.311436997361746 
1365	 2.10503751351718E-02 
1366	 0.114524501726782 
1367	 0.343600881847835 
1368	 0.351203636956623 
1369	 0.2322309857493 
1370	 0.215251667283242 
1371	 7.67276006147929E-02 
1372	 7.42870151791415E-02 
1373	 0.413714611927116 
1374	 0.440451653661504 
1375	 0.263724151600004 
1376	 0.356282462643133 
1377	 0.505381320227597 
1378	 0.407047473413144 
1379	 7.48975381738873E-02 
1380	 0.181769290672183 
1381	 0.814121729566652 
1382	 0.710918314855495 
1383	 0.50757474672328 
1384	 0.583516965052423 
1385	-1.80488154822537E-02 
1386	-0.18726703666646 
1387	 0.268110350096213 
1388	 0.518104711592325 
1389	 1.06853862312033 
1390	 0.814998680681857 
1391	 0.110728924370941 
1392	-0.455606269845099 
1393	 0.278288876409916 
1394	 0.849077907016878 
1395	 0.754484516447078 
1396	 0.836372677098467 
1397	 0.93880876339142 
1398	 0.194578481516638 
1399	 0.100892957606638 
1400	 0.771269580077144 
1401	 0.857144714039006 
1402	 0.377452668195716 
1403	 0.207588455839499 
1404	 0.21087612733955 
1405	 0.403966785814866 
1406	 0.671973904157742 
1407	 0.44763199436007 
1408	 0.444378034049862 
1409	 0.414645801122674 
1410	 0.103216247752145 
1411	 3.17700486974584E-02 
1412	 0.138737239394644 
1413	 0.128061543894989 
1414	-6.33384382445356E-02 
1415	 4.19663989697163E-04 
1416	 0.373673961034829 
1417	 0.313982576886183 
1418	 0.10832892022684 
1419	 0.112336152197645 
1420	 9.43770941421547E-02 
1421	 2.46726046242197E-02 
1422	 1.02605503963666E-02 
1423	 1.63585358882993E-02 
1424	-2.85882287616336E-02 
1425	-4.30541254138126E-02 
1426	-9.87704238633989E-03 
1427	 8.5035769697296E-03 
1428	 1.06270131292133E-02 
1429	 8.80406386707232E-03 
1430	 1.30562848155691E-02 
1431	 1.96840575241065E-02 
1432	 1.68149953432693E-02 
1433	 1.54037714786529E-02 
1434	 2.38418532973907E-02 
1435	 3.31146763869553E-02 
1436	 2.94943117880414E-02 
1437	 4.40452745958183E-02 
1438	 5.65594723181599E-02 
1439	 4.90896310066356E-02 
1440	 3.00289146328148E-02 
1441	 6.71072704272923E-03 
1442	 1.81040886970514E-03 
1443	 7.42103879082792E-03 
1444	 8.34184693992459E-03 
1445	 1.40117419321947E-02 
1446	 1.97500816990855E-02 
1447	 1.76173670620779E-02 
1448	 1.58824874311245E-02 
1449	 1.88998498195877E-02 
1450	 2.10032971305079E-02 
1451	 1.73547908209091E-02 
1452	 1.35772719585694E-02 
1453	 1.39144053081839E-02 
1454	 1.23460262158179E-02 
1455	 8.79534125985349E-03 
1456	 8.50945016628777E-03 
1457	 9.38768485086496E-03 
1458	 0.010214131874659 
1459	 1.26734070289782E-02 
1460	 1.30439382231569E-02 
1461	 1.28899456777633E-02 
1462	 1.21438919649936E-02 
1463	 8.89318324954228E-03 
1464	 9.13341974028259E-03 
1465	 1.25980954431994E-02 
1466	 1.22059950627489E-02 
1467	 9.7514298954984E-03 
1468	 1.10352998126977E-02 
1469	 1.31633239478151E-02 
1470	 1.26436022731788E-02 
1471	 1.35916860427865E-02 
1472	 1.49109679170651E-02 
1473	 1.26978051936847E-02 
1474	 1.24705234050907E-02 
1475	 0.016640942372173 
1476	 1.65709862700605E-02 
1477	 1.29819525870805E-02 
1478	 1.23845095254809E-02 
1479	 1.24187964428785E-02 
1480	 1.22161676217595E-02 
1481	 1.27826912655183E-02 
1482	 1.24110208063022E-02 
1483	 1.25397286385515E-02 
1484	 1.13763910409274E-02 
1485	 8.15929022307982E-03 
1486	 7.88608679217844E-03 
1487	 8.36476320466949E-03 
1488	 8.55320237919888E-03 
1489	 1.04890210776188E-02 
1490	 1.06476386153351E-02 
1491	 9.14887017884387E-03 
1492	 8.86119384135407E-03 
1493	 8.69033339944027E-03 
1494	 8.85606838562938E-03 
1495	 9.71668607871188E-03 
1496	 9.96243062521032E-03 
1497	 9.87071534438079E-03 
1498	 0.010079230493269 
1499	 0.01040420094495 
1500	 1.05252916553649E-02 
1501	 1.06303367496666E-02 
1502	 1.07541542813328E-02 
1503	 1.08161920124408E-02 
1504	 1.07078976876322E-02 
1505	 1.04736997803811E-02 
1506	 0.010588608927955 
1507	 1.03509609445639E-02 
1508	 9.9995232257615E-03 
1509	 9.61854862059218E-03 
1510	 9.27608836948799E-03 
1511	 8.6235059652988E-03 
1512	 8.09604293756767E-03 
1513	 8.03127208438113E-03 
1514	 8.05791474269829E-03 
1515	 8.11822395794407E-03 
1516	 8.35159830795143E-03 
1517	 8.55520539612937E-03 
1518	 8.29156837019084E-03 
1519	 7.91511218985534E-03 
1520	 8.12179927972946E-03 
1521	 8.6422555332167E-03 
1522	 8.61014021783621E-03 
1523	 8.58686421076853E-03 
1524	 8.68072736429227E-03 
1525	 8.20975896101911E-03 
1526	 8.1790046499795E-03 
1527	 8.61650801593366E-03 
1528	 8.54264553528047E-03 
1529	 8.40386819139555E-03 
1530	 8.37521583076245E-03 
1531	 8.22618258458747E-03 
1532	 8.35076820484013E-03 
1533	 8.81201963822696E-03 
1534	 9.07201811938177E-03 
1535	 8.89044571713767E-03 
1536	 8.68704442095014E-03 
1537	 0.008819164026496 
1538	 8.72358114108512E-03 
1539	 8.50062050162204E-03 
1540	 8.73409500006103E-03 
1541	 8.64325466723621E-03 
1542	 8.46831346349598E-03 
1543	 8.72118037401112E-03 
1544	 8.63944199493139E-03 
1545	 8.56240315196016E-03 
1546	 8.72047170684201E-03 
1547	 8.91320786267788E-03 
1548	 9.16957898600448E-03 
1549	 9.05430162786222E-03 
1550	 9.0239601525378E-03 
1551	 9.26185672759733E-03 
1552	 9.22477225384289E-03 
1553	 9.07057543013603E-03 
1554	 9.04071838879358E-03 
1555	 9.11939907816513E-03 
1556	 9.29710389806159E-03 
1557	 9.56888568093741E-03 
1558	 9.84451115250127E-03 
1559	 9.91059052954876E-03 
1560	 9.57997216743812E-03 
1561	 9.33715683094949E-03 
1562	 9.28159471379552E-03 
1563	 9.40234210196334E-03 
1564	 9.64741365366707E-03 
1565	 9.57298898760744E-03 
1566	 9.63582839748746E-03 
1567	 9.65293369155634E-03 
1568	 9.3094858763396E-03 
1569	 9.25591795997962E-03 
1570	 9.41282722997476E-03 
1571	 9.26948947159524E-03 
1572	 9.23687647099864E-03 
1573	 9.46076801360704E-03 
1574	 9.6239278727204E-03 
1575	 9.66999375099966E-03 
1576	 9.52366340977337E-03 
1577	 9.62006742793727E-03 
1578	 9.6377763620863E-03 
1579	 9.33992432673696E-03 
1580	 9.50709529963482E-03 
1581	 9.79742381748845E-03 
1582	 9.89785730908826E-03 
1583	 1.01423801438568E-02 
1584	 1.00854161220346E-02 
1585	 9.7140505247419E-03 
1586	 9.64080330694475E-03 
1587	 9.74166754310515E-03 
1588	 9.8017878215981E-03 
1589	 9.8984829255094E-03 
1590	 9.95660530932266E-03 
1591	 9.88965194917142E-03 
1592	 9.88277220627892E-03 
1593	 9.99498782227899E-03 
1594	 9.88917578438616E-03 
1595	 9.82849512889338E-03 
1596	 1.00838244972645E-02 
1597	 1.01222441789688E-02 
1598	 1.00634223060495E-02 
1599	 0.010315081826044 
1600	 1.04488833176208E-02 
1601	 1.04225989888274E-02 
1602	 1.05059298597927E-02 
1603	 1.04637312319935E-02 
1604	 1.03019900166521E-02 
1605	 1.03316473004524E-02 
1606	 0.010516312849991 
1607	 0.010745666316591 
1608	 1.08506329078819E-02 
1609	 1.07267835108178E-02 
1610	 1.07431662987482E-02 
1611	 1.05547441161452E-02 
1612	 1.01189314462894E-02 
1613	 1.02334346424636E-02 
1614	 1.06362260648857E-02 
1615	 1.06087967497815E-02 
1616	 1.05554286651466E-02 
1617	 1.09854078285687E-02 
1618	 1.09637059127547E-02 
1619	 1.05785748168053E-02 
1620	 1.06546303186891E-02 
1621	 0.010487310352053 
1622	 1.03425480451491E-02 
1623	 1.08356461048152E-02 
1624	 1.12486367998671E-02 
1625	 1.12740981633323E-02 
1626	 1.12556147228602E-02 
1627	 1.15334773889824E-02 
1628	 1.16800351766978E-02 
1629	 1.13963221362393E-02 
1630	 1.10889616556519E-02 
1631	 0.010727433811693 
1632	 1.06129494235736E-02 
1633	 1.09182804121504E-02 
1634	 1.12304911280227E-02 
1635	 1.12377908003969E-02 
1636	 1.08682012306723E-02 
1637	 1.08998052293378E-02 
1638	 1.12205393366227E-02 
1639	 1.12288844839668E-02 
1640	 0.011305435800174 
1641	 1.14236105190429E-02 
1642	 0.011428081444091 
1643	 1.13036098247531E-02 
1644	 1.13777094413107E-02 
1645	 1.16035430568977E-02 
1646	 1.13308549399308E-02 
1647	 1.10704827533283E-02 
1648	 1.12494958124235E-02 
1649	 1.13084850314335E-02 
1650	 1.12716322178424E-02 
1651	 1.13136822795449E-02 
1652	 1.13414987471803E-02 
1653	 1.12193461375252E-02 
1654	 1.11987414945362E-02 
1655	 0.011425107053791 
1656	 1.14941383040459E-02 
1657	 1.15065408043322E-02 
1658	 1.15674388605283E-02 
1659	 1.15169385707304E-02 
1660	 1.15723752223535E-02 
1661	 1.17193318101512E-02 
1662	 1.17361655641667E-02 
1663	 1.17773856971616E-02 
1664	 1.18162137165899E-02 
1665	 1.17701681797304E-02 
1666	 1.17830255385033E-02 
1667	 1.19152322241329E-02 
1668	 1.17868860810824E-02 
1669	 1.15426191176177E-02 
1670	 0.011698192918279 
1671	 1.16685037982936E-02 
1672	 1.14572487609544E-02 
1673	 1.17098251338519E-02 
1674	 1.18161652766615E-02 
1675	 1.16437656491079E-02 
1676	 1.20404561889867E-02 
1677	 1.26180934131608E-02 
1678	 1.23754707335501E-02 
1679	 1.20842309258264E-02 
1680	 1.18985135980192E-02 
1681	 1.10584838906459E-02 
1682	 1.08903738497916E-02 
1683	 1.16390468070636E-02 
1684	 1.18028309280881E-02 
1685	 0.011581822095758 
1686	 1.14233080587793E-02 
1687	 1.10726824054286E-02 
1688	 1.09562563449309E-02 
1689	 1.13165845835486E-02 
1690	 0.011431252301907 
1691	 1.13090260794965E-02 
1692	 1.17402034945497E-02 
1693	 1.20680128637636E-02 
1694	 1.18609608064914E-02 
1695	 0.011886177686485 
1696	 1.16761858535804E-02 
1697	 1.15210159400688E-02 
1698	 1.19969714805895E-02 
1699	 0.011905360573461 
1700	 1.12446599048697E-02 
1701	 1.09606075456947E-02 
1702	 1.11839830285002E-02 
1703	 1.17450600640871E-02 
1704	 1.21013285121893E-02 
1705	 1.18003015355681E-02 
1706	 1.12513717800811E-02 
1707	 1.09688621004042E-02 
1708	 1.12784298227699E-02 
1709	 1.17746852357849E-02 
1710	 1.18549424033516E-02 
1711	 1.16291751873914E-02 
1712	 1.13940981561169E-02 
1713	 1.17365795541135E-02 
1714	 1.17307895344234E-02 
1715	 1.12753337482273E-02 
1716	 1.15141513871903E-02 
1717	 1.23630508448267E-02 
1718	 0.012532336856471 
1719	 1.22674430970445E-02 
1720	 1.16015767579994E-02 
1721	 1.08679474040393E-02 
1722	 1.09932729429411E-02 
1723	 1.16887525991334E-02 
1724	 1.20107296984768E-02 
1725	 1.18716522355036E-02 
1726	 1.19478985736667E-02 
1727	 1.19649575348289E-02 
1728	 1.21704731799072E-02 
1729	 0.012612641846162 
1730	 1.23978848370639E-02 
1731	 1.18282214198559E-02 
1732	 1.17731795289106E-02 
1733	 1.17196667085101E-02 
1734	 1.17790310184643E-02 
1735	 1.25753942957558E-02 
1736	 1.27073912313552E-02 
1737	 1.20258989209865E-02 
1738	 1.17331168892297E-02 
1739	 1.13705433641031E-02 
1740	 1.10266471779246E-02 
1741	 1.14728921990455E-02 
1742	 1.18162865624745E-02 
1743	 1.23587401512846E-02 
1744	 1.33535192945721E-02 
1745	 1.31376388576579E-02 
1746	 0.012027704491954 
1747	 1.17544371369363E-02 
1748	 0.011291940391544 
1749	 1.14008013626151E-02 
1750	 1.29837572080137E-02 
1751	 1.27651687221364E-02 
1752	 0.010994950307872 
1753	 1.08375486064052E-02 
1754	 1.06878947539805E-02 
1755	 0.010834775896008 
1756	 1.27037737574629E-02 
1757	 1.21539372762298E-02 
1758	 0.011237820561898 
1759	 1.08795880834062E-02 
1760	 1.04431327071509E-02 
1761	 0.01128825229773 
1762	 1.22707449293227E-02 
1763	 1.23054210564375E-02 
1764	 1.26274899565034E-02 
1765	 1.19862897189836E-02 
1766	 1.08098193006675E-02 
1767	 1.12820033838504E-02 
1768	 0.011670420014563 
1769	 0.011901868920262 
1770	 1.35489834781612E-02 
1771	 1.34690487914011E-02 
1772	 1.25819073300462E-02 
1773	 1.26355764315916E-02 
1774	 1.10476414328535E-02 
1775	 1.04149510434775E-02 
1776	 1.01303966506675E-02 
1777	 1.06083097474576E-02 
1778	 1.10648824271034E-02 
1779	 1.16054394674236E-02 
1780	 0.011721503966454 
1781	 1.09684525200395E-02 
1782	 1.15655811990369E-02 
1783	 1.39006904766022E-02 
1784	 0.014489702032604 
1785	 1.48853833321225E-02 
1786	 1.45016255117551E-02 
1787	 1.11508980733568E-02 
1788	 1.07081883456929E-02 
1789	 1.24072873080648E-02 
1790	 1.42202131645298E-02 
1791	 1.53208236917712E-02 
1792	 1.61330890729564E-02 
1793	 1.95312084414632E-02 
1794	 2.21392400240276E-02 
1795	 2.35053054682633E-02 
1796	 2.59202926176705E-02 
1797	 2.32672762194736E-02 
1798	 1.47177532327038E-02 
1799	 1.20012078600621E-02 
1800	 1.91727844230463E-02 
1801	 2.27108595490029E-02 
1802	 4.26864696785339E-02 
1803	 5.41356295045484E-02 
1804	 0.040206272843805 
1805	 4.71053001363591E-02 
1806	 7.45034693516476E-02 
1807	 9.56109385220126E-02 
1808	 0.138174514522605 
1809	 0.150125645726929 
1810	 5.80607395011571E-02 
1811	 8.37076075159652E-02 
1812	 0.241914731687466 
1813	 0.322815682914374 
1814	 0.462256480580698 
1815	 0.525037603431366 
1816	 0.28283987476944 
1817	 0.591926146582799 
1818	 0.895800127581482 
1819	 0.376273756553547 
1820	 0.337997216088854 
1821	-8.87330432614841E-03 
1822	-8.75975598464807E-02 
1823	 0.859103685093436 
1824	 1.89070775319683 
1825	 1.08934354050593 
1826	 0.83076890712662 
1827	 0.217281428685591 
1828	-2.66202475055455E-02 
1829	-0.564369004039246 
1830	-0.658233097115252 
1831	-0.334326132339749 
1832	-0.197208652185001 
1833	 0.339194391112212 
1834	 0.387011819174339 
1835	 0.146672030058912 
1836	 0.148986061567277 
1837	 5.90375710724366E-02 
1838	-7.85998282048513E-02 
1839	 0.113709798971567 
1840	-0.156288629818607 
1841	-0.645882099400578 
1842	-0.407184778940961 
1843	-0.359646920506676 
1844	-0.247114666331324 
1845	 0.168516906930526 
1846	-3.29972307365829 
1847	-2.34472911850621 
1848	-74.9218806195001 
1849	 2.66414313576284 
1850	 1.27922265362641 
1851	-0.320446215890578 
1852	-0.410209736832364 
1853	-7.43598417258301E-02 
1854	 0.146753622932004 
1855	 0.731232449169821 
1856	 0.883129963974189 
1857	-1.21043391289902 
1858	-2.79289321766161 
1859	 1.61849247319703 
1860	 0.691554288084584 
1861	 0.561979482255599 
1862	 1.08677953486051 
1863	 0.589634222276424 
1864	 5.75725610120209 
1865	-0.688092046057585 
1866	 2.5330412296215 
1867	 1.9747118324471 
1868	 2.24057392246819 
1869	 1.83445958429635 
1870	 1.39907090974268 
1871	 0.654665089206335 
1872	 0.251667538312043 
1873	 0.247065059137568 
1874	 0.483108270912495 
1875	 0.590394501869864 
1876	 0.653335698800288 
1877	 0.767045569667731 
1878	 0.479981930673067 
1879	-0.353775794479897 
1880	-0.781008442592093 
1881	-0.747798261079854 
1882	-2.18556005478052 
1883	-3.71620188677579 
1884	-1.29526058770971 
1885	-1.96351628106026 
1886	-7.83242963733625 
1887	-8.42857535128526 
1888	 11.0820976764339 
1889	 4.12666703896931 
1890	-3.30684795447057 
1891	 0.321036169606204 
1892	 0.830015290239099 
1893	 1.06885097120911 
1894	 1.92427768933534 
1895	 1.13453848336187 
1896	-1.38185539436848 
1897	-0.525349744200774 
1898	-2.05219225102007 
1899	-1.26629050449094 
1900	-1.27522975289616 
1901	-5.1227402594044 
1902	-13.4553272437952 
1903	-23.9621638120766 
1904	 10.1498583520915 
1905	-11.4796868716137 
1906	 5.76514309272942 
1907	-1.17906111623338 
1908	-32.381243232617 
1909	 4.19842373811427 
1910	 86.4510378832755 
1911	 1.95978561310005 
1912	-0.2653355148775 
1913	-0.616713478231694 
1914	-4.29682321177082 
1915	-3.77105696563 
1916	-0.347173662256421 
1917	 0.788203987082581 
1918	-10.776558284813 
1919	-0.809447955340877 
1920	-1.73657041456707 
1921	-3.86512919535013 
1922	-5.17245096078673 
1923	-3.5554018002366 
1924	-1.9342811188539 
1925	-1.37129768447505 
1926	-0.809915897253989 
1927	-0.3188576409449 
1928	-0.369442487509718 
1929	-0.670590538278409 
1930	-1.90970082072352 
1931	-11.5214611155019 
1932	 22.4900359561193 
1933	-1.34996190410658 
1934	-2.81821338849373 
1935	-2.46798376306427 
1936	-0.482296415313336 
1937	 0.532762258273719 
1938	 0.427659745461749 
1939	 0.395842529743685 
1940	 0.382478873246278 
1941	 0.117098900443454 
1942	-0.144649364765895 
1943	-0.246038150891909 
1944	-0.282401319762482 
1945	-0.251834501934026 
1946	-0.118395662180734 
1947	 1.61694298439263E-03 
1948	-1.78004033406927E-02 
1949	-5.69227439788645E-02 
1950	-2.80184539041062E-02 
1951	-1.89204090090889E-02 
1952	-1.67011770585697E-02 
1953	 3.36665839414256E-03 
1954	 0.026730413896046 
1955	 0.020998047927467 
1956	 1.10415468157056E-02 
1957	-1.57455393987475E-02 
1958	-2.64481930687018E-02 
1959	-2.51566639529459E-02 
1960	-2.63881195674525E-02 
1961	-1.21465216798569E-02 
1962	-1.25764339501314E-03 
1963	-0.002276304121965 
1964	-5.97554029506832E-04 
1965	 6.64192554405878E-03 
1966	 7.21645159078336E-03 
1967	 6.61937535132292E-03 
1968	 4.8450426505204E-03 
1969	 6.10729467735869E-03 
1970	 5.03371433615983E-03 
1971	 4.09160206217462E-03 
1972	 6.15794191192141E-03 
1973	 3.77749297619534E-03 
1974	-6.85849072324327E-05 
1975	 7.77644918516118E-04 
1976	 2.78362659357206E-03 
1977	 5.10583857031027E-03 
1978	 5.90266942819256E-03 
1979	 5.84217699394605E-03 
1980	 4.1938596225307E-03 
1981	 3.09296962275486E-03 
1982	 2.50073836593317E-03 
1983	 3.23154492020232E-03 
1984	 5.03691717397617E-03 
1985	 5.84075376777282E-03 
1986	 6.25538701055259E-03 
1987	 7.02260125211229E-03 
1988	 5.57187339513562E-03 
1989	 3.32979934173114E-03 
1990	 3.10383567416725E-03 
1991	 3.40557617269083E-03 
1992	 4.94353261923527E-03 
1993	 6.7884338332801E-03 
1994	 7.26891101663338E-03 
1995	 6.19090796461499E-03 
1996	 4.89485763106126E-03 
1997	 5.00014675705786E-03 
1998	 6.66515651095611E-03 
1999	 7.91718804026322E-03 
2000	 7.65626063374211E-03 
2001	 5.50617613534673E-03 
2002	 3.85679531151816E-04 
2003	 2.46664430086884E-03 
2004	 0.010160197293754 
2005	 1.35475801998715E-02 
2006	 1.54209918440729E-02 
2007	 1.28683122025956E-02 
2008	 1.04968604379326E-02 
2009	 9.45613058985379E-03 
2010	 9.8854718217491E-03 
2011	 9.53387933402311E-03 
2012	 0.010190056986735 
2013	 1.03941925027766E-02 
2014	 7.22303991655702E-03 
2015	 4.18911042773794E-03 
2016	 6.15918712870653E-03 
2017	 7.1052697190428E-03 
2018	 7.42649477162112E-03 
2019	 0.011094213394664 
2020	 1.24483694462899E-02 
2021	 8.96903691625833E-03 
2022	 5.37553212330328E-03 
2023	 5.22449127911188E-03 
2024	 4.74051488580206E-03 
2025	 3.90782930035977E-03 
2026	 4.11307131089841E-03 
2027	 5.32939595441671E-03 
2028	 5.97910961272165E-03 
2029	 7.14968110098113E-03 
2030	 7.15175999737388E-03 
2031	 6.12600209802092E-03 
2032	 5.57070974440577E-03 
2033	 4.3305996717605E-03 
2034	 3.7384646974347E-03 
2035	 5.17084702462815E-03 
2036	 5.61570464532015E-03 
2037	 5.09691411535906E-03 
2038	 5.59232129732651E-03 
2039	 6.05742118470557E-03 
2040	 6.89262392884059E-03 
2041	 6.89051142654224E-03 
2042	 6.67706494848054E-03 
2043	 6.30495282525125E-03 
2044	 5.2245404692319E-03 
2045	 3.92087775806468E-03 
2046	 3.35922425029361E-03 
2047	 3.26394573153877E-03 
2048	 4.17170651995861E-03 
2049	 4.94721762602907E-03 
2050	 5.49384290327371E-03 
2051	 7.44364820598144E-03 
2052	 7.36219843040103E-03 
2053	 5.58324379855856E-03 
2054	 6.67974207398841E-03 
2055	 8.17671869066014E-03 
2056	 7.93566396553494E-03 
2057	 7.46124338979177E-03 
2058	 7.78615195114568E-03 
2059	 6.45714333117039E-03 
2060	 5.54608718844326E-03 
2061	 5.34564123998502E-03 
2062	 6.63902915104173E-03 
2063	 6.53833291255632E-03 
2064	 7.36715469580965E-03 
2065	 8.9758961187386E-03 
2066	 9.62032098470519E-03 
2067	 8.62604539027476E-03 
2068	 6.38562571836741E-03 
2069	 5.4051208053785E-03 
2070	 5.09775397368685E-03 
2071	 5.3648164706448E-03 
2072	 6.21253149946374E-03 
2073	 6.42690266380114E-03 
2074	 6.18601285200676E-03 
2075	 6.38594999461763E-03 
2076	 6.34703226228918E-03 
2077	 6.56857269063558E-03 
2078	 7.55694232058755E-03 
2079	 7.63194197933989E-03 
2080	 7.08661868688402E-03 
2081	 7.58291133497794E-03 
2082	 7.29169975034266E-03 
2083	 5.16317283381001E-03 
2084	 3.92831189048738E-03 
2085	 3.30343887639995E-03 
2086	 3.00111615954029E-03 
2087	 4.15068481166023E-03 
2088	 5.02384237611447E-03 
2089	 5.54848903954111E-03 
2090	 6.89159557787539E-03 
2091	 7.05331399245676E-03 
2092	 7.23395251078802E-03 
2093	 7.92709776817144E-03 
2094	 7.77936635474283E-03 
2095	 6.23213621075801E-03 
2096	 5.96896793846957E-03 
2097	 6.28228399399804E-03 
2098	 6.02269206728132E-03 
2099	 5.47386506077865E-03 
2100	 5.97258540980509E-03 
2101	 6.25936987410774E-03 
2102	 5.21840928612284E-03 
2103	 5.70563672603011E-03 
2104	 6.27487661648724E-03 
2105	 5.7995664842954E-03 
2106	 6.52728363751526E-03 
2107	 7.03828754662828E-03 
2108	 7.08288905031788E-03 
2109	 8.25968397978685E-03 
2110	 8.82455357472687E-03 
2111	 9.22864696186195E-03 
2112	 9.52394657420805E-03 
2113	 8.94500018758076E-03 
2114	 6.78503137561306E-03 
2115	 6.49047888318055E-03 
2116	 6.75437106186335E-03 
2117	 6.53277985739294E-03 
2118	 6.54083715822851E-03 
2119	 6.97061854599643E-03 
2120	 7.09625177459765E-03 
2121	 8.00256463416252E-03 
2122	 8.67379454335489E-03 
2123	 9.18594546351749E-03 
2124	 9.64962165148405E-03 
2125	 7.94151392337233E-03 
2126	 6.27256734140207E-03 
2127	 6.98973508338854E-03 
2128	 6.56855147517983E-03 
2129	 5.77830075050533E-03 
2130	 6.74030698065051E-03 
2131	 6.80291202074849E-03 
2132	 6.06843146420029E-03 
2133	 6.62008776969667E-03 
2134	 6.95261141348298E-03 
2135	 6.97694916483524E-03 
2136	 7.16888159778902E-03 
2137	 7.95600064129981E-03 
2138	 8.01886432610876E-03 
2139	 7.59605404992734E-03 
2140	 7.70722304898486E-03 
2141	 7.90262332667218E-03 
2142	 7.97402297354963E-03 
2143	 8.44823385436561E-03 
2144	 8.05019427982001E-03 
2145	 7.30010638990229E-03 
2146	 7.56993819175253E-03 
2147	 7.4809623197198E-03 
2148	 7.5515281764107E-03 
2149	 7.8536177090306E-03 
2150	 7.35741731947104E-03 
2151	 7.10763674269246E-03 
2152	 6.34579005817197E-03 
2153	 6.98200162384356E-03 
2154	 7.53113631132724E-03 
2155	 6.41651383033618E-03 
2156	 7.8217017608674E-03 
2157	 7.94286090181856E-03 
2158	 6.41099637165378E-03 
2159	 6.13261117083978E-03 
2160	 6.15609388618263E-03 
2161	 6.69317095913624E-03 
2162	 8.71016975384236E-03 
2163	 9.57760292808843E-03 
2164	 1.06938560825162E-02 
2165	 1.10096021970036E-02 
2166	 9.93591887993324E-03 
2167	 8.84515293926824E-03 
2168	 7.54370641205438E-03 
2169	 6.77487799959469E-03 
2170	 5.7302466389428E-03 
2171	 4.53900317876542E-03 
2172	 4.90704777868456E-03 
2173	 5.09541516566885E-03 
2174	 4.78364625847544E-03 
2175	 4.78030155574102E-03 
2176	 5.67522963847816E-03 
2177	 5.84259904796154E-03 
2178	 6.47524636867717E-03 
2179	 8.10070362931131E-03 
2180	 8.15742344374512E-03 
2181	 7.96797815109098E-03 
2182	 7.50687438900582E-03 
2183	 6.61375537013493E-03 
2184	 6.25462018956707E-03 
2185	 6.0377610911803E-03 
2186	 6.1538689392091E-03 
2187	 7.02837261653794E-03 
2188	 6.91946145904875E-03 
2189	 6.07422456900023E-03 
2190	 6.25745441007796E-03 
2191	 7.01830216660662E-03 
2192	 6.67738744057534E-03 
2193	 5.47527441782929E-03 
2194	 6.07073476855561E-03 
2195	 8.17649458951523E-03 
2196	 7.93176776940931E-03 
2197	 6.96155279962531E-03 
2198	 7.70703322143954E-03 
2199	 8.47630560391623E-03 
2200	 6.38953404574639E-03 
2201	 5.4779358635605E-03 
2202	 7.57516436989019E-03 
2203	 7.7399321929823E-03 
2204	 0.005266571633446 
2205	 5.3630409343819E-03 
2206	 6.50156981534037E-03 
2207	 6.01850709264538E-03 
2208	 6.44898190523072E-03 
2209	 5.83575711301546E-03 
2210	 4.08259781963805E-03 
2211	 4.67366820594045E-03 
2212	 5.19075131298366E-03 
2213	 6.50094789823785E-03 
2214	 1.02526172519344E-02 
2215	 1.06944141810026E-02 
2216	 8.03356208983983E-03 
2217	 8.1911735240978E-03 
2218	 9.18543822475193E-03 
2219	 9.94819243791137E-03 
2220	 1.27687496151264E-02 
2221	 0.013914205964799 
2222	 1.35584748031707E-02 
2223	 1.33809999115015E-02 
2224	 1.26045453381076E-02 
2225	 1.13423679541569E-02 
2226	 1.01172490674996E-02 
2227	 8.98664730107129E-03 
2228	 6.74223532307579E-03 
2229	 5.94446878942573E-03 
2230	 5.72899036145474E-03 
2231	 5.9411251237105E-03 
2232	 7.40933482902238E-03 
2233	 8.4087907187491E-03 
2234	 1.04955037617936E-02 
2235	 1.00342460084547E-02 
2236	 1.07105590410341E-02 
2237	 1.15374977157389E-02 
2238	 7.87215357722783E-03 
2239	 6.71672815940281E-03 
2240	 8.20448736690066E-03 
2241	 7.50407622196147E-03 
2242	 7.77300190659958E-03 
2243	 7.90144126942428E-03 
2244	 8.15433526262967E-03 
2245	 9.12521884859134E-03 
2246	 8.73152963406289E-03 
2247	 1.00380658268764E-02 
2248	 9.34746760935753E-03 
2249	 7.82708074141845E-03 
2250	 9.82691754275525E-03 
2251	 1.12780543976819E-02 
2252	 9.8726121684792E-03 
2253	 6.56620281066518E-03 
2254	 4.52671149535469E-03 
2255	 3.69521051728696E-03 
2256	 3.96923096280326E-03 
2257	 3.71684481045612E-03 
2258	 4.86554853445109E-03 
2259	 8.69604038518388E-03 
2260	 9.4536336330133E-03 
2261	 9.65712677969842E-03 
2262	 0.010523955768387 
2263	 8.73535429188283E-03 
2264	 8.18421615121608E-03 
2265	 1.05567005553633E-02 
2266	 1.14073041956029E-02 
2267	 1.01729873905578E-02 
2268	 9.81518703726398E-03 
2269	 9.33732176867396E-03 
2270	 1.03319034400093E-02 
2271	 1.36446483297311E-02 
2272	 1.42319578767244E-02 
2273	 1.49708332290825E-02 
2274	 0.014334985248428 
2275	 9.83230262747222E-03 
2276	 8.66373955247731E-03 
2277	 9.36844396602154E-03 
2278	 8.51672119637387E-03 
2279	 6.95941741992551E-03 
2280	 5.91020992998926E-03 
2281	 3.61326719272396E-03 
2282	 5.49100132185776E-03 
2283	 6.94092656541826E-03 
2284	 8.62207809800869E-03 
2285	 9.9423923551666E-03 
2286	 7.15656539385341E-03 
2287	 5.46413708552797E-03 
2288	 6.10592411997532E-03 
2289	 5.67374808339224E-03 
2290	 6.09438267991025E-03 
2291	 1.9750036860857E-03 
2292	-3.61352963454262E-03 
2293	-3.76374359812485E-03 
2294	-4.92240542731772E-03 
2295	-1.65125868231186E-03 
2296	 5.10449139157701E-03 
2297	 6.13688102244923E-03 
2298	 0.010858737651587 
2299	 1.16060017837734E-02 
2300	 5.78078530966753E-03 
2301	 5.20184876443387E-03 
2302	 5.63401972914583E-03 
2303	 7.98107534020187E-03 
2304	 9.97353122120209E-03 
2305	 8.80180629815857E-03 
2306	 9.74805085004039E-03 
2307	 1.21890582742242E-02 
2308	 1.41910577676713E-02 
2309	 1.47824829458962E-02 
2310	 1.38955035135066E-02 
2311	 1.36962661718839E-02 
2312	 1.65239838576964E-02 
2313	 1.75701272355994E-02 
2314	 1.14716584979591E-02 
2315	 8.22469302976611E-03 
2316	 6.75904655076262E-03 
2317	 7.69946612952442E-03 
2318	 1.59431098330944E-02 
2319	 1.39929999965369E-02 
2320	 1.12487902218108E-02 
2321	 1.84276636444318E-02 
2322	 1.74928530836524E-02 
2323	 1.71025844403859E-02 
2324	 1.79880005766385E-02 
2325	 1.26880815755888E-02 
2326	 1.54076193376853E-02 
2327	 9.98219585674676E-03 
2328	 8.29526516289532E-04 
2329	 4.19197317320374E-03 
2330	 1.94954895029654E-03 
2331	 3.16892333681038E-03 
2332	 1.43800289974896E-02 
2333	 0.018600183029516 
2334	 1.86288135593652E-02 
2335	 1.92244919898019E-02 
2336	 1.77323297011205E-02 
2337	 0.022818272400825 
2338	 2.83608485396184E-02 
2339	 2.32952607272334E-02 
2340	 2.04093008394622E-02 
2341	 1.69338942837842E-02 
2342	 8.65224664334345E-03 
2343	 1.71693481059493E-03 
2344	-4.77301838189327E-03 
2345	-7.9828102855964E-03 
2346	-5.42439624559793E-03 
2347	 2.82907168882962E-03 
2348	 2.13855124507285E-02 
2349	 2.99815641199914E-02 
2350	 1.52164766367906E-02 
2351	 1.21323908651717E-02 
2352	 1.45994372067325E-02 
2353	 1.29299679293565E-02 
2354	 1.07881098385536E-02 
2355	-8.23084511918812E-03 
2356	-0.015393100509176 
2357	-3.9924078123641E-03 
2358	 6.97278294777504E-03 
2359	 2.15233312393371E-02 
2360	 1.92017694670297E-02 
2361	-4.9736036094403E-03 
2362	-1.70682790680014E-02 
2363	-1.87216894841427E-02 
2364	-2.52212395846335E-02 
2365	-3.05840275956153E-02 
2366	-2.40745322101149E-02 
2367	-2.02467023692151E-02 
2368	-1.94697314571254E-02 
2369	 1.67191488565061E-02 
2370	 3.95741584777101E-02 
2371	 1.44045563585445E-02 
2372	 4.97945626258267E-03 
2373	-1.11274719018862E-02 
2374	-4.60634254002369E-02 
2375	-3.90846465592592E-02 
2376	-2.70042676564053E-02 
2377	-2.50017493867513E-02 
2378	-1.37837872399204E-02 
2379	-5.62541654761385E-03 
2380	-1.98305798114105E-03 
2381	-1.61531632033801E-02 
2382	-4.90685914821947E-02 
2383	-9.50740145544928E-02 
2384	-7.52644476018624E-02 
2385	-7.01733386413617E-02 
2386	-9.92408972024597E-02 
2387	-5.28035345741287E-02 
2388	-8.03359191958578E-02 
2389	-0.089482508577207 
2390	-5.30228149871836E-02 
2391	-7.40841775470335E-02 
2392	-2.98585308859223E-02 
2393	 3.92009638582028E-02 
2394	 7.84636698691554E-02 
2395	 7.56693101943763E-02 
2396	 7.79906539976864E-03 
2397	-6.12413907617864E-02 
2398	-6.74574919075399E-02 
2399	-3.97657341574815E-02 
2400	 7.70665040634889E-03 
2401	 3.61967777367269E-02 
2402	-2.05492372230469E-03 
2403	-2.35527941792286E-02 
2404	-2.18832891052047E-02 
2405	 0.0166695684549 
2406	 4.33454727693897E-02 
2407	-3.27246943271912E-02 
2408	-7.18596216144597E-03 
2409	 6.44554870226746E-02 
2410	 2.84827428261537E-02 
2411	 3.50515652516476E-02 
2412	 3.01706788531715E-02 
2413	-0.112149300637952 
2414	 0.104092932874852 
2415	 0.538537374104427 
2416	 0.475662328690009 
2417	 0.405693009170432 
2418	 0.142794113304442 
2419	-9.76949266016135E-02 
2420	-0.098709575516149 
2421	 9.88300253240709E-03 
2422	 2.84499906864207E-02 
2423	-0.105631515943491 
2424	-0.11547243483192 
2425	-0.064163980998777 
2426	-2.95888566846532E-02 
2427	 7.68611443710303E-02 
2428	 9.72311980480029E-02 
2429	 3.97940866961088E-02 
2430	-6.17972949734039E-02 
2431	 0.015129780283247 
2432	 0.131593575329321 
2433	 0.183917311400144 
2434	 0.226307751627151 
2435	 0.302348941948215 
2436	 0.296652946447094 
2437	 5.20091947562036E-02 
2438	-0.149887698220858 
2439	-0.325502643236932 
2440	-0.662628256525756 
2441	-0.950484212842229 
2442	-1.27954865187212 
2443	-0.485486772232855 
2444	-4.20188024995461E-02 
2445	 0.176593342408644 
2446	 0.372839186570519 
2447	-6.26996388404636 
2448	 1.42278725278773 
2449	-0.228847223773569 
2450	-0.650223195540767 
2451	-4.33850555627722 
2452	-0.293251249375644 
2453	-2.49734670738364 
2454	-0.788548055935676 
2455	-0.81956795975247 
2456	-0.534136722503636 
2457	-0.314578264746995 
2458	-0.093312082171754 
2459	 1.00399038124133 
2460	 0.974285239243317 
2461	-0.183063760342986 
2462	-0.431095817152426 
2463	-1.05276222346203 
2464	-0.452615416329405 
2465	 0.806056122191268 
2466	 1.38893376395387 
2467	 8.2126346104338 
2468	-4.41196653794123 
2469	-1.95338429935747 
2470	-7.12923585094733 
2471	 2.35801146568754 
2472	 1.59436024768402 
2473	-0.79977289582751 
2474	 0.469422715162082 
2475	 2.59457849875391E-03 
2476	-7.23965663496848E-02 
2477	-0.256620718820529 
2478	-0.420210916646185 
2479	-1.69933062336875 
2480	-1.06047887133337 
2481	-0.533400161132399 
2482	-0.786568219569406 
2483	-0.294772028128751 
2484	 5.97175746285505E-03 
2485	 2.54920097085097 
2486	-6.07633683061378 
2487	-2.45105990637983 
2488	-1.90977562288055 
2489	 0.116044289387622 
2490	 0.236221758734893 
2491	 7.46108469245202E-02 
2492	-4.81882848719361E-02 
2493	 0.26222395277724 
2494	 0.361301303195997 
2495	 0.434895295019848 
2496	 0.922767140814359 
2497	 0.226942609227016 
2498	-0.074249222534677 
2499	-0.591441076744094 
2500	 13.1540510150973 
