Wavelength	rt0628far00009.asd
350	 5.59622615618452E-02 
351	 5.81056927480606E-02 
352	 5.67767048245669E-02 
353	 5.57663286349523E-02 
354	 5.70434571249337E-02 
355	 5.54723425002353E-02 
356	 5.54646287336814E-02 
357	 5.58071951050726E-02 
358	 5.47394104252291E-02 
359	 5.59378539119172E-02 
360	 5.58919840124215E-02 
361	 5.49789951239276E-02 
362	 0.055914242113031 
363	 0.055237220291017 
364	 5.50440043550259E-02 
365	 5.58684085189645E-02 
366	 5.49049141745616E-02 
367	 5.52916019049698E-02 
368	 5.56688415094821E-02 
369	 5.47335707539964E-02 
370	 0.055739064348622 
371	 5.56810907080999E-02 
372	 5.51976436247892E-02 
373	 5.65516432973818E-02 
374	 5.60067383020217E-02 
375	 5.60110935407055E-02 
376	 5.69949431750366E-02 
377	 5.58976750026177E-02 
378	 5.69201214483952E-02 
379	 5.77679595533412E-02 
380	 0.056607691745688 
381	 5.79883917262213E-02 
382	 5.79051936148284E-02 
383	 5.73321173269943E-02 
384	 5.88795782397073E-02 
385	 5.85349347541903E-02 
386	 5.87758809114632E-02 
387	 5.96947432713907E-02 
388	 5.84124979083666E-02 
389	 5.96127143731399E-02 
390	 6.03397384050899E-02 
391	 5.88027408505095E-02 
392	 5.96020487467563E-02 
393	 5.96825411478184E-02 
394	 5.96237939891073E-02 
395	 6.06323044317514E-02 
396	 5.97426652853587E-02 
397	 5.98508549094861E-02 
398	 6.08020556774516E-02 
399	 5.98272681392994E-02 
400	 6.01515043328302E-02 
401	 6.04353517184283E-02 
402	 5.98993283307235E-02 
403	 6.06708773235048E-02 
404	 6.06046743423227E-02 
405	 0.060355510380137 
406	 6.11343723466164E-02 
407	 0.060968741662448 
408	 6.12137488393426E-02 
409	 6.18375323648805E-02 
410	 6.13898289836265E-02 
411	 6.17771401438306E-02 
412	 6.21880214087402E-02 
413	 6.20632378316597E-02 
414	 6.26963535292385E-02 
415	 6.27446822217423E-02 
416	 0.062706288923625 
417	 6.34819356393914E-02 
418	 6.35336514396354E-02 
419	 6.38324246481761E-02 
420	 6.44308675049854E-02 
421	 6.42761080295208E-02 
422	 6.47703305453866E-02 
423	 6.53515806881555E-02 
424	 6.55200350417106E-02 
425	 6.61427821801283E-02 
426	 6.64545173139721E-02 
427	 6.67760811024464E-02 
428	 6.77145627902978E-02 
429	 0.067924594600598 
430	 0.068332302743466 
431	 6.91040023416282E-02 
432	 6.92971612077318E-02 
433	 6.98733300131339E-02 
434	 7.05038290670944E-02 
435	 7.08544771732525E-02 
436	 7.14542640125973E-02 
437	 7.18436504869626E-02 
438	 7.22265060181122E-02 
439	 7.30432358569341E-02 
440	 7.34201689910292E-02 
441	 7.38613360198541E-02 
442	 0.07450024001579 
443	 7.46988923706221E-02 
444	 7.52761477132561E-02 
445	 7.58784782699783E-02 
446	 7.61059731507444E-02 
447	 7.66990619532794E-02 
448	 0.07712331626588 
449	 7.74225923435396E-02 
450	 7.80210449399279E-02 
451	 7.82287915996151E-02 
452	 7.85364805411012E-02 
453	 7.91512787368132E-02 
454	 0.079339912044375 
455	 7.97771469905585E-02 
456	 8.02273486912358E-02 
457	 8.03214993870316E-02 
458	 8.08222743794856E-02 
459	 8.11089276392111E-02 
460	 0.081198889880503 
461	 8.17666578615103E-02 
462	 8.19602013762953E-02 
463	 0.082187035094941 
464	 8.27279263114878E-02 
465	 8.27918961434938E-02 
466	 8.30702929150364E-02 
467	 8.34940657941069E-02 
468	 8.37030286335703E-02 
469	 8.41894338741415E-02 
470	 8.44242102150491E-02 
471	 8.44289479679384E-02 
472	 8.50617842808008E-02 
473	 8.53511089348354E-02 
474	 8.55877665307222E-02 
475	 8.61087556897831E-02 
476	 8.61524405125773E-02 
477	 8.65350786806595E-02 
478	 8.71315529953151E-02 
479	 8.72520738985492E-02 
480	 8.76936609158987E-02 
481	 8.81067397734981E-02 
482	 8.83513561609805E-02 
483	 8.90463396550607E-02 
484	 0.089417132781995 
485	 8.97236882792556E-02 
486	 9.04146824005363E-02 
487	 9.07249144976542E-02 
488	 9.12354900295501E-02 
489	 9.19195334217807E-02 
490	 9.21514132871618E-02 
491	 9.27841854603072E-02 
492	 9.33703279795351E-02 
493	 9.36095585099568E-02 
494	 0.094332072513615 
495	 9.48588714603521E-02 
496	 0.095310524093596 
497	 9.61068382519544E-02 
498	 9.65218828830872E-02 
499	 9.70496143803683E-02 
500	 9.78072798262338E-02 
501	 9.81372766670983E-02 
502	 9.88530948558022E-02 
503	 9.95892539925017E-02 
504	 9.99307678821354E-02 
505	 0.100705439986388 
506	 0.101305232212706 
507	 0.101782194781078 
508	 0.102674428999779 
509	 0.103197728087238 
510	 0.103771595058451 
511	 0.104614445442481 
512	 0.104977085937828 
513	 0.105735361149738 
514	 0.106612679769382 
515	 0.107004484534989 
516	 0.107902752242094 
517	 0.10869677708303 
518	 0.109246230963008 
519	 0.110155125282006 
520	 0.110757399586906 
521	 0.111381187375461 
522	 0.112310164652454 
523	 0.1128258839385 
524	 0.113573512226025 
525	 0.114472580340082 
526	 0.114995537147114 
527	 0.115862325405211 
528	 0.116647426129753 
529	 0.117179163760297 
530	 0.11813499068044 
531	 0.118841395662568 
532	 0.119494207698531 
533	 0.120459166843192 
534	 0.121073910199334 
535	 0.121823460923724 
536	 0.122760563613376 
537	 0.123376467047709 
538	 0.124223454877808 
539	 0.125063010720929 
540	 0.125682005369256 
541	 0.126607214439971 
542	 0.127358497224385 
543	 0.128019323498565 
544	 0.12896774729041 
545	 0.12963074150978 
546	 0.130376716164552 
547	 0.131333974676576 
548	 0.131923547216911 
549	 0.132727441022016 
550	 0.13356992150916 
551	 0.134142628501768 
552	 0.135003894863074 
553	 0.135720418379858 
554	 0.136288906459745 
555	 0.137231529976241 
556	 0.137903651090702 
557	 0.138557314833106 
558	 0.139426337270609 
559	 0.139960780187059 
560	 0.140674998352547 
561	 0.141470167351546 
562	 0.141930472884394 
563	 0.142620220201434 
564	 0.143217153945603 
565	 0.14360491160978 
566	 0.144309209077984 
567	 0.144798090893701 
568	 0.145224054768503 
569	 0.145870273202404 
570	 0.146244428376192 
571	 0.146655845086116 
572	 0.147120530358926 
573	 0.147304141389563 
574	 0.147775572711201 
575	 0.148229430858957 
576	 0.148401691131872 
577	 0.148863078408637 
578	 0.149131598540919 
579	 0.149293338755551 
580	 0.149713238648119 
581	 0.149781190068632 
582	 0.149894315577553 
583	 0.150187859597717 
584	 0.150072651784765 
585	 0.150169613399031 
586	 0.150247296866755 
587	 0.149935253088422 
588	 0.150031675927726 
589	 0.149966708594641 
590	 0.149721457426859 
591	 0.14990956483628 
592	 0.149682953357133 
593	 0.149421868883681 
594	 0.149442397235579 
595	 0.149057174533697 
596	 0.148823097432093 
597	 0.148612632978625 
598	 0.14801368532077 
599	 0.14783379989524 
600	 0.147561066816893 
601	 0.147050394703203 
602	 0.147068516190277 
603	 0.146914292875583 
604	 0.146785240257493 
605	 0.146975226548038 
606	 0.146705756516956 
607	 0.146685219386011 
608	 0.146920897593283 
609	 0.146667505436989 
610	 0.146809224450642 
611	 0.146926543563888 
612	 0.146697265281978 
613	 0.146929157455028 
614	 0.146927951243143 
615	 0.146817276384648 
616	 0.147077265415946 
617	 0.146927324785593 
618	 0.146933252907386 
619	 0.147236161137536 
620	 0.147050985058927 
621	 0.147212724366755 
622	 0.147387032553315 
623	 0.147123535520657 
624	 0.147356817775217 
625	 0.147353323250675 
626	 0.147113551951716 
627	 0.147349021555079 
628	 0.147313224733042 
629	 0.147316275653405 
630	 0.147563176944943 
631	 0.147425745010906 
632	 0.147487009784881 
633	 0.147605288972111 
634	 0.147408151065884 
635	 0.147620607879129 
636	 0.147685323241396 
637	 0.147490900861565 
638	 0.147733401025926 
639	 0.147671085110998 
640	 0.147580090595858 
641	 0.147779606032281 
642	 0.147479518298434 
643	 0.14742657626684 
644	 0.147519558937211 
645	 0.147009458871095 
646	 0.146958030168172 
647	 0.146923929443633 
648	 0.146605586057984 
649	 0.14673999528228 
650	 0.146411734735516 
651	 0.145979028211388 
652	 0.146071333625312 
653	 0.145559607410779 
654	 0.145081354543189 
655	 0.1447656786427 
656	 0.143953265006361 
657	 0.143633941310617 
658	 0.143331550289506 
659	 0.14266485726029 
660	 0.142517363331943 
661	 0.142128843771731 
662	 0.141602805056086 
663	 0.141508404023098 
664	 0.141146600933394 
665	 0.140908155461574 
666	 0.140903262349258 
667	 0.14048664559081 
668	 0.1403844330433 
669	 0.140359887436315 
670	 0.140052856826995 
671	 0.140178860937486 
672	 0.140159348802634 
673	 0.140032240818625 
674	 0.140405742831361 
675	 0.140372519792835 
676	 0.140381797732815 
677	 0.140742817107445 
678	 0.140721167612327 
679	 0.140987007799266 
680	 0.141338773899935 
681	 0.141319933126568 
682	 0.141690685684585 
683	 0.141936449267531 
684	 0.141927988832812 
685	 0.142203204567988 
686	 0.142039919314352 
687	 0.142018929011195 
688	 0.142600286953368 
689	 0.142398643204288 
690	 0.142440302466688 
691	 0.142567423524207 
692	 0.14201805656352 
693	 0.141999708383321 
694	 0.141925493787111 
695	 0.14157229388324 
696	 0.141708162543632 
697	 0.141212035086349 
698	 0.140494209157807 
699	 0.140228482818162 
700	 0.139546974191321 
701	 0.139115988249636 
702	 0.138822397594217 
703	 0.137961233014476 
704	 0.137379607142518 
705	 0.136700450489667 
706	 0.135750834112459 
707	 0.135183416360566 
708	 0.134189822915468 
709	 0.133034196340335 
710	 0.13217859757303 
711	 0.130781962565132 
712	 0.129487522077589 
713	 0.128292570356702 
714	 0.126418010465584 
715	 0.124892175355555 
716	 0.12314987813868 
717	 0.120747005819078 
718	 0.11911040497383 
719	 0.117291495511721 
720	 0.115692899658196 
721	 0.114532422179518 
722	 0.112656272530298 
723	 0.110685148375458 
724	 0.108982633128048 
725	 0.106627165899064 
726	 0.104670784739061 
727	 0.102510325199483 
728	 9.97375104983246E-02 
729	 9.75320853262433E-02 
730	 9.47827450248584E-02 
731	 9.20663003271397E-02 
732	 9.02017627213073E-02 
733	 8.80767282686315E-02 
734	 8.63342103034921E-02 
735	 0.085109948608093 
736	 8.37138637527698E-02 
737	 0.08287012807949 
738	 8.22378058200281E-02 
739	 8.15327548138201E-02 
740	 8.13964619943781E-02 
741	 0.081061103263546 
742	 8.06687662858666E-02 
743	 8.07176910363766E-02 
744	 8.04296417252587E-02 
745	 8.03096782383255E-02 
746	 8.04344808397987E-02 
747	 8.01462588190379E-02 
748	 8.01389070507232E-02 
749	 8.01499633122442E-02 
750	 7.99337116520164E-02 
751	 8.01650983888835E-02 
752	 7.99566696271986E-02 
753	 7.96267038910148E-02 
754	 7.99675345332447E-02 
755	 7.97221561469459E-02 
756	 0.079607338014237 
757	 7.98064505262029E-02 
758	 7.93786789932822E-02 
759	 7.95450474984456E-02 
760	 7.97344299978921E-02 
761	 7.89012480065455E-02 
762	 0.079764068030992 
763	 7.96812655465775E-02 
764	 7.93843377112767E-02 
765	 8.00528883363565E-02 
766	 7.99298904179867E-02 
767	 8.01662805137621E-02 
768	 8.07279515777273E-02 
769	 8.04645501609011E-02 
770	 0.080601388759259 
771	 8.08453807316767E-02 
772	 8.08943503732883E-02 
773	 8.13014984076556E-02 
774	 8.14429891942483E-02 
775	 8.15909776550004E-02 
776	 8.22110669457169E-02 
777	 8.23702865467112E-02 
778	 8.26519061613374E-02 
779	 8.31027184218862E-02 
780	 8.31823566095158E-02 
781	 8.37743270703046E-02 
782	 8.42377811540434E-02 
783	 8.42577190548882E-02 
784	 8.49134162059856E-02 
785	 8.52694187446911E-02 
786	 0.085568198512911 
787	 8.62533511160574E-02 
788	 8.64421565461064E-02 
789	 8.69207754909599E-02 
790	 8.76284612823281E-02 
791	 0.087876228624917 
792	 8.87010585458657E-02 
793	 8.92316110209286E-02 
794	 8.92607201981657E-02 
795	 9.00532393919332E-02 
796	 0.090406545484967 
797	 9.07409882510179E-02 
798	 9.15197513935729E-02 
799	 9.16543363625218E-02 
800	 9.21754441569541E-02 
801	 9.27488158314608E-02 
802	 9.25351673088112E-02 
803	 9.31513388385132E-02 
804	 0.093519607796062 
805	 9.34298924471986E-02 
806	 9.38050168170979E-02 
807	 9.37086473622128E-02 
808	 9.36106345356494E-02 
809	 9.37851844383713E-02 
810	 9.32118803272343E-02 
811	 9.30130439790904E-02 
812	 0.092814562836652 
813	 9.19143826327843E-02 
814	 9.20641647566709E-02 
815	 9.15202399573522E-02 
816	 9.04203807930694E-02 
817	 9.03579770823963E-02 
818	 8.95312336358405E-02 
819	 8.90155140090923E-02 
820	 8.87730771603512E-02 
821	 8.71297710789617E-02 
822	 8.58792977097391E-02 
823	 8.44349333717214E-02 
824	 8.24267112179262E-02 
825	 8.12536048486016E-02 
826	 7.92129897289173E-02 
827	 7.68220850440018E-02 
828	 7.52569883496089E-02 
829	 7.29161469141933E-02 
830	 7.11788088985464E-02 
831	 6.98725375000594E-02 
832	 6.78918063352228E-02 
833	 6.71145009167857E-02 
834	 6.62650136349077E-02 
835	 6.50712660218959E-02 
836	 6.49696824316138E-02 
837	 6.42954962061951E-02 
838	 6.36098342391804E-02 
839	 6.33895493398002E-02 
840	 6.25924899329369E-02 
841	 6.23529142760976E-02 
842	 6.21849747176541E-02 
843	 6.14132582313983E-02 
844	 6.14520763610339E-02 
845	 0.061027806276978 
846	 6.03210116707714E-02 
847	 6.03582251316034E-02 
848	 5.96358265411596E-02 
849	 5.91969549825167E-02 
850	 5.92218810882302E-02 
851	 5.85108299525318E-02 
852	 5.84318151928659E-02 
853	 5.82591686068454E-02 
854	 5.75899073918067E-02 
855	 5.76307038320549E-02 
856	 5.70239600430895E-02 
857	 5.65360565903026E-02 
858	 5.68383531340393E-02 
859	 0.056092205030516 
860	 5.59716954680024E-02 
861	 5.60321052041328E-02 
862	 0.055134331360723 
863	 5.51231126331692E-02 
864	 5.47780944607192E-02 
865	 5.41600237673539E-02 
866	 5.44435657509404E-02 
867	 5.37566918847336E-02 
868	 5.33293217342549E-02 
869	 5.33834793968302E-02 
870	 5.23856097609735E-02 
871	 5.23381639984496E-02 
872	 5.21673426775925E-02 
873	 0.051244432876093 
874	 5.14599591740274E-02 
875	 5.09225215593815E-02 
876	 5.02533466712166E-02 
877	 5.02550342777483E-02 
878	 4.93593408988112E-02 
879	 0.0491803600875 
880	 4.91346720657384E-02 
881	 4.80692438174043E-02 
882	 4.80726722204548E-02 
883	 4.76879405372461E-02 
884	 4.70327469025414E-02 
885	 4.72492824487877E-02 
886	 4.62827579178853E-02 
887	 4.58653518393593E-02 
888	 4.61152160910246E-02 
889	 4.50631374982596E-02 
890	 4.51735431585759E-02 
891	 4.50507530272077E-02 
892	 4.41020694842053E-02 
893	 4.45956321306312E-02 
894	 4.37651803037288E-02 
895	 4.32346244650894E-02 
896	 4.42601274381819E-02 
897	 4.23031417906395E-02 
898	 4.22564052273546E-02 
899	 4.25908431156609E-02 
900	 4.10907015532679E-02 
901	 4.18584297209656E-02 
902	 4.09711366583779E-02 
903	 4.01147411280934E-02 
904	 4.16418739380094E-02 
905	 4.00016564973648E-02 
906	 3.96668109232854E-02 
907	 4.01873736779246E-02 
908	 3.80685572650303E-02 
909	 3.85158625503337E-02 
910	 3.77397709716088E-02 
911	 3.61980981071796E-02 
912	 3.79890984299928E-02 
913	 3.61864265751859E-02 
914	 3.58763551833763E-02 
915	 3.72444459322778E-02 
916	 0.034251039210248 
917	 3.47799227662335E-02 
918	 3.45175665487905E-02 
919	 0.032444810524119 
920	 3.36121398245097E-02 
921	 3.21909092637663E-02 
922	 0.031334543031796 
923	 3.25086398620942E-02 
924	 2.99411495860192E-02 
925	 0.029795169649449 
926	 2.97219256008945E-02 
927	 2.70232844884884E-02 
928	 2.92180690258905E-02 
929	 2.62052159032529E-02 
930	 2.30388621499733E-02 
931	 3.08951999154083E-02 
932	 2.28177107068942E-02 
933	 2.53030712725051E-02 
934	 2.71501320418774E-02 
935	 1.00627429981039E-02 
936	 2.45487573454502E-02 
937	 2.29044855317669E-02 
938	 1.73640700196446E-02 
939	 2.64729939761708E-02 
940	 1.77430156580675E-02 
941	 1.77589612100043E-02 
942	 2.26480694504051E-02 
943	 1.72643747197641E-02 
944	 2.08812704819206E-02 
945	 1.77033121743573E-02 
946	 1.46268702135468E-02 
947	 2.53031860960045E-02 
948	 1.56133650247042E-02 
949	 1.61319395690375E-02 
950	 2.12929968870677E-02 
951	 9.28978646295499E-03 
952	 1.59653433488338E-02 
953	 1.42035272174622E-02 
954	 8.4228073784692E-03 
955	 1.94883323875293E-02 
956	 1.25598894014586E-02 
957	 1.25195498145037E-02 
958	 1.83790103934662E-02 
959	 1.29403686232813E-02 
960	 1.60255930073317E-02 
961	 1.45080239553456E-02 
962	 1.10699757353421E-02 
963	 1.68929958036894E-02 
964	 1.31925114509639E-02 
965	 0.013822444110349 
966	 1.71232799087653E-02 
967	 1.21045493984555E-02 
968	 1.53763631159105E-02 
969	 1.53119063849669E-02 
970	 1.24210970004078E-02 
971	 1.69783261066431E-02 
972	 1.35138769371245E-02 
973	 1.28925044291423E-02 
974	 1.54114166338214E-02 
975	 1.07983025508624E-02 
976	 0.015131292446684 
977	 1.55708741316922E-02 
978	 0.012328067164685 
979	 1.66520182701175E-02 
980	 1.29845522735968E-02 
981	 1.33043961106622E-02 
982	 1.64092907893518E-02 
983	 1.15913816514414E-02 
984	 1.44167549901338E-02 
985	 0.014483600929031 
986	 1.18172221624412E-02 
987	 1.45433903139816E-02 
988	 1.35151980744348E-02 
989	 1.42152308057076E-02 
990	 1.53985092247129E-02 
991	 1.19783475796021E-02 
992	 1.47205668665706E-02 
993	 1.41006632002294E-02 
994	 0.011526653116971 
995	 1.46105611338159E-02 
996	 1.20153046996617E-02 
997	 1.40473313711567E-02 
998	 1.66095117664341E-02 
999	 1.04644052784962E-02 
1000	 1.45787126094285E-02 
1001	 1.50105674609221E-02 
1002	 1.48565382788915E-02 
1003	 1.49828669177081E-02 
1004	 1.53199841431405E-02 
1005	 1.55813704502937E-02 
1006	 1.60101063368983E-02 
1007	 1.63438403698586E-02 
1008	 1.64302542363848E-02 
1009	 1.61749218100302E-02 
1010	 0.015856815422878 
1011	 1.55102183566206E-02 
1012	 1.54163637710861E-02 
1013	 1.55939419217654E-02 
1014	 1.58700108508466E-02 
1015	 1.66487858692015E-02 
1016	 1.68729602167137E-02 
1017	 1.70290552536324E-02 
1018	 1.70210916414478E-02 
1019	 1.63464884862993E-02 
1020	 0.01638414336949 
1021	 1.69206892377738E-02 
1022	 1.69742482544419E-02 
1023	 1.74041570053069E-02 
1024	 1.80415503410033E-02 
1025	 1.78078893891247E-02 
1026	 1.78259031463009E-02 
1027	 0.017904584747055 
1028	 1.79096960188826E-02 
1029	 1.80263199426276E-02 
1030	 1.83836105153967E-02 
1031	 1.85039474655236E-02 
1032	 1.83707634644988E-02 
1033	 1.85088554108225E-02 
1034	 1.87305172271938E-02 
1035	 1.89731912312519E-02 
1036	 0.019592953287247 
1037	 0.01984597170754 
1038	 1.99507360772455E-02 
1039	 1.98997375835097E-02 
1040	 1.95764790279354E-02 
1041	 1.92654812788971E-02 
1042	 1.95476099141577E-02 
1043	 2.02647023721458E-02 
1044	 2.05106013942106E-02 
1045	 2.10813346545208E-02 
1046	 2.12672382802655E-02 
1047	 2.07367748258901E-02 
1048	 2.08186352293523E-02 
1049	 2.13802518378518E-02 
1050	 2.15071216691463E-02 
1051	 2.13758007563449E-02 
1052	 2.15879798868098E-02 
1053	 2.17528867415861E-02 
1054	 2.19935918527552E-02 
1055	 2.28972306486185E-02 
1056	 2.32608382773512E-02 
1057	 2.33736717800627E-02 
1058	 2.31273959179542E-02 
1059	 2.30441566558089E-02 
1060	 2.26620152527114E-02 
1061	 2.25633266723506E-02 
1062	 2.25158955724012E-02 
1063	 2.26829738870288E-02 
1064	 2.31086882790924E-02 
1065	 2.33247614941218E-02 
1066	 2.38531544119441E-02 
1067	 2.39350887726138E-02 
1068	 2.35172707932874E-02 
1069	 2.33357900476837E-02 
1070	 2.28931704562918E-02 
1071	 2.27557826222291E-02 
1072	 2.27094019936931E-02 
1073	 2.31046258486911E-02 
1074	 2.31879779895119E-02 
1075	 2.33848702171373E-02 
1076	 2.33860785782321E-02 
1077	 2.32133019934418E-02 
1078	 2.31048913513149E-02 
1079	 2.28414997900685E-02 
1080	 2.28677580748302E-02 
1081	 2.31863167890582E-02 
1082	 2.31670186104915E-02 
1083	 2.31238756550736E-02 
1084	 0.02309706026397 
1085	 2.29350804492053E-02 
1086	 2.26044573657657E-02 
1087	 2.20755103164924E-02 
1088	 2.18919680743336E-02 
1089	 2.17436705723249E-02 
1090	 2.14611367977642E-02 
1091	 2.14216515025324E-02 
1092	 2.18104774141123E-02 
1093	 2.19232437330469E-02 
1094	 2.21728627745503E-02 
1095	 2.18403782469164E-02 
1096	 2.10193118889091E-02 
1097	 2.06447734631365E-02 
1098	 1.97742662041081E-02 
1099	 1.94654288437704E-02 
1100	 2.00785726890875E-02 
1101	 2.02171928368186E-02 
1102	 2.02620051898071E-02 
1103	 2.01396814250006E-02 
1104	 0.019696879704521 
1105	 1.97385351004369E-02 
1106	 1.88617256218148E-02 
1107	 1.80209044709363E-02 
1108	 0.018339949059107 
1109	 1.82550707081716E-02 
1110	 1.83317659162188E-02 
1111	 1.96814731296598E-02 
1112	 1.99857422125537E-02 
1113	 1.88204414255465E-02 
1114	 1.84763071198715E-02 
1115	 0.018693720559447 
1116	 1.82584347301999E-02 
1117	 1.74330702604621E-02 
1118	 1.68058708929874E-02 
1119	 1.32695499046845E-02 
1120	 1.25704086191763E-02 
1121	 0.014244612890084 
1122	 2.27650466514563E-02 
1123	 2.75334433512421E-02 
1124	 2.94596976622069E-02 
1125	 2.21445447194772E-02 
1126	 9.6737020372484E-03 
1127	 6.90672690104503E-03 
1128	 9.94977218342748E-03 
1129	 1.16384942623091E-02 
1130	 1.99264374515945E-02 
1131	 1.90133188501285E-02 
1132	 1.10153700058323E-02 
1133	 0.010728741197434 
1134	 1.32964884149232E-02 
1135	 1.33742166909712E-02 
1136	 1.46937372183187E-02 
1137	 1.56994557428099E-02 
1138	 1.65795900394618E-02 
1139	 0.01336268262653 
1140	 1.14596468573845E-02 
1141	 1.24173845344515E-02 
1142	 1.14856551029146E-02 
1143	 8.92422091566893E-03 
1144	 8.65672313762162E-03 
1145	 1.13271476958243E-02 
1146	 1.35015611661598E-02 
1147	 1.36266577326238E-02 
1148	 1.54335585938739E-02 
1149	 1.70090936546156E-02 
1150	 1.61101296752236E-02 
1151	 1.32158423115059E-02 
1152	 0.01331981922366 
1153	 0.013070787268184 
1154	 1.26424146696516E-02 
1155	 1.30636485901184E-02 
1156	 1.38983098566458E-02 
1157	 1.33262515893572E-02 
1158	 0.012652793235771 
1159	 1.21946368905754E-02 
1160	 1.25700239325844E-02 
1161	 1.27679050059045E-02 
1162	 1.23652392347114E-02 
1163	 0.012675094212157 
1164	 1.28731416216786E-02 
1165	 1.23684810343043E-02 
1166	 1.20841378806929E-02 
1167	 1.18952154909248E-02 
1168	 1.16563886048395E-02 
1169	 0.011926627732175 
1170	 1.25516423979891E-02 
1171	 1.26834910991889E-02 
1172	 1.24109413439923E-02 
1173	 1.23252037285831E-02 
1174	 1.20840255842467E-02 
1175	 1.21483506781457E-02 
1176	 1.18545462035557E-02 
1177	 1.20008513230103E-02 
1178	 0.012234599061999 
1179	 1.16427810548804E-02 
1180	 1.17485387459233E-02 
1181	 1.21484490081244E-02 
1182	 1.15768794784322E-02 
1183	 1.15345603300986E-02 
1184	 1.17157550017853E-02 
1185	 1.12881785354659E-02 
1186	 1.13046202111473E-02 
1187	 1.16724578022726E-02 
1188	 1.16709042184757E-02 
1189	 1.15633924053201E-02 
1190	 1.16598192384154E-02 
1191	 1.17820503571251E-02 
1192	 1.18162482362261E-02 
1193	 0.011791199744124 
1194	 1.18337413244094E-02 
1195	 1.17642499022813E-02 
1196	 1.15754141094614E-02 
1197	 1.14422077195557E-02 
1198	 1.14914717103487E-02 
1199	 1.17385448906363E-02 
1200	 1.20138770510091E-02 
1201	 1.19882759897986E-02 
1202	 1.17796854096621E-02 
1203	 1.19780276175974E-02 
1204	 0.01209276268025 
1205	 1.17247368784129E-02 
1206	 0.011526261932505 
1207	 1.15320297883124E-02 
1208	 1.15990629080081E-02 
1209	 0.011867128204126 
1210	 1.22137519299151E-02 
1211	 0.012172062636903 
1212	 1.18267027304979E-02 
1213	 1.15145251799442E-02 
1214	 1.13021890760282E-02 
1215	 1.11477448990641E-02 
1216	 1.12906117370073E-02 
1217	 1.14176540395544E-02 
1218	 1.14540155892904E-02 
1219	 1.16264600489197E-02 
1220	 1.17398488353919E-02 
1221	 1.18711805507546E-02 
1222	 1.17236630965861E-02 
1223	 1.14778602582851E-02 
1224	 0.011678405040475 
1225	 0.0117727006135 
1226	 1.16762761542297E-02 
1227	 1.17532359340349E-02 
1228	 1.17840702549749E-02 
1229	 1.15966733013035E-02 
1230	 1.14939243671118E-02 
1231	 1.16443738751293E-02 
1232	 1.16649793017937E-02 
1233	 1.17137216288733E-02 
1234	 1.18340803809819E-02 
1235	 1.18239485776445E-02 
1236	 1.17157061154125E-02 
1237	 1.17852439876298E-02 
1238	 1.18582858051184E-02 
1239	 0.01180339807176 
1240	 1.19005664178003E-02 
1241	 1.18262239883969E-02 
1242	 1.14789101598206E-02 
1243	 1.13937609810426E-02 
1244	 1.16375079267724E-02 
1245	 0.011789043675222 
1246	 1.18237962821157E-02 
1247	 0.012004637346951 
1248	 1.18607777662397E-02 
1249	 1.14110666546113E-02 
1250	 1.15552424848678E-02 
1251	 1.20192200780612E-02 
1252	 0.012145651823484 
1253	 1.19997879057048E-02 
1254	 0.011729931294225 
1255	 1.14703636940545E-02 
1256	 1.13723197691697E-02 
1257	 1.17249049639739E-02 
1258	 1.18180415631924E-02 
1259	 1.17178852957104E-02 
1260	 1.16461938039461E-02 
1261	 1.15378345598632E-02 
1262	 1.14932657379014E-02 
1263	 1.15038900613044E-02 
1264	 1.15269283993839E-02 
1265	 1.18166417894487E-02 
1266	 1.20185426890037E-02 
1267	 1.18301200553558E-02 
1268	 1.17134285830396E-02 
1269	 0.011503323343733 
1270	 1.12574845029405E-02 
1271	 1.15942771368425E-02 
1272	 1.19846838404653E-02 
1273	 1.17807417444382E-02 
1274	 1.16287948352355E-02 
1275	 1.18546936136537E-02 
1276	 1.19592778292846E-02 
1277	 1.19049803720568E-02 
1278	 1.17717102409612E-02 
1279	 0.011595420262458 
1280	 1.16267011163037E-02 
1281	 1.15740835151968E-02 
1282	 1.17755968674137E-02 
1283	 1.17603701670386E-02 
1284	 1.14433037637372E-02 
1285	 1.14040461694364E-02 
1286	 1.16011113527859E-02 
1287	 1.16009883854483E-02 
1288	 1.14855363796572E-02 
1289	 1.15490700467636E-02 
1290	 1.15622446544809E-02 
1291	 1.17877011763625E-02 
1292	 1.18999257107658E-02 
1293	 1.17269214618931E-02 
1294	 1.15192263866679E-02 
1295	 1.12881181371757E-02 
1296	 1.13843784436655E-02 
1297	 0.01155613523294 
1298	 1.15433802353778E-02 
1299	 1.16369615246474E-02 
1300	 1.15335692559359E-02 
1301	 0.011540088309674 
1302	 1.17261141884077E-02 
1303	 1.14903751116164E-02 
1304	 1.16316950547872E-02 
1305	 1.20331925487373E-02 
1306	 1.19356570867531E-02 
1307	 1.13652797473898E-02 
1308	 1.12997870035407E-02 
1309	 1.11047182060484E-02 
1310	 1.09959624369061E-02 
1311	 1.13849007782321E-02 
1312	 0.01137238090721 
1313	 1.09492124142027E-02 
1314	 0.010973833385638 
1315	 1.12780138603634E-02 
1316	 1.12258233201759E-02 
1317	 1.10465980013366E-02 
1318	 1.11870745674719E-02 
1319	 1.13987971297907E-02 
1320	 1.13035296676186E-02 
1321	 1.10660325360787E-02 
1322	 1.14932341408623E-02 
1323	 1.18051145844929E-02 
1324	 1.17944686109992E-02 
1325	 1.21791236723646E-02 
1326	 1.23231589253915E-02 
1327	 1.21054069237618E-02 
1328	 1.20851242707441E-02 
1329	 1.25238775457676E-02 
1330	 1.27289757779391E-02 
1331	 1.18352920859396E-02 
1332	 1.14242864998506E-02 
1333	 1.22859890541467E-02 
1334	 1.22163785978042E-02 
1335	 1.19497912879607E-02 
1336	 1.14259850622977E-02 
1337	 1.16994884229578E-02 
1338	 1.22804447935739E-02 
1339	 1.19667314259984E-02 
1340	 1.12345208811738E-02 
1341	 0.011403054061875 
1342	 1.11801747977306E-02 
1343	 1.07368826153561E-02 
1344	 1.15791183210705E-02 
1345	 1.27677821980473E-02 
1346	 0.014008137307019 
1347	 0.013992257126409 
1348	 1.47753175371888E-02 
1349	 1.56171883618087E-02 
1350	 8.72110312848264E-03 
1351	 3.57568378456492E-03 
1352	 6.73517107643686E-03 
1353	 0.01144799540073 
1354	 3.31869227882027E-02 
1355	 3.60968235745801E-02 
1356	 1.57330910757274E-02 
1357	 3.57341236015175E-04 
1358	-3.51012574161566E-02 
1359	-0.157627747561115 
1360	-0.130804111659884 
1361	 5.15911849037783E-02 
1362	 0.05542843076154 
1363	 0.17307051429951 
1364	 0.456397671741743 
1365	 0.400953489016383 
1366	 0.134965532232142 
1367	 3.78278097956163E-02 
1368	 4.59653792459902E-02 
1369	-5.98524545824607E-02 
1370	-0.162824309607843 
1371	 9.28816875438347E-03 
1372	 0.159431948839081 
1373	 0.213774250067893 
1374	 4.41131186605026E-02 
1375	-9.83366511847298E-02 
1376	 0.110920538601673 
1377	 0.256692869095695 
1378	 0.123560063129608 
1379	 0.21338213374149 
1380	 0.402676851876377 
1381	 8.01444885341518E-02 
1382	-0.17765006811494 
1383	-1.96640639731502E-02 
1384	 9.88741823004791E-02 
1385	-4.45263215263804E-02 
1386	-0.129513763860834 
1387	 7.32279548732462E-02 
1388	 0.133225842551619 
1389	-0.386711670587822 
1390	-0.558305117159068 
1391	-0.810762686819049 
1392	-0.323116445277958 
1393	 0.466699902981062 
1394	 0.584965458801804 
1395	 0.635353086577102 
1396	 0.959322235973932 
1397	 0.754635533986346 
1398	 0.300553955725845 
1399	 0.380513616457634 
1400	 0.288374679313957 
1401	 0.182886315394565 
1402	 0.384383312076192 
1403	 8.25699811812737E-02 
1404	-0.359626471813624 
1405	-0.234408485600558 
1406	 0.477313176710136 
1407	 0.294131648025557 
1408	 0.281086504901635 
1409	 0.369454604722515 
1410	 7.20209518867283E-02 
1411	-0.042948874880599 
1412	 6.75996948437206E-02 
1413	 0.100411743173969 
1414	-3.38223869191141E-02 
1415	-8.48833898315791E-02 
1416	 9.58458358489458E-03 
1417	 5.40664267678399E-03 
1418	-0.127983721435662 
1419	-0.105911182661766 
1420	-9.15870901703344E-03 
1421	 1.84459088712661E-02 
1422	 4.60235382362502E-02 
1423	 5.13117642350392E-02 
1424	 5.19704117160915E-02 
1425	 0.040055309504102 
1426	 1.41779208190671E-02 
1427	 1.50616348184468E-03 
1428	-2.86951973794843E-02 
1429	-2.73614961355877E-02 
1430	 9.59649283082756E-03 
1431	 0.01076138696896 
1432	-4.84418519726248E-03 
1433	 2.12343342065573E-03 
1434	 0.018998738290609 
1435	 7.28694380550796E-03 
1436	-1.14963172321478E-02 
1437	-1.32686882509705E-02 
1438	-2.97845451887947E-02 
1439	-2.90171890021851E-02 
1440	-3.64466755326572E-03 
1441	 4.8633516762296E-03 
1442	 1.28835805870403E-03 
1443	 1.60114141631399E-03 
1444	 6.75713583241201E-03 
1445	 0.010127737240448 
1446	 1.52586386596897E-02 
1447	 1.65343266250538E-02 
1448	 1.37653829774619E-02 
1449	 1.11602036870305E-02 
1450	 1.25038331340402E-02 
1451	 1.49098287595676E-02 
1452	 0.010383982261226 
1453	 7.17048602670795E-03 
1454	 7.72151270045631E-03 
1455	 6.93747499838394E-03 
1456	 5.54989037105504E-03 
1457	 6.36458099391447E-03 
1458	 8.63909211270845E-03 
1459	 1.04184612077945E-02 
1460	 9.65417275268374E-03 
1461	 1.06515285097394E-02 
1462	 1.09428861741832E-02 
1463	 6.53955563242091E-03 
1464	 5.87363691311222E-03 
1465	 9.94460326093052E-03 
1466	 1.05396766105924E-02 
1467	 8.03571288067055E-03 
1468	 8.27644543263449E-03 
1469	 1.04765200244012E-02 
1470	 1.13610597335453E-02 
1471	 1.26510797162663E-02 
1472	 1.30410916091083E-02 
1473	 1.21582580179343E-02 
1474	 1.13297575261224E-02 
1475	 9.7940894371325E-03 
1476	 1.01546623654916E-02 
1477	 1.15203014596144E-02 
1478	 1.17219972876459E-02 
1479	 1.27829628030589E-02 
1480	 1.28012679582468E-02 
1481	 1.13714051304439E-02 
1482	 1.03803917061536E-02 
1483	 8.89307727078317E-03 
1484	 9.35117117838887E-03 
1485	 1.13656132190735E-02 
1486	 1.10791084022426E-02 
1487	 1.07973283860352E-02 
1488	 1.05801880583291E-02 
1489	 8.77883709744088E-03 
1490	 8.25200261264424E-03 
1491	 8.44250077899489E-03 
1492	 8.93038232258994E-03 
1493	 1.01684159040211E-02 
1494	 1.03923239778865E-02 
1495	 1.03776583765024E-02 
1496	 1.05257928545224E-02 
1497	 1.01719501073386E-02 
1498	 9.98648352753026E-03 
1499	 1.03443896009381E-02 
1500	 0.010249898654251 
1501	 9.67002822999058E-03 
1502	 9.4037618952658E-03 
1503	 9.06761878072824E-03 
1504	 8.89821103070633E-03 
1505	 8.82262293173883E-03 
1506	 8.95706118029668E-03 
1507	 9.07499509561002E-03 
1508	 9.32580756463183E-03 
1509	 9.20948847274338E-03 
1510	 9.06996633678979E-03 
1511	 9.26959261322741E-03 
1512	 9.27408791338181E-03 
1513	 9.16916193752382E-03 
1514	 9.22737067324369E-03 
1515	 9.43166815441594E-03 
1516	 9.52244441670569E-03 
1517	 9.40883973808665E-03 
1518	 9.48977679454781E-03 
1519	 9.72822773106664E-03 
1520	 9.67984303381859E-03 
1521	 9.47831629941038E-03 
1522	 9.53385418297336E-03 
1523	 9.29943054651724E-03 
1524	 8.89913435063699E-03 
1525	 9.34641856531486E-03 
1526	 9.84606540844676E-03 
1527	 9.52810430620608E-03 
1528	 9.18448191053476E-03 
1529	 9.10832866471191E-03 
1530	 9.00689933481714E-03 
1531	 9.22567165433522E-03 
1532	 9.63001657693587E-03 
1533	 9.63699483728721E-03 
1534	 9.5054748997964E-03 
1535	 9.48309409738549E-03 
1536	 9.41214244570535E-03 
1537	 9.41653959201752E-03 
1538	 9.38812716612315E-03 
1539	 9.35211221987363E-03 
1540	 9.57247756605267E-03 
1541	 9.61719268540532E-03 
1542	 9.5491865992496E-03 
1543	 9.69372868487603E-03 
1544	 9.63417011273062E-03 
1545	 9.65804037414711E-03 
1546	 9.87252105131592E-03 
1547	 9.77096497495155E-03 
1548	 9.69341170338865E-03 
1549	 9.74322263813444E-03 
1550	 9.69517827859033E-03 
1551	 9.60396315325461E-03 
1552	 9.49815096723877E-03 
1553	 9.34432155285877E-03 
1554	 9.17252431939413E-03 
1555	 9.25251951601493E-03 
1556	 9.42413698739841E-03 
1557	 9.44107542345287E-03 
1558	 9.66876994650117E-03 
1559	 9.95950866790788E-03 
1560	 9.82546728918795E-03 
1561	 9.97580946979125E-03 
1562	 1.03140349240202E-02 
1563	 9.93108318880532E-03 
1564	 9.82739987847814E-03 
1565	 1.02706506149868E-02 
1566	 1.02674170212852E-02 
1567	 1.00864583039155E-02 
1568	 1.01120193986212E-02 
1569	 9.92175127267615E-03 
1570	 9.66245642678767E-03 
1571	 9.86138734583871E-03 
1572	 1.01612026507638E-02 
1573	 1.02864407829002E-02 
1574	 1.01402281952976E-02 
1575	 9.9602539425032E-03 
1576	 1.01145443422991E-02 
1577	 1.00458131719269E-02 
1578	 9.68865393801186E-03 
1579	 9.58399221340001E-03 
1580	 9.55287632493968E-03 
1581	 9.64075721940924E-03 
1582	 9.93940041469448E-03 
1583	 9.98410242497004E-03 
1584	 1.01145253966638E-02 
1585	 1.04483173587081E-02 
1586	 0.010351970431498 
1587	 9.99958788568871E-03 
1588	 1.00632751108135E-02 
1589	 1.01868191902861E-02 
1590	 1.00715155154689E-02 
1591	 0.010295580429689 
1592	 1.04723629192519E-02 
1593	 0.010186217051476 
1594	 1.00888844993161E-02 
1595	 1.03471029353829E-02 
1596	 1.02719665198569E-02 
1597	 1.01255230870047E-02 
1598	 1.03158685763086E-02 
1599	 1.04096433287607E-02 
1600	 1.05454804286634E-02 
1601	 1.04185978201599E-02 
1602	 1.00259739729723E-02 
1603	 1.00279906903316E-02 
1604	 1.01141538570498E-02 
1605	 1.02167191378884E-02 
1606	 1.04165641749294E-02 
1607	 1.02391463781114E-02 
1608	 9.9182304888901E-03 
1609	 9.88449365833807E-03 
1610	 9.8365037008665E-03 
1611	 1.00106114628925E-02 
1612	 1.04564999748786E-02 
1613	 0.010403800104832 
1614	 1.01043515050171E-02 
1615	 0.010195136747064 
1616	 1.02202969347517E-02 
1617	 9.93379134746507E-03 
1618	 1.00861660853183E-02 
1619	 1.04418622410819E-02 
1620	 1.01160723554003E-02 
1621	 9.76275405358619E-03 
1622	 9.99705410109996E-03 
1623	 1.00592074938127E-02 
1624	 9.9368508103167E-03 
1625	 1.01060716494476E-02 
1626	 1.00316594426384E-02 
1627	 9.72548781753584E-03 
1628	 9.79951410395119E-03 
1629	 9.97916155227362E-03 
1630	 1.01703233141489E-02 
1631	 1.03743001605225E-02 
1632	 9.94623227176967E-03 
1633	 9.48754424631579E-03 
1634	 9.77375687399025E-03 
1635	 1.02810664785451E-02 
1636	 1.05222737968547E-02 
1637	 0.010499121822406 
1638	 1.02486791981888E-02 
1639	 9.87665703923161E-03 
1640	 9.82634522676385E-03 
1641	 9.83918115348406E-03 
1642	 9.82487755311071E-03 
1643	 1.00696734461721E-02 
1644	 0.010099783944146 
1645	 1.00012368098366E-02 
1646	 1.01386133685152E-02 
1647	 0.010169031717769 
1648	 9.86011596619189E-03 
1649	 9.69066344399469E-03 
1650	 1.01096363142232E-02 
1651	 1.03315214402997E-02 
1652	 9.84079101401704E-03 
1653	 9.94906980981834E-03 
1654	 1.00434261313701E-02 
1655	 9.85481686913718E-03 
1656	 9.79577813751034E-03 
1657	 9.8954752386998E-03 
1658	 9.88916925464821E-03 
1659	 9.79656447926959E-03 
1660	 9.86723626977098E-03 
1661	 1.01196451871882E-02 
1662	 1.00956658250557E-02 
1663	 9.83858837749896E-03 
1664	 1.00433898631837E-02 
1665	 1.05686343289728E-02 
1666	 1.04421509872779E-02 
1667	 1.01292853578934E-02 
1668	 9.72521404719021E-03 
1669	 9.65227772344924E-03 
1670	 1.01164408741232E-02 
1671	 1.02206189204693E-02 
1672	 9.64539736898662E-03 
1673	 9.4730193215724E-03 
1674	 9.98721845464598E-03 
1675	 9.93306987235403E-03 
1676	 1.00414064849262E-02 
1677	 1.03568803743958E-02 
1678	 9.70862585030382E-03 
1679	 9.69511457591023E-03 
1680	 1.04578102543704E-02 
1681	 1.04307505890902E-02 
1682	 1.01375807530411E-02 
1683	 1.01205084555003E-02 
1684	 9.76360649050066E-03 
1685	 9.70426564489253E-03 
1686	 1.02658031681862E-02 
1687	 1.02330583624285E-02 
1688	 9.93962691218661E-03 
1689	 9.98105616196028E-03 
1690	 1.00955161718175E-02 
1691	 1.01655449309888E-02 
1692	 1.02378174184219E-02 
1693	 1.01134936546691E-02 
1694	 9.67762531049956E-03 
1695	 9.99518464725387E-03 
1696	 1.04775832139044E-02 
1697	 1.01224414837166E-02 
1698	 1.01533115863769E-02 
1699	 1.02626976278797E-02 
1700	 9.84659704721102E-03 
1701	 1.00997418431462E-02 
1702	 1.03806842655878E-02 
1703	 9.96576951119494E-03 
1704	 1.01273259462014E-02 
1705	 1.05673947952582E-02 
1706	 1.03771833866248E-02 
1707	 9.94479805031841E-03 
1708	 1.00470885778731E-02 
1709	 1.04827167015682E-02 
1710	 1.05621136518379E-02 
1711	 1.07531878027763E-02 
1712	 1.04485530878868E-02 
1713	 9.18827496206126E-03 
1714	 9.26842806708637E-03 
1715	 1.03390176021928E-02 
1716	 0.010582153337971 
1717	 1.06795028202248E-02 
1718	 1.04355092691176E-02 
1719	 1.04675849721868E-02 
1720	 1.02896613851199E-02 
1721	 9.83393299073864E-03 
1722	 9.67845367415917E-03 
1723	 9.46402446347831E-03 
1724	 1.00797364474087E-02 
1725	 0.011180350459992 
1726	 0.010941082654093 
1727	 1.04368794642946E-02 
1728	 1.03486579864731E-02 
1729	 1.00252618837537E-02 
1730	 0.010076486150528 
1731	 1.01297246263471E-02 
1732	 1.01345475277996E-02 
1733	 1.06757032571853E-02 
1734	 1.09723320640726E-02 
1735	 1.09144048311922E-02 
1736	 1.08105097870288E-02 
1737	 1.00041387985066E-02 
1738	 9.55959507159983E-03 
1739	 1.05036540147269E-02 
1740	 1.06286496933644E-02 
1741	 1.00272390188989E-02 
1742	 1.01003441434289E-02 
1743	 1.00015960548604E-02 
1744	 1.01732365300069E-02 
1745	 1.10571683488231E-02 
1746	 1.10416590159599E-02 
1747	 1.05808021873288E-02 
1748	 8.90148442693716E-03 
1749	 9.00922622274185E-03 
1750	 0.010444394138202 
1751	 1.08138558049114E-02 
1752	 1.18357976093524E-02 
1753	 1.21865465647409E-02 
1754	 1.10900621204959E-02 
1755	 1.04193197776884E-02 
1756	 1.01021652560817E-02 
1757	 9.44266906961699E-03 
1758	 9.63826446837666E-03 
1759	 1.07797263225696E-02 
1760	 1.08425352426944E-02 
1761	 9.86906429414494E-03 
1762	 8.83826198501633E-03 
1763	 9.38236707179505E-03 
1764	 1.01341248792586E-02 
1765	 9.70464678456944E-03 
1766	 1.02151670456362E-02 
1767	 9.87788520269056E-03 
1768	 8.89045034855553E-03 
1769	 9.89085205847979E-03 
1770	 0.010609594919659 
1771	 1.03111370256172E-02 
1772	 0.010130288070642 
1773	 9.92965524544867E-03 
1774	 1.01727233306169E-02 
1775	 1.09758121272749E-02 
1776	 1.13262973233051E-02 
1777	 1.21925286453221E-02 
1778	 1.21440090170585E-02 
1779	 1.03669513817751E-02 
1780	 1.05177221916319E-02 
1781	 1.12782648515524E-02 
1782	 1.10242960856719E-02 
1783	 1.14108642894623E-02 
1784	 1.17568529195338E-02 
1785	 1.15522196646063E-02 
1786	 1.30167217669022E-02 
1787	 0.016787606708377 
1788	 1.64938577324659E-02 
1789	 1.35856264992526E-02 
1790	 6.79280955202099E-03 
1791	 6.57009156691935E-03 
1792	 1.11392630641155E-02 
1793	 9.4995137857047E-03 
1794	 1.02413940337106E-02 
1795	 1.41891591436103E-02 
1796	 8.69256538201738E-03 
1797	 0.010896426350933 
1798	 2.31180798866337E-02 
1799	 2.20843714051405E-02 
1800	 2.18468597026527E-02 
1801	 1.74194894860709E-02 
1802	-1.81514037300511E-02 
1803	-3.17939113920638E-02 
1804	-1.98594062793621E-02 
1805	-1.16491756779891E-02 
1806	 5.22851616691297E-02 
1807	 0.070835568595733 
1808	 6.61794598214166E-03 
1809	-2.94881432690349E-02 
1810	-0.148262803417114 
1811	-0.194314639624627 
1812	-0.131224477572804 
1813	-0.033116455514959 
1814	 0.288890272959689 
1815	 0.294703961187507 
1816	 1.21023583024934E-02 
1817	 8.80723348634854E-02 
1818	-0.18256593371098 
1819	-0.271729129981575 
1820	 0.173038767523103 
1821	-9.22594973148406E-02 
1822	-0.184194315789368 
1823	-0.424694712893719 
1824	-0.491798962607059 
1825	 3.79837474953494E-02 
1826	 0.167157332989321 
1827	 0.351667373379271 
1828	 0.380027395133569 
1829	 0.36340035267655 
1830	 0.263424609143222 
1831	-0.171280578837409 
1832	-0.229142933748943 
1833	-0.94832337176088 
1834	-1.13550338510636 
1835	-1.00510755861605 
1836	-0.874555225872772 
1837	-0.401310187244329 
1838	-0.229252645633637 
1839	-0.282449676228528 
1840	 0.267636258366497 
1841	 0.43795760699909 
1842	 0.213096565432343 
1843	 0.145481822237858 
1844	 7.48413246569884E-02 
1845	-2.25092636024905E-02 
1846	 1.34230854335032 
1847	 1.15969898167131 
1848	 60.8972621611032 
1849	-0.534971110085214 
1850	-1.2030043806572 
1851	-0.387149090581885 
1852	 1.28605298144242 
1853	 1.52869131474561 
1854	 1.34750445343191 
1855	 0.774606066695143 
1856	 0.545897383486608 
1857	 12.0398985942854 
1858	 20.5859502791931 
1859	-2.32599366785449 
1860	-1.80018293256655 
1861	-0.606261220146475 
1862	 2.69139132985087E-03 
1863	 9.56761915210208E-02 
1864	-19.339906205945 
1865	-9.81799799277287 
1866	 5.08766098246985 
1867	 3.30690652383826 
1868	 1.72127602663195 
1869	 1.09494223424087 
1870	 0.521610683883776 
1871	-0.221642270067361 
1872	-0.346242774721939 
1873	-0.114148716835622 
1874	 0.190721765907596 
1875	 0.483967124249782 
1876	 0.319807700440153 
1877	-0.526019786866249 
1878	-0.506414631113058 
1879	-0.60617618492628 
1880	-0.359564314045993 
1881	 0.586152081116777 
1882	 1.48145827275438 
1883	 0.982071948573839 
1884	-1.93345168870073E-02 
1885	 2.52718733929184E-02 
1886	-0.864869108172555 
1887	 3.13275530617603 
1888	-10.5339407805871 
1889	-4.55548329500789 
1890	-0.867348443244213 
1891	-0.91925844690976 
1892	-0.475650559225026 
1893	-1.67461573823232 
1894	-4.25997568868223 
1895	-2.80381715301613 
1896	 29.2655925745685 
1897	 4.49894131116256 
1898	 4.37312810284497 
1899	 3.11846442796801 
1900	 2.61197690382106 
1901	 3.95421404469259 
1902	 6.53202501323736 
1903	-1.71979123329799 
1904	-9.51256377637463 
1905	 16.4953844239766 
1906	 0.218038450811345 
1907	 1.3046740088045 
1908	 19.4799479023149 
1909	-2.15783182168445 
1910	-37.1920106190635 
1911	-0.793739047253248 
1912	-0.365712453712495 
1913	-0.274713225306939 
1914	-0.311748888587867 
1915	 1.02726619871844 
1916	 1.30304285695915 
1917	 1.23671418473055 
1918	-5.71241960876819 
1919	-0.830880391014387 
1920	-1.18715032924423 
1921	-1.53937250331864 
1922	-2.65084244874002 
1923	-2.97313807444339 
1924	-1.93621496354176 
1925	-1.91729697770125 
1926	-1.70163187470739 
1927	-0.979994629212221 
1928	-0.66587089890856 
1929	-1.60471449672661 
1930	-5.57813385532582 
1931	-16.261416205508 
1932	 43.6578697991804 
1933	 1.10562417547206 
1934	 1.16192958519704 
1935	 2.63990027804523 
1936	 2.60134137307537 
1937	 1.66417840101856 
1938	 1.05070945153617 
1939	 0.717864926178155 
1940	 0.295480868570613 
1941	 0.125937727972667 
1942	 1.16944213728018E-02 
1943	-0.066878947305186 
1944	-1.83840423053359E-02 
1945	 7.18767094043917E-02 
1946	 0.127160014143028 
1947	 0.196386864985534 
1948	 0.199350315838661 
1949	 5.92912843708495E-02 
1950	-1.27256373274568E-02 
1951	 2.73325660578365E-02 
1952	 2.89520369334275E-02 
1953	 0.030382299324614 
1954	 3.49236609432238E-02 
1955	 6.47247270427001E-02 
1956	 4.95512487912326E-02 
1957	 1.35210460481038E-02 
1958	 3.35647326156441E-02 
1959	 2.60088669473281E-02 
1960	-8.95075429915218E-03 
1961	-7.16488076234372E-03 
1962	-1.55247576134584E-02 
1963	-2.02843475990458E-02 
1964	-1.10206846530575E-03 
1965	 1.12250316666098E-02 
1966	 1.56818378144954E-02 
1967	 2.06377401503459E-02 
1968	 2.10317290619874E-02 
1969	 0.015796375683074 
1970	 1.33191033098917E-02 
1971	 1.11399578352027E-02 
1972	 1.10544808377059E-02 
1973	 1.08144085591195E-02 
1974	 5.51818136255814E-03 
1975	 4.66136766830032E-03 
1976	 6.75042786842976E-03 
1977	 6.80276479548415E-03 
1978	 8.41704787219602E-03 
1979	 8.81158446319441E-03 
1980	 7.8925269652591E-03 
1981	 6.69944332974624E-03 
1982	 8.14097987929404E-03 
1983	 0.010289448184807 
1984	 1.17153677858393E-02 
1985	 1.06112461449528E-02 
1986	 8.89104570623011E-03 
1987	 7.59467974827064E-03 
1988	 6.05612215053893E-03 
1989	 6.68866773112881E-03 
1990	 9.3220691440567E-03 
1991	 9.67954173835911E-03 
1992	 1.03477066144886E-02 
1993	 1.30835964563014E-02 
1994	 0.014129800383685 
1995	 1.33130818422488E-02 
1996	 1.30384911841938E-02 
1997	 1.43519653745464E-02 
1998	 1.45514295474268E-02 
1999	 1.44277878371663E-02 
2000	 1.38280253696591E-02 
2001	 1.27608310517119E-02 
2002	 8.78692776903669E-03 
2003	 4.82862299988275E-03 
2004	 5.98243091126206E-03 
2005	 3.81871408678817E-03 
2006	 2.1978683578636E-03 
2007	 9.40935789354159E-03 
2008	 1.61173737866535E-02 
2009	 1.87742900433315E-02 
2010	 2.20363672105434E-02 
2011	 2.44911677203943E-02 
2012	 2.33376571636834E-02 
2013	 2.03873239726179E-02 
2014	 2.21035462119793E-02 
2015	 2.53776099315242E-02 
2016	 2.23998168148493E-02 
2017	 1.71940983011986E-02 
2018	 9.50771634104459E-03 
2019	 3.9985658550962E-03 
2020	 2.84153540773501E-03 
2021	 1.68973574727148E-03 
2022	 4.04327687226258E-03 
2023	 7.49854359284095E-03 
2024	 8.27731564328143E-03 
2025	 7.65385809195024E-03 
2026	 8.12041795387434E-03 
2027	 8.90400878673684E-03 
2028	 7.32937032258439E-03 
2029	 6.93878149302599E-03 
2030	 7.29168444836074E-03 
2031	 5.83925913034639E-03 
2032	 5.99820662289507E-03 
2033	 7.47286126186104E-03 
2034	 7.47982530255304E-03 
2035	 7.83683903154576E-03 
2036	 8.92986092037617E-03 
2037	 9.51164383096159E-03 
2038	 1.00116385154256E-02 
2039	 9.86391557203795E-03 
2040	 9.45465545056848E-03 
2041	 8.56273464670622E-03 
2042	 5.95141901088561E-03 
2043	 5.23103694332755E-03 
2044	 5.21585910612639E-03 
2045	 5.87797955820505E-03 
2046	 6.23095457002584E-03 
2047	 6.77181593165323E-03 
2048	 7.48541585712293E-03 
2049	 7.79119652277359E-03 
2050	 8.91218036109495E-03 
2051	 1.02673442986311E-02 
2052	 1.10353852692275E-02 
2053	 1.11688763600976E-02 
2054	 1.07614600205611E-02 
2055	 1.03117799249669E-02 
2056	 9.81735191071923E-03 
2057	 8.42035002361464E-03 
2058	 8.14647867299363E-03 
2059	 8.76772630676558E-03 
2060	 9.03494054502752E-03 
2061	 9.68470215192748E-03 
2062	 9.78524864406521E-03 
2063	 9.84285879040857E-03 
2064	 9.56114885029945E-03 
2065	 9.8651605324054E-03 
2066	 1.20909030597514E-02 
2067	 1.35825388973433E-02 
2068	 1.37629306802293E-02 
2069	 0.013458437891373 
2070	 1.14704961188996E-02 
2071	 9.69000298763661E-03 
2072	 9.42426028264501E-03 
2073	 9.14817073514344E-03 
2074	 9.59491753086979E-03 
2075	 9.32997281427176E-03 
2076	 9.01265089991707E-03 
2077	 8.72565622888825E-03 
2078	 7.45009356447582E-03 
2079	 7.59144497902378E-03 
2080	 9.07188042567852E-03 
2081	 9.46616542059591E-03 
2082	 8.72461871495983E-03 
2083	 9.09828156882466E-03 
2084	 7.8998096254111E-03 
2085	 5.81892939390503E-03 
2086	 6.01475315063379E-03 
2087	 6.11487899452974E-03 
2088	 6.28326502976825E-03 
2089	 7.59239820272073E-03 
2090	 8.35690050681182E-03 
2091	 8.58404183843341E-03 
2092	 8.68227915763422E-03 
2093	 8.41859911586307E-03 
2094	 8.50018722397076E-03 
2095	 8.27924704784933E-03 
2096	 8.51901764327545E-03 
2097	 9.0852655012303E-03 
2098	 9.28496927015846E-03 
2099	 9.61618238055515E-03 
2100	 9.86918067742374E-03 
2101	 9.94988517630707E-03 
2102	 1.03978536300212E-02 
2103	 9.46726216092382E-03 
2104	 9.37984726254264E-03 
2105	 9.14007683192431E-03 
2106	 8.65201099115222E-03 
2107	 9.90502542289702E-03 
2108	 1.03961409386085E-02 
2109	 1.00721963664774E-02 
2110	 8.91276308592688E-03 
2111	 7.61220766419262E-03 
2112	 7.46829476212892E-03 
2113	 7.08015903975752E-03 
2114	 7.20286579768834E-03 
2115	 7.31486472203968E-03 
2116	 7.47705058854615E-03 
2117	 7.33283494098113E-03 
2118	 6.94831871315883E-03 
2119	 7.44086659225868E-03 
2120	 8.44802178535019E-03 
2121	 8.80219704603333E-03 
2122	 9.47298580957275E-03 
2123	 9.73523644296094E-03 
2124	 8.80606197893915E-03 
2125	 7.99228552426543E-03 
2126	 7.39227311229621E-03 
2127	 7.42910778932143E-03 
2128	 8.03349613853702E-03 
2129	 8.84701742266293E-03 
2130	 9.39832710037338E-03 
2131	 9.30882583632509E-03 
2132	 9.28878211317806E-03 
2133	 8.56112611347189E-03 
2134	 8.52729033671985E-03 
2135	 9.06600038182884E-03 
2136	 9.42194511029784E-03 
2137	 1.02018769199912E-02 
2138	 1.05198338412925E-02 
2139	 1.04168820981759E-02 
2140	 1.00052927464559E-02 
2141	 9.13539926163996E-03 
2142	 8.73898708599956E-03 
2143	 7.87857530376866E-03 
2144	 8.28947048882614E-03 
2145	 8.79638837273728E-03 
2146	 7.95788899778555E-03 
2147	 7.72354865604143E-03 
2148	 7.08384697189514E-03 
2149	 7.20478491821093E-03 
2150	 8.7641752001283E-03 
2151	 1.01700340877371E-02 
2152	 1.11786503009181E-02 
2153	 1.10045368581651E-02 
2154	 1.17974116997041E-02 
2155	 1.10336335043392E-02 
2156	 8.88716254038595E-03 
2157	 8.02658872175938E-03 
2158	 7.05521149443959E-03 
2159	 6.77100061437057E-03 
2160	 7.10380506162476E-03 
2161	 8.12185187065423E-03 
2162	 1.07648311059923E-02 
2163	 1.15109179566943E-02 
2164	 1.20203032305847E-02 
2165	 1.19567656308631E-02 
2166	 0.010141668984831 
2167	 9.32044268599574E-03 
2168	 8.68128471779501E-03 
2169	 8.87356997213048E-03 
2170	 1.06735514948182E-02 
2171	 0.010208566303938 
2172	 8.50112140991749E-03 
2173	 7.67764916231952E-03 
2174	 5.69925232587879E-03 
2175	 4.8856459790088E-03 
2176	 8.84101024439272E-03 
2177	 1.02935081144558E-02 
2178	 9.37473703116643E-03 
2179	 1.01238995750873E-02 
2180	 9.63769785962553E-03 
2181	 9.48561024650354E-03 
2182	 9.92724145765315E-03 
2183	 9.3319098091115E-03 
2184	 8.45465120203332E-03 
2185	 7.21177089433661E-03 
2186	 7.50019818532125E-03 
2187	 1.11713422993704E-02 
2188	 1.15803213019326E-02 
2189	 1.00596898549746E-02 
2190	 0.010291226898302 
2191	 9.21287195250726E-03 
2192	 9.63105348369663E-03 
2193	 1.36219181229296E-02 
2194	 0.014995900931795 
2195	 1.54092744234243E-02 
2196	 1.49872249064606E-02 
2197	 1.21482533716751E-02 
2198	 1.10410060507366E-02 
2199	 9.63508192907559E-03 
2200	 9.99359823402288E-03 
2201	 1.09908120310475E-02 
2202	 9.24310199415886E-03 
2203	 7.26270003982726E-03 
2204	 7.6112375346757E-03 
2205	 1.00481169825025E-02 
2206	 1.32079274146101E-02 
2207	 1.46944942887854E-02 
2208	 1.42161164000491E-02 
2209	 1.27941146417084E-02 
2210	 1.15626777963389E-02 
2211	 1.18429768215576E-02 
2212	 1.28536155823483E-02 
2213	 1.27737259789982E-02 
2214	 1.17440974419159E-02 
2215	 1.26771887070123E-02 
2216	 1.41366634766078E-02 
2217	 1.42400123750721E-02 
2218	 1.56279981912508E-02 
2219	 0.015002085063967 
2220	 1.08895109141498E-02 
2221	 9.72588512142847E-03 
2222	 8.89281369785905E-03 
2223	 8.22803426950356E-03 
2224	 9.72958972831817E-03 
2225	 9.52461417414461E-03 
2226	 7.95500296748907E-03 
2227	 7.66707624181809E-03 
2228	 7.29863906581919E-03 
2229	 7.05563535730962E-03 
2230	 7.84389229433414E-03 
2231	 8.70917367200405E-03 
2232	 9.33797360843931E-03 
2233	 9.94766576621595E-03 
2234	 0.011335014502893 
2235	 1.18140352269308E-02 
2236	 9.48817405612483E-03 
2237	 8.90039354470675E-03 
2238	 9.60476646942087E-03 
2239	 7.87197980948289E-03 
2240	 8.52803333601236E-03 
2241	 9.22441288060399E-03 
2242	 5.87122577848938E-03 
2243	 2.90626641702162E-03 
2244	 6.13833253556683E-04 
2245	-1.11153177816736E-03 
2246	 1.79992534215812E-03 
2247	 6.80053400660202E-03 
2248	 1.02262462415292E-02 
2249	 1.20704826225427E-02 
2250	 1.09853153856884E-02 
2251	 8.97134263710574E-03 
2252	 8.95409345442531E-03 
2253	 1.04461226530226E-02 
2254	 1.07665231638654E-02 
2255	 1.11291265504603E-02 
2256	 1.05457311204694E-02 
2257	 7.99836240517614E-03 
2258	 7.68248226397592E-03 
2259	 7.68705914247794E-03 
2260	 8.11233283114444E-03 
2261	 1.09570136981215E-02 
2262	 1.11511949648875E-02 
2263	 8.94447070759535E-03 
2264	 9.70282373097478E-03 
2265	 1.00515616289073E-02 
2266	 1.09222634471547E-02 
2267	 1.63048179504471E-02 
2268	 1.66719907710029E-02 
2269	 1.36716080326412E-02 
2270	 1.26492881809331E-02 
2271	 1.01753865250401E-02 
2272	 8.35258642795631E-03 
2273	 6.31790765966902E-03 
2274	 5.81230357610464E-03 
2275	 5.43673928637096E-03 
2276	 6.12145984656308E-03 
2277	 1.07748671915038E-02 
2278	 1.24202661083904E-02 
2279	 1.30090269163042E-02 
2280	 1.31400202748481E-02 
2281	 1.10510448181047E-02 
2282	 0.010587079743363 
2283	 1.08483930928265E-02 
2284	 1.00099686795264E-02 
2285	 8.67439885189128E-03 
2286	 6.23876566310171E-03 
2287	 5.66919790510405E-03 
2288	 5.07592000229974E-03 
2289	 6.4367967575185E-03 
2290	 8.25467673450109E-03 
2291	 3.92756363638554E-03 
2292	 2.28390781856778E-03 
2293	 3.88375222193117E-03 
2294	 1.53910607265297E-03 
2295	 1.77785067894657E-03 
2296	 4.71972490557654E-03 
2297	 6.76157684876643E-03 
2298	 7.91291708232064E-03 
2299	 7.30169602929937E-03 
2300	 1.05394255573865E-02 
2301	 9.40683846316484E-03 
2302	 5.32557179141122E-03 
2303	 8.52855676565034E-03 
2304	 5.34611769399122E-03 
2305	 1.99206316651669E-03 
2306	 5.47026034619427E-03 
2307	 6.00790782508925E-03 
2308	 7.44357602036986E-03 
2309	 1.16282348719207E-02 
2310	 1.22670814825919E-02 
2311	 1.20004473540695E-02 
2312	 1.14801508388194E-02 
2313	 5.78137955386669E-03 
2314	 1.68174139105668E-06 
2315	-2.50325418767469E-03 
2316	-2.20099158898844E-03 
2317	 1.93247877585989E-03 
2318	 8.73244769921798E-03 
2319	 1.32963559234993E-02 
2320	 1.88850264925375E-02 
2321	 2.26322604714095E-02 
2322	 0.018016597632208 
2323	 0.017011413487032 
2324	 1.30974389957147E-02 
2325	 4.66818638195196E-03 
2326	 3.99177730808759E-03 
2327	 4.19083389643679E-03 
2328	 6.08964915329215E-03 
2329	 7.42334240396555E-03 
2330	 1.11571009121467E-02 
2331	 1.92536415146547E-02 
2332	 1.99494247646102E-02 
2333	 2.04103816153437E-02 
2334	 2.00411941767266E-02 
2335	 1.57769742240982E-02 
2336	 1.03494452507136E-02 
2337	 3.90486747746543E-03 
2338	 5.06577851834941E-03 
2339	 1.00886982010758E-02 
2340	 1.77554890004424E-02 
2341	 2.37524318831003E-02 
2342	 1.44796203307976E-02 
2343	 4.77395864894156E-03 
2344	 5.98683640361039E-03 
2345	 1.27229210815067E-02 
2346	 2.22861774807597E-02 
2347	 2.04963563860263E-02 
2348	 5.49577704599422E-03 
2349	-1.61292843339456E-02 
2350	-3.30601550152562E-02 
2351	-2.48111045637057E-02 
2352	-6.01850192543404E-03 
2353	-1.21113169671897E-03 
2354	 7.79490825768994E-03 
2355	 3.01824101224111E-02 
2356	 2.60239586245473E-02 
2357	 2.06717480801754E-02 
2358	 4.43296533966889E-02 
2359	 1.97074568363786E-02 
2360	-2.38825924229012E-02 
2361	-1.73252617669497E-02 
2362	-1.43299341032538E-02 
2363	-1.66810472146154E-02 
2364	 1.33854403442455E-03 
2365	 0.003884458261889 
2366	-6.62028916436245E-03 
2367	 1.60427789953158E-03 
2368	 2.16031001671797E-02 
2369	 0.04241984533359 
2370	 6.62862829600693E-02 
2371	 8.49491650233967E-02 
2372	 7.75268043507778E-02 
2373	 5.44646163243076E-02 
2374	 4.21478142712645E-02 
2375	 6.75780667579769E-03 
2376	-4.40179680793546E-02 
2377	-4.64049395838751E-02 
2378	-4.40023670429939E-02 
2379	-6.98065713209022E-02 
2380	-1.88461943580782E-02 
2381	 4.63469802675947E-02 
2382	 1.81872346041067E-02 
2383	 3.95524268567453E-02 
2384	 6.14663122539324E-02 
2385	 1.33788512481633E-02 
2386	 1.95350663519919E-02 
2387	-1.50696476218585E-03 
2388	-5.95960971921058E-03 
2389	 2.93941335169662E-02 
2390	 1.14003022119433E-02 
2391	 4.18373865011792E-02 
2392	 0.072951292967969 
2393	 5.76234191797949E-02 
2394	 6.67713877895034E-02 
2395	 8.22464165043761E-02 
2396	 7.79190658273223E-02 
2397	 8.97972897269069E-02 
2398	 0.111252142947044 
2399	 0.113566509476036 
2400	 0.102848732422859 
2401	 4.23841996114184E-02 
2402	 6.05994621690871E-03 
2403	 1.75011812537139E-02 
2404	 4.52629574979938E-02 
2405	 0.124855933130248 
2406	 0.135320235684756 
2407	 0.079642505680983 
2408	-3.97928224955593E-03 
2409	-6.80124903823332E-02 
2410	-2.86179308306111E-02 
2411	-1.00344877247327E-02 
2412	-2.42021049013435E-02 
2413	 9.13233900105195E-03 
2414	-3.41849883759456E-02 
2415	-8.79050407528008E-02 
2416	 2.86563911448658E-02 
2417	 4.63394745868494E-02 
2418	-0.142315396037201 
2419	-0.334592894435044 
2420	-0.489475470587003 
2421	-0.500214216662641 
2422	-0.298386860003378 
2423	-1.87347536545483E-02 
2424	 0.203484637035153 
2425	 0.217358317337071 
2426	 0.156868240104141 
2427	-8.68982559283832E-03 
2428	-0.135840755696531 
2429	-0.240778225513888 
2430	-0.308565419669475 
2431	-8.45379793824206E-02 
2432	 0.001548703185042 
2433	-9.98769240358713E-02 
2434	-2.75879364116331E-02 
2435	 4.92499573917607E-02 
2436	-8.53452216129234E-02 
2437	-0.201929560573279 
2438	-0.384236457163539 
2439	-0.666752096836023 
2440	-0.797859738219913 
2441	-0.801072023138193 
2442	-0.37147239382957 
2443	 3.05665642635735E-02 
2444	 7.83335054084585E-02 
2445	 8.65306884080666E-02 
2446	 0.79278202097267 
2447	 12.4052329593418 
2448	-3.68728075714653 
2449	-4.02220402843132 
2450	-4.60887221950028 
2451	 6.20871991559241 
2452	 1.33432234048965 
2453	-4.49919400210666 
2454	-0.417891078969524 
2455	-0.207677897697386 
2456	-0.323709715860152 
2457	-0.255909588756886 
2458	-8.50581183601617E-02 
2459	 0.525210888762129 
2460	 1.09324617467582 
2461	 2.93174793168195 
2462	 1.19712413193319 
2463	-0.293634850820005 
2464	-0.494198593327108 
2465	-0.493695969148352 
2466	-0.448795685530482 
2467	 1.77322507119979 
2468	 0.596562926469129 
2469	 1.4133226798398 
2470	 6.54860166081219 
2471	-2.41555736813698 
2472	-1.78198813718191 
2473	-1.84381865971062 
2474	 0.578146311577362 
2475	 0.440444863460517 
2476	 0.477975548748732 
2477	 0.556506059571534 
2478	 0.308491926123057 
2479	 1.56658497318212 
2480	 5.43475006404442 
2481	 2.0705260589869 
2482	 2.34417150106102 
2483	 2.37286839718285 
2484	 1.86176693365052 
2485	-0.418387216105621 
2486	-2.19451664219844 
2487	-0.76889363605967 
2488	-1.55248453692663 
2489	-0.312780978084163 
2490	-0.353632660407711 
2491	-4.1041601702808 
2492	-0.207733752392464 
2493	-0.195490102297979 
2494	 0.087647418225211 
2495	 0.285569457290821 
2496	 0.595490510797142 
2497	 1.44347562438982 
2498	 2.4834466948857 
2499	-16.2818918104931 
2500	-47.6895372752855 
