Wavelength	rt0716a00008.asd
350	 8.52429734630619E-02 
351	 8.52274621313666E-02 
352	 8.44294341311549E-02 
353	 8.40904132038859E-02 
354	 8.46191020426557E-02 
355	 8.47161895431017E-02 
356	 8.49676240263866E-02 
357	 8.51273131430538E-02 
358	 8.49941658837287E-02 
359	 8.55329946072794E-02 
360	 8.60331653704156E-02 
361	 8.63197716880731E-02 
362	 8.66336334210865E-02 
363	 0.087220948468469 
364	 8.71234238786145E-02 
365	 8.63769499461385E-02 
366	 8.66677430161051E-02 
367	 8.67490463247003E-02 
368	 8.67785895836156E-02 
369	 8.69919683167957E-02 
370	 8.65504136377508E-02 
371	 0.0866081571987 
372	 8.71451115304963E-02 
373	 8.74137401725234E-02 
374	 8.70145416929994E-02 
375	 0.086715149196833 
376	 8.70208177221998E-02 
377	 8.78759162927003E-02 
378	 8.75023228157892E-02 
379	 8.70456048872134E-02 
380	 8.75877610360589E-02 
381	 8.77597108840577E-02 
382	 8.78768305727948E-02 
383	 0.088086865507079 
384	 8.83755797859308E-02 
385	 8.80941306379546E-02 
386	 8.79251308349867E-02 
387	 8.81812584310114E-02 
388	 8.86201933521448E-02 
389	 8.85300483446392E-02 
390	 8.82974924088403E-02 
391	 8.83905580470096E-02 
392	 8.90041985852047E-02 
393	 8.89228806470678E-02 
394	 8.86670928182075E-02 
395	 0.089062464238775 
396	 8.88428505944914E-02 
397	 8.87444663516922E-02 
398	 8.89114041628484E-02 
399	 8.89004361917662E-02 
400	 8.85957112419345E-02 
401	 8.84135740257809E-02 
402	 8.85288766289088E-02 
403	 8.84427575695265E-02 
404	 8.82129878567459E-02 
405	 8.81158391586196E-02 
406	 8.83445210796322E-02 
407	 8.81049670529732E-02 
408	 8.79289702494544E-02 
409	 8.79756510114034E-02 
410	 8.79661399600921E-02 
411	 8.78736020975944E-02 
412	 8.78084470787564E-02 
413	 8.78345690481872E-02 
414	 0.087851032552591 
415	 8.78032308473399E-02 
416	 8.77559773244412E-02 
417	 8.78043417840303E-02 
418	 0.08790294109925 
419	 8.78928944941925E-02 
420	 8.78215152669174E-02 
421	 8.79509108798198E-02 
422	 8.81689475677038E-02 
423	 8.83960607071348E-02 
424	 8.85612068930356E-02 
425	 8.85802521879937E-02 
426	 8.87075537160664E-02 
427	 8.90161970220024E-02 
428	 8.94418236191119E-02 
429	 8.97131071489309E-02 
430	 9.00283856285277E-02 
431	 9.04558658058496E-02 
432	 9.08634928223834E-02 
433	 9.11941841495824E-02 
434	 9.14874660294198E-02 
435	 9.17807599705309E-02 
436	 9.20280130230095E-02 
437	 0.09222358896963 
438	 9.24782391795846E-02 
439	 9.29012382691395E-02 
440	 9.30342649319263E-02 
441	 9.31316630740953E-02 
442	 9.33373390128445E-02 
443	 9.35237844795661E-02 
444	 9.35571856369218E-02 
445	 9.35371216054589E-02 
446	 9.36092234702149E-02 
447	 9.38340822127984E-02 
448	 9.39083679084835E-02 
449	 9.38434309715437E-02 
450	 0.093879147819739 
451	 0.093968867407909 
452	 9.39150673940257E-02 
453	 9.37005704071918E-02 
454	 9.37191292116635E-02 
455	 9.36821672584614E-02 
456	 9.36255174811135E-02 
457	 9.36340873629829E-02 
458	 9.34252540060716E-02 
459	 9.32592212338472E-02 
460	 9.32083289359236E-02 
461	 9.31321095639302E-02 
462	 9.30593288404303E-02 
463	 9.29441518532652E-02 
464	 9.27767810104502E-02 
465	 9.26699964561737E-02 
466	 0.09261082611879 
467	 9.25522548667957E-02 
468	 9.24437345073993E-02 
469	 0.09237474560166 
470	 9.22983462127704E-02 
471	 9.21777438853612E-02 
472	 9.20057366775157E-02 
473	 9.19542429970121E-02 
474	 9.19916589812142E-02 
475	 9.20156551536306E-02 
476	 9.18898510308509E-02 
477	 9.17974235792551E-02 
478	 9.17889529191712E-02 
479	 9.18170655400529E-02 
480	 9.18766137915791E-02 
481	 9.19478976754227E-02 
482	 9.20232218213291E-02 
483	 9.21220333102451E-02 
484	 9.21785338780427E-02 
485	 9.22961270273533E-02 
486	 9.25706820119742E-02 
487	 9.27194599401773E-02 
488	 9.28738273391908E-02 
489	 9.30522906601562E-02 
490	 9.31543998009888E-02 
491	 9.33909014855971E-02 
492	 0.093719629671975 
493	 9.40521274495699E-02 
494	 9.43322418670103E-02 
495	 0.094547375298691 
496	 0.094760434893985 
497	 9.50601228775466E-02 
498	 9.53807972836034E-02 
499	 0.09566996319957 
500	 9.59298900344839E-02 
501	 9.62429616157843E-02 
502	 9.65605430982049E-02 
503	 9.68533509451695E-02 
504	 9.71268003019398E-02 
505	 9.75016399488332E-02 
506	 9.78159337983236E-02 
507	 9.81109878427598E-02 
508	 9.85701883590013E-02 
509	 9.89142857955059E-02 
510	 9.92144076117907E-02 
511	 9.95568061092508E-02 
512	 9.99209203477319E-02 
513	 0.100362745575346 
514	 0.10088274931915 
515	 0.101433158931936 
516	 0.101869779501436 
517	 0.102379806061234 
518	 0.102993306580595 
519	 0.103515666523725 
520	 0.104130837528426 
521	 0.104837327903438 
522	 0.105564612878398 
523	 0.106129697377529 
524	 0.106811560899907 
525	 0.107651465701537 
526	 0.108516668261132 
527	 0.109359028388675 
528	 0.110310572150421 
529	 0.111366134633465 
530	 0.112190622707518 
531	 0.113111879470399 
532	 0.114176495916143 
533	 0.115313192080431 
534	 0.116445285513989 
535	 0.117572075769151 
536	 0.118699780918326 
537	 0.119827441470817 
538	 0.121048286740332 
539	 0.122305479230632 
540	 0.123519667090909 
541	 0.124661599275258 
542	 0.125846376387683 
543	 0.127040863085087 
544	 0.128139693316324 
545	 0.129285194395154 
546	 0.130400581252737 
547	 0.131462401331607 
548	 0.132614304054186 
549	 0.133696059504226 
550	 0.134699170219913 
551	 0.135671990737203 
552	 0.136635142822007 
553	 0.137611828277173 
554	 0.13857360528261 
555	 0.139435041087498 
556	 0.140371348189718 
557	 0.141324532653801 
558	 0.142207032205455 
559	 0.14305829978425 
560	 0.143960625205265 
561	 0.144873172668667 
562	 0.145698151937679 
563	 0.146577257789343 
564	 0.147415446531481 
565	 0.14816712714636 
566	 0.148938489528293 
567	 0.149761873313448 
568	 0.150539924285981 
569	 0.151168659138215 
570	 0.151838606657141 
571	 0.152508112673082 
572	 0.153139432480076 
573	 0.153714769585827 
574	 0.154266385835701 
575	 0.154849960963646 
576	 0.155469931973967 
577	 0.155966595639704 
578	 0.156476054043658 
579	 0.156995750484452 
580	 0.15744665738603 
581	 0.157902485192352 
582	 0.158283390849846 
583	 0.158597498812532 
584	 0.159051740045362 
585	 0.159425689297969 
586	 0.159650712798568 
587	 0.159756944061702 
588	 0.159985096892662 
589	 0.160307708498618 
590	 0.160630749563454 
591	 0.160852614217018 
592	 0.161113786254066 
593	 0.161350191124629 
594	 0.161506247563333 
595	 0.161696877933065 
596	 0.161908116570088 
597	 0.162080023728137 
598	 0.162146015662005 
599	 0.162267059605221 
600	 0.162408054182765 
601	 0.162538633492146 
602	 0.162681993799899 
603	 0.162799875384361 
604	 0.162932344738457 
605	 0.163113838008494 
606	 0.163218611830648 
607	 0.163312562209134 
608	 0.163453972648682 
609	 0.163674988390798 
610	 0.16380141547292 
611	 0.163909293545412 
612	 0.164066650552506 
613	 0.164145505906483 
614	 0.16424123181542 
615	 0.164388530682649 
616	 0.164570948308722 
617	 0.164675194111802 
618	 0.164759768717567 
619	 0.16487970757314 
620	 0.165055949212236 
621	 0.165138701115168 
622	 0.165190553885121 
623	 0.165321357133935 
624	 0.165503081172071 
625	 0.165593143934086 
626	 0.165602448017576 
627	 0.165690321470046 
628	 0.16589011478704 
629	 0.166104549153065 
630	 0.166249080703758 
631	 0.166336865172239 
632	 0.166424945745574 
633	 0.166502446607857 
634	 0.166541525058396 
635	 0.166654375493733 
636	 0.166810063807986 
637	 0.166955862115411 
638	 0.16703155475255 
639	 0.167085107156258 
640	 0.167118616948059 
641	 0.167141116624095 
642	 0.167251325323393 
643	 0.1672640481793 
644	 0.167201620125822 
645	 0.167244992361732 
646	 0.167165332518703 
647	 0.167085162700301 
648	 0.167118074060127 
649	 0.167221026584014 
650	 0.16718289337364 
651	 0.167103141150205 
652	 0.167157368732891 
653	 0.167117648838912 
654	 0.167029771199394 
655	 0.166908946517662 
656	 0.166728392203172 
657	 0.166677616650953 
658	 0.166664517152548 
659	 0.166567441988838 
660	 0.166332248334057 
661	 0.16620118269676 
662	 0.166118305718801 
663	 0.165872907779727 
664	 0.165725269562567 
665	 0.165606878275986 
666	 0.165473924664481 
667	 0.165408698788993 
668	 0.16531779019731 
669	 0.165248779590969 
670	 0.165278074677556 
671	 0.165389954772578 
672	 0.16540686461863 
673	 0.165373645409103 
674	 0.165533117911258 
675	 0.165705296941839 
676	 0.165818088196108 
677	 0.165895939548947 
678	 0.166151556966182 
679	 0.166447215359144 
680	 0.166699432137887 
681	 0.166894810871559 
682	 0.167315297994613 
683	 0.167837296816555 
684	 0.168316312206785 
685	 0.168663772854095 
686	 0.169109935984958 
687	 0.169687559285745 
688	 0.170278461949103 
689	 0.170718800184987 
690	 0.171111944062646 
691	 0.171541313631409 
692	 0.172063156107089 
693	 0.172478680962812 
694	 0.172878639901245 
695	 0.173282947998741 
696	 0.173570968685581 
697	 0.173897773538738 
698	 0.174073963676 
699	 0.173944501319017 
700	 0.174206144512014 
701	 0.174478680832722 
702	 0.174592712496723 
703	 0.174615688965972 
704	 0.174675587265379 
705	 0.174693060800101 
706	 0.174634078838082 
707	 0.174645610585843 
708	 0.174586342295807 
709	 0.174462048517254 
710	 0.17431532972795 
711	 0.174073592680327 
712	 0.173777217723316 
713	 0.173417372261928 
714	 0.172918702681891 
715	 0.172425417522375 
716	 0.171942740896702 
717	 0.171451273368511 
718	 0.170737403065609 
719	 0.170116695657987 
720	 0.169617234054331 
721	 0.169043364635369 
722	 0.16856174683115 
723	 0.167830911077719 
724	 0.166888771146153 
725	 0.166165199062005 
726	 0.165490138235882 
727	 0.164513619779832 
728	 0.163135788859008 
729	 0.162076663360417 
730	 0.160696288903723 
731	 0.159247268964138 
732	 0.158170983049919 
733	 0.15712701622568 
734	 0.156132253432076 
735	 0.155258448961606 
736	 0.154603045203066 
737	 0.154103580956491 
738	 0.153738553191126 
739	 0.15349327308074 
740	 0.153323345930971 
741	 0.153193766904816 
742	 0.15313483708301 
743	 0.153192580940621 
744	 0.153262578055715 
745	 0.153326018994289 
746	 0.153365217221886 
747	 0.153352149788919 
748	 0.153399278234545 
749	 0.15348297894846 
750	 0.153561176788874 
751	 0.153669990458012 
752	 0.153718717694842 
753	 0.153744485370517 
754	 0.153846473520947 
755	 0.153999113168171 
756	 0.1541091017768 
757	 0.154096212079446 
758	 0.153825431230153 
759	 0.153503532000287 
760	 0.153526286964596 
761	 0.15400611192477 
762	 0.154251190857907 
763	 0.154289364771077 
764	 0.154452508468462 
765	 0.154926725124615 
766	 0.155041368720451 
767	 0.155243849062039 
768	 0.155578680190414 
769	 0.155706597998224 
770	 0.155842037600058 
771	 0.156036113742395 
772	 0.156278930096574 
773	 0.156485360427067 
774	 0.156706622967775 
775	 0.156959576008971 
776	 0.157241293200002 
777	 0.15750527871765 
778	 0.157830934201481 
779	 0.158144865651912 
780	 0.158248631454776 
781	 0.158672254967858 
782	 0.15908273659293 
783	 0.159255640113951 
784	 0.159569093561707 
785	 0.159958517658428 
786	 0.16038017836722 
787	 0.160769720060186 
788	 0.160998485426935 
789	 0.161299019841488 
790	 0.161636352101818 
791	 0.161798514509384 
792	 0.162257507929156 
793	 0.162678223290633 
794	 0.162881336122902 
795	 0.163097643072766 
796	 0.163470226822092 
797	 0.163847080841509 
798	 0.164079241879216 
799	 0.164291021493967 
800	 0.164530975061836 
801	 0.164818651486064 
802	 0.165122117919024 
803	 0.165207951530577 
804	 0.16531947832735 
805	 0.165468223381845 
806	 0.16538864704692 
807	 0.165455686587847 
808	 0.165530224148607 
809	 0.165465071531034 
810	 0.16536572739985 
811	 0.165233831308742 
812	 0.165108578754677 
813	 0.164988396839271 
814	 0.164549155963972 
815	 0.164178800849291 
816	 0.163933711136452 
817	 0.163553037456232 
818	 0.163131377524666 
819	 0.162638255889753 
820	 0.162067559450946 
821	 0.16148893000104 
822	 0.160493074092841 
823	 0.159482322721372 
824	 0.158675035689268 
825	 0.157234208856852 
826	 0.155935598384126 
827	 0.154514337515588 
828	 0.152615305936333 
829	 0.151187322713252 
830	 0.149630610724712 
831	 0.148056645087176 
832	 0.147092612178658 
833	 0.146075589013296 
834	 0.145178548898283 
835	 0.144531495087342 
836	 0.144090728851171 
837	 0.143607962032335 
838	 0.143203195511992 
839	 0.142909213968737 
840	 0.142289285536914 
841	 0.14190255701868 
842	 0.141616012663153 
843	 0.141153052079384 
844	 0.140848078598345 
845	 0.140602492792102 
846	 0.140316731018594 
847	 0.139918923146612 
848	 0.139497117346378 
849	 0.139134544200208 
850	 0.13890205215866 
851	 0.138824776083605 
852	 0.138309783636576 
853	 0.137866214364598 
854	 0.137799640142654 
855	 0.137467996090373 
856	 0.13708148574264 
857	 0.136783069169524 
858	 0.136600057657096 
859	 0.136215799546929 
860	 0.135836203100732 
861	 0.1356415892113 
862	 0.135654424662743 
863	 0.135127046099088 
864	 0.134722265217221 
865	 0.134555696034769 
866	 0.134182363168265 
867	 0.133765151359704 
868	 0.133644992946835 
869	 0.133582386917775 
870	 0.132639262121108 
871	 0.132270193243047 
872	 0.132126221640131 
873	 0.131708591897869 
874	 0.131095035041139 
875	 0.130539401174854 
876	 0.130301730487721 
877	 0.130282687207784 
878	 0.129176903910884 
879	 0.128508048269523 
880	 0.128261078818083 
881	 0.127744094278202 
882	 0.127211044646177 
883	 0.126702558754814 
884	 0.126234041087695 
885	 0.125797672190446 
886	 0.125333513718052 
887	 0.124890152750319 
888	 0.124495791686211 
889	 0.124126609800584 
890	 0.123486167954395 
891	 0.122992607402527 
892	 0.122760996974852 
893	 0.122077967607612 
894	 0.12183089633235 
895	 0.121651996128056 
896	 0.120998950655354 
897	 0.120107288749444 
898	 0.119483049559353 
899	 0.119416067478821 
900	 0.119585522159668 
901	 0.118320711509995 
902	 0.117581038471051 
903	 0.117320655601919 
904	 0.116867297121607 
905	 0.116751475482344 
906	 0.115991895823606 
907	 0.114884517408065 
908	 0.114531272174004 
909	 0.113710469870469 
910	 0.113373309254224 
911	 0.113182830616931 
912	 0.11175267767987 
913	 0.110743242674318 
914	 0.109840451710789 
915	 0.108530831965991 
916	 0.106578744985708 
917	 0.105981589351208 
918	 0.10528185682404 
919	 0.103921076956845 
920	 0.103077168246259 
921	 0.101262954436023 
922	 9.98835248676621E-02 
923	 9.95140034874439E-02 
924	 9.78462227653304E-02 
925	 9.57886662823841E-02 
926	 9.43312859068543E-02 
927	 9.38696535832046E-02 
928	 9.19812759911114E-02 
929	 9.03487451921536E-02 
930	 0.088774467517748 
931	 0.086439341823587 
932	 8.65555347462459E-02 
933	 8.43295345771294E-02 
934	 8.02393226438351E-02 
935	 7.75841035179533E-02 
936	 0.073370865328586 
937	 7.15115621583594E-02 
938	 7.07525605724836E-02 
939	 6.92534054320035E-02 
940	 6.89025699064824E-02 
941	 6.95886708341944E-02 
942	 6.95057998156789E-02 
943	 6.65645903630761E-02 
944	 6.25785925960428E-02 
945	 0.0632279279247 
946	 0.064809553968969 
947	 0.060253379508707 
948	 0.057015235208261 
949	 5.54746131805857E-02 
950	 5.41785910072857E-02 
951	 5.17126865424523E-02 
952	 5.25514964402796E-02 
953	 5.27552958827882E-02 
954	 5.16258949495742E-02 
955	 5.05930374528346E-02 
956	 4.61421346732189E-02 
957	 4.58909478350581E-02 
958	 4.85689673948195E-02 
959	 4.76612912289359E-02 
960	 0.047592019682046 
961	 0.048372261380333 
962	 4.80931790613855E-02 
963	 4.51464713934286E-02 
964	 4.59726866231661E-02 
965	 4.57554642224905E-02 
966	 4.48540132766942E-02 
967	 4.68181208367996E-02 
968	 0.045959000685811 
969	 4.46176614873915E-02 
970	 0.044294196391584 
971	 4.48194892969526E-02 
972	 4.39173838274693E-02 
973	 4.33692910499717E-02 
974	 4.43354628119786E-02 
975	 4.62943840449093E-02 
976	 4.49512434258222E-02 
977	 4.39450795330505E-02 
978	 4.46057607247928E-02 
979	 4.51784694406755E-02 
980	 4.36175152791485E-02 
981	 4.37962050280001E-02 
982	 4.51853087833831E-02 
983	 4.40903113310526E-02 
984	 4.39870796420677E-02 
985	 4.48613894571197E-02 
986	 4.56653239895347E-02 
987	 4.52610596405389E-02 
988	 4.58334607808035E-02 
989	 4.56752693551963E-02 
990	 4.50759584070636E-02 
991	 4.55820135003633E-02 
992	 0.044620796440927 
993	 0.046053886201409 
994	 4.82985805782054E-02 
995	 4.69720616272438E-02 
996	 4.68763561217255E-02 
997	 4.72362074756891E-02 
998	 4.74755953114434E-02 
999	 0.047613622802351 
1000	 4.90892114850897E-02 
1001	 4.63211097009108E-02 
1002	 4.66100340410245E-02 
1003	 4.69487638531604E-02 
1004	 4.76389385191676E-02 
1005	 4.81719227933498E-02 
1006	 4.86863341938196E-02 
1007	 4.91393712249569E-02 
1008	 4.96687280630114E-02 
1009	 5.01119946834843E-02 
1010	 5.02650473168796E-02 
1011	 5.04090361897399E-02 
1012	 5.04597180108191E-02 
1013	 5.07847056955287E-02 
1014	 5.11921449256733E-02 
1015	 5.19187350280772E-02 
1016	 5.23117076133044E-02 
1017	 5.25358189054068E-02 
1018	 5.29944888768847E-02 
1019	 5.34454347019778E-02 
1020	 5.39840409291427E-02 
1021	 5.47497347542783E-02 
1022	 5.54181844093525E-02 
1023	 5.61558188115774E-02 
1024	 5.67553118980555E-02 
1025	 5.71426820112537E-02 
1026	 5.77339291075631E-02 
1027	 5.83050107376594E-02 
1028	 5.86822633110624E-02 
1029	 5.93003991716223E-02 
1030	 6.01923418012219E-02 
1031	 6.08728794124804E-02 
1032	 6.15887893973895E-02 
1033	 6.21597237509258E-02 
1034	 6.25852760662802E-02 
1035	 0.063057830619603 
1036	 6.32391515558873E-02 
1037	 6.38183420104287E-02 
1038	 6.45214606590112E-02 
1039	 6.54860671375914E-02 
1040	 0.06675937279989 
1041	 6.77631660425623E-02 
1042	 6.85353195343452E-02 
1043	 6.92325457257034E-02 
1044	 0.069664441010783 
1045	 6.94505871141105E-02 
1046	 7.00920797015267E-02 
1047	 7.11707692987002E-02 
1048	 7.17635384419006E-02 
1049	 0.072580649983599 
1050	 7.32325214932355E-02 
1051	 7.32498667351083E-02 
1052	 7.37199138897861E-02 
1053	 7.46815734879832E-02 
1054	 7.53844592333136E-02 
1055	 7.61441176664449E-02 
1056	 7.66991873312787E-02 
1057	 7.71265465539758E-02 
1058	 7.73250340306646E-02 
1059	 7.77726295617125E-02 
1060	 7.82535714888975E-02 
1061	 7.85589764021232E-02 
1062	 7.89844049526231E-02 
1063	 7.91882329381886E-02 
1064	 7.89984737148965E-02 
1065	 7.90811127539446E-02 
1066	 7.92517091076368E-02 
1067	 7.94116636182106E-02 
1068	 7.98240635482807E-02 
1069	 7.98821620115155E-02 
1070	 7.95331181141955E-02 
1071	 7.95083089632762E-02 
1072	 7.95746167918296E-02 
1073	 7.94708894388582E-02 
1074	 0.07941422634999 
1075	 7.96972061858016E-02 
1076	 7.95791776021595E-02 
1077	 7.90559666447594E-02 
1078	 7.87549762758448E-02 
1079	 0.078549526587554 
1080	 7.81803261722625E-02 
1081	 7.77868588357093E-02 
1082	 7.73459513913551E-02 
1083	 7.65623300529069E-02 
1084	 7.61200983974659E-02 
1085	 7.59498129492828E-02 
1086	 7.55447293348522E-02 
1087	 0.075444880932322 
1088	 7.50126615413517E-02 
1089	 7.41601940271613E-02 
1090	 7.31279082082583E-02 
1091	 7.25567259032182E-02 
1092	 7.20032037435666E-02 
1093	 0.071514220645044 
1094	 7.15450004944697E-02 
1095	 7.10896583655524E-02 
1096	 7.02402406698789E-02 
1097	 6.96187700275015E-02 
1098	 6.90024460340995E-02 
1099	 6.82612145190204E-02 
1100	 6.73086557323063E-02 
1101	 6.67803573679704E-02 
1102	 6.64510747972373E-02 
1103	 6.59737981790006E-02 
1104	 6.58422779583234E-02 
1105	 6.56852233146351E-02 
1106	 6.46648106372843E-02 
1107	 6.35051603745664E-02 
1108	 6.26965156904153E-02 
1109	 6.20887141629146E-02 
1110	 6.20334494255966E-02 
1111	 6.33705339650134E-02 
1112	 6.33518031108798E-02 
1113	 6.30618923196024E-02 
1114	 0.062795612486307 
1115	 6.12558109285623E-02 
1116	 6.00760988139451E-02 
1117	 5.90564168894091E-02 
1118	 5.84687456175087E-02 
1119	 5.82636614610496E-02 
1120	 5.75251061990497E-02 
1121	 5.83438404954907E-02 
1122	 5.89847947921527E-02 
1123	 5.30886284925479E-02 
1124	 5.10525389205825E-02 
1125	 5.43999496692161E-02 
1126	 0.049142829827561 
1127	 4.59245400262225E-02 
1128	 0.048589953165394 
1129	 4.71045554554775E-02 
1130	 4.14996178689582E-02 
1131	 4.16868598501893E-02 
1132	 4.52504484775457E-02 
1133	 0.044729541986715 
1134	 4.58463447088323E-02 
1135	 4.43493849593643E-02 
1136	 3.68751003364276E-02 
1137	 3.64949555287582E-02 
1138	 3.95895441324016E-02 
1139	 4.01589899513229E-02 
1140	 4.10717874648522E-02 
1141	 0.040757310723388 
1142	 3.40956270240521E-02 
1143	 3.12702851869388E-02 
1144	 0.034163097321705 
1145	 3.58414089832115E-02 
1146	 3.67388940848382E-02 
1147	 3.56963937282859E-02 
1148	 3.23554365079923E-02 
1149	 0.030254324466422 
1150	 2.96951783205589E-02 
1151	 3.18309021435421E-02 
1152	 3.16436807824538E-02 
1153	 3.04476069451726E-02 
1154	 3.04261681896986E-02 
1155	 3.04953076554087E-02 
1156	 3.07035158103895E-02 
1157	 0.030452660644444 
1158	 0.030080461555152 
1159	 2.97826966258162E-02 
1160	 2.93110589700582E-02 
1161	 2.96121848692839E-02 
1162	 3.05896781559816E-02 
1163	 3.06240360626405E-02 
1164	 3.00377534021555E-02 
1165	 2.97491991252243E-02 
1166	 2.95345490701259E-02 
1167	 2.93416329040596E-02 
1168	 2.92936290468406E-02 
1169	 2.93136348301683E-02 
1170	 2.93434566078622E-02 
1171	 2.93886213867829E-02 
1172	 2.97081185615967E-02 
1173	 2.96780853975553E-02 
1174	 2.94362782405725E-02 
1175	 2.92903337192117E-02 
1176	 2.93218102281908E-02 
1177	 2.94931711063919E-02 
1178	 2.97192911128789E-02 
1179	 2.95696627767461E-02 
1180	 2.92001504746035E-02 
1181	 2.91882591961617E-02 
1182	 2.93833025522747E-02 
1183	 2.94013646022196E-02 
1184	 2.94256278243693E-02 
1185	 2.94477802634893E-02 
1186	 2.93749286840895E-02 
1187	 2.92739523573838E-02 
1188	 2.93102332471466E-02 
1189	 2.93365003153327E-02 
1190	 2.92135347711885E-02 
1191	 2.92695352403978E-02 
1192	 2.93049739266018E-02 
1193	 2.94212266787991E-02 
1194	 2.92192345495977E-02 
1195	 2.91712981115251E-02 
1196	 2.94385417789727E-02 
1197	 2.93701603773868E-02 
1198	 2.91794748276668E-02 
1199	 2.92206339779965E-02 
1200	 2.91124468369223E-02 
1201	 2.90632855939696E-02 
1202	 2.93005568878821E-02 
1203	 2.95276319807198E-02 
1204	 2.94619301736333E-02 
1205	 0.029330524671227 
1206	 0.029394621224151 
1207	 2.93095231377983E-02 
1208	 2.91198338292851E-02 
1209	 2.93010957385117E-02 
1210	 2.96054590822409E-02 
1211	 2.94820067434073E-02 
1212	 2.92574757929462E-02 
1213	 2.94076392435045E-02 
1214	 2.94583039546677E-02 
1215	 2.94028824015925E-02 
1216	 2.93574340860387E-02 
1217	 2.94876433482559E-02 
1218	 2.94648051841667E-02 
1219	 2.95303911241749E-02 
1220	 2.96923710160809E-02 
1221	 2.96845211251967E-02 
1222	 2.97483848555212E-02 
1223	 2.96500132578181E-02 
1224	 2.93127584760689E-02 
1225	 0.029279495054858 
1226	 2.95040770624507E-02 
1227	 2.96753015631515E-02 
1228	 2.97383014254883E-02 
1229	 2.99551617074374E-02 
1230	 3.01443103581029E-02 
1231	 2.99447462413579E-02 
1232	 2.97589158219461E-02 
1233	 2.97658684087038E-02 
1234	 2.99134466904802E-02 
1235	 3.00038766909116E-02 
1236	 3.02030344877648E-02 
1237	 3.02543759436291E-02 
1238	 0.0303191806239 
1239	 0.030156693938209 
1240	 2.99710391194096E-02 
1241	 3.00796646152313E-02 
1242	 3.01469801179472E-02 
1243	 3.00162468468807E-02 
1244	 2.99759455970551E-02 
1245	 3.00353574892666E-02 
1246	 3.00006706719992E-02 
1247	 3.00184813739488E-02 
1248	 3.01609268948896E-02 
1249	 0.030252335315766 
1250	 0.030285002317614 
1251	 3.01727311350998E-02 
1252	 3.00473873316155E-02 
1253	 0.030138199629138 
1254	 3.02782608695424E-02 
1255	 3.03185278899574E-02 
1256	 3.03594228319423E-02 
1257	 3.02307626414435E-02 
1258	 3.02053547692418E-02 
1259	 3.03181350182422E-02 
1260	 3.03230793688579E-02 
1261	 3.01717120190931E-02 
1262	 3.01486329468101E-02 
1263	 3.00584357224295E-02 
1264	 3.02319703273917E-02 
1265	 3.04891981986109E-02 
1266	 3.04667715159256E-02 
1267	 3.01761533836484E-02 
1268	 3.00978777746419E-02 
1269	 3.02729709798678E-02 
1270	 3.04322014585749E-02 
1271	 3.05360846488086E-02 
1272	 3.03860685319535E-02 
1273	 0.030138481525444 
1274	 3.01476081186302E-02 
1275	 3.01822328443844E-02 
1276	 3.02412555331514E-02 
1277	 3.04877163671242E-02 
1278	 3.03259856776469E-02 
1279	 2.98389729746178E-02 
1280	 0.029992584734647 
1281	 3.00323614636234E-02 
1282	 0.029881693390441 
1283	 2.97762998618779E-02 
1284	 2.99688874383604E-02 
1285	 2.99189158526208E-02 
1286	 0.029574963536763 
1287	 2.95338152073292E-02 
1288	 2.97067481179149E-02 
1289	 0.029643020561996 
1290	 2.94768563641824E-02 
1291	 2.94703905997771E-02 
1292	 2.92174323602916E-02 
1293	 2.89227380941674E-02 
1294	 2.87840870202804E-02 
1295	 2.85783559233726E-02 
1296	 2.86146716110069E-02 
1297	 2.89339498284211E-02 
1298	 2.87054947213697E-02 
1299	 2.81586238358472E-02 
1300	 2.84095876973005E-02 
1301	 2.87290555233127E-02 
1302	 2.83812262397879E-02 
1303	 2.84986246335575E-02 
1304	 0.028586485445608 
1305	 2.77268620455029E-02 
1306	 2.73965707456036E-02 
1307	 0.027909615354503 
1308	 2.79192908824734E-02 
1309	 2.74300383335969E-02 
1310	 2.72483415531067E-02 
1311	 2.73020756457667E-02 
1312	 2.71664010839212E-02 
1313	 2.68890097196536E-02 
1314	 2.66888693179718E-02 
1315	 2.66145324750635E-02 
1316	 2.63872621961955E-02 
1317	 2.58343650039291E-02 
1318	 2.56959026354133E-02 
1319	 2.59075104724479E-02 
1320	 2.57703512479552E-02 
1321	 2.58673193616617E-02 
1322	 2.55757052493695E-02 
1323	 2.46031701833865E-02 
1324	 2.43143815682773E-02 
1325	 2.47606592623963E-02 
1326	 2.53403929136573E-02 
1327	 2.55866923991198E-02 
1328	 2.50823754821263E-02 
1329	 2.43725895873093E-02 
1330	 2.37069305461377E-02 
1331	 2.34155967990607E-02 
1332	 0.023551390394397 
1333	 2.37084477037034E-02 
1334	 2.35878606315354E-02 
1335	 2.32250071023963E-02 
1336	 0.022988041458624 
1337	 2.28021618619718E-02 
1338	 2.17016672369535E-02 
1339	 2.18622647295332E-02 
1340	 2.40054425291829E-02 
1341	 2.41588309245004E-02 
1342	 2.25502841023639E-02 
1343	 2.29897473167566E-02 
1344	 2.47939251188607E-02 
1345	 2.42339745819781E-02 
1346	 2.28611560575544E-02 
1347	 2.43958555231054E-02 
1348	 2.58986811905048E-02 
1349	 2.39821326492052E-02 
1350	 2.59245272815889E-02 
1351	 2.86298389764657E-02 
1352	 8.6342021709039E-03 
1353	-3.85926991724566E-03 
1354	 0.0116782076526 
1355	 6.81952684353807E-02 
1356	 6.50071479794387E-02 
1357	 1.24177754936832E-02 
1358	 2.22816834221725E-02 
1359	 0.021557010883973 
1360	 3.75292941088693E-04 
1361	 1.36483700933527E-02 
1362	 6.43991386550209E-02 
1363	 5.44698584328566E-02 
1364	 1.68343632043295E-02 
1365	 0.268179668652169 
1366	 0.411936923748682 
1367	-9.45095582347535E-03 
1368	-2.88264192004241E-02 
1369	 0.121569201536786 
1370	 0.117380999114419 
1371	 0.116731487813613 
1372	 0.108247005662463 
1373	 2.43179242219265E-02 
1374	-4.44452962806501E-02 
1375	-9.51141986672519E-02 
1376	-9.54627342107832E-02 
1377	-9.09586698073248E-02 
1378	-0.111391258068661 
1379	-0.113850794524842 
1380	 2.42044395888576E-02 
1381	 0.541512925932402 
1382	 0.468990869579597 
1383	 2.47541409257266E-02 
1384	 7.50104741777981E-02 
1385	 0.142849844025716 
1386	 1.9020910545582E-03 
1387	-0.050084750806903 
1388	 6.85399696757878E-02 
1389	 0.129867255767076 
1390	 4.23956005842935E-02 
1391	 0.146319014769074 
1392	 0.286048605240002 
1393	-9.83799836610043E-02 
1394	-0.375158226616572 
1395	-0.451237288774238 
1396	-0.449134895617143 
1397	-1.30141982479381E-02 
1398	-0.118462487744308 
1399	-0.271237463829207 
1400	 4.50474274304775E-02 
1401	 7.95036297144244E-02 
1402	-4.49567794078686E-02 
1403	 8.31101738120302E-02 
1404	 0.326334015365617 
1405	 0.374645056998676 
1406	 0.520278938371539 
1407	 0.393593695430354 
1408	-1.75534380811358E-02 
1409	-0.100039533121312 
1410	-0.156486925875948 
1411	-0.129061027622584 
1412	 3.30712679589252E-02 
1413	 5.75724706584972E-02 
1414	 4.00072405102011E-02 
1415	 0.03935244461978 
1416	 4.79852091778404E-03 
1417	 2.23489483125277E-02 
1418	 0.115125638990731 
1419	 8.27430445846433E-02 
1420	-1.26594301331325E-02 
1421	-8.87076643826461E-03 
1422	-3.71340322632564E-03 
1423	-1.21026021804815E-02 
1424	 0.005318893309335 
1425	 2.81915211980868E-02 
1426	 4.85640657856854E-02 
1427	 0.042763158797357 
1428	 3.28616566185671E-02 
1429	 3.63023129428722E-02 
1430	 2.45568823263509E-02 
1431	 1.70230983950128E-02 
1432	 4.22974370908795E-02 
1433	 3.96799911131118E-02 
1434	-1.16245969598807E-02 
1435	-1.68546231898831E-02 
1436	 1.01581151639509E-02 
1437	 1.17783844469959E-02 
1438	 9.96903086665928E-03 
1439	 1.94737974009464E-02 
1440	 2.42996256562978E-03 
1441	-1.28355281524138E-02 
1442	 1.46589743897582E-03 
1443	 7.43381047636445E-03 
1444	 4.37235616478748E-03 
1445	 1.35843864031719E-02 
1446	 1.81022410187941E-02 
1447	 7.23481692671486E-03 
1448	-2.53169392512725E-03 
1449	 1.27454339466402E-03 
1450	 4.97422421758031E-03 
1451	 3.33778561177494E-03 
1452	 4.95020538835558E-03 
1453	 7.28090172872034E-03 
1454	 7.24627362692645E-03 
1455	 5.12222798780478E-03 
1456	 4.88184878650833E-03 
1457	 5.11478839917727E-03 
1458	 5.26119898435984E-03 
1459	 5.33958304785988E-03 
1460	 6.05308916883567E-03 
1461	 7.68243759595982E-03 
1462	 8.28407795399102E-03 
1463	 8.82987024087931E-03 
1464	 8.8699046832515E-03 
1465	 7.7729823063568E-03 
1466	 7.57278279080354E-03 
1467	 7.07008293861284E-03 
1468	 8.0278693043909E-03 
1469	 0.011854005255678 
1470	 1.16910446944946E-02 
1471	 9.39705657691522E-03 
1472	 8.81483933371054E-03 
1473	 6.68597651179882E-03 
1474	 6.41433661330786E-03 
1475	 8.50370123660311E-03 
1476	 8.69575705277881E-03 
1477	 8.41764037656786E-03 
1478	 8.10830716218224E-03 
1479	 6.79345714311749E-03 
1480	 6.58172060656403E-03 
1481	 6.80714400980529E-03 
1482	 7.07194009370008E-03 
1483	 7.94851669133741E-03 
1484	 8.40571221468086E-03 
1485	 9.13861982947919E-03 
1486	 8.78639297024554E-03 
1487	 7.59961373037065E-03 
1488	 7.23114240345281E-03 
1489	 6.45298803107945E-03 
1490	 6.37708105324359E-03 
1491	 7.23971571512173E-03 
1492	 7.59015266720699E-03 
1493	 7.80871332799472E-03 
1494	 7.82731042384181E-03 
1495	 7.41767264541134E-03 
1496	 7.51809231011368E-03 
1497	 8.2321214801877E-03 
1498	 8.19575967703794E-03 
1499	 7.46407735343409E-03 
1500	 0.007680510650455 
1501	 8.26095509835718E-03 
1502	 8.35011372457264E-03 
1503	 8.99274699442915E-03 
1504	 9.27959068815462E-03 
1505	 8.95371466738019E-03 
1506	 8.39895783490328E-03 
1507	 8.32297998659348E-03 
1508	 0.008808513723449 
1509	 9.10788038783083E-03 
1510	 9.03185491352915E-03 
1511	 9.31525314826022E-03 
1512	 9.37786013420161E-03 
1513	 9.30408774016139E-03 
1514	 9.47482524884731E-03 
1515	 9.45410957906438E-03 
1516	 9.39424039899772E-03 
1517	 9.31544918321485E-03 
1518	 9.46472202334663E-03 
1519	 9.89562509855117E-03 
1520	 9.92689284440623E-03 
1521	 9.83779381267064E-03 
1522	 1.01143369938729E-02 
1523	 1.02036688074662E-02 
1524	 0.010083781269498 
1525	 1.02926101529303E-02 
1526	 0.010331661242463 
1527	 1.00747006999752E-02 
1528	 1.01523689353063E-02 
1529	 1.04338758585851E-02 
1530	 1.04310049408009E-02 
1531	 1.02842011758231E-02 
1532	 0.010529216928586 
1533	 1.09147557410064E-02 
1534	 1.09965904721135E-02 
1535	 1.09650608600535E-02 
1536	 1.09489228001459E-02 
1537	 1.09737664110084E-02 
1538	 1.09296122227414E-02 
1539	 1.09004358970037E-02 
1540	 1.12580470520567E-02 
1541	 1.15346241091115E-02 
1542	 1.15049365105442E-02 
1543	 1.17210220026558E-02 
1544	 1.18784388515946E-02 
1545	 1.16322034356307E-02 
1546	 1.15466954179622E-02 
1547	 1.17707357106445E-02 
1548	 1.18699487564147E-02 
1549	 1.18658383806491E-02 
1550	 1.19367909160502E-02 
1551	 1.19538258177672E-02 
1552	 1.19225687726029E-02 
1553	 1.19981320854131E-02 
1554	 1.21621377910075E-02 
1555	 1.22970753763553E-02 
1556	 1.23580697059294E-02 
1557	 1.22977403802785E-02 
1558	 1.21514864632881E-02 
1559	 1.22336066575725E-02 
1560	 1.24723896140178E-02 
1561	 1.25671403940889E-02 
1562	 1.26857850457276E-02 
1563	 1.28282377530432E-02 
1564	 1.28827884199188E-02 
1565	 1.30534534719139E-02 
1566	 1.32065689399954E-02 
1567	 0.013042043904552 
1568	 1.28148773005778E-02 
1569	 1.28818667963541E-02 
1570	 1.31885975880461E-02 
1571	 1.33417523605073E-02 
1572	 1.33662994188052E-02 
1573	 1.36112471219507E-02 
1574	 1.36423566116446E-02 
1575	 1.33826683609168E-02 
1576	 1.35486821964876E-02 
1577	 1.38119037504682E-02 
1578	 1.37310422953845E-02 
1579	 1.37359517853514E-02 
1580	 1.39149117054799E-02 
1581	 1.40180153185098E-02 
1582	 1.39319596358386E-02 
1583	 1.38900230545563E-02 
1584	 1.39024169342313E-02 
1585	 1.38574101020705E-02 
1586	 1.41011547361057E-02 
1587	 1.45379199673663E-02 
1588	 1.45991157217396E-02 
1589	 1.43833694068078E-02 
1590	 1.44788606036069E-02 
1591	 1.46447938267163E-02 
1592	 1.46019835019282E-02 
1593	 1.44942880830046E-02 
1594	 1.42397132997891E-02 
1595	 1.41333620069254E-02 
1596	 1.45598517172249E-02 
1597	 1.51590246267249E-02 
1598	 1.52458141002363E-02 
1599	 1.50154161542209E-02 
1600	 1.49659979794677E-02 
1601	 0.015049431596607 
1602	 1.50069208751932E-02 
1603	 0.014964725240989 
1604	 0.015137686034823 
1605	 1.51171539958763E-02 
1606	 1.50212826377769E-02 
1607	 1.51160479675892E-02 
1608	 1.50864894798483E-02 
1609	 1.49464589205529E-02 
1610	 0.015169992797219 
1611	 1.56120871620036E-02 
1612	 1.54244784982204E-02 
1613	 1.50442781871963E-02 
1614	 1.52167980532234E-02 
1615	 1.52910167119299E-02 
1616	 0.015089507341564 
1617	 1.53402706055772E-02 
1618	 1.55583244996945E-02 
1619	 1.52600493501008E-02 
1620	 1.54256795458294E-02 
1621	 1.58973677198363E-02 
1622	 1.56546996266975E-02 
1623	 1.52111851535345E-02 
1624	 0.015400436812082 
1625	 1.57798597339512E-02 
1626	 1.58230240099291E-02 
1627	 1.58526177303534E-02 
1628	 1.59606796033311E-02 
1629	 1.59325817243357E-02 
1630	 1.59482713124479E-02 
1631	 1.60494318128154E-02 
1632	 1.61678867935332E-02 
1633	 1.60865859253628E-02 
1634	 1.57400360412547E-02 
1635	 1.58969253411617E-02 
1636	 1.61844629478173E-02 
1637	 1.58670943355432E-02 
1638	 1.57851427946726E-02 
1639	 1.59132551766517E-02 
1640	 1.57473046060049E-02 
1641	 1.57809161678734E-02 
1642	 1.58534733474191E-02 
1643	 1.57426297140759E-02 
1644	 1.58642050958929E-02 
1645	 1.62315039481351E-02 
1646	 1.63270252546137E-02 
1647	 1.61046506914922E-02 
1648	 1.60965925313777E-02 
1649	 1.61091570627688E-02 
1650	 1.61332450528043E-02 
1651	 0.016215461456891 
1652	 1.60926521714965E-02 
1653	 1.59366434696826E-02 
1654	 1.58790075088338E-02 
1655	 1.63675962262916E-02 
1656	 1.65370530910002E-02 
1657	 1.61943389329789E-02 
1658	 1.61183260035721E-02 
1659	 1.63656179392183E-02 
1660	 1.65196892446414E-02 
1661	 1.64492535303045E-02 
1662	 0.016514597805382 
1663	 1.68591375203387E-02 
1664	 0.016744114415415 
1665	 0.016261627007372 
1666	 1.63893664280154E-02 
1667	 1.67272347716765E-02 
1668	 1.62921568942115E-02 
1669	 1.63865181535241E-02 
1670	 0.016562926623818 
1671	 0.016217999300748 
1672	 1.63726984953044E-02 
1673	 1.66647004596916E-02 
1674	 1.63969298955659E-02 
1675	 0.016559069293908 
1676	 1.71315026081415E-02 
1677	 1.71425481317398E-02 
1678	 1.68512521279212E-02 
1679	 1.67367430102789E-02 
1680	 1.64072134635182E-02 
1681	 1.61532917004835E-02 
1682	 1.65374131657133E-02 
1683	 1.66807570413177E-02 
1684	 1.62836513197605E-02 
1685	 1.63559887652642E-02 
1686	 1.65508505196928E-02 
1687	 1.64395978298663E-02 
1688	 1.64904826278918E-02 
1689	 1.65137091466197E-02 
1690	 1.66108333796513E-02 
1691	 1.66479452637024E-02 
1692	 1.65377360913948E-02 
1693	 1.66249487624814E-02 
1694	 0.016481543035923 
1695	 1.63458473506716E-02 
1696	 1.66237903545757E-02 
1697	 1.67030967402213E-02 
1698	 1.64618657480503E-02 
1699	 1.63840091084082E-02 
1700	 1.63604975884951E-02 
1701	 1.62787265931949E-02 
1702	 1.65726518703655E-02 
1703	 1.67735486269868E-02 
1704	 0.016587646843736 
1705	 1.66603382973153E-02 
1706	 1.66882924268441E-02 
1707	 1.64416650543121E-02 
1708	 0.016392585081433 
1709	 1.65036125364892E-02 
1710	 1.63592694458652E-02 
1711	 1.61201005715802E-02 
1712	 1.61717616207506E-02 
1713	 0.016207691307796 
1714	 1.61435164084727E-02 
1715	 0.016402079172759 
1716	 1.58386516761304E-02 
1717	 1.58227733457433E-02 
1718	 1.61366269990965E-02 
1719	 1.60850106131597E-02 
1720	 0.016230205315928 
1721	 1.59788199414034E-02 
1722	 1.58502392300796E-02 
1723	 1.65538702503194E-02 
1724	 1.64194258073123E-02 
1725	 1.56554370016712E-02 
1726	 0.015354969002042 
1727	 1.52911783649374E-02 
1728	 1.56024659478353E-02 
1729	 1.59982083235202E-02 
1730	 1.57758597266583E-02 
1731	 1.52996048576863E-02 
1732	 1.54617132741481E-02 
1733	 1.58676281295414E-02 
1734	 1.57798120038157E-02 
1735	 1.54415238781394E-02 
1736	 1.52252418144652E-02 
1737	 1.54044985087647E-02 
1738	 1.53710046522032E-02 
1739	 1.50034908456373E-02 
1740	 1.49395304703554E-02 
1741	 1.45593773874398E-02 
1742	 1.45144645801089E-02 
1743	 1.52796855384484E-02 
1744	 1.54739971965258E-02 
1745	 0.015085065902539 
1746	 0.015129096162224 
1747	 1.52888445617841E-02 
1748	 1.48904606340533E-02 
1749	 1.47571251919327E-02 
1750	 1.52927818874804E-02 
1751	 0.015203183938744 
1752	 1.48350424065262E-02 
1753	 1.50424351492343E-02 
1754	 1.52463882270383E-02 
1755	 1.48579709529852E-02 
1756	 1.43167365082875E-02 
1757	 1.36856436396407E-02 
1758	 1.38889047917177E-02 
1759	 1.43149640054599E-02 
1760	 1.42221750918933E-02 
1761	 1.39284697040655E-02 
1762	 1.35608136535611E-02 
1763	 1.39881450439247E-02 
1764	 1.41779013151332E-02 
1765	 1.38685509074535E-02 
1766	 1.40543032344073E-02 
1767	 1.40049520216293E-02 
1768	 1.41660724265144E-02 
1769	 0.014581089702692 
1770	 1.42455354720059E-02 
1771	 1.35214573821205E-02 
1772	 1.34476372902482E-02 
1773	 1.43357916838724E-02 
1774	 1.49318486843789E-02 
1775	 1.52472270720029E-02 
1776	 1.52422787895476E-02 
1777	 1.35699647830639E-02 
1778	 1.26802820764189E-02 
1779	 1.19297354652101E-02 
1780	 1.18657000066757E-02 
1781	 1.32724953567878E-02 
1782	 1.40652260426269E-02 
1783	 1.58231256398089E-02 
1784	 1.55651856562537E-02 
1785	 1.22916294674989E-02 
1786	 1.18219712485683E-02 
1787	 1.17855741023127E-02 
1788	 1.22854381293085E-02 
1789	 1.62855990746848E-02 
1790	 0.013614852375313 
1791	 1.15081192807234E-02 
1792	 1.23146597991569E-02 
1793	 1.10532734041552E-02 
1794	 1.39818711882311E-02 
1795	 1.67359635291106E-02 
1796	 1.03195276146598E-02 
1797	 8.92057519076822E-03 
1798	 1.25477296916447E-02 
1799	 1.29904920401544E-02 
1800	 2.31313351483863E-02 
1801	 2.61911943128258E-02 
1802	 1.08654903013562E-02 
1803	 9.82100944725896E-03 
1804	 1.72879263746422E-02 
1805	 1.98397749864524E-02 
1806	 5.03820994881205E-02 
1807	 6.34511349459742E-02 
1808	 0.036019370890869 
1809	 1.43057600857812E-02 
1810	-6.44644110595826E-02 
1811	-7.24214095095784E-02 
1812	 6.57807285615262E-02 
1813	 7.39775443660162E-02 
1814	 9.32047328857908E-02 
1815	 8.00051021342535E-02 
1816	-0.184430377861306 
1817	-7.51094240231529E-03 
1818	 0.12732759018367 
1819	 0.23376224281558 
1820	 0.203063003494762 
1821	 0.322277403087522 
1822	 0.14496559658738 
1823	-0.207520838357111 
1824	-0.170073671980262 
1825	 4.12169403234594E-02 
1826	-1.73485773475422E-02 
1827	-0.140306044300878 
1828	 0.263971477998508 
1829	-0.831447463358932 
1830	-0.223373275538253 
1831	-2.85544437247778 
1832	-2.24041028201916 
1833	-1.71586497207902 
1834	-1.46950889750907 
1835	-0.93187857741997 
1836	-0.718681675758531 
1837	 4.74517489682114E-02 
1838	 0.341627200363472 
1839	-0.877445779587694 
1840	-1.56120386450861 
1841	-7.66364569556567 
1842	 1.71336037081756 
1843	 1.61469419587338 
1844	-0.548289365669233 
1845	-1.55102661834568 
1846	-0.178111819463747 
1847	-0.191033388127813 
1848	-0.254954874091587 
1849	-0.778966298855551 
1850	-0.201396841340751 
1851	-8.10022927097637E-02 
1852	-3.16587162851794 
1853	 10.9849078660898 
1854	-78.0747276211845 
1855	-6.59378221689494 
1856	-5.02099840603525 
1857	-1.32016321238081 
1858	-1.20413964830206 
1859	-2.60737472785665 
1860	 52.591368602102 
1861	-0.232750643406381 
1862	 1.29099348482102 
1863	 1.27622715564996 
1864	 5.53400857849716 
1865	 2.8282739686938 
1866	 0.852474441204218 
1867	 0.830937261834064 
1868	 1.17096474594191 
1869	 1.03705157832378 
1870	 1.34103208343306 
1871	 2.32610903726504 
1872	 0.776185105109244 
1873	 0.683149857976514 
1874	 1.09934804003087 
1875	 2.63753810341008 
1876	 7.34709740668654 
1877	-1.99719951112637 
1878	-1.57321364571017 
1879	-3.13401887079468 
1880	-3.40964408134828 
1881	-3.78360898108451 
1882	-3.84133946001348 
1883	-7.27873675695215 
1884	 7.23147695887541 
1885	 2.46125862978878 
1886	 1.73157147799992 
1887	 1.92385936787992 
1888	 1.74488950788219 
1889	 1.60606901939671 
1890	 1.03698344066179 
1891	 1.16504120569906 
1892	 1.91067312168398 
1893	 2.43764986854978 
1894	 3.75859158623582 
1895	-14.5550782512046 
1896	-7.09729205348476 
1897	-9.7803106863116 
1898	-4.11789542748697 
1899	 15.4136835838606 
1900	 2.215252315802 
1901	 0.871851467770498 
1902	 0.938242955397572 
1903	 1.52958172482501 
1904	 3.28352085233448 
1905	 8.45809982000055 
1906	 1.32907891667028 
1907	 0.763458690417588 
1908	 0.784265257347366 
1909	 1.78447276172657 
1910	-0.192732959898253 
1911	-0.316435010372341 
1912	-1.74856240194978 
1913	 5.90787470337104 
1914	 1.68776419643228 
1915	 1.25362392550871 
1916	 1.0171152624896 
1917	 0.619321908603241 
1918	 0.683263401352656 
1919	 0.72878954406886 
1920	 1.41172199032984 
1921	-1.51690097022505 
1922	-1.51231178191562 
1923	 52.7041483708355 
1924	-1.81203545973738 
1925	-0.340257425551708 
1926	-0.123843637322648 
1927	-1.15905803416315 
1928	 20.7971644678568 
1929	-55.86150398726 
1930	 29.4853777689599 
1931	-116.248123568292 
1932	-1.70851676211538 
1933	-0.231975430142801 
1934	 0.389888672728237 
1935	 0.545457658791594 
1936	 0.394056695834237 
1937	 4.11444001434915E-02 
1938	-0.286398604036247 
1939	-0.360383395050297 
1940	-0.281545502654114 
1941	-0.268568687035644 
1942	-0.282576403881276 
1943	-0.155688512780885 
1944	-7.77900934891699E-02 
1945	-4.10875464504476E-02 
1946	 9.01781750717098E-03 
1947	-2.61777134478575E-03 
1948	-2.87948787684193E-02 
1949	-1.40569720563736E-02 
1950	-2.62381459779583E-02 
1951	-1.58579301261738E-02 
1952	-1.51873262057752E-02 
1953	-1.68305405503853E-03 
1954	-1.58264208868399E-02 
1955	-3.21960726480957E-03 
1956	-1.33507445575606E-02 
1957	-3.44063983686359E-02 
1958	-2.79283337564919E-02 
1959	-2.07173115769837E-02 
1960	-2.12684303059391E-02 
1961	-1.47617555326558E-02 
1962	-4.27487701209585E-03 
1963	-6.53364814559984E-03 
1964	-1.30384930729405E-02 
1965	-9.25493116799949E-03 
1966	-6.98704176717404E-03 
1967	-4.87821845721734E-03 
1968	-6.77151300203765E-03 
1969	-5.35456002082498E-03 
1970	-4.27626726570782E-03 
1971	-5.07293259480727E-03 
1972	-4.1417325447867E-03 
1973	-1.80364446492003E-03 
1974	 7.10471262667704E-04 
1975	 1.99399029474283E-03 
1976	 0.0031639136928 
1977	 3.35728628365939E-03 
1978	 2.2268447264502E-03 
1979	 1.84496400603283E-03 
1980	 1.13326185271746E-03 
1981	 4.29608941677651E-04 
1982	 8.57001564475164E-05 
1983	 1.36632775090117E-04 
1984	-4.84120995039416E-06 
1985	 3.14763126830121E-04 
1986	 4.94988703361693E-04 
1987	 7.31959111216024E-04 
1988	 9.047537491194E-04 
1989	-3.47123477665892E-04 
1990	-4.58043304544445E-04 
1991	 7.72684730009574E-04 
1992	 8.22439635671568E-04 
1993	 1.06061109958907E-03 
1994	 9.02532323267197E-04 
1995	 5.35563912994471E-04 
1996	-1.03668878890026E-03 
1997	-1.73267368240634E-03 
1998	-2.85765765103893E-03 
1999	-2.86659783003943E-03 
2000	-2.61608820056768E-03 
2001	-6.21818011936779E-03 
2002	-8.14000027054008E-03 
2003	-6.4340909768446E-03 
2004	-6.32124856693191E-03 
2005	-5.84443622867025E-03 
2006	-2.8724212422369E-03 
2007	-3.91159108605845E-03 
2008	-7.90433204707962E-03 
2009	-8.43900815902009E-03 
2010	-6.40603272156162E-03 
2011	-5.99225222886133E-03 
2012	-5.81357412733559E-03 
2013	-2.67940119857947E-03 
2014	-1.87384072515067E-03 
2015	-3.39844934084166E-03 
2016	-3.87385893933218E-03 
2017	-2.94893145997224E-03 
2018	-2.33911625249855E-03 
2019	-2.50691210634636E-03 
2020	-1.26868585463401E-03 
2021	-1.21193053172783E-03 
2022	-8.82300104951855E-04 
2023	 9.33080016448795E-04 
2024	 1.26407070408161E-03 
2025	 5.76847941124506E-04 
2026	 1.1833197970138E-03 
2027	 2.05226749201136E-03 
2028	 2.50493505814724E-03 
2029	 2.08601102873019E-03 
2030	 1.87120145741896E-03 
2031	 1.6842567906279E-03 
2032	 7.72726568809916E-04 
2033	 1.46519490633798E-03 
2034	 1.98371669003976E-03 
2035	 1.13157198932854E-03 
2036	 1.16064106414602E-03 
2037	 1.14082488503652E-03 
2038	 3.7815476831156E-04 
2039	 5.41482187506201E-04 
2040	 1.5499922901841E-03 
2041	 1.66298268298715E-03 
2042	 2.2864622975211E-03 
2043	 2.40212419578536E-03 
2044	 1.77041788697396E-03 
2045	 7.39767495355128E-04 
2046	 6.97808497856861E-04 
2047	 2.96687502720919E-04 
2048	 1.03190085332689E-03 
2049	 1.85274569975803E-03 
2050	 1.99799442447213E-03 
2051	 2.56091952377615E-03 
2052	 2.66989467088819E-03 
2053	 2.73536426448726E-03 
2054	 3.27431190660522E-03 
2055	 2.88320330403511E-03 
2056	 2.46578866982178E-03 
2057	 1.82158519511585E-03 
2058	 1.69951120893741E-03 
2059	 1.18666414548105E-03 
2060	 1.25789589003713E-03 
2061	 2.56780086728677E-03 
2062	 2.16200140745218E-03 
2063	 1.09813960297123E-03 
2064	 8.21649124032604E-04 
2065	 1.54495052774993E-03 
2066	 2.98209444735252E-03 
2067	 4.06964534804851E-03 
2068	 5.22604434295912E-03 
2069	 5.15810843411716E-03 
2070	 3.97329706968194E-03 
2071	 3.81259737572234E-03 
2072	 4.62334232935322E-03 
2073	 4.64252011178549E-03 
2074	 4.65662966199497E-03 
2075	 4.36662481411664E-03 
2076	 3.38831925594436E-03 
2077	 2.76798789644472E-03 
2078	 2.36633163266719E-03 
2079	 2.02545055306737E-03 
2080	 1.58696256420423E-03 
2081	 1.41495944352771E-03 
2082	 1.67812963890765E-03 
2083	 1.60514769189153E-03 
2084	 2.35698056901432E-03 
2085	 3.11942194741654E-03 
2086	 3.01070492134655E-03 
2087	 2.95053965114254E-03 
2088	 2.26147176663365E-03 
2089	 1.66108243224439E-03 
2090	 2.34274036196421E-03 
2091	 2.97323235568898E-03 
2092	 2.78858825569373E-03 
2093	 2.03206149345902E-03 
2094	 2.18435085801965E-03 
2095	 1.82549787695012E-03 
2096	 1.7712801295182E-03 
2097	 3.24829675156406E-03 
2098	 3.62886064297578E-03 
2099	 3.15658541869877E-03 
2100	 2.63886609708171E-03 
2101	 3.30098500284667E-03 
2102	 4.09881036908068E-03 
2103	 3.6409262274235E-03 
2104	 3.8818082869341E-03 
2105	 4.13029897486792E-03 
2106	 2.26491703038206E-03 
2107	 1.80613931589121E-03 
2108	 3.77688141588943E-03 
2109	 4.51743924880163E-03 
2110	 4.50437436991026E-03 
2111	 5.37990720060539E-03 
2112	 4.92389978169222E-03 
2113	 4.48538356585275E-03 
2114	 3.91674304053439E-03 
2115	 3.63400031452721E-03 
2116	 2.61404027732671E-03 
2117	 2.91236258916692E-03 
2118	 4.26328387310789E-03 
2119	 5.06477908107404E-03 
2120	 6.72629797643993E-03 
2121	 7.2448963869489E-03 
2122	 6.22413745315932E-03 
2123	 5.59717480973401E-03 
2124	 5.95240349471412E-03 
2125	 6.27966778173226E-03 
2126	 6.35064120200445E-03 
2127	 6.64767135367045E-03 
2128	 6.09144649979011E-03 
2129	 4.8792697621313E-03 
2130	 4.50997827546946E-03 
2131	 4.22881517043362E-03 
2132	 3.79565461783685E-03 
2133	 4.02971498865426E-03 
2134	 4.52952199758282E-03 
2135	 6.00069508642763E-03 
2136	 6.23998118451228E-03 
2137	 6.09938405986559E-03 
2138	 5.9609739852048E-03 
2139	 4.98788294893551E-03 
2140	 4.56909197104468E-03 
2141	 4.65732199936453E-03 
2142	 4.6808595035302E-03 
2143	 4.58744866170505E-03 
2144	 4.47461323336749E-03 
2145	 5.13389485461942E-03 
2146	 5.32451265251392E-03 
2147	 5.12061177621137E-03 
2148	 5.33105408389407E-03 
2149	 4.37342876773202E-03 
2150	 4.39686041124575E-03 
2151	 5.27782614099753E-03 
2152	 4.91605157419295E-03 
2153	 5.5550892130326E-03 
2154	 4.83238067352039E-03 
2155	 2.87664556006646E-03 
2156	 2.65190215429823E-03 
2157	 2.71025783971328E-03 
2158	 3.26983637581254E-03 
2159	 4.07319760845618E-03 
2160	 6.00813350037811E-03 
2161	 6.6214230711501E-03 
2162	 6.96227109472296E-03 
2163	 6.81698224964895E-03 
2164	 5.71607425753782E-03 
2165	 5.16441392273562E-03 
2166	 4.31096020327511E-03 
2167	 3.7314240613101E-03 
2168	 3.0735403255929E-03 
2169	 3.3707388076794E-03 
2170	 4.65750707835613E-03 
2171	 5.22802979811136E-03 
2172	 5.32610044713767E-03 
2173	 5.95101036457955E-03 
2174	 5.35365024816883E-03 
2175	 3.95983735342399E-03 
2176	 3.18371620396857E-03 
2177	 3.74808028163242E-03 
2178	 4.83364313038771E-03 
2179	 5.11121581378271E-03 
2180	 6.27191950270021E-03 
2181	 7.38832395962975E-03 
2182	 6.16257746303776E-03 
2183	 5.12243971280317E-03 
2184	 4.82816094673358E-03 
2185	 3.97398241721587E-03 
2186	 3.68554037275608E-03 
2187	 4.04104919252328E-03 
2188	 4.4633701945861E-03 
2189	 5.60111830879539E-03 
2190	 5.2384502026826E-03 
2191	 4.1137699325162E-03 
2192	 4.22423980234416E-03 
2193	 3.94706016848283E-03 
2194	 3.95575656410723E-03 
2195	 5.02142651799435E-03 
2196	 5.5312251706301E-03 
2197	 5.71615278494891E-03 
2198	 5.71518878718126E-03 
2199	 6.34352149136533E-03 
2200	 5.50890758128518E-03 
2201	 3.62345535210839E-03 
2202	 2.30037787274716E-03 
2203	 1.43912211805281E-03 
2204	 3.11940986954881E-03 
2205	 5.4574911261399E-03 
2206	 6.76590980903413E-03 
2207	 6.44052341487086E-03 
2208	 3.31950932234762E-03 
2209	 9.02635925540158E-04 
2210	 5.11288703854568E-04 
2211	 1.02459838133028E-03 
2212	 2.31081315138596E-03 
2213	 1.55911339575289E-03 
2214	-3.36874067568421E-04 
2215	-3.4468361319509E-04 
2216	-4.27085428129239E-04 
2217	 5.46713171356709E-04 
2218	 4.82674866917898E-03 
2219	 6.10734960551398E-03 
2220	 6.21606891313157E-03 
2221	 6.02768352033248E-03 
2222	 4.23441091973373E-03 
2223	 4.72833386668303E-03 
2224	 5.75230421075556E-03 
2225	 6.28443624212826E-03 
2226	 8.37332657662182E-03 
2227	 9.20721746940736E-03 
2228	 8.48156503292815E-03 
2229	 8.12721529578709E-03 
2230	 9.18678445854982E-03 
2231	 7.9784949200029E-03 
2232	 3.8388672815032E-03 
2233	 2.67024079626204E-03 
2234	 2.02383456340959E-03 
2235	 5.88907320356683E-04 
2236	 3.49370978979496E-03 
2237	 5.82668293579377E-03 
2238	 6.82283305958721E-03 
2239	 8.34128045373934E-03 
2240	 8.31974145920659E-03 
2241	 8.23456417220762E-03 
2242	 8.61457234167128E-03 
2243	 9.1984427662036E-03 
2244	 8.34686403539049E-03 
2245	 6.46762046117653E-03 
2246	 5.02466359443526E-03 
2247	 4.7256754874591E-03 
2248	 4.84460774931638E-03 
2249	 4.37499395632505E-03 
2250	 5.38867507658368E-03 
2251	 4.21080029759279E-03 
2252	 1.30541761782808E-03 
2253	 2.3446943287459E-03 
2254	 3.48934635727988E-03 
2255	 3.31524756977928E-03 
2256	 5.15846527663223E-03 
2257	 5.6733361431581E-03 
2258	 3.1974435662417E-03 
2259	 2.21267486308128E-03 
2260	 1.95929899839118E-03 
2261	 1.70464606435886E-03 
2262	 1.36090013364653E-03 
2263	 2.64616880096262E-03 
2264	 2.71630895645603E-03 
2265	 1.75750447137164E-03 
2266	 1.90159103320946E-03 
2267	 2.55380841530869E-03 
2268	 1.9050646093546E-03 
2269	 1.31980010252577E-04 
2270	 1.26055568622611E-04 
2271	 1.33046453916193E-03 
2272	 0.001286027510176 
2273	 1.08185439639327E-03 
2274	 1.66406239645701E-03 
2275	 6.98992525432325E-04 
2276	 1.62470105119999E-03 
2277	 6.89378703254046E-03 
2278	 7.27373587623023E-03 
2279	 5.31443721165411E-03 
2280	 4.44816710542537E-03 
2281	 5.35289637563351E-04 
2282	-9.10735355260532E-04 
2283	 3.01643283881221E-03 
2284	 3.93939032637901E-03 
2285	 4.94636769063194E-03 
2286	 5.09808031379931E-03 
2287	 6.83070971032554E-04 
2288	-1.86217237462328E-03 
2289	-2.7731161251145E-03 
2290	-3.80969023643821E-03 
2291	-2.51868843260943E-03 
2292	-4.20124374820452E-03 
2293	-6.61859308928192E-03 
2294	-7.37847290313857E-03 
2295	-6.46652472071864E-03 
2296	-2.42795310581949E-03 
2297	-8.57904339360612E-04 
2298	 2.97848487801489E-04 
2299	 1.95827199207082E-04 
2300	-2.59828335799992E-03 
2301	-3.51941073551013E-03 
2302	-2.01642021899459E-03 
2303	 2.48448156637951E-03 
2304	 2.0436099283879E-03 
2305	-2.52676100797566E-03 
2306	-1.96692334168472E-03 
2307	-2.40239252927664E-03 
2308	-4.82297976592514E-04 
2309	 4.2991514926566E-03 
2310	 5.90471281447639E-03 
2311	 5.63249990872845E-03 
2312	 2.28986531482288E-03 
2313	-3.37632027627913E-04 
2314	-3.54948291175475E-03 
2315	-7.95002969085238E-03 
2316	-7.38196992119566E-03 
2317	-4.72858680646717E-03 
2318	-7.66071385992992E-03 
2319	-9.66527429546716E-03 
2320	-7.72987845857184E-03 
2321	-1.27991234898507E-02 
2322	-0.014399237491554 
2323	-1.00395685923685E-02 
2324	-1.42631291216957E-02 
2325	-1.68191703109163E-02 
2326	-1.21797485208244E-02 
2327	-0.013382490069669 
2328	-1.71874578098832E-02 
2329	-1.53029260355768E-02 
2330	-1.55956996061819E-02 
2331	-1.52816223031178E-02 
2332	-1.23491874633707E-02 
2333	-1.16863125969465E-02 
2334	-1.15676431570212E-02 
2335	-1.30966921275818E-02 
2336	-1.02969634329094E-02 
2337	-1.06610395044179E-02 
2338	-1.53021561347359E-02 
2339	-8.40575211615729E-03 
2340	-1.41049920294906E-03 
2341	-3.90358400810998E-03 
2342	-4.28430197096844E-03 
2343	-8.2586223241641E-03 
2344	-1.95963963143898E-02 
2345	-1.85932171180969E-02 
2346	-8.98906651295287E-03 
2347	-9.88679892119491E-03 
2348	-1.29341856339576E-02 
2349	-9.57294268194006E-03 
2350	-1.35054753458056E-02 
2351	-1.55811065269979E-02 
2352	-6.9456565091131E-03 
2353	-1.14813681502682E-02 
2354	-0.02327000609998 
2355	-2.30144538910015E-02 
2356	-2.68476366015524E-02 
2357	-3.83460851643826E-02 
2358	-2.92756032958032E-02 
2359	-1.28698071242731E-02 
2360	-1.30705259152072E-02 
2361	-9.47921015787776E-03 
2362	 5.53482748624108E-03 
2363	-2.83959789388032E-03 
2364	-1.89790704809075E-02 
2365	-1.47173915491649E-02 
2366	-1.89673848722312E-02 
2367	-2.70446370904879E-02 
2368	-2.02281069823793E-02 
2369	-1.68581300098028E-02 
2370	-1.52436148852747E-02 
2371	 2.64047112662499E-03 
2372	 7.48754606625149E-03 
2373	-3.28482683088389E-04 
2374	-5.91809144060617E-03 
2375	-1.60076584574589E-02 
2376	-1.71412053024371E-02 
2377	-1.05125059918025E-02 
2378	-6.57437789385344E-03 
2379	-2.65379538722747E-02 
2380	-2.62045450265975E-02 
2381	-1.31638955855246E-02 
2382	-2.41774722075487E-02 
2383	-1.48781205588881E-02 
2384	-3.13390690002453E-02 
2385	-4.52705586456483E-02 
2386	-3.54295636061137E-02 
2387	-4.88899231627489E-02 
2388	-3.02938274698822E-02 
2389	 9.15439415576579E-04 
2390	-2.05236960988373E-02 
2391	-4.19397926110305E-02 
2392	-5.49443940584917E-02 
2393	-7.99128486215082E-02 
2394	-7.47452117248262E-02 
2395	-7.01679018179082E-02 
2396	-8.64368753579767E-02 
2397	-9.80549525118235E-02 
2398	-0.110774396031486 
2399	-0.137684228024827 
2400	-0.149697968924026 
2401	-0.138631754090967 
2402	-0.125804180732967 
2403	-6.11097027652512E-02 
2404	-3.74313096792552E-02 
2405	-0.104766134378149 
2406	-0.142350609688495 
2407	-0.157797340026673 
2408	-0.171300419431763 
2409	-9.80298362425061E-02 
2410	-0.059923121404297 
2411	-0.103551616960127 
2412	-9.70160949219606E-02 
2413	-6.96316139912284E-02 
2414	-8.03887103735004E-02 
2415	-7.81821562329647E-02 
2416	-5.38084309535402E-02 
2417	-1.23604949816135E-02 
2418	 3.65193642982334E-02 
2419	 2.04381399260622E-02 
2420	-6.71330390083336E-02 
2421	-9.40932817093623E-02 
2422	-2.25228073208083E-02 
2423	-5.31370299893781E-02 
2424	-9.67350739006575E-02 
2425	-6.36476284234612E-02 
2426	-0.105149547889523 
2427	-0.134423960787308 
2428	-9.75098313269158E-02 
2429	-0.142340240077284 
2430	-0.256591376818161 
2431	-0.293774243895255 
2432	-0.267953013260588 
2433	-0.4026229799185 
2434	-0.522761819769258 
2435	-0.412329301716768 
2436	-0.424726575820671 
2437	-0.413175475750939 
2438	-0.334838584028341 
2439	-0.393649854850895 
2440	-0.471811592558038 
2441	-0.438883678911625 
2442	-0.332258798288179 
2443	-0.389301403641535 
2444	-0.484437508243411 
2445	-0.621232290652823 
2446	-0.844265449501876 
2447	-0.338462916762912 
2448	-0.262670233860519 
2449	-0.128255849766971 
2450	-0.104312695303551 
2451	-0.659096589435499 
2452	-1.49716295188088 
2453	-1.38616167461926 
2454	-0.910013738165583 
2455	-1.15049399406116 
2456	-0.978960012019385 
2457	-0.920262136149196 
2458	-1.01604340371216 
2459	-1.13039462387096 
2460	-0.799426665057749 
2461	-0.594539668282511 
2462	-0.710461459420372 
2463	-0.775998556675461 
2464	-0.962919841194844 
2465	-1.29613379587053 
2466	-0.967587874287301 
2467	-0.880608004758501 
2468	-1.27230436320656 
2469	-1.15417079313435 
2470	-1.72068658144982 
2471	-1.71865916892741 
2472	-1.23675052986115 
2473	-2.09702074428208 
2474	-3.98331856435162 
2475	-4.20541232476211 
2476	 24.506305261742 
2477	 5.46684740000428 
2478	-10.3637189466398 
2479	-9.65319066113886 
2480	 4.54441963208234 
2481	 2.00909016993094 
2482	 1.41035588286797 
2483	 0.932361187929403 
2484	 0.684175747837853 
2485	 1.65824238886073 
2486	 2.77618188214701 
2487	 1.70646089278528 
2488	-50.2000244740973 
2489	-11.3742249409434 
2490	-7.79399571404143 
2491	-0.543101568239239 
2492	-0.62338062054795 
2493	-0.628392754288161 
2494	 0.499057434508244 
2495	 0.838697130933606 
2496	 1.11074236693211 
2497	-53.3117602876567 
2498	-2.5992182721903 
2499	-6.34292922698376 
2500	 4.74558906554286 
