Wavelength	rt0716clean00000.asd
350	 3.07737897235554E-02 
351	 3.02638382502714E-02 
352	 2.91448366769187E-02 
353	 2.85885072017231E-02 
354	 2.89444053210904E-02 
355	 2.89215966473067E-02 
356	 2.88379597166631E-02 
357	 2.87973040779182E-02 
358	 2.88568241941608E-02 
359	 2.91069541372274E-02 
360	 2.89119116777987E-02 
361	 2.86720366055922E-02 
362	 2.93074740511225E-02 
363	 2.95990198822707E-02 
364	 2.92153203105399E-02 
365	 2.84445513140235E-02 
366	 0.028261324493819 
367	 2.84720631121906E-02 
368	 0.028789572919832 
369	 2.89204253437161E-02 
370	 2.86996426388993E-02 
371	 2.85419676404594E-02 
372	 2.86190528808845E-02 
373	 2.88584105726898E-02 
374	 2.85353446811223E-02 
375	 2.85970046730303E-02 
376	 2.91329649606583E-02 
377	 2.88896710984298E-02 
378	 2.88854695442329E-02 
379	 2.91503803104639E-02 
380	 2.94519420717416E-02 
381	 2.94946332065214E-02 
382	 2.97228847656838E-02 
383	 3.00268143555166E-02 
384	 3.00516304034797E-02 
385	 0.029773361079809 
386	 2.94805200372122E-02 
387	 2.96129272392171E-02 
388	 3.06475300439502E-02 
389	 3.07528166814711E-02 
390	 3.03722197726857E-02 
391	 3.02904316793174E-02 
392	 3.10111910660365E-02 
393	 3.11049525231616E-02 
394	 3.08304808587741E-02 
395	 0.030940172264401 
396	 3.10518230003052E-02 
397	 3.13420085365512E-02 
398	 3.16182078354152E-02 
399	 3.14183958804081E-02 
400	 3.15661086635244E-02 
401	 0.03177517110507 
402	 3.17873443147256E-02 
403	 3.17755875277412E-02 
404	 3.18689667078253E-02 
405	 3.20683495506149E-02 
406	 3.22748648712416E-02 
407	 3.21552467757833E-02 
408	 3.22743283569992E-02 
409	 3.25891736053199E-02 
410	 3.24658079455091E-02 
411	 3.25654478930743E-02 
412	 3.27335229642813E-02 
413	 3.28222901734578E-02 
414	 0.033075588897232 
415	 3.32283316047188E-02 
416	 3.32491347338837E-02 
417	 3.32557071799874E-02 
418	 3.36341570050877E-02 
419	 3.38274072029208E-02 
420	 3.37822292931314E-02 
421	 0.034031082609536 
422	 3.42878102794948E-02 
423	 3.44787345615487E-02 
424	 3.46185842194714E-02 
425	 3.48498203160649E-02 
426	 3.50634096407962E-02 
427	 3.52944518464055E-02 
428	 3.56143976346206E-02 
429	 3.58355667057376E-02 
430	 3.61215325430901E-02 
431	 0.036494034276273 
432	 3.67796288731125E-02 
433	 3.70537740151486E-02 
434	 3.72744709706929E-02 
435	 3.74298722200104E-02 
436	 3.76457813713068E-02 
437	 3.79773112931897E-02 
438	 3.83718643595401E-02 
439	 3.87199221048226E-02 
440	 3.90304128981687E-02 
441	 3.92287310955128E-02 
442	 0.039386772118062 
443	 3.98028354859762E-02 
444	 4.00160525347721E-02 
445	 4.01711611512391E-02 
446	 4.04952064951129E-02 
447	 4.08778853851297E-02 
448	 0.04109287832532 
449	 4.11805122527667E-02 
450	 4.13732926625023E-02 
451	 4.16492011509503E-02 
452	 4.18589555170498E-02 
453	 4.19504466004987E-02 
454	 4.21076824654963E-02 
455	 4.21915271612309E-02 
456	 4.22664003278241E-02 
457	 4.24210946655518E-02 
458	 4.24717739068625E-02 
459	 4.25681432433046E-02 
460	 4.27177664363508E-02 
461	 0.042779361559718 
462	 4.29327765606572E-02 
463	 4.30836122704771E-02 
464	 4.31449099613075E-02 
465	 4.31950507701799E-02 
466	 0.043242333330367 
467	 4.33285602961417E-02 
468	 4.34840579176005E-02 
469	 4.35525034693355E-02 
470	 0.043666802599662 
471	 0.043855815152836 
472	 4.39760475148534E-02 
473	 4.41635195949459E-02 
474	 4.43296423438714E-02 
475	 4.44119137002077E-02 
476	 4.46584789589377E-02 
477	 4.47902505518989E-02 
478	 4.48650285702797E-02 
479	 4.51406462253938E-02 
480	 4.53280487657736E-02 
481	 4.54645959542764E-02 
482	 4.56389367478122E-02 
483	 4.59568332217904E-02 
484	 4.62752005534265E-02 
485	 4.65701132575759E-02 
486	 4.68389623658623E-02 
487	 4.69216832524887E-02 
488	 4.71292588116409E-02 
489	 4.75113278319624E-02 
490	 4.78500204298228E-02 
491	 4.81758570429045E-02 
492	 4.84942546358975E-02 
493	 4.88157433747494E-02 
494	 4.91752746852353E-02 
495	 0.049499689883295 
496	 4.98414145807741E-02 
497	 5.02987454577306E-02 
498	 5.07831371966006E-02 
499	 5.11649711283594E-02 
500	 5.14314746248539E-02 
501	 5.17446557024037E-02 
502	 5.21987909360805E-02 
503	 0.052660318672421 
504	 5.30041398805017E-02 
505	 5.34202522848152E-02 
506	 5.39415282101382E-02 
507	 5.44615757910291E-02 
508	 5.47935365913089E-02 
509	 5.52413355338416E-02 
510	 5.56668534466295E-02 
511	 5.59971094167091E-02 
512	 5.64760737915904E-02 
513	 5.70354327622756E-02 
514	 5.76415068405998E-02 
515	 5.82563402477831E-02 
516	 5.88236261657288E-02 
517	 5.93396892339946E-02 
518	 0.05983296082477 
519	 6.03614237057426E-02 
520	 0.060945227187874 
521	 6.15899033576662E-02 
522	 6.22529257265161E-02 
523	 6.27180760260418E-02 
524	 6.32856332268069E-02 
525	 6.39714824969777E-02 
526	 0.064595746721653 
527	 0.065229320510559 
528	 0.065866702010423 
529	 6.64905703752961E-02 
530	 6.70776158128513E-02 
531	 6.76628423382533E-02 
532	 6.83164000391019E-02 
533	 6.90731177305098E-02 
534	 0.06970434667124 
535	 7.03368447247304E-02 
536	 7.10444943750151E-02 
537	 7.18089229366126E-02 
538	 7.25034753636693E-02 
539	 7.31804618265003E-02 
540	 7.38994391842723E-02 
541	 7.45820303285059E-02 
542	 7.52750821333819E-02 
543	 7.59802758587264E-02 
544	 7.66766252482147E-02 
545	 7.73897997267243E-02 
546	 7.81217775798888E-02 
547	 7.88474628656644E-02 
548	 7.94915307541955E-02 
549	 8.01905151692346E-02 
550	 8.09018396258106E-02 
551	 8.15413386000135E-02 
552	 8.21726386382748E-02 
553	 8.28621654932883E-02 
554	 8.35764810550643E-02 
555	 8.41731925653244E-02 
556	 8.48840315131989E-02 
557	 8.55865463588355E-02 
558	 8.61644235918316E-02 
559	 8.68384180040092E-02 
560	 8.74770017015653E-02 
561	 8.80459803661999E-02 
562	 8.85795753965608E-02 
563	 8.91034516389269E-02 
564	 8.96393331080589E-02 
565	 9.01707965649048E-02 
566	 0.090607998268285 
567	 9.10932893727275E-02 
568	 9.15413411273133E-02 
569	 9.18369155044903E-02 
570	 9.22067236215088E-02 
571	 9.25991750299008E-02 
572	 9.29896092767403E-02 
573	 9.33966271011259E-02 
574	 9.36188751286558E-02 
575	 9.38533233025009E-02 
576	 9.42375741047276E-02 
577	 9.44118829539124E-02 
578	 9.46053756888171E-02 
579	 9.48088822513179E-02 
580	 9.48861055650774E-02 
581	 9.49845878004053E-02 
582	 9.50450060552455E-02 
583	 9.50495660757992E-02 
584	 9.51074513759118E-02 
585	 9.50915791527554E-02 
586	 9.49749705197741E-02 
587	 9.47853625459107E-02 
588	 9.46419484599252E-02 
589	 9.45548075714296E-02 
590	 9.44766916412643E-02 
591	 9.43100817658479E-02 
592	 9.40804914477624E-02 
593	 9.37816777080722E-02 
594	 9.34398748651073E-02 
595	 9.31919913979891E-02 
596	 9.27932627710619E-02 
597	 9.22362333418929E-02 
598	 9.16553148700863E-02 
599	 9.10618126638355E-02 
600	 0.090549049897755 
601	 9.01864014008927E-02 
602	 9.00028463878498E-02 
603	 8.97379832010136E-02 
604	 8.95427195916004E-02 
605	 8.96021928217916E-02 
606	 8.95205785023999E-02 
607	 8.94788343248892E-02 
608	 8.95105974807327E-02 
609	 0.089475911438999 
610	 8.94809689638559E-02 
611	 0.089492699705184 
612	 8.94717643832685E-02 
613	 8.94422672473913E-02 
614	 8.94267611242851E-02 
615	 8.94060839088223E-02 
616	 8.93482900452417E-02 
617	 8.93372276838569E-02 
618	 8.93395964078236E-02 
619	 8.93111248408479E-02 
620	 8.92043475794958E-02 
621	 8.92015704828842E-02 
622	 8.91992492741341E-02 
623	 8.90766294223902E-02 
624	 8.91360004371153E-02 
625	 8.90648113427369E-02 
626	 8.88602312900854E-02 
627	 8.88259148467622E-02 
628	 8.88629898364909E-02 
629	 8.88896413419099E-02 
630	 8.88615908977276E-02 
631	 0.088838408942176 
632	 8.87147904283635E-02 
633	 8.85938010356343E-02 
634	 8.86312682659591E-02 
635	 8.85533854555582E-02 
636	 8.85193176126805E-02 
637	 8.85598999468246E-02 
638	 8.84651137028111E-02 
639	 8.84362436611831E-02 
640	 8.83883977497958E-02 
641	 8.82242626773525E-02 
642	 8.81466493141869E-02 
643	 8.79714133903616E-02 
644	 8.77684606277793E-02 
645	 8.77975005098863E-02 
646	 8.77065267057355E-02 
647	 8.75384165493315E-02 
648	 8.73887931829534E-02 
649	 8.73020916956388E-02 
650	 8.70742517326182E-02 
651	 8.67845556498314E-02 
652	 8.65898770397428E-02 
653	 8.62889341201159E-02 
654	 8.59584051867218E-02 
655	 8.55475267664587E-02 
656	 8.48812873524672E-02 
657	 8.45459069755912E-02 
658	 8.43048902312831E-02 
659	 8.38913022827078E-02 
660	 8.34818269790805E-02 
661	 8.31815769882275E-02 
662	 8.29391616392595E-02 
663	 8.26299914487406E-02 
664	 8.24580859254381E-02 
665	 8.22573486092238E-02 
666	 8.19501130856344E-02 
667	 8.16921305668392E-02 
668	 8.15799035536743E-02 
669	 8.15425290646235E-02 
670	 8.14679110837115E-02 
671	 8.13814743100712E-02 
672	 8.13241047143561E-02 
673	 8.12814211964626E-02 
674	 8.11961351577399E-02 
675	 8.12417976134245E-02 
676	 8.12980539190678E-02 
677	 8.12880487129154E-02 
678	 8.13875659193477E-02 
679	 8.15190915996634E-02 
680	 8.16604832357185E-02 
681	 8.18103766209331E-02 
682	 8.19397043575139E-02 
683	 8.21487914472037E-02 
684	 8.24159974711084E-02 
685	 8.25615941842402E-02 
686	 8.27628767814263E-02 
687	 8.29315118937099E-02 
688	 8.29698222194753E-02 
689	 8.30547465895009E-02 
690	 8.30838856909386E-02 
691	 8.30097055426589E-02 
692	 8.28263044068431E-02 
693	 0.082703340084738 
694	 8.24739413888767E-02 
695	 8.21303095540665E-02 
696	 8.19511920925713E-02 
697	 8.16006372067203E-02 
698	 8.10363410419464E-02 
699	 8.03705884414075E-02 
700	 7.98131800640792E-02 
701	 7.92675188630249E-02 
702	 7.86380471352359E-02 
703	 7.78465378918464E-02 
704	 7.71015785504169E-02 
705	 7.63532289032243E-02 
706	 0.075560194981049 
707	 7.47456120170937E-02 
708	 7.37361553649462E-02 
709	 7.25867541281458E-02 
710	 7.14124416647998E-02 
711	 7.01056474494265E-02 
712	 6.87684780968744E-02 
713	 6.73883119960401E-02 
714	 6.57888770566902E-02 
715	 6.43260459287062E-02 
716	 6.28023260988246E-02 
717	 6.10543664391895E-02 
718	 0.059065591779099 
719	 5.71980606553385E-02 
720	 5.57017228246701E-02 
721	 5.42956363818952E-02 
722	 5.29347978578959E-02 
723	 5.11296192570058E-02 
724	 4.90676952486741E-02 
725	 4.73749936217528E-02 
726	 4.55094689129898E-02 
727	 4.34440159048112E-02 
728	 4.12774781434137E-02 
729	 3.90462381135152E-02 
730	 3.66979189440587E-02 
731	 0.034532532972853 
732	 3.27535465968358E-02 
733	 3.11838432489931E-02 
734	 2.97492674420548E-02 
735	 2.85125154387141E-02 
736	 0.027665226273786 
737	 2.69238757867968E-02 
738	 2.63444413024379E-02 
739	 2.59935687223147E-02 
740	 2.56807181298262E-02 
741	 2.54177990471095E-02 
742	 2.52641868967324E-02 
743	 2.52670741620701E-02 
744	 2.51945172197553E-02 
745	 2.51638381154426E-02 
746	 2.51747003463391E-02 
747	 2.50233485986576E-02 
748	 2.49620128921737E-02 
749	 2.49997005808686E-02 
750	 0.025066694711439 
751	 2.50664669268408E-02 
752	 2.50474293649011E-02 
753	 2.50365103995419E-02 
754	 0.025044553952996 
755	 2.50552341619198E-02 
756	 2.50695395007776E-02 
757	 2.50750702238422E-02 
758	 2.50226874128766E-02 
759	 2.49513072484045E-02 
760	 2.50179881181715E-02 
761	 2.52610568437765E-02 
762	 2.54192748887938E-02 
763	 2.52902870232743E-02 
764	 2.52067500877298E-02 
765	 2.54586142436422E-02 
766	 2.56647269404404E-02 
767	 2.57358800967435E-02 
768	 2.57806718942334E-02 
769	 2.60626401726079E-02 
770	 2.61001170483306E-02 
771	 2.61639950996033E-02 
772	 2.64743692930646E-02 
773	 2.67186712330911E-02 
774	 2.67947727851341E-02 
775	 2.69039129150604E-02 
776	 2.72868889675268E-02 
777	 2.74785739403908E-02 
778	 2.77518080665531E-02 
779	 2.81375394223083E-02 
780	 2.83863754784637E-02 
781	 2.85993309060745E-02 
782	 2.89098418501623E-02 
783	 2.93198063254255E-02 
784	 2.95058593544703E-02 
785	 2.98930295518964E-02 
786	 3.03655805874574E-02 
787	 3.06757436730541E-02 
788	 3.10272929102705E-02 
789	 3.13417253722072E-02 
790	 3.16487238670039E-02 
791	 3.20609470112331E-02 
792	 3.24570318902608E-02 
793	 3.28722476148142E-02 
794	 0.033300776462108 
795	 3.36186019199894E-02 
796	 3.38745586042302E-02 
797	 3.42117724996088E-02 
798	 3.46898612900557E-02 
799	 3.49597173043327E-02 
800	 3.52492278905242E-02 
801	 3.55308992000989E-02 
802	 3.56731261625542E-02 
803	 0.035895538369898 
804	 3.60668338023096E-02 
805	 3.61319692984381E-02 
806	 0.036152879489725 
807	 3.62026894494276E-02 
808	 0.036138099592727 
809	 0.035921104048178 
810	 3.59194075236434E-02 
811	 3.57183375045189E-02 
812	 3.54502431726211E-02 
813	 3.53837340264245E-02 
814	 3.50205442279338E-02 
815	 3.45158980422288E-02 
816	 3.40112268897333E-02 
817	 3.35569498829664E-02 
818	 3.30493837260052E-02 
819	 3.23893807497742E-02 
820	 0.031562482159699 
821	 3.06881404177489E-02 
822	 2.97086777827661E-02 
823	 2.87170143966313E-02 
824	 2.76845592492484E-02 
825	 2.60639416483527E-02 
826	 2.47463379749107E-02 
827	 0.02344038702142 
828	 2.16814323658064E-02 
829	 2.03194047146105E-02 
830	 1.90532627769694E-02 
831	 1.79291922328452E-02 
832	 1.72421392423033E-02 
833	 0.016340937292014 
834	 1.57024887385122E-02 
835	 1.54350183692351E-02 
836	 0.015032524715021 
837	 1.45420680142521E-02 
838	 1.42291818280781E-02 
839	 1.41689457460422E-02 
840	 1.38190671973916E-02 
841	 1.35451863698689E-02 
842	 1.33751648805068E-02 
843	 0.013202419191993 
844	 1.29023024241773E-02 
845	 1.26052252522721E-02 
846	 0.012446361595429 
847	 1.24876941734183E-02 
848	 1.22111685217966E-02 
849	 1.20923201237907E-02 
850	 0.012163838458747 
851	 1.17887090387261E-02 
852	 1.13762348702141E-02 
853	 1.13371965384299E-02 
854	 1.15700120545942E-02 
855	 1.09283301754568E-02 
856	 1.07272986186505E-02 
857	 1.07384652703013E-02 
858	 1.04927639405017E-02 
859	 0.010291996175427 
860	 0.010161131292077 
861	 1.01172573806825E-02 
862	 1.01190397633901E-02 
863	 9.85913138057013E-03 
864	 9.7049433792165E-03 
865	 9.70440182355929E-03 
866	 9.58794933930453E-03 
867	 9.49276644767324E-03 
868	 9.34779232750922E-03 
869	 9.16480788182751E-03 
870	 9.08545363404993E-03 
871	 0.008928975079512 
872	 8.74986590614409E-03 
873	 8.55732299520959E-03 
874	 8.12714818357883E-03 
875	 7.92196741134459E-03 
876	 8.00368881305478E-03 
877	 8.14676213832001E-03 
878	 7.67435343490716E-03 
879	 7.11792032863061E-03 
880	 6.8778450688208E-03 
881	 7.07495236498365E-03 
882	 6.87128307816914E-03 
883	 6.63465213829614E-03 
884	 6.49326424599907E-03 
885	 6.36073758977264E-03 
886	 6.41852358886746E-03 
887	 6.19384047079303E-03 
888	 5.8456125398496E-03 
889	 6.20262402911065E-03 
890	 5.84018824838654E-03 
891	 5.44937891556128E-03 
892	 5.56597371930763E-03 
893	 5.68257291567781E-03 
894	 5.60308895637016E-03 
895	 5.3401270781628E-03 
896	 5.0459227726771E-03 
897	 4.98450006868388E-03 
898	 4.8526580957161E-03 
899	 4.73543277372875E-03 
900	 4.76156019080852E-03 
901	 4.73492916742564E-03 
902	 4.48021823171482E-03 
903	 4.07431138464808E-03 
904	 3.78412631464644E-03 
905	 4.31350769523248E-03 
906	 4.52886366705418E-03 
907	 4.15750686233119E-03 
908	 3.66466867501628E-03 
909	 3.18023141179959E-03 
910	 3.57167888390905E-03 
911	 4.14472973920638E-03 
912	 3.18949916376525E-03 
913	 3.32686937901526E-03 
914	 3.64258704478471E-03 
915	 3.24356349329646E-03 
916	 2.07856903974311E-03 
917	 2.65266642707331E-03 
918	 2.7435299777358E-03 
919	 1.88791382771585E-03 
920	 2.59605872821268E-03 
921	 2.91209538584882E-03 
922	 2.61642486879369E-03 
923	 2.1221245530902E-03 
924	 2.48843457896792E-03 
925	 1.72606523601769E-03 
926	 1.17361285132395E-03 
927	 2.14056290254441E-03 
928	 1.22536289921452E-03 
929	 1.48042763378102E-03 
930	 0.002497986713506 
931	 1.60962712787973E-03 
932	-1.89595256401385E-03 
933	-3.03801513691267E-05 
934	 3.91189746242895E-03 
935	 2.12506933792232E-03 
936	 2.6306266724988E-03 
937	 3.1882845853855E-04 
938	-1.30812638147494E-03 
939	 1.06799450794648E-03 
940	 6.3715635444749E-04 
941	 1.46730159972854E-03 
942	 3.69524906475788E-03 
943	 5.02852363363257E-03 
944	 1.93742301358498E-03 
945	 2.99956423800326E-03 
946	 6.3795024156331E-03 
947	 4.57110830465431E-03 
948	-1.87521778067339E-03 
949	-1.42046486569179E-03 
950	 3.24694458874955E-03 
951	 2.35100048458819E-03 
952	 1.47170500405104E-03 
953	 2.86451352067428E-03 
954	 4.09034999940239E-03 
955	 1.30011503175795E-03 
956	 7.27265042238057E-04 
957	 1.76499352165768E-03 
958	 1.90908569273618E-03 
959	-6.36093886953168E-04 
960	 2.05626182612769E-03 
961	 4.41215983414752E-03 
962	 4.09432240533659E-03 
963	 2.49135549393779E-03 
964	 2.51978424120685E-03 
965	 2.28198625491171E-03 
966	 1.57106549335605E-03 
967	 1.50941384893467E-03 
968	 1.51787484341766E-03 
969	 1.59957187729111E-03 
970	 1.93949232636299E-03 
971	 2.62301650868171E-03 
972	 1.93360300399384E-03 
973	 8.32327146391978E-04 
974	 5.29756050578367E-04 
975	 1.71382645740011E-03 
976	 2.14534422100589E-03 
977	 2.37372907945783E-03 
978	 2.05769875072259E-03 
979	 4.20120601353848E-04 
980	 1.16798669234989E-03 
981	 2.35391407968359E-03 
982	 2.08514364792303E-03 
983	-1.3869581666364E-05 
984	 2.00315656819422E-03 
985	 2.08483245460591E-03 
986	 2.92794540020613E-04 
987	 1.4551156970786E-03 
988	 0.001726665715909 
989	 1.24737671431505E-03 
990	 8.75228754992043E-04 
991	 1.30712494012038E-03 
992	 1.16431032074446E-04 
993	 1.25258770856442E-03 
994	 3.31749702430691E-03 
995	 1.91278275476158E-03 
996	 3.93654623258449E-04 
997	-7.18328902103237E-04 
998	-9.48394108369531E-04 
999	-3.78012749316962E-05 
1000	 1.45933880240518E-03 
1001	 9.55880553692718E-04 
1002	 1.14241694682309E-03 
1003	 1.25413380950709E-03 
1004	 1.38800881674722E-03 
1005	 1.45052898737498E-03 
1006	 1.45585503155547E-03 
1007	 1.39765578163057E-03 
1008	 1.46150852825188E-03 
1009	 1.56528505514776E-03 
1010	 1.81300599722786E-03 
1011	 2.0962083179272E-03 
1012	 1.95099537139247E-03 
1013	 1.67142411680599E-03 
1014	 1.45690820066804E-03 
1015	 8.80292456002056E-04 
1016	 7.63607259904716E-04 
1017	 1.05396356135766E-03 
1018	 1.09413046353549E-03 
1019	 1.17618383698045E-03 
1020	 1.23363496018571E-03 
1021	 1.29336955744207E-03 
1022	 1.08550310036035E-03 
1023	 1.16030888033719E-03 
1024	 1.23459824232818E-03 
1025	 1.18197169459729E-03 
1026	 1.1732374186899E-03 
1027	 1.16532030783484E-03 
1028	 1.11432501234985E-03 
1029	 1.23302394209932E-03 
1030	 1.45079942813833E-03 
1031	 1.55197691036623E-03 
1032	 1.87041610184435E-03 
1033	 1.75279495925005E-03 
1034	 1.34000990398885E-03 
1035	 1.03616324800044E-03 
1036	 2.74480263503041E-04 
1037	 5.91122833519733E-06 
1038	-1.56462380702278E-04 
1039	 6.22856144447224E-05 
1040	 6.04238117352938E-04 
1041	 1.02695229090245E-03 
1042	 1.24512948285329E-03 
1043	 1.47168589470152E-03 
1044	 1.47952622019553E-03 
1045	 1.2208682441334E-03 
1046	 1.04286532972264E-03 
1047	 5.43290974990919E-04 
1048	 5.84968664391648E-04 
1049	 1.00462550191003E-03 
1050	 1.12371674053123E-03 
1051	 1.55706216950287E-03 
1052	 1.6809890404389E-03 
1053	 1.25825266467148E-03 
1054	 1.1565303051504E-03 
1055	 1.22564949050602E-03 
1056	 1.21223661921881E-03 
1057	 1.20791478425431E-03 
1058	 1.27542880824997E-03 
1059	 1.27573813638529E-03 
1060	 1.14014332178024E-03 
1061	 1.22302230683845E-03 
1062	 1.54239196809041E-03 
1063	 1.54313926791364E-03 
1064	 1.51373161488517E-03 
1065	 1.41962073359936E-03 
1066	 9.75691501217024E-04 
1067	 8.1631272733606E-04 
1068	 7.54279856347362E-04 
1069	 7.75897577559694E-04 
1070	 1.03369817160857E-03 
1071	 1.13865762889038E-03 
1072	 1.27324505466573E-03 
1073	 1.29024077091971E-03 
1074	 1.43563259052804E-03 
1075	 1.65583057043357E-03 
1076	 1.57337265004528E-03 
1077	 1.38774601827974E-03 
1078	 1.3083886428067E-03 
1079	 9.45646960506957E-04 
1080	 8.35965478519641E-04 
1081	 1.04275794526988E-03 
1082	 1.08082904774011E-03 
1083	 9.97390349771604E-04 
1084	 1.02176935933271E-03 
1085	 1.23706194193634E-03 
1086	 1.25803911524461E-03 
1087	 1.08131983898907E-03 
1088	 1.0834274458915E-03 
1089	 1.16513651722486E-03 
1090	 1.02909676603518E-03 
1091	 1.05780866177015E-03 
1092	 1.40902672885743E-03 
1093	 1.38055611551449E-03 
1094	 9.62112870402401E-04 
1095	 1.01193178830509E-03 
1096	 1.23594002941086E-03 
1097	 1.28282734043772E-03 
1098	 1.5725915193672E-03 
1099	 1.66191565033677E-03 
1100	 1.30090152539429E-03 
1101	 1.34442104134875E-03 
1102	 1.86308850618422E-03 
1103	 1.96598378180879E-03 
1104	 2.03168861243551E-03 
1105	 1.9577202786763E-03 
1106	 1.5228783495131E-03 
1107	 8.8682086214823E-04 
1108	 1.30377259855296E-03 
1109	 1.78395431281126E-03 
1110	 1.72056045734168E-03 
1111	 1.73717053837188E-03 
1112	 1.70404907556821E-03 
1113	 4.18522782227685E-04 
1114	 1.65353390989664E-04 
1115	 1.22210309195639E-03 
1116	 1.50955027406718E-03 
1117	 1.93402452949473E-03 
1118	 2.71316578245516E-03 
1119	 3.3493950258855E-03 
1120	 3.81203584277744E-03 
1121	 6.04965279656429E-03 
1122	 4.6246718160437E-03 
1123	-5.63466280288108E-04 
1124	-1.16374666546536E-04 
1125	-2.06865491191083E-03 
1126	-1.48971635133686E-03 
1127	 7.49067824815249E-03 
1128	 7.60153507661371E-03 
1129	 5.60910701427098E-03 
1130	 1.46431555454712E-03 
1131	 6.15779036027231E-04 
1132	-3.24702198356592E-03 
1133	-2.59719927477771E-03 
1134	 2.74205359788363E-03 
1135	 3.68508744398152E-03 
1136	 3.28211568809455E-03 
1137	 3.45936196429556E-03 
1138	 3.11363429386833E-03 
1139	 2.61074225299127E-03 
1140	 2.24505850618744E-03 
1141	 1.89885262799398E-03 
1142	 2.77334190576054E-03 
1143	 2.12957203382253E-03 
1144	 2.47411736623055E-04 
1145	 1.33509259925991E-03 
1146	 1.54004770993703E-03 
1147	-7.76142573032984E-05 
1148	 9.92938050189173E-04 
1149	 1.22959847855136E-03 
1150	 1.28627017092279E-03 
1151	 1.45886177966446E-03 
1152	 2.06938110939117E-03 
1153	 2.34010215818208E-03 
1154	 1.79770613714683E-03 
1155	 1.01337675126089E-03 
1156	 9.60530643441423E-04 
1157	 2.81084157665221E-04 
1158	 5.92720744498599E-04 
1159	 1.80429446465256E-03 
1160	 1.48652231624069E-03 
1161	 2.8570372441984E-04 
1162	 3.5493558562507E-04 
1163	 7.28052860926338E-04 
1164	 7.46416001972454E-04 
1165	 1.16400365343807E-03 
1166	 1.28209855451646E-03 
1167	 6.38163141405326E-04 
1168	 6.33974169215232E-04 
1169	 1.10625638549867E-03 
1170	 1.02807396762019E-03 
1171	 9.76000533467952E-04 
1172	 9.39107769736747E-04 
1173	 7.57575210239088E-04 
1174	 8.61385810183728E-05 
1175	 3.91404620068483E-04 
1176	 8.15401968608849E-04 
1177	 7.24353846524485E-04 
1178	 1.05223366945671E-03 
1179	 1.30953723747872E-03 
1180	 1.07285454482305E-03 
1181	 1.0863713721679E-03 
1182	 9.52989871251699E-04 
1183	 5.48743227788031E-04 
1184	 7.08682560607594E-04 
1185	 9.76078426749563E-04 
1186	 8.43534604057582E-04 
1187	 8.43720352012419E-04 
1188	 8.35433789576812E-04 
1189	 8.23434249669311E-04 
1190	 1.20734078286132E-03 
1191	 1.21644726460405E-03 
1192	 1.13075036678904E-03 
1193	 7.15455572341862E-04 
1194	 7.57615669728516E-04 
1195	 8.51334311047918E-04 
1196	 8.66284905435034E-04 
1197	 1.04163577558885E-03 
1198	 9.61748133381629E-04 
1199	 6.74295003151068E-04 
1200	 5.43624360289816E-04 
1201	 5.78020529817229E-04 
1202	 4.85393551154792E-04 
1203	 2.68736498336927E-04 
1204	 4.833666185635E-04 
1205	 8.8114269823436E-04 
1206	 8.17949438536851E-04 
1207	 6.57323646114949E-04 
1208	 5.85024206493169E-04 
1209	 2.66515515282471E-04 
1210	 3.05090457909878E-04 
1211	 7.19713463165116E-04 
1212	 7.56839455036991E-04 
1213	 5.05260538060936E-04 
1214	 5.1409310021235E-04 
1215	 5.13757861687002E-04 
1216	 6.87959278870349E-04 
1217	 7.79891285342036E-04 
1218	 8.69972570437669E-04 
1219	 8.84248029760312E-04 
1220	 5.62621333725089E-04 
1221	 5.60378666437135E-04 
1222	 8.99116933627529E-04 
1223	 8.96871407705261E-04 
1224	 8.42874925402496E-04 
1225	 9.89428273492257E-04 
1226	 8.98159208232066E-04 
1227	 7.4865184932621E-04 
1228	 8.6930960413616E-04 
1229	 7.88547644660588E-04 
1230	 6.24245507827286E-04 
1231	 8.16937953792035E-04 
1232	 8.98764726547696E-04 
1233	 7.78966158241535E-04 
1234	 7.36924667041494E-04 
1235	 7.08632676718174E-04 
1236	 6.56278774123488E-04 
1237	 6.60916430668756E-04 
1238	 6.81612423387587E-04 
1239	 8.71000734077414E-04 
1240	 8.47208716933234E-04 
1241	 7.41845409575031E-04 
1242	 9.50957373627917E-04 
1243	 8.67198418488692E-04 
1244	 6.08274622757965E-04 
1245	 8.24908869068889E-04 
1246	 9.44508226668273E-04 
1247	 6.47732891165022E-04 
1248	 5.65304098567657E-04 
1249	 7.28602939444168E-04 
1250	 7.98982420996389E-04 
1251	 8.68423815274314E-04 
1252	 9.85758541725773E-04 
1253	 1.01891938994671E-03 
1254	 1.04353935729187E-03 
1255	 1.09935367186375E-03 
1256	 9.84017307225032E-04 
1257	 7.77879312917909E-04 
1258	 8.16485963510777E-04 
1259	 9.00632705653708E-04 
1260	 7.65761739439634E-04 
1261	 6.07540441521373E-04 
1262	 6.32257187248549E-04 
1263	 4.57409399607836E-04 
1264	 5.23037567651596E-04 
1265	 7.45716927221084E-04 
1266	 9.78734895332627E-04 
1267	 8.09511425365418E-04 
1268	 4.46006826953848E-04 
1269	 6.40068179795391E-04 
1270	 1.01643483934088E-03 
1271	 8.84235515698201E-04 
1272	 7.9884522109971E-04 
1273	 9.54516537193631E-04 
1274	 7.88077941613246E-04 
1275	 7.87745591710431E-04 
1276	 1.00141064076521E-03 
1277	 8.77396913773299E-04 
1278	 7.30417769496547E-04 
1279	 7.20583334402466E-04 
1280	 6.78768439904799E-04 
1281	 7.30502554178107E-04 
1282	 7.79330534600675E-04 
1283	 6.8197739107975E-04 
1284	 6.11969567207555E-04 
1285	 6.71595452961754E-04 
1286	 5.48557543589422E-04 
1287	 4.98032604988186E-04 
1288	 7.59513878963858E-04 
1289	 8.67760620536788E-04 
1290	 8.17007102143827E-04 
1291	 7.36197896895105E-04 
1292	 6.95090796221455E-04 
1293	 7.7666529286379E-04 
1294	 7.48168601116154E-04 
1295	 6.31136640725119E-04 
1296	 8.50008655930108E-04 
1297	 1.02852116772143E-03 
1298	 9.47185299033592E-04 
1299	 7.34120793486089E-04 
1300	 4.59290829935789E-04 
1301	 4.19738689367979E-04 
1302	 4.24047538265235E-04 
1303	 5.30307032501579E-04 
1304	 1.08987229705514E-03 
1305	 1.26660032194085E-03 
1306	 1.21741926811916E-03 
1307	 8.65857575951173E-04 
1308	 9.75404026258404E-04 
1309	 1.05144206679676E-03 
1310	 8.8858036655071E-04 
1311	 8.42948626939883E-04 
1312	 1.04764970614524E-03 
1313	 1.20670789648931E-03 
1314	 1.04056770151767E-03 
1315	 9.60823867812122E-04 
1316	 1.02757833530343E-03 
1317	 6.47844527959014E-04 
1318	 5.26168109784792E-04 
1319	 1.12007748175434E-03 
1320	 1.29397235214851E-03 
1321	 8.68700629744044E-04 
1322	 8.78741716368494E-04 
1323	 1.40876119057776E-03 
1324	 1.5175235000192E-03 
1325	 1.47631126187411E-03 
1326	 1.6950250677795E-03 
1327	 1.69099302791295E-03 
1328	 1.37991957103957E-03 
1329	 1.36995103612935E-03 
1330	 1.55436649026567E-03 
1331	 1.42678780359881E-03 
1332	 1.3117660208018E-03 
1333	 7.77428072613538E-04 
1334	 1.01107676219487E-03 
1335	 1.36782961694593E-03 
1336	 1.78938619082859E-03 
1337	 1.74769258938813E-03 
1338	 2.2922181700562E-03 
1339	 2.44901831395614E-03 
1340	 1.95150298549368E-03 
1341	 1.42408713773338E-03 
1342	 2.42159046748458E-04 
1343	 5.3664950134196E-05 
1344	-1.57183934017499E-04 
1345	 3.35938237158041E-04 
1346	 4.91085549321086E-03 
1347	 6.48352384838457E-03 
1348	 4.21598048885676E-03 
1349	 2.60943710842102E-03 
1350	-3.45527825197632E-03 
1351	-7.27463697334738E-03 
1352	-9.43216649769846E-03 
1353	-9.76004034788401E-03 
1354	 1.44927028528483E-02 
1355	 2.47299551427248E-02 
1356	 1.31960374764856E-02 
1357	 2.82618867256133E-02 
1358	 7.33748248042001E-03 
1359	-4.57237970118754E-02 
1360	-1.39976196623737E-02 
1361	 3.31769182920407E-02 
1362	 8.40134753876633E-02 
1363	 0.160454821907249 
1364	 0.216359690249019 
1365	 0.325715548987728 
1366	 0.249252520520861 
1367	-0.095288935726294 
1368	-3.47807832617395E-02 
1369	 0.166325539979357 
1370	 0.186174534130886 
1371	 0.385236368352042 
1372	 0.354621920756451 
1373	-4.07348781236936E-02 
1374	-8.30713583668242E-02 
1375	 0.188143173213548 
1376	 0.173210826281734 
1377	 0.143800481446206 
1378	 0.249681844686083 
1379	 0.221716647618962 
1380	 0.259143223968509 
1381	 0.739358283961187 
1382	 0.716900240505179 
1383	 0.136104621602897 
1384	 4.83713083729293E-02 
1385	 5.02130770773815E-02 
1386	 3.95809641386357E-02 
1387	 0.201615274070156 
1388	 0.275914669457771 
1389	 0.135330560149508 
1390	 0.225277886950346 
1391	 0.567335708422961 
1392	 0.820527948718472 
1393	 0.578340676707297 
1394	 0.369695830070472 
1395	 0.302171335162211 
1396	 0.147369809259932 
1397	 0.168721704005144 
1398	 0.177729076767669 
1399	 9.54167454298772E-02 
1400	-1.69504513833318E-03 
1401	 0.122940976706254 
1402	 0.426235931608367 
1403	 0.491899047732945 
1404	 0.270936742418391 
1405	 0.278037027165078 
1406	 0.315854450765096 
1407	 0.262489130989617 
1408	 0.190516799948746 
1409	 0.241859319100043 
1410	 0.310166917035663 
1411	 0.280611711965177 
1412	 0.291028571635043 
1413	 0.291768727893528 
1414	 0.232746786513354 
1415	 0.175161197122474 
1416	 0.159290870875978 
1417	 0.153799329962733 
1418	 9.80576893678923E-02 
1419	 7.47861898443853E-02 
1420	 0.107076540070331 
1421	 0.105852476542686 
1422	 9.58267296119796E-02 
1423	 8.01385759998065E-02 
1424	 6.39760203087878E-02 
1425	 4.15740746681966E-02 
1426	-1.78901521470377E-03 
1427	-8.55827837354368E-03 
1428	-1.51527953625326E-03 
1429	 4.16842053404162E-03 
1430	 3.29416244316912E-02 
1431	 3.65559190155394E-02 
1432	 1.74561923245845E-02 
1433	 1.29433699567203E-02 
1434	 7.49637132722526E-04 
1435	 1.75688102386297E-03 
1436	 0.017210100047046 
1437	 3.99245746206353E-02 
1438	 4.19419997546467E-02 
1439	 3.97394807505219E-02 
1440	 3.85802286048679E-02 
1441	 2.26825443869224E-02 
1442	 1.19867251447617E-02 
1443	 9.21615304662796E-03 
1444	 3.96329292779915E-04 
1445	-7.9716949519175E-04 
1446	 1.12025911532949E-02 
1447	 1.00754312648252E-02 
1448	-1.6842322335786E-03 
1449	-1.49874718098339E-03 
1450	-2.94841135285059E-04 
1451	-5.80601651547893E-04 
1452	 6.0639817400866E-03 
1453	 8.77835175450554E-03 
1454	 8.27167936512554E-03 
1455	 3.57696926806912E-03 
1456	 2.54680724567411E-03 
1457	 1.59859171320438E-03 
1458	 1.40499185445266E-03 
1459	 1.63781778016806E-03 
1460	 2.36276751780178E-03 
1461	 4.40616358118884E-03 
1462	 4.36441591339206E-03 
1463	 3.25844870118622E-03 
1464	 3.71145086429169E-03 
1465	 4.29564581143463E-03 
1466	 0.003524865769457 
1467	 2.84994718770356E-03 
1468	 2.97066911009134E-03 
1469	 1.03678932281511E-03 
1470	 1.41261271145762E-03 
1471	 5.59541086782274E-03 
1472	 6.67807298301887E-03 
1473	 6.77797139575653E-03 
1474	 6.30433663399484E-03 
1475	 4.61169518243665E-03 
1476	 3.68721025989043E-03 
1477	 2.19048013720381E-03 
1478	 1.62303262531263E-03 
1479	 1.68289233293489E-03 
1480	 1.95325757174746E-03 
1481	 3.24104179857707E-03 
1482	 3.22288146518376E-03 
1483	 2.0629864236412E-03 
1484	 2.19528037321783E-03 
1485	 2.93424742305321E-03 
1486	 2.51698223591337E-03 
1487	 1.90561183195143E-03 
1488	 2.15392710926919E-03 
1489	 2.51802670451067E-03 
1490	 2.02588192490945E-03 
1491	 1.48765251020547E-03 
1492	 1.48254491098782E-03 
1493	 1.22943518414004E-03 
1494	 8.7554822998903E-04 
1495	 7.67256697266585E-04 
1496	 8.28272554484553E-04 
1497	 7.81347593043928E-04 
1498	 5.99369055350718E-04 
1499	 5.90125817642093E-04 
1500	 7.35749992955656E-04 
1501	 4.93227522943792E-04 
1502	 5.74466314611512E-04 
1503	 1.53876431566601E-03 
1504	 1.70654905277043E-03 
1505	 1.57413957295643E-03 
1506	 1.19767742023612E-03 
1507	 3.91991756708828E-04 
1508	 7.97256886054072E-05 
1509	 6.34510294476808E-04 
1510	 8.77577016091828E-04 
1511	 8.54887484433556E-04 
1512	 1.04171773926846E-03 
1513	 1.12922899558316E-03 
1514	 1.01289087557807E-03 
1515	 1.04044345886475E-03 
1516	 1.08062495748973E-03 
1517	 9.60443518266134E-04 
1518	 7.67957373503865E-04 
1519	 7.2112607149484E-04 
1520	 8.6762529972348E-04 
1521	 7.96225825800506E-04 
1522	 7.01927801073317E-04 
1523	 7.41767867314385E-04 
1524	 6.70491320354549E-04 
1525	 5.99280246436453E-04 
1526	 5.31415565366607E-04 
1527	 5.431990714259E-04 
1528	 7.08115586584871E-04 
1529	 8.20231280047251E-04 
1530	 7.68753638243626E-04 
1531	 6.13476752184836E-04 
1532	 4.98606981992658E-04 
1533	 4.70838944572562E-04 
1534	 4.36114237877759E-04 
1535	 4.16288608250437E-04 
1536	 5.84316568270063E-04 
1537	 7.1146001986167E-04 
1538	 6.80707839183876E-04 
1539	 7.67974541657272E-04 
1540	 7.63444255729998E-04 
1541	 6.32970483715917E-04 
1542	 5.68282077914787E-04 
1543	 6.21389386527498E-04 
1544	 7.92250724743521E-04 
1545	 7.34841054872113E-04 
1546	 6.02663669206359E-04 
1547	 7.0073788861083E-04 
1548	 8.15554541601045E-04 
1549	 9.22150670476133E-04 
1550	 1.00424686793572E-03 
1551	 9.04776803063953E-04 
1552	 8.45419345431901E-04 
1553	 8.28895091634388E-04 
1554	 6.69549471346434E-04 
1555	 6.21226343796643E-04 
1556	 6.10412792039452E-04 
1557	 7.05338800538114E-04 
1558	 1.01958849784171E-03 
1559	 1.16482287816193E-03 
1560	 1.00629956885369E-03 
1561	 4.96005712189837E-04 
1562	 3.28846309693215E-04 
1563	 6.44677005868925E-04 
1564	 4.91739164063527E-04 
1565	 4.37355376190567E-04 
1566	 6.6359420742412E-04 
1567	 5.12476842526032E-04 
1568	 4.85097548850062E-04 
1569	 6.39565969264065E-04 
1570	 6.89839233522955E-04 
1571	 6.17542976309962E-04 
1572	 4.91858615717873E-04 
1573	 6.70790731569262E-04 
1574	 7.68832665605406E-04 
1575	 5.44081332172528E-04 
1576	 6.26268455439455E-04 
1577	 9.55464342724004E-04 
1578	 9.64475916302985E-04 
1579	 8.46395969077924E-04 
1580	 7.81747412957736E-04 
1581	 5.5037693651895E-04 
1582	 4.82139940042231E-04 
1583	 5.60805639184565E-04 
1584	 4.95619706530029E-04 
1585	 5.05119171831879E-04 
1586	 4.44420730651443E-04 
1587	 2.5430658895228E-04 
1588	 3.95148227639121E-04 
1589	 7.54613077452773E-04 
1590	 6.69183000448198E-04 
1591	 5.29538716072269E-04 
1592	 8.12952057866936E-04 
1593	 7.55095621516313E-04 
1594	 5.4644331303895E-04 
1595	 7.22325884689141E-04 
1596	 7.79894693950362E-04 
1597	 9.42417703702464E-04 
1598	 1.25174743838741E-03 
1599	 9.3739647534974E-04 
1600	 5.3177970119492E-04 
1601	 5.88466697148965E-04 
1602	 5.00130278519167E-04 
1603	 5.10626544308012E-04 
1604	 7.87398969184416E-04 
1605	 6.15776975585213E-04 
1606	 3.37426148061731E-04 
1607	 5.74830029735853E-04 
1608	 7.96162578375024E-04 
1609	 6.75275512825691E-04 
1610	 6.21190760238032E-04 
1611	 5.91442842455923E-04 
1612	 6.1266873389146E-04 
1613	 8.26180728646368E-04 
1614	 7.26973394128614E-04 
1615	 4.10677785095295E-04 
1616	 5.14363840930671E-04 
1617	 8.00479170147015E-04 
1618	 7.28461392287186E-04 
1619	 4.64387248544523E-04 
1620	 4.01586870166864E-04 
1621	 4.23507058883789E-04 
1622	 4.99630903583798E-04 
1623	 7.29029304256234E-04 
1624	 5.95773384123942E-04 
1625	 2.21961437001986E-04 
1626	 2.66324589176237E-04 
1627	 3.59072119132275E-04 
1628	 4.63313839131042E-04 
1629	 7.72540225102565E-04 
1630	 7.47961763797864E-04 
1631	 6.34395608102248E-04 
1632	 5.32581407717986E-04 
1633	 1.66938147573041E-04 
1634	 6.08963775282965E-05 
1635	 2.07942538771152E-04 
1636	 2.41254466476728E-04 
1637	 2.62789267746277E-04 
1638	 1.46559994251506E-04 
1639	-3.34616474342782E-05 
1640	 1.52944189645933E-04 
1641	 4.45778277920607E-04 
1642	 6.2493047839151E-04 
1643	 8.34573571611423E-04 
1644	 7.68660033880954E-04 
1645	 7.27918490550145E-04 
1646	 9.47634936741938E-04 
1647	 6.52300156914655E-04 
1648	 3.71675994685519E-04 
1649	 7.74019664967239E-04 
1650	 8.53065237900229E-04 
1651	 5.87962571094372E-04 
1652	 6.90839802543689E-04 
1653	 3.64371862869293E-04 
1654	 1.61783615521474E-04 
1655	 4.26232803760249E-04 
1656	 5.51365547781828E-04 
1657	 4.41524582714423E-04 
1658	 3.5542834054259E-04 
1659	 3.92934118903792E-04 
1660	 3.61544550026356E-04 
1661	 1.94161225637667E-04 
1662	 9.42214540961044E-05 
1663	-5.5048645042836E-06 
1664	 2.05070735887768E-04 
1665	 6.32114915898026E-04 
1666	 7.29349519154865E-04 
1667	 7.77992703838327E-04 
1668	 5.32528633190124E-04 
1669	 7.28844496953051E-04 
1670	 8.16045567873555E-04 
1671	 6.97919480197927E-04 
1672	 7.79135571041595E-04 
1673	 7.96426452133122E-04 
1674	 7.62720331387296E-04 
1675	 9.258666126962E-04 
1676	 1.18054720574396E-03 
1677	 9.4818836699924E-04 
1678	 2.96229731420101E-04 
1679	 1.44981462856942E-04 
1680	 3.31621313141797E-04 
1681	 4.28806112670507E-04 
1682	 8.36116900621009E-04 
1683	 1.02318232624781E-03 
1684	 4.43479413089101E-04 
1685	 2.16677490082655E-04 
1686	 5.9661262061589E-04 
1687	 7.08272439252033E-04 
1688	 6.98297599109112E-04 
1689	 7.27210772535523E-04 
1690	 6.87823192811193E-04 
1691	 6.79022641431392E-04 
1692	 7.71694061687338E-04 
1693	 7.98509774162086E-04 
1694	 6.29521873175846E-04 
1695	 6.15392724048502E-04 
1696	 8.65754024541456E-04 
1697	 1.04188543309635E-03 
1698	 8.97892017438227E-04 
1699	 8.09976342915564E-04 
1700	 8.09454108153819E-04 
1701	 6.98014389349747E-04 
1702	 8.90118249093523E-04 
1703	 1.02852767873996E-03 
1704	 9.2782502634774E-04 
1705	 9.12390041588051E-04 
1706	 6.21617680336442E-04 
1707	 4.81828143982057E-04 
1708	 7.67045889024797E-04 
1709	 9.72200307359174E-04 
1710	 9.85342603867685E-04 
1711	 5.64419331221912E-04 
1712	 4.69767181706843E-04 
1713	 1.11347837424765E-03 
1714	 1.06725226880868E-03 
1715	 1.1283720798767E-03 
1716	 1.06221110561395E-03 
1717	 1.02050238957649E-03 
1718	 1.18543858725027E-03 
1719	 1.09712153717763E-03 
1720	 9.09179090930746E-04 
1721	 9.3808817209534E-04 
1722	 1.15191379516837E-03 
1723	 1.32342472562643E-03 
1724	 8.91456565362788E-04 
1725	 1.83147573757967E-04 
1726	 3.1142566717212E-04 
1727	 8.34041094066785E-04 
1728	 1.03920035558805E-03 
1729	 1.45296345358351E-03 
1730	 1.63017026167526E-03 
1731	 1.03672848026124E-03 
1732	 8.69591751901764E-04 
1733	 1.24690866285547E-03 
1734	 1.11272230044905E-03 
1735	 7.05282379110673E-04 
1736	 6.93039696071976E-04 
1737	 5.91173437607894E-04 
1738	 4.79351104825675E-04 
1739	 9.82090249748488E-04 
1740	 6.64721794118327E-04 
1741	-2.85204091836152E-04 
1742	-7.35314613284443E-05 
1743	 3.40037496491593E-04 
1744	 7.2324361226704E-04 
1745	 1.64823503602994E-03 
1746	 9.57349542341394E-04 
1747	 7.44222191965609E-04 
1748	 8.99469549111608E-04 
1749	 8.35610777999228E-04 
1750	 7.48620487144143E-04 
1751	 9.92036904409808E-04 
1752	 1.61975746671967E-03 
1753	 1.62776000091745E-03 
1754	 1.1073327479599E-03 
1755	 9.28632537486523E-04 
1756	 5.39060162707349E-04 
1757	 4.89139428144742E-04 
1758	 1.48727034782545E-03 
1759	 1.88560440413443E-03 
1760	 1.02466323860881E-03 
1761	 6.75573257701419E-04 
1762	 5.98031283922378E-04 
1763	 9.21822591921862E-04 
1764	 1.50091710313426E-03 
1765	 1.35299329515169E-03 
1766	 8.12721904968781E-04 
1767	 6.0720214724583E-04 
1768	 9.54276527558366E-04 
1769	 1.24174009810306E-03 
1770	 1.38136350268782E-03 
1771	 1.08572501134249E-03 
1772	 4.51823134167766E-04 
1773	 4.64917310291945E-04 
1774	 1.15387029950179E-03 
1775	 2.02485605468516E-03 
1776	 2.10685553308724E-03 
1777	 1.75645156973779E-03 
1778	 1.4536337588632E-03 
1779	 1.93332070182765E-04 
1780	 1.11001275348855E-04 
1781	 1.72523427527311E-03 
1782	 1.31620567446969E-03 
1783	-8.42927623815593E-04 
1784	-7.49406307306335E-04 
1785	-8.62946432901782E-04 
1786	-2.61859509257165E-04 
1787	 4.12712144999919E-03 
1788	 4.68545476369402E-03 
1789	 1.9871680097405E-03 
1790	 3.99602089944091E-03 
1791	 3.29703378024809E-03 
1792	 4.56210264915142E-03 
1793	 8.21678691768985E-03 
1794	 5.79050179239879E-03 
1795	 2.23449892816933E-03 
1796	 4.91916820887598E-03 
1797	 4.83081676621042E-03 
1798	 4.00494573978038E-03 
1799	 8.39437936093324E-03 
1800	-7.32722756679022E-03 
1801	-1.49761585854095E-02 
1802	-1.52833696722011E-02 
1803	-1.52648709005139E-02 
1804	 6.5343819314218E-03 
1805	 1.91152520502379E-02 
1806	 1.96467018560841E-02 
1807	 2.80271559723338E-02 
1808	 3.60630497870993E-02 
1809	 2.49596301475159E-02 
1810	-5.32885624858667E-02 
1811	-3.85832042580652E-02 
1812	 8.05660201187896E-02 
1813	 0.131642541160398 
1814	 0.296515555259748 
1815	 0.313906829624208 
1816	 0.038575947007752 
1817	 9.15582829579978E-02 
1818	 0.120689115780487 
1819	-9.97351523538908E-02 
1820	-2.70158869725966E-02 
1821	-0.270860419770349 
1822	-0.245363578066037 
1823	 0.276219773659356 
1824	 0.378539295265932 
1825	 0.450664275516305 
1826	 0.4517802496708 
1827	 0.216299507845439 
1828	-0.283224038740119 
1829	-1.72035177193946 
1830	-0.67063138389206 
1831	 1.45478101294211 
1832	 0.940936777558126 
1833	 0.439770517482765 
1834	 0.317917036883499 
1835	 0.226012815492659 
1836	 5.55090373463402E-02 
1837	-0.329238215996177 
1838	-0.805857049199543 
1839	-2.98566321181056 
1840	-1.96955775384559 
1841	-5.7985802371004 
1842	 0.880867104224555 
1843	 0.589179146870925 
1844	-0.474102399396786 
1845	-1.17879863445261 
1846	 0.194602091547316 
1847	 0.065678981998048 
1848	-0.41406868930653 
1849	-1.52965590916571 
1850	-3.42662077240055 
1851	 15.446829683174 
1852	 8.11691862169471 
1853	-29.4060775068899 
1854	 173.322903449071 
1855	 4.79743254102679 
1856	 2.4473648425719 
1857	 1.03505453035458 
1858	 0.902935466935737 
1859	 1.12501263189106 
1860	-69.5144154287901 
1861	-5.50246016905857 
1862	 0.255696100251762 
1863	 1.14824832511537 
1864	 7.32976193989746 
1865	 3.49065763106813 
1866	 0.758926368113545 
1867	 0.518810312176465 
1868	-0.317838347045381 
1869	-0.665240242380109 
1870	-1.66960898726781 
1871	-0.893576789095687 
1872	-6.13164091772201E-02 
1873	-9.86516177615222E-02 
1874	 0.104983399445241 
1875	-0.311697860765913 
1876	-0.559274099267071 
1877	-0.755503056960405 
1878	-0.640627723406786 
1879	-0.675501420987027 
1880	-0.411456093389747 
1881	 0.180138613013659 
1882	 1.51149047754829 
1883	 3.0983393576302 
1884	-1.34485466960447 
1885	-0.426881385547403 
1886	-0.367968313487509 
1887	-0.269328036096844 
1888	-0.290185913707052 
1889	-0.374227440281415 
1890	-0.242284485307833 
1891	-0.024093908517968 
1892	 0.254986688517644 
1893	 5.95753816107278E-02 
1894	-0.774269082993806 
1895	-1.09969380247148 
1896	-0.531010946022065 
1897	 1.66575978234149 
1898	-7.62750439107045E-02 
1899	-3.28872631754166 
1900	-0.837852579027424 
1901	-0.328241288343598 
1902	-0.315223063807092 
1903	-0.849490926864199 
1904	-0.275148936532979 
1905	 0.20064006341939 
1906	-0.401675463780281 
1907	-5.61518362221569E-02 
1908	-5.64394196427288E-02 
1909	-1.16555588582534 
1910	 2.85415544645796E-02 
1911	 0.401702727845068 
1912	 2.18902078127814 
1913	-6.51708808467099 
1914	-0.475639994453996 
1915	-0.357196924020951 
1916	-0.322250393736276 
1917	-0.543798181470564 
1918	-1.07329879651915 
1919	-1.41038951083454 
1920	-1.28720467274004 
1921	 0.551944279477104 
1922	-0.265443982151236 
1923	 31.7887237877555 
1924	-2.23144020876674 
1925	-2.68971945527556 
1926	-3.49414107781261 
1927	-6.34228888750373 
1928	 9.84984364032148 
1929	-27.2928635865993 
1930	 23.1018654989902 
1931	-41.9193167275662 
1932	-0.75358940890389 
1933	-0.637229372243009 
1934	 0.137119148305405 
1935	 0.377743347386643 
1936	 0.128510701717189 
1937	-8.97044157026024E-03 
1938	-0.01706415478028 
1939	 0.03967710044638 
1940	 8.72405890833734E-02 
1941	 0.116479040014508 
1942	 0.16384391090789 
1943	 0.164479431134583 
1944	 8.59131503235036E-02 
1945	-6.05003535453812E-03 
1946	-1.10977218674326E-02 
1947	-2.61108795553967E-02 
1948	-6.52567994812996E-02 
1949	-2.26254866372915E-02 
1950	 1.38629434718351E-02 
1951	 4.73167960483031E-02 
1952	 5.92831121374462E-02 
1953	 9.27948732765992E-02 
1954	 6.39814533544723E-02 
1955	 4.26635712885788E-02 
1956	 2.87034292510909E-02 
1957	 2.90428880107919E-02 
1958	 3.63372314330665E-02 
1959	 2.02820544309421E-02 
1960	 8.14262893664056E-03 
1961	-2.05204643898874E-03 
1962	 1.16993479145512E-03 
1963	 4.93959569144901E-03 
1964	 2.22011523240859E-03 
1965	 2.05928618474633E-03 
1966	 2.23835463962474E-03 
1967	 5.13837773238289E-04 
1968	 1.97261951858795E-03 
1969	 3.47311522826957E-03 
1970	 2.93858236069346E-03 
1971	 6.74201539497566E-04 
1972	-1.45603900301303E-03 
1973	-1.17168343415917E-03 
1974	-1.49076951529922E-03 
1975	-8.77408572654142E-04 
1976	 1.21251932001028E-03 
1977	 2.00257909048111E-03 
1978	 1.4641828413393E-03 
1979	 1.55839668962412E-03 
1980	 2.02069309589096E-03 
1981	 1.58813187104966E-03 
1982	 1.14868331828499E-03 
1983	 2.53909215114827E-03 
1984	 2.38137157169301E-03 
1985	 1.14304790374841E-03 
1986	 4.40368785299453E-04 
1987	-1.06002309414677E-03 
1988	-1.69010860238112E-03 
1989	-1.68957785038495E-03 
1990	-1.67246405207581E-03 
1991	-2.8220725694507E-05 
1992	 2.02498967483134E-03 
1993	 1.75853859897113E-03 
1994	 1.88825843462936E-03 
1995	 1.3303915741274E-03 
1996	 1.10283216718872E-03 
1997	 4.81620094755294E-04 
1998	 2.99402091925458E-03 
1999	 6.10741930641175E-03 
2000	 5.46664058861156E-03 
2001	 4.97172199518216E-03 
2002	 6.04010955638101E-03 
2003	 6.14458246545867E-03 
2004	 7.96775558948063E-03 
2005	 9.08985729515054E-03 
2006	 8.8117680500135E-03 
2007	 8.48114985809418E-03 
2008	 3.13277832928424E-03 
2009	 2.34455716417802E-03 
2010	 5.46544250426457E-03 
2011	 4.44791449049674E-03 
2012	 1.49056493307273E-03 
2013	 4.25678720354109E-03 
2014	 4.39264427000276E-03 
2015	-2.32069358760339E-04 
2016	 1.31955337273563E-03 
2017	 2.44560876354289E-03 
2018	 2.23761492445872E-04 
2019	-3.4612431224451E-04 
2020	-7.41931540617015E-05 
2021	-2.43805132541679E-04 
2022	-6.5693585791822E-04 
2023	-2.6763702019866E-04 
2024	 2.08414321350621E-04 
2025	 3.17420525709429E-04 
2026	 2.8299088503427E-04 
2027	 2.75239699528266E-04 
2028	 1.4699916442059E-03 
2029	 1.72949025422866E-03 
2030	 1.35224614423614E-03 
2031	 1.93296314446329E-03 
2032	 1.6583372609361E-03 
2033	 3.20712266454315E-04 
2034	-1.67277534852532E-04 
2035	-5.33021603109852E-04 
2036	-6.18370690360014E-04 
2037	 4.61236790332309E-04 
2038	 9.14848440557537E-04 
2039	 1.02041201314145E-03 
2040	 9.77416966539897E-04 
2041	 9.20535950803693E-04 
2042	 5.75023522830759E-05 
2043	-1.93352228461895E-04 
2044	-1.17231751407091E-04 
2045	 5.30384705326216E-04 
2046	 3.80662272642471E-04 
2047	 7.12750045801409E-04 
2048	 1.14412765363086E-03 
2049	 6.10050199280193E-04 
2050	 3.21247066597034E-04 
2051	 7.15832797201443E-04 
2052	 2.44630971985024E-03 
2053	 3.62221188868238E-03 
2054	 3.73175630309245E-03 
2055	 4.08533939048902E-03 
2056	 3.85348720445984E-03 
2057	 1.79137583181469E-03 
2058	 1.27334400578106E-03 
2059	 2.09295762077126E-03 
2060	 1.81732212285818E-03 
2061	 1.36652425460896E-03 
2062	 9.52996330749158E-04 
2063	 2.52907997317567E-04 
2064	-1.26257023504294E-03 
2065	-0.002511222160544 
2066	-1.90381642950888E-03 
2067	 6.29775005290131E-04 
2068	 1.18760838649198E-03 
2069	 7.10046245461151E-04 
2070	 1.4810008684849E-03 
2071	 4.14479028101002E-04 
2072	-9.17757074939662E-05 
2073	 2.59026400248435E-05 
2074	 1.47787368467715E-03 
2075	 1.35378348011241E-03 
2076	 7.31751105190878E-04 
2077	 4.70561118094956E-04 
2078	-3.17428043555253E-04 
2079	-6.07095903228162E-04 
2080	-4.25320183991687E-04 
2081	-5.27378000699262E-04 
2082	-1.23533680619823E-03 
2083	-3.35020636823732E-04 
2084	 4.86964142739776E-05 
2085	 1.86200708475334E-04 
2086	 1.0353503152582E-03 
2087	 2.74803060026854E-04 
2088	 3.76599303820279E-04 
2089	 5.29238627772528E-04 
2090	-1.94753926975866E-04 
2091	 2.3290229386597E-04 
2092	 4.02491291023149E-04 
2093	 4.75326447634258E-04 
2094	 4.45350580064808E-04 
2095	 5.83793756025605E-04 
2096	 4.30123693346407E-04 
2097	-5.66705619301382E-04 
2098	-5.77314386591277E-04 
2099	-2.64576404198279E-04 
2100	 6.30611309881694E-04 
2101	 1.61015918457201E-03 
2102	 2.69626147376498E-03 
2103	 3.77785569623418E-03 
2104	 3.47326878614233E-03 
2105	 2.9788703090762E-03 
2106	 3.17016752795075E-03 
2107	 2.0416688650434E-03 
2108	 1.53791218491307E-03 
2109	 1.40469872442512E-03 
2110	 2.65390972789135E-04 
2111	 4.92818650859229E-04 
2112	 1.06840815969799E-03 
2113	 1.07974847772769E-03 
2114	 1.19009672012679E-03 
2115	 1.54493661025412E-03 
2116	 1.59492606140954E-03 
2117	 1.37600011642566E-03 
2118	 1.31381210227965E-03 
2119	 1.6155597731528E-03 
2120	 1.92850983491302E-03 
2121	 1.47222847986229E-03 
2122	 1.55430250538272E-03 
2123	 1.88553474510246E-03 
2124	 1.06553532502827E-03 
2125	 2.70149327533321E-04 
2126	 2.01780845946268E-04 
2127	-4.24288055929558E-04 
2128	-9.47163287287182E-04 
2129	-4.44473451257931E-04 
2130	-6.59193215368371E-05 
2131	 1.69501336200162E-04 
2132	 5.72987878158922E-04 
2133	 7.24942104039927E-04 
2134	 6.7137938191028E-04 
2135	 5.8774017454087E-04 
2136	 7.54512804741028E-04 
2137	 5.30614908419295E-04 
2138	 6.16789369620424E-04 
2139	 1.16598683145099E-03 
2140	 0.001616584592616 
2141	 2.31147938534033E-03 
2142	 2.49985130597261E-03 
2143	 2.58672137892134E-03 
2144	 2.60860228054962E-03 
2145	 2.36598401179292E-03 
2146	 1.97625332537749E-03 
2147	 1.08887325811946E-03 
2148	 5.70458145859236E-04 
2149	 1.04764022614143E-03 
2150	 1.42378208098149E-03 
2151	 1.91558026366139E-03 
2152	 2.77061305183639E-03 
2153	 1.99507105458413E-03 
2154	 1.64520968762673E-04 
2155	-4.16083642761881E-04 
2156	-2.03020846437384E-04 
2157	-2.21089626970986E-04 
2158	 3.25451812740848E-04 
2159	 1.68358117979012E-05 
2160	-6.51492720605598E-04 
2161	-1.23685415287936E-03 
2162	-2.54113780134911E-03 
2163	-2.80105689202445E-03 
2164	-2.36415823935494E-03 
2165	-2.59655045554274E-03 
2166	-3.1938983772433E-03 
2167	-2.50019681995094E-03 
2168	-1.29311190079966E-03 
2169	-1.50902797787008E-04 
2170	 2.30326554592469E-03 
2171	 4.03214622367538E-03 
2172	 3.60164004719394E-03 
2173	 2.38232354909068E-03 
2174	 1.93032314738241E-03 
2175	 1.13144208408244E-03 
2176	 6.56143326723301E-04 
2177	 1.41632238941804E-03 
2178	 1.93089916661991E-03 
2179	 1.66356281928835E-03 
2180	 9.28954089681562E-04 
2181	 5.23034070037587E-04 
2182	-6.03622347077933E-04 
2183	-1.74896146759692E-03 
2184	-8.78733312216734E-04 
2185	-5.46196198324051E-04 
2186	-1.13626844094725E-03 
2187	-2.90253482321738E-03 
2188	-2.57511124130128E-03 
2189	-1.75960187745007E-03 
2190	-1.89782395890066E-03 
2191	-1.1072034629514E-03 
2192	-2.58654952183854E-04 
2193	-7.18824319018745E-04 
2194	-4.17315553869483E-04 
2195	 1.48207792554697E-03 
2196	 2.51970262068004E-03 
2197	 3.2004144275346E-03 
2198	 3.30378303098547E-03 
2199	 3.2793147346918E-03 
2200	 2.97825341352512E-03 
2201	 1.74449525969509E-03 
2202	 9.04211259834936E-04 
2203	 2.21214100263999E-03 
2204	 2.83931181728752E-03 
2205	 3.51069711133714E-03 
2206	 3.91462501967939E-03 
2207	 1.92775274526332E-03 
2208	 1.71216236605035E-03 
2209	 2.44758054566329E-03 
2210	 2.17723243307425E-03 
2211	 2.98891505112089E-03 
2212	 3.28051291886466E-03 
2213	 3.29042829989258E-03 
2214	 3.58282785165817E-03 
2215	 2.90234455496636E-03 
2216	 2.16651155587203E-03 
2217	 1.50616933730285E-03 
2218	 5.98698374946042E-05 
2219	-5.99711284912031E-04 
2220	-9.91186982054577E-04 
2221	-1.10545073457318E-03 
2222	-7.45407904331223E-04 
2223	-1.92895109204174E-04 
2224	 1.30297723146828E-03 
2225	 1.70593173988498E-03 
2226	 1.71089105741563E-03 
2227	 1.66476098741147E-03 
2228	 6.74302947675335E-04 
2229	 3.57865100829268E-04 
2230	 2.07703285708223E-04 
2231	 1.33570892668734E-04 
2232	 2.04405803600731E-04 
2233	 5.40719702488425E-04 
2234	 1.72482996571114E-03 
2235	 2.14039594369688E-03 
2236	 1.63231858505427E-03 
2237	 2.03555018294218E-03 
2238	 1.80863230897992E-03 
2239	 1.02673297085909E-03 
2240	 7.11568886375595E-04 
2241	 2.76589857331832E-04 
2242	-6.04460908150766E-04 
2243	 1.22430680044106E-03 
2244	 3.78727580290964E-03 
2245	 3.17682688023959E-03 
2246	 1.67376136512339E-03 
2247	 1.9356807135093E-04 
2248	-8.59751634933942E-04 
2249	-4.45652396462375E-04 
2250	 1.2797430103314E-03 
2251	 1.11074736445795E-03 
2252	-1.70903566071354E-03 
2253	-3.57042309112762E-03 
2254	-4.11669660706083E-03 
2255	-2.77277580455071E-03 
2256	 8.33957919592474E-04 
2257	 1.48798869807683E-03 
2258	 1.28539766882386E-04 
2259	-8.69290595003501E-04 
2260	-1.56117170993325E-03 
2261	-2.83016889954701E-03 
2262	-2.30255016305121E-03 
2263	-1.42512290877596E-04 
2264	-3.64881056180447E-04 
2265	-1.62785188089418E-03 
2266	-1.76008343905996E-03 
2267	-2.13554655731489E-03 
2268	-1.85567991859718E-03 
2269	-1.1560180038028E-04 
2270	-1.60554852177457E-04 
2271	-1.11117604179022E-03 
2272	-2.18035721854603E-03 
2273	-4.9917204013644E-03 
2274	-5.30566679677555E-03 
2275	-0.00388571547308 
2276	-2.96792767954952E-03 
2277	-9.94977374691368E-04 
2278	 8.10208144252907E-04 
2279	 2.15888860996945E-03 
2280	 2.02710512824601E-03 
2281	 1.37900148876037E-03 
2282	 2.09489394217257E-03 
2283	-4.9074286888273E-04 
2284	-1.43746070891842E-03 
2285	 3.0862545984126E-04 
2286	 1.61068395829558E-03 
2287	 1.82689053295631E-03 
2288	 9.59091576722751E-04 
2289	 3.86909031512073E-04 
2290	-1.33084631814432E-04 
2291	 5.84343909202573E-05 
2292	 2.82124130979705E-03 
2293	 3.6223346561638E-03 
2294	 2.5514309100949E-03 
2295	 2.5112978673307E-03 
2296	 2.51025676240975E-03 
2297	 1.18584529626335E-03 
2298	-1.09989979844914E-04 
2299	-3.23382074027108E-04 
2300	-3.66932895521989E-04 
2301	 1.34106871015787E-03 
2302	 7.27943643219295E-04 
2303	-1.56747690854069E-03 
2304	-7.6475935317622E-04 
2305	 4.61208252084206E-04 
2306	 4.71244706538292E-03 
2307	 1.19096842926075E-02 
2308	 1.24476245228962E-02 
2309	 0.010368649583067 
2310	 8.49053870112583E-03 
2311	 2.88194792876391E-03 
2312	 5.90197253530408E-04 
2313	-2.87602352312909E-03 
2314	-7.21736465750493E-03 
2315	-3.05038008957603E-03 
2316	 2.66083049160788E-03 
2317	 6.62908454837111E-03 
2318	 9.85529128903409E-03 
2319	 7.90263927783178E-03 
2320	 5.03637636912959E-04 
2321	-1.11890786705717E-03 
2322	 1.4775246527228E-05 
2323	-3.98745313213975E-03 
2324	-3.15059217749729E-03 
2325	-3.14243766656308E-03 
2326	-7.50530689628856E-03 
2327	-6.92276278069915E-03 
2328	-6.29284658765937E-03 
2329	-7.07065312754864E-03 
2330	-6.96836414614017E-03 
2331	-6.75542881441836E-03 
2332	-2.22150514454865E-03 
2333	 0.002337393305914 
2334	 1.32462666913001E-03 
2335	 1.71870437650356E-03 
2336	 3.2363976253673E-03 
2337	 3.48622899081315E-04 
2338	 1.60697574506555E-03 
2339	 1.29810220756363E-03 
2340	-6.9975229382789E-03 
2341	-1.27598396666741E-02 
2342	-1.65336148208365E-02 
2343	-9.96157074550008E-03 
2344	 2.28480058419425E-03 
2345	 5.49288072727501E-03 
2346	 2.49947689857384E-03 
2347	-7.11655685277546E-03 
2348	-1.52243334967833E-02 
2349	-1.06809328882184E-02 
2350	-7.96721838098081E-04 
2351	 1.17336900179583E-03 
2352	-1.56893319314104E-03 
2353	-9.20532201356309E-03 
2354	-0.014454354190754 
2355	-8.57676841585361E-03 
2356	-9.71495398054732E-03 
2357	-7.14253546237003E-03 
2358	 1.28513812347395E-03 
2359	 7.17413697843856E-03 
2360	 1.10546806656013E-02 
2361	 1.05115215240817E-02 
2362	 1.65761941058839E-02 
2363	 1.63338082246097E-02 
2364	 1.37655259705987E-02 
2365	 1.37883089981251E-02 
2366	 9.16360463158494E-04 
2367	-1.45011593570638E-02 
2368	-1.84874133412987E-02 
2369	-9.76835430205245E-03 
2370	-4.35893595120476E-03 
2371	-4.85521657747354E-03 
2372	-1.00543445044784E-02 
2373	-2.37195960753582E-02 
2374	-3.17787678271306E-02 
2375	-2.69183658109163E-02 
2376	-2.08603750509556E-02 
2377	-1.90257384444411E-02 
2378	-1.84609978711528E-02 
2379	-1.67112993889609E-02 
2380	-2.95314997125257E-02 
2381	-4.66082754050036E-02 
2382	-0.050165809654372 
2383	-7.98112519624731E-02 
2384	-8.64459667784272E-02 
2385	-5.77887364748847E-02 
2386	-5.08608493175312E-02 
2387	-4.11400815573988E-02 
2388	-2.13514181861504E-02 
2389	-1.96589997167522E-03 
2390	-1.42857687711086E-02 
2391	-0.023159005514883 
2392	-6.91798246629058E-03 
2393	-2.49166783527966E-02 
2394	-0.029853771837427 
2395	-9.85804845842969E-03 
2396	-1.18566275129855E-02 
2397	-1.21910990573827E-02 
2398	-0.01557744034219 
2399	-2.42108558140455E-02 
2400	-1.56707740333517E-02 
2401	-6.18714300345007E-03 
2402	 4.58422809242626E-03 
2403	 3.34873613440175E-02 
2404	 4.18371978532361E-02 
2405	 5.22612450141711E-02 
2406	 0.091340989669402 
2407	 0.078417220974169 
2408	 3.11259772084096E-02 
2409	 2.49902477568306E-02 
2410	 3.93029749165651E-02 
2411	 2.89099604535237E-02 
2412	 5.47172215495237E-02 
2413	 6.67321094419538E-02 
2414	-4.89456814631888E-02 
2415	-8.62085652111665E-02 
2416	-4.71526335813262E-02 
2417	-6.06865292792606E-02 
2418	-4.50557741056285E-02 
2419	-1.22592260153035E-02 
2420	 5.18370727509355E-02 
2421	 7.05906808156626E-02 
2422	 5.38070814632654E-02 
2423	 0.127132268830354 
2424	 0.111107935077257 
2425	 2.80075389700457E-02 
2426	 3.73508665965795E-02 
2427	 5.55385561822142E-02 
2428	 2.95072335799754E-03 
2429	 5.23646492761806E-02 
2430	 6.74798222437962E-02 
2431	-6.94571483174179E-02 
2432	 1.73459276427608E-02 
2433	 7.54974775957306E-02 
2434	 3.35515852076504E-02 
2435	 0.174210139889766 
2436	 7.88980098867749E-02 
2437	-6.35398435830774E-02 
2438	-1.27718573228792E-02 
2439	-7.61183533871417E-02 
2440	-0.119333850837273 
2441	-9.44043971073134E-02 
2442	-0.143465852685119 
2443	 9.40403857280386E-02 
2444	 0.253104864972662 
2445	 1.47627433482476E-02 
2446	-2.54341361787954E-02 
2447	-0.661982230674153 
2448	-1.09678792296775 
2449	-0.526074305411452 
2450	-0.412203562655714 
2451	-0.421955291196331 
2452	-1.48252409520802 
2453	-1.21621814438856 
2454	-0.663213964047278 
2455	-0.529496087166403 
2456	 0.185620781088904 
2457	-2.59264362642183E-02 
2458	-0.094235088459679 
2459	 0.128167130922461 
2460	 0.208101350072593 
2461	 0.273618246762114 
2462	 0.588378004327464 
2463	 0.595571625722079 
2464	 0.361780503105937 
2465	 0.135635766113554 
2466	-0.109986631097859 
2467	-0.101331454330417 
2468	-0.49058360509091 
2469	-0.499073455254666 
2470	-0.160736810203725 
2471	-0.29662300798455 
2472	-0.198020707857505 
2473	 0.198983013641438 
2474	 0.23308804285465 
2475	-1.55275366402144 
2476	 11.0809152438717 
2477	 2.55748800018274 
2478	-5.92559443908298 
2479	-3.58241239520182 
2480	 0.890744498771789 
2481	 0.780344868664529 
2482	-0.153225722377256 
2483	-0.219681010679266 
2484	 0.154037662191755 
2485	-0.376022277703685 
2486	-0.59501508749973 
2487	 5.26994360971431E-03 
2488	 35.9392334953214 
2489	 7.28456383619102 
2490	 4.79965446368861 
2491	 1.28079978131356 
2492	 1.02273756120865 
2493	-2.39810073090002 
2494	-0.784482059777072 
2495	-9.78607972144266E-02 
2496	-0.197044227830963 
2497	-0.176771669470386 
2498	-1.68285003760678 
2499	-4.47451928105006 
2500	 2.36051173939071 
