Wavelength	rt0716a00009.asd
350	 0.127384136460917 
351	 0.128038948484057 
352	 0.127934242162316 
353	 0.127538336254875 
354	 0.127528961801562 
355	 0.12859592134361 
356	 0.128930159043584 
357	 0.128900016834088 
358	 0.129275652519054 
359	 0.129364542230744 
360	 0.129332545790419 
361	 0.129601174621859 
362	 0.13053548004912 
363	 0.130448163720587 
364	 0.13010053617452 
365	 0.13010401833895 
366	 0.130369576542784 
367	 0.130812681105627 
368	 0.131335725572476 
369	 0.131722111121381 
370	 0.131299472820175 
371	 0.131105344993995 
372	 0.13130722922691 
373	 0.131497776613048 
374	 0.131306243767448 
375	 0.13111054503217 
376	 0.131201539855016 
377	 0.131618951928053 
378	 0.131694874213004 
379	 0.131517019602886 
380	 0.131365598634789 
381	 0.131471815958111 
382	 0.131529006639957 
383	 0.131361530856614 
384	 0.131022673325911 
385	 0.131513701456419 
386	 0.132030278319232 
387	 0.132139300894761 
388	 0.132013841860198 
389	 0.132163836288111 
390	 0.132219844273433 
391	 0.131949435919397 
392	 0.131890597795734 
393	 0.131588235849587 
394	 0.131304548143303 
395	 0.131389367196598 
396	 0.131247309832415 
397	 0.131116969218473 
398	 0.131200325941534 
399	 0.13157936493177 
400	 0.131403764880972 
401	 0.13111672442365 
402	 0.131071788264502 
403	 0.131003235918168 
404	 0.130698310174681 
405	 0.130328096552775 
406	 0.130174013968504 
407	 0.130227017233887 
408	 0.130130795701 
409	 0.129851137557017 
410	 0.129673699071837 
411	 0.129476908465834 
412	 0.1294008038467 
413	 0.12947272399404 
414	 0.12935973068868 
415	 0.129275718795604 
416	 0.129209475592325 
417	 0.129092938328899 
418	 0.129076655663231 
419	 0.129080299007379 
420	 0.129088955393982 
421	 0.129171193427855 
422	 0.129213635312618 
423	 0.129399370082449 
424	 0.129763603895286 
425	 0.129760283964876 
426	 0.129830484261374 
427	 0.130117922007459 
428	 0.130568516782575 
429	 0.130892998762336 
430	 0.131157689805944 
431	 0.131498979842292 
432	 0.132084124273083 
433	 0.132445340511455 
434	 0.132719699466141 
435	 0.133060043821835 
436	 0.13322647968322 
437	 0.133432201114857 
438	 0.133681144924848 
439	 0.133876035268195 
440	 0.134153240605437 
441	 0.134269469597095 
442	 0.134236518237588 
443	 0.134497335683608 
444	 0.134498524341218 
445	 0.134357927268191 
446	 0.134318499363356 
447	 0.134349360648259 
448	 0.134341437786795 
449	 0.134312192656424 
450	 0.134353976163953 
451	 0.134250448027827 
452	 0.134042961087865 
453	 0.133829448525205 
454	 0.133748445515568 
455	 0.133614576337867 
456	 0.1334337896621 
457	 0.133270797278284 
458	 0.133107096795993 
459	 0.132889226158812 
460	 0.132637059850798 
461	 0.132443317320858 
462	 0.132305751360411 
463	 0.132124378566764 
464	 0.131850549777385 
465	 0.131628956160311 
466	 0.131387665674527 
467	 0.131152459245078 
468	 0.130981612792183 
469	 0.130823655956507 
470	 0.130647703346537 
471	 0.130455456196666 
472	 0.130288778919202 
473	 0.130155824074592 
474	 0.130060583489535 
475	 0.129975254653717 
476	 0.129764505826027 
477	 0.129622124638156 
478	 0.129568644657895 
479	 0.129505680445144 
480	 0.129471700651014 
481	 0.12945844598191 
482	 0.129460657555295 
483	 0.129488202147071 
484	 0.129552869043963 
485	 0.129615715575801 
486	 0.129634352727009 
487	 0.12964038755883 
488	 0.129762681707089 
489	 0.129969269654011 
490	 0.130084778968981 
491	 0.130317674624775 
492	 0.130559087459399 
493	 0.130726670330688 
494	 0.130990851325287 
495	 0.131171981895027 
496	 0.131333025186271 
497	 0.131621975880687 
498	 0.131777888124308 
499	 0.131968648082467 
500	 0.132230135750831 
501	 0.132325725617776 
502	 0.132607080053112 
503	 0.1329234768687 
504	 0.133093547389368 
505	 0.133433782500714 
506	 0.133706288969139 
507	 0.133901874132626 
508	 0.134197494514805 
509	 0.13460583395461 
510	 0.134873438954852 
511	 0.134959281367168 
512	 0.135416778630539 
513	 0.135905157281739 
514	 0.136308523469368 
515	 0.136626313040794 
516	 0.137022177355048 
517	 0.137510136360791 
518	 0.138085429899401 
519	 0.138741398767804 
520	 0.139338931869822 
521	 0.139925931369151 
522	 0.140570023319063 
523	 0.141219120485253 
524	 0.141917532128358 
525	 0.142697550504904 
526	 0.143580468044832 
527	 0.144557082701175 
528	 0.145545940755764 
529	 0.146492411005153 
530	 0.147406271679719 
531	 0.148345440579449 
532	 0.149440205195615 
533	 0.150755734200371 
534	 0.151866587921543 
535	 0.153015813281267 
536	 0.154278877568773 
537	 0.155487088589099 
538	 0.156781506201809 
539	 0.158105822423202 
540	 0.159366385281451 
541	 0.160487495094352 
542	 0.161701829619034 
543	 0.163008673513791 
544	 0.164263448003592 
545	 0.165433419134563 
546	 0.166618288789151 
547	 0.1678619188398 
548	 0.169085450910169 
549	 0.17014861598081 
550	 0.171162618206753 
551	 0.172280546788349 
552	 0.173288163732165 
553	 0.174327194770987 
554	 0.175380682964745 
555	 0.176235467464286 
556	 0.177253234536798 
557	 0.178250337552336 
558	 0.179057180645012 
559	 0.180023401296234 
560	 0.181039371082473 
561	 0.18202320228509 
562	 0.182926796423219 
563	 0.18382911951294 
564	 0.18468250778595 
565	 0.185493318959528 
566	 0.186414395650092 
567	 0.187263213355062 
568	 0.18805331262755 
569	 0.188852505554306 
570	 0.189598933901484 
571	 0.190398420568066 
572	 0.191206631176898 
573	 0.191816031033047 
574	 0.192400853155411 
575	 0.193060723406357 
576	 0.193785102365424 
577	 0.194285199599023 
578	 0.194803683897002 
579	 0.195358537088135 
580	 0.195829348278175 
581	 0.196198816725434 
582	 0.196556392326297 
583	 0.196942384820056 
584	 0.1972823944439 
585	 0.197598248383891 
586	 0.197799427381432 
587	 0.197831749827216 
588	 0.198056076196306 
589	 0.198460699543739 
590	 0.198913502680792 
591	 0.199235982835633 
592	 0.199444609334512 
593	 0.19965582449667 
594	 0.199955392695958 
595	 0.200307781165334 
596	 0.200504257576606 
597	 0.200623253487652 
598	 0.200873978812906 
599	 0.200998939127925 
600	 0.201105926009073 
601	 0.201262202656964 
602	 0.201394554967452 
603	 0.201474164722587 
604	 0.201560955938636 
605	 0.201722530560677 
606	 0.201904445714775 
607	 0.202040697173993 
608	 0.202149902178399 
609	 0.202332065266586 
610	 0.202459646982128 
611	 0.202599401474621 
612	 0.202789042103018 
613	 0.20285045115038 
614	 0.202965796089997 
615	 0.203117924768903 
616	 0.203198340197366 
617	 0.20338800299749 
618	 0.203561144434485 
619	 0.203651667783236 
620	 0.203732665112488 
621	 0.203849277657991 
622	 0.203978310116058 
623	 0.204092250777078 
624	 0.204290643293181 
625	 0.204399565290319 
626	 0.204407075278765 
627	 0.204468672422299 
628	 0.204753997324477 
629	 0.204966423787604 
630	 0.204951499259152 
631	 0.20516929353435 
632	 0.205273823431335 
633	 0.205306787479298 
634	 0.205455897919604 
635	 0.205504681986343 
636	 0.205626110159492 
637	 0.205845532723589 
638	 0.205933393033168 
639	 0.205981696644413 
640	 0.206046371048229 
641	 0.206147711082254 
642	 0.206196307854749 
643	 0.206203562924496 
644	 0.206205817380046 
645	 0.206248766171788 
646	 0.206188596310093 
647	 0.206147974321859 
648	 0.206223096044302 
649	 0.206350033118932 
650	 0.206342594100836 
651	 0.206260510840799 
652	 0.206250712269273 
653	 0.206305290433474 
654	 0.206200661518137 
655	 0.205950546340136 
656	 0.205942935149742 
657	 0.205916419054591 
658	 0.205860354075322 
659	 0.205794829732915 
660	 0.205663716335924 
661	 0.205539361986971 
662	 0.205398080063146 
663	 0.20517850968981 
664	 0.205057368001518 
665	 0.204971433738027 
666	 0.204870481688548 
667	 0.204789978869443 
668	 0.204667513422131 
669	 0.204602070945583 
670	 0.204687285320011 
671	 0.204725518458359 
672	 0.20466585758684 
673	 0.204619783502148 
674	 0.204819480232147 
675	 0.204959286244645 
676	 0.205043325765355 
677	 0.205152352326676 
678	 0.205408669875293 
679	 0.205651631112946 
680	 0.20587849836124 
681	 0.20616034363635 
682	 0.206520643465143 
683	 0.206946617262483 
684	 0.207374329916019 
685	 0.207711161643569 
686	 0.20812156107608 
687	 0.208589728413572 
688	 0.209026850558587 
689	 0.209440808499349 
690	 0.209882380262585 
691	 0.210327437336578 
692	 0.210717870345955 
693	 0.211152935441623 
694	 0.211523232991112 
695	 0.21180525350012 
696	 0.212188853638396 
697	 0.212446210937521 
698	 0.212547173978742 
699	 0.212561369205676 
700	 0.212823815846287 
701	 0.2130184234548 
702	 0.213092837097307 
703	 0.213225962761216 
704	 0.21330255998137 
705	 0.213307791901325 
706	 0.213302709216712 
707	 0.213508765599919 
708	 0.213532081091916 
709	 0.213398986711019 
710	 0.213278195619023 
711	 0.213150310344143 
712	 0.213015886324152 
713	 0.212833766347697 
714	 0.212516121225742 
715	 0.212187873699479 
716	 0.211834748810025 
717	 0.211432572659157 
718	 0.21091645564784 
719	 0.210473842383403 
720	 0.210167060480503 
721	 0.209878858776436 
722	 0.209479544411081 
723	 0.208921852486807 
724	 0.208333934301848 
725	 0.207908548256716 
726	 0.20741009057628 
727	 0.206676276676375 
728	 0.205703971307648 
729	 0.204863923896468 
730	 0.203904269513782 
731	 0.202915933865705 
732	 0.202044962581062 
733	 0.201197098603477 
734	 0.200428369292309 
735	 0.199841576116834 
736	 0.199567882068077 
737	 0.199154163185666 
738	 0.198745422126872 
739	 0.19854120302018 
740	 0.198411884227485 
741	 0.198435289007508 
742	 0.198488209966519 
743	 0.198398129668933 
744	 0.198479086420753 
745	 0.1985741152683 
746	 0.1985921862381 
747	 0.198594912852238 
748	 0.19859018850956 
749	 0.198617443109771 
750	 0.19870904294588 
751	 0.198869014290192 
752	 0.198971799395568 
753	 0.199024256695823 
754	 0.199105834604106 
755	 0.19919149538401 
756	 0.199361384431209 
757	 0.199564403602704 
758	 0.199514177291173 
759	 0.198927037474527 
760	 0.198407192269545 
761	 0.198993861250537 
762	 0.199035775249579 
763	 0.198966554188885 
764	 0.199190870586934 
765	 0.199813200622217 
766	 0.200120650847124 
767	 0.200258709959215 
768	 0.200396141772186 
769	 0.200696885148535 
770	 0.200862624025906 
771	 0.200963602886361 
772	 0.201100824856659 
773	 0.201235326931215 
774	 0.201454017070136 
775	 0.201717405322482 
776	 0.201938772350112 
777	 0.202101238222871 
778	 0.202382137007437 
779	 0.202724315932616 
780	 0.202849388369234 
781	 0.203104924296086 
782	 0.203377698094665 
783	 0.203578710028487 
784	 0.203865095005406 
785	 0.204201328283259 
786	 0.204529635917836 
787	 0.204801947827914 
788	 0.205110982978049 
789	 0.205312114327324 
790	 0.205441262847988 
791	 0.205678051711327 
792	 0.205944591158993 
793	 0.206234556118057 
794	 0.206524294447827 
795	 0.206737585244802 
796	 0.206903846978185 
797	 0.207168603627807 
798	 0.207578637201801 
799	 0.207722605034986 
800	 0.20779721341719 
801	 0.207951244241256 
802	 0.208249043201836 
803	 0.208387615107422 
804	 0.208563819076027 
805	 0.208731675884109 
806	 0.208567736179754 
807	 0.208705505415914 
808	 0.208808971252826 
809	 0.208647242089056 
810	 0.208811636748661 
811	 0.208682766550868 
812	 0.208469826818187 
813	 0.208579332543698 
814	 0.20820307262057 
815	 0.20778513622726 
816	 0.207520882101692 
817	 0.207290438638487 
818	 0.207054452792933 
819	 0.206846693514446 
820	 0.20650688594892 
821	 0.205619329757298 
822	 0.204745025070856 
823	 0.204111026899322 
824	 0.203589295647186 
825	 0.202492271449654 
826	 0.201466172869059 
827	 0.200375601126471 
828	 0.198978768876682 
829	 0.197765947386414 
830	 0.196539105176209 
831	 0.19540235914234 
832	 0.194661064153544 
833	 0.193766487970088 
834	 0.193044566672315 
835	 0.192657322620514 
836	 0.192434436281654 
837	 0.191986007718776 
838	 0.191584144121692 
839	 0.191409987222915 
840	 0.191007981201134 
841	 0.190734805684846 
842	 0.190438764450392 
843	 0.189922741867355 
844	 0.189647856318164 
845	 0.189449957765072 
846	 0.189258759883778 
847	 0.189072719309071 
848	 0.188764925002004 
849	 0.188549577783165 
850	 0.188434123388227 
851	 0.188123156490287 
852	 0.187611191848296 
853	 0.187303905565403 
854	 0.187317009892047 
855	 0.18697259571055 
856	 0.18675985309998 
857	 0.186587069697719 
858	 0.18629859151538 
859	 0.186114121443182 
860	 0.185780587100696 
861	 0.185487769965955 
862	 0.185513446278192 
863	 0.185236299184984 
864	 0.184930418805643 
865	 0.184671777362688 
866	 0.184338408865851 
867	 0.184291059175559 
868	 0.184194670514337 
869	 0.183899316139004 
870	 0.1836143207594 
871	 0.183192783483509 
872	 0.182815734164913 
873	 0.182534049096349 
874	 0.181940616113414 
875	 0.181657585907744 
876	 0.181601505401802 
877	 0.1813908113194 
878	 0.180453360828158 
879	 0.17981352854795 
880	 0.179522501672784 
881	 0.179187105625873 
882	 0.179028209770583 
883	 0.178531832029109 
884	 0.177868551833079 
885	 0.17767058252962 
886	 0.177626669164852 
887	 0.177336101114061 
888	 0.176820797293452 
889	 0.176547820789985 
890	 0.17596276745904 
891	 0.175441711948025 
892	 0.175329687669742 
893	 0.175582680542469 
894	 0.175146684753185 
895	 0.174461773812012 
896	 0.17412335072964 
897	 0.173538783793349 
898	 0.172667192334539 
899	 0.172189444768621 
900	 0.172416992267892 
901	 0.171693379209995 
902	 0.171259461882006 
903	 0.171220282860763 
904	 0.171132435126249 
905	 0.170212971442926 
906	 0.169563417691994 
907	 0.169268580195276 
908	 0.16868745804592 
909	 0.168184651737273 
910	 0.168129432840643 
911	 0.167763544195135 
912	 0.165798386066659 
913	 0.165451009857451 
914	 0.165353891828363 
915	 0.16419584700256 
916	 0.161827885513442 
917	 0.161276669739487 
918	 0.160962774040641 
919	 0.159903473666837 
920	 0.158792413906422 
921	 0.157775823611579 
922	 0.156706233363018 
923	 0.155600195961119 
924	 0.154997769480951 
925	 0.153914543104381 
926	 0.152914848708308 
927	 0.152211211101903 
928	 0.148372559733829 
929	 0.14816188791988 
930	 0.148979109330888 
931	 0.143345653400541 
932	 0.140521747232871 
933	 0.139815137839685 
934	 0.138330214928615 
935	 0.134221218869228 
936	 0.133706988622097 
937	 0.132494122819658 
938	 0.130339695575321 
939	 0.128541621430035 
940	 0.128455829907922 
941	 0.1286782947722 
942	 0.128118969403135 
943	 0.125875055263144 
944	 0.12096819551908 
945	 0.121683093543219 
946	 0.123208499901547 
947	 0.115939641411396 
948	 0.110172290392071 
949	 0.112043301480319 
950	 0.115122220475855 
951	 0.109483703128777 
952	 0.109853193983215 
953	 0.111734391372613 
954	 0.110387237399709 
955	 0.104282523123361 
956	 0.104432271688339 
957	 0.103570224875602 
958	 0.101881846294595 
959	 0.10411355480217 
960	 0.102762487778576 
961	 0.102799745241511 
962	 0.103191098105559 
963	 9.97394667570005E-02 
964	 0.100043151728887 
965	 0.100754472512972 
966	 0.100818533165827 
967	 0.101193199658022 
968	 9.97969013795386E-02 
969	 9.97832283749788E-02 
970	 0.100767084510827 
971	 9.95948755005284E-02 
972	 0.099166215405332 
973	 0.100201729599646 
974	 0.101335512321739 
975	 0.100023193149979 
976	 9.89605616664425E-02 
977	 9.95632403368944E-02 
978	 0.100354450231155 
979	 9.84838460557354E-02 
980	 9.79306351231432E-02 
981	 9.96141645909367E-02 
982	 0.101280990512347 
983	 0.099611733035173 
984	 9.96878248425716E-02 
985	 0.100400802673109 
986	 0.10067200511743 
987	 0.100227143769786 
988	 0.100560416650057 
989	 0.100916923045679 
990	 0.101239914986596 
991	 0.101920148301937 
992	 0.101393512311113 
993	 0.102878528623083 
994	 0.104014756948916 
995	 0.10053645959127 
996	 0.102184653315888 
997	 0.103187793231171 
998	 0.102823523529161 
999	 0.103559175664756 
1000	 0.10246316043449 
1001	 0.10852950263358 
1002	 0.108933830053821 
1003	 0.109353835543106 
1004	 0.10979247207736 
1005	 0.110249356911714 
1006	 0.110761887673269 
1007	 0.111142352323864 
1008	 0.111478626267783 
1009	 0.112013024726528 
1010	 0.112461531056102 
1011	 0.11283826920731 
1012	 0.113156362469814 
1013	 0.113443027444672 
1014	 0.113783945289366 
1015	 0.113950451042606 
1016	 0.114429995992057 
1017	 0.115164026152401 
1018	 0.115811930002794 
1019	 0.116677125217059 
1020	 0.117322450221399 
1021	 0.117803511455494 
1022	 0.118323103645844 
1023	 0.118807779160405 
1024	 0.119602172317597 
1025	 0.120429282647612 
1026	 0.12096939584386 
1027	 0.121550350995021 
1028	 0.121952019509097 
1029	 0.122580540375118 
1030	 0.123321240651633 
1031	 0.123957757563761 
1032	 0.124609656642258 
1033	 0.125312868739023 
1034	 0.12599771636352 
1035	 0.126721842507379 
1036	 0.12750738193666 
1037	 0.128321864768266 
1038	 0.129374162679416 
1039	 0.129954992990258 
1040	 0.130375038719463 
1041	 0.131068019304734 
1042	 0.131607581992545 
1043	 0.131895179049039 
1044	 0.13238348741657 
1045	 0.132896823750872 
1046	 0.13360208039588 
1047	 0.134399559678712 
1048	 0.135217357684653 
1049	 0.136500271912837 
1050	 0.137268146556662 
1051	 0.137889246160303 
1052	 0.138241645747492 
1053	 0.137808278945438 
1054	 0.138056031574073 
1055	 0.138366078210511 
1056	 0.13888317461688 
1057	 0.139672310754564 
1058	 0.141302606460497 
1059	 0.141803135583898 
1060	 0.142000105592349 
1061	 0.142120377951821 
1062	 0.141508621277316 
1063	 0.141535948857581 
1064	 0.141864624564312 
1065	 0.142049442750886 
1066	 0.142424764903137 
1067	 0.142612960443813 
1068	 0.142726397294541 
1069	 0.142741321647651 
1070	 0.142452251054247 
1071	 0.142438749285144 
1072	 0.142528993004391 
1073	 0.142645786858075 
1074	 0.142597956346292 
1075	 0.142704246802263 
1076	 0.142601886891878 
1077	 0.142159533101047 
1078	 0.141910261707949 
1079	 0.141959147904202 
1080	 0.141509644478019 
1081	 0.140683699668337 
1082	 0.140114220883795 
1083	 0.139112871388928 
1084	 0.138621192110145 
1085	 0.138970382504664 
1086	 0.138604333754025 
1087	 0.137781459851225 
1088	 0.13734718534573 
1089	 0.136765490135301 
1090	 0.13614823261237 
1091	 0.135708534091308 
1092	 0.135880591333881 
1093	 0.135421723519813 
1094	 0.134517372128156 
1095	 0.133818773308121 
1096	 0.13295499831804 
1097	 0.132366499611433 
1098	 0.132031753815747 
1099	 0.131360748572596 
1100	 0.130632364608675 
1101	 0.12993430257361 
1102	 0.128745797496721 
1103	 0.128123713252789 
1104	 0.128171424237697 
1105	 0.127791718516562 
1106	 0.12747457255098 
1107	 0.127204513526716 
1108	 0.126149820229652 
1109	 0.125683004833502 
1110	 0.125274047557666 
1111	 0.125082122941251 
1112	 0.124565022887182 
1113	 0.123898324912723 
1114	 0.123459418422648 
1115	 0.123452859205987 
1116	 0.122965817712734 
1117	 0.121654312396144 
1118	 0.121758514984978 
1119	 0.123801592916738 
1120	 0.122984501577733 
1121	 0.120042521235005 
1122	 0.121448670011196 
1123	 0.121186047457774 
1124	 0.115857698540846 
1125	 0.114954944965282 
1126	 0.11506491609285 
1127	 0.108242862490401 
1128	 0.106021014333086 
1129	 0.105370542716433 
1130	 0.108811735792468 
1131	 0.106706644052054 
1132	 0.102912771823515 
1133	 0.101648394091256 
1134	 0.100269665196291 
1135	 0.099370258818116 
1136	 0.100059823906489 
1137	 9.90066700508943E-02 
1138	 9.67578012897207E-02 
1139	 9.43755619933963E-02 
1140	 9.30393572826476E-02 
1141	 9.39058353677728E-02 
1142	 9.38504232986936E-02 
1143	 9.42325044783315E-02 
1144	 0.094603810947298 
1145	 9.13253664456163E-02 
1146	 8.95977535553617E-02 
1147	 9.05974148610482E-02 
1148	 8.81161139431941E-02 
1149	 8.61995077452947E-02 
1150	 8.54938379495016E-02 
1151	 8.46322673486218E-02 
1152	 8.34324755735761E-02 
1153	 8.37505274245656E-02 
1154	 8.34898559876369E-02 
1155	 8.28322442077508E-02 
1156	 0.081681568144189 
1157	 8.20285013250531E-02 
1158	 8.19001057817553E-02 
1159	 8.12887386474561E-02 
1160	 8.16538518947887E-02 
1161	 8.17492053788532E-02 
1162	 8.14295579744948E-02 
1163	 8.14045549236056E-02 
1164	 8.13017237532472E-02 
1165	 0.08119441505348 
1166	 8.10218538118143E-02 
1167	 8.10817240724725E-02 
1168	 0.081318430862913 
1169	 8.11130556315015E-02 
1170	 8.08503380406962E-02 
1171	 8.07918287867284E-02 
1172	 8.09039581686069E-02 
1173	 8.06726916220395E-02 
1174	 8.02970202007711E-02 
1175	 8.01342133086938E-02 
1176	 8.02301469601736E-02 
1177	 8.03486286297022E-02 
1178	 8.06095134646084E-02 
1179	 8.09635659881522E-02 
1180	 8.10259603530567E-02 
1181	 8.06951304305216E-02 
1182	 8.02828026107121E-02 
1183	 8.01146927059637E-02 
1184	 7.99443051898379E-02 
1185	 0.079709432651743 
1186	 7.98865771102173E-02 
1187	 8.01267106855114E-02 
1188	 7.99975633404147E-02 
1189	 0.080067735655816 
1190	 8.00721580242458E-02 
1191	 7.96875623654853E-02 
1192	 7.96244701510816E-02 
1193	 7.97297773462962E-02 
1194	 7.98417879130989E-02 
1195	 7.97504267248743E-02 
1196	 7.97924856785606E-02 
1197	 7.97277617320243E-02 
1198	 7.94209414140205E-02 
1199	 7.93202204070151E-02 
1200	 7.96218138157598E-02 
1201	 7.96479125241001E-02 
1202	 0.079478931225014 
1203	 7.96312843462118E-02 
1204	 7.95159149278393E-02 
1205	 7.94692643389343E-02 
1206	 7.95820660691588E-02 
1207	 7.92953039459901E-02 
1208	 0.079254002513521 
1209	 7.94424651842537E-02 
1210	 7.94622320142875E-02 
1211	 7.95390848696532E-02 
1212	 7.98890439663519E-02 
1213	 7.99502483602158E-02 
1214	 7.99014856309376E-02 
1215	 7.97581815041242E-02 
1216	 8.00601944976235E-02 
1217	 7.98740596067972E-02 
1218	 7.95573574320665E-02 
1219	 7.99878692080531E-02 
1220	 0.080244210799369 
1221	 8.02232374691895E-02 
1222	 8.03397028352828E-02 
1223	 8.02252094616607E-02 
1224	 7.99915803407494E-02 
1225	 8.00814560409307E-02 
1226	 8.04565227838671E-02 
1227	 8.06524512126305E-02 
1228	 8.05565286168587E-02 
1229	 8.04536752134212E-02 
1230	 8.03557420404537E-02 
1231	 8.03235824608676E-02 
1232	 8.04511235660202E-02 
1233	 8.05888998505889E-02 
1234	 8.07352568092817E-02 
1235	 8.08143829982737E-02 
1236	 8.08822584537928E-02 
1237	 8.09381585624012E-02 
1238	 8.09525301035171E-02 
1239	 8.08843223426286E-02 
1240	 8.10341510693502E-02 
1241	 8.13067166634911E-02 
1242	 8.12846329781551E-02 
1243	 8.13619244811693E-02 
1244	 8.16277782435964E-02 
1245	 8.17650838316628E-02 
1246	 8.19093990939491E-02 
1247	 8.20471591792793E-02 
1248	 8.17206372948401E-02 
1249	 8.11836625644685E-02 
1250	 0.081118515952963 
1251	 8.13889650617608E-02 
1252	 0.081906133501911 
1253	 8.24187657069876E-02 
1254	 8.22952270198885E-02 
1255	 8.19848462873102E-02 
1256	 8.19391831360598E-02 
1257	 8.17223604832141E-02 
1258	 8.16315434415636E-02 
1259	 8.18611463830155E-02 
1260	 8.19949108327946E-02 
1261	 8.21108471995901E-02 
1262	 8.20421429542823E-02 
1263	 0.081937724158748 
1264	 8.19425990760362E-02 
1265	 8.18691908072179E-02 
1266	 0.081517897569607 
1267	 0.081433432924621 
1268	 8.15920726772234E-02 
1269	 8.15444503199425E-02 
1270	 8.13900636533682E-02 
1271	 8.13539643301295E-02 
1272	 0.081413021760142 
1273	 8.14197756978345E-02 
1274	 8.14947380820962E-02 
1275	 0.081615959698115 
1276	 8.14227390781545E-02 
1277	 8.10823121129958E-02 
1278	 8.10480575519166E-02 
1279	 8.10301448838088E-02 
1280	 8.08393437219414E-02 
1281	 8.07324318082817E-02 
1282	 8.06310890151435E-02 
1283	 8.04774394632489E-02 
1284	 0.080307252143126 
1285	 8.01965394196781E-02 
1286	 8.00814891950332E-02 
1287	 7.99468057268023E-02 
1288	 7.98321848564371E-02 
1289	 7.97624575116586E-02 
1290	 7.97591254684298E-02 
1291	 7.95745577080594E-02 
1292	 7.95646830021288E-02 
1293	 7.95720526456515E-02 
1294	 7.91579503811328E-02 
1295	 7.87165194611951E-02 
1296	 7.84651373658355E-02 
1297	 7.82692410113683E-02 
1298	 7.82609002119395E-02 
1299	 7.80750698264419E-02 
1300	 7.77214147992299E-02 
1301	 7.74180016181869E-02 
1302	 7.70042338144449E-02 
1303	 7.68020598488808E-02 
1304	 0.07695308710775 
1305	 0.076919824854648 
1306	 7.66171018580561E-02 
1307	 7.63151260432718E-02 
1308	 7.60697956546294E-02 
1309	 7.53141374222348E-02 
1310	 7.48022233043794E-02 
1311	 7.47113537241151E-02 
1312	 7.44320204534122E-02 
1313	 7.39746786252249E-02 
1314	 7.33868797503035E-02 
1315	 7.26096514312513E-02 
1316	 7.23851464989794E-02 
1317	 7.25614943747303E-02 
1318	 7.21858499796954E-02 
1319	 7.17850259687098E-02 
1320	 7.15875123801844E-02 
1321	 7.08413736644546E-02 
1322	 7.04743057150662E-02 
1323	 7.09461124871909E-02 
1324	 7.08370262855298E-02 
1325	 6.99394977289502E-02 
1326	 6.93508077107621E-02 
1327	 6.88026031282719E-02 
1328	 6.82372604376995E-02 
1329	 6.80426787837707E-02 
1330	 6.81917496522711E-02 
1331	 0.068382994936051 
1332	 6.82779424007809E-02 
1333	 6.76882914681017E-02 
1334	 6.66537052241208E-02 
1335	 6.60945829309214E-02 
1336	 6.57596798083818E-02 
1337	 6.52419980060897E-02 
1338	 6.49003372020171E-02 
1339	 0.064927013564532 
1340	 6.50208910701465E-02 
1341	 6.46665228453564E-02 
1342	 6.46812425412419E-02 
1343	 6.42744920477219E-02 
1344	 6.21619188455433E-02 
1345	 0.061379658174613 
1346	 0.062685643779788 
1347	 6.22958533284867E-02 
1348	 6.06134897812167E-02 
1349	 5.99553803607743E-02 
1350	 5.64835574363655E-02 
1351	 5.39216692819102E-02 
1352	 6.15080201707327E-02 
1353	 6.61891218691611E-02 
1354	 7.31972925592409E-02 
1355	 7.08964039747246E-02 
1356	 7.38257491187464E-02 
1357	 7.69865756833665E-02 
1358	 9.73197204955997E-02 
1359	 0.184940388292096 
1360	 0.207982844459081 
1361	 8.67049548108268E-02 
1362	 5.78071751364779E-02 
1363	 0.189043944821848 
1364	 0.252464986111001 
1365	 0.234449192214456 
1366	 0.334126511368574 
1367	 0.366273454933537 
1368	 0.24005883018666 
1369	 7.97929328872223E-02 
1370	 0.191467991664882 
1371	 0.373874030867418 
1372	 0.320612968636639 
1373	 0.432442643800313 
1374	 0.609133882516864 
1375	 0.434471905934705 
1376	 0.291773702885935 
1377	 0.374371306126863 
1378	 0.452675538395964 
1379	 0.173495023587449 
1380	 8.78032020712693E-02 
1381	 0.321983745260915 
1382	 0.416419909039825 
1383	 0.171230106782593 
1384	 0.150323556760917 
1385	 0.424183130640197 
1386	 0.423061682522318 
1387	 0.200822847296929 
1388	 0.167333779581631 
1389	 5.48223823926483E-02 
1390	 0.021232828554444 
1391	 0.106795725258885 
1392	 0.330717424500011 
1393	 0.605425196118395 
1394	 0.399156941358928 
1395	 7.74675578820758E-02 
1396	-1.23840288575391E-02 
1397	 0.018521284576408 
1398	 0.171047069457697 
1399	 0.328361708095722 
1400	 0.230118366401138 
1401	 0.310786430430313 
1402	 0.314635311962663 
1403	 0.15239933100745 
1404	 0.415225678227647 
1405	 0.399550274795384 
1406	 0.115631530226301 
1407	-3.46160322017905E-04 
1408	-1.84789502991739E-02 
1409	 3.49958279096567E-02 
1410	 7.82140041598061E-02 
1411	 8.02621746409951E-02 
1412	 0.219874286593999 
1413	 0.176287678575085 
1414	-7.68625319069474E-02 
1415	-6.61322976542274E-02 
1416	 2.10440486810953E-02 
1417	 3.56687350731683E-02 
1418	 0.12001871542559 
1419	 0.130638291052742 
1420	 7.80867676770723E-02 
1421	 6.65330051309031E-02 
1422	 7.92785307793758E-02 
1423	 6.78282268212343E-02 
1424	 4.35287086349208E-02 
1425	 3.88078738072104E-02 
1426	 0.035649056491041 
1427	 2.70353572523667E-02 
1428	 2.00081929659322E-02 
1429	 0.021635223401562 
1430	 2.57732201661325E-02 
1431	 2.59053656532395E-02 
1432	 2.94733466491569E-02 
1433	 3.22913218052333E-02 
1434	 3.00279195900253E-02 
1435	 2.65125694812423E-02 
1436	 1.73101145153269E-02 
1437	 0.026665007719453 
1438	 4.61591697105179E-02 
1439	 4.68155007269074E-02 
1440	 2.80347153234239E-02 
1441	 1.89724201815087E-02 
1442	 1.30658495636906E-02 
1443	 6.59774089332064E-03 
1444	 1.79799665541963E-02 
1445	 2.95428708915975E-02 
1446	 3.00201009741381E-02 
1447	 2.89629453196362E-02 
1448	 2.66312721226185E-02 
1449	 2.54170691070211E-02 
1450	 2.59353507010724E-02 
1451	 2.53325907964156E-02 
1452	 2.41325683161692E-02 
1453	 2.32262508921357E-02 
1454	 0.022022268730043 
1455	 1.96060195397657E-02 
1456	 0.018769438798048 
1457	 1.83675529073899E-02 
1458	 1.84203633207592E-02 
1459	 1.94718137835606E-02 
1460	 1.90687393462555E-02 
1461	 1.81777528855067E-02 
1462	 1.75692256506702E-02 
1463	 1.53142153816425E-02 
1464	 0.015647004280409 
1465	 1.87243839767594E-02 
1466	 1.92641998035805E-02 
1467	 1.97531219467969E-02 
1468	 2.02368235257736E-02 
1469	 0.019946091732571 
1470	 1.81241690410171E-02 
1471	 1.33027604974455E-02 
1472	 1.52297881994689E-02 
1473	 2.08270326883483E-02 
1474	 0.020923384601558 
1475	 2.23100324244449E-02 
1476	 2.34632057247793E-02 
1477	 2.07051626420419E-02 
1478	 1.95955731480416E-02 
1479	 2.11151426032837E-02 
1480	 2.18244995562566E-02 
1481	 0.020566393751582 
1482	 0.020173416064247 
1483	 2.13765841391352E-02 
1484	 2.19075119302669E-02 
1485	 2.20384239823123E-02 
1486	 2.16394665322062E-02 
1487	 2.06618005313101E-02 
1488	 0.02078966253362 
1489	 2.11541930909034E-02 
1490	 2.11639790717742E-02 
1491	 2.14698796005081E-02 
1492	 2.19049497020634E-02 
1493	 2.23316808396749E-02 
1494	 2.22203020598908E-02 
1495	 2.19177912309978E-02 
1496	 2.20350059456871E-02 
1497	 0.021981370758858 
1498	 2.18814834429969E-02 
1499	 2.21138637967083E-02 
1500	 2.23638730625558E-02 
1501	 2.23438458144475E-02 
1502	 2.25040339770884E-02 
1503	 2.30627515252675E-02 
1504	 2.32610076539023E-02 
1505	 2.31880817580106E-02 
1506	 2.32715125722269E-02 
1507	 2.31523802211318E-02 
1508	 2.35009443435282E-02 
1509	 2.42269691912416E-02 
1510	 2.44501542373336E-02 
1511	 2.45096024256823E-02 
1512	 2.48409445849398E-02 
1513	 2.51229448729818E-02 
1514	 2.51744969096055E-02 
1515	 2.53533019911825E-02 
1516	 2.56930177139416E-02 
1517	 2.57542222543232E-02 
1518	 2.58329975140564E-02 
1519	 2.61900569518222E-02 
1520	 2.64056151776765E-02 
1521	 2.65843252898244E-02 
1522	 2.68641886514585E-02 
1523	 2.71603623102056E-02 
1524	 0.027335663740756 
1525	 2.74487334430153E-02 
1526	 2.78387512587906E-02 
1527	 2.80456867810999E-02 
1528	 2.81891263084023E-02 
1529	 2.86744636488876E-02 
1530	 2.88487331904433E-02 
1531	 2.87868979006285E-02 
1532	 2.89341944947987E-02 
1533	 2.92020104055682E-02 
1534	 2.95127892041595E-02 
1535	 0.029795921084009 
1536	 2.99744571004345E-02 
1537	 2.99883089683259E-02 
1538	 3.01197858130911E-02 
1539	 3.05403333639966E-02 
1540	 3.09821564739075E-02 
1541	 0.03125773390394 
1542	 3.12994643215216E-02 
1543	 3.15077009976283E-02 
1544	 3.19479594105418E-02 
1545	 3.21198222375781E-02 
1546	 3.22951518777881E-02 
1547	 3.26138200128015E-02 
1548	 3.26766779792674E-02 
1549	 3.25817047017761E-02 
1550	 3.28094606040961E-02 
1551	 3.32638296684502E-02 
1552	 3.33931364316684E-02 
1553	 3.35608379311866E-02 
1554	 3.39996071439891E-02 
1555	 3.42185010777648E-02 
1556	 3.43752655000052E-02 
1557	 3.46458929398925E-02 
1558	 3.48759340865683E-02 
1559	 3.49446534720167E-02 
1560	 3.48475797823948E-02 
1561	 3.49669500602579E-02 
1562	 3.53482428416316E-02 
1563	 3.57205261915334E-02 
1564	 3.60955652595355E-02 
1565	 3.64598459304402E-02 
1566	 0.036565729039691 
1567	 3.65354222526537E-02 
1568	 3.66906705552269E-02 
1569	 3.69015655395329E-02 
1570	 3.72505926530312E-02 
1571	 3.77149685519778E-02 
1572	 3.78387328511983E-02 
1573	 3.77976938915993E-02 
1574	 3.80170183414615E-02 
1575	 3.81366189544235E-02 
1576	 0.038144551036756 
1577	 3.84531197437295E-02 
1578	 3.87760774568108E-02 
1579	 3.88644190955808E-02 
1580	 3.90166710934285E-02 
1581	 3.93991821473606E-02 
1582	 3.95463729511706E-02 
1583	 3.95133213254793E-02 
1584	 3.97606620969459E-02 
1585	 4.00551551723035E-02 
1586	 4.03064477220389E-02 
1587	 4.04577725796051E-02 
1588	 4.02483817908347E-02 
1589	 4.00311159194262E-02 
1590	 4.00450878866907E-02 
1591	 4.02193573820503E-02 
1592	 4.07189414174084E-02 
1593	 4.12378331032511E-02 
1594	 4.13441068092436E-02 
1595	 0.04123718343289 
1596	 4.13089324813402E-02 
1597	 4.15422408947962E-02 
1598	 4.17249778337597E-02 
1599	 4.18939552865348E-02 
1600	 4.20655321676003E-02 
1601	 4.22185844553604E-02 
1602	 4.20929967392094E-02 
1603	 0.041782889680933 
1604	 4.21167679843094E-02 
1605	 4.25709217743676E-02 
1606	 4.25641528231703E-02 
1607	 4.26158628811711E-02 
1608	 4.26443408779914E-02 
1609	 4.25484906948282E-02 
1610	 4.25960863733845E-02 
1611	 4.30608654435236E-02 
1612	 4.33079377306964E-02 
1613	 4.29940252427509E-02 
1614	 4.29832411102308E-02 
1615	 4.32328616248143E-02 
1616	 4.33051463446681E-02 
1617	 4.34013602385331E-02 
1618	 4.35108479958919E-02 
1619	 4.34409903177724E-02 
1620	 4.35153526660965E-02 
1621	 4.39283635123688E-02 
1622	 4.40570015951912E-02 
1623	 4.37866770674028E-02 
1624	 4.38783834589752E-02 
1625	 4.43261122141707E-02 
1626	 4.43944122681938E-02 
1627	 4.41950946366213E-02 
1628	 4.43054159041345E-02 
1629	 4.45009923441616E-02 
1630	 4.46011880921124E-02 
1631	 4.48046835370495E-02 
1632	 4.47972130676253E-02 
1633	 4.46501696201448E-02 
1634	 4.47779821542957E-02 
1635	 0.04511235537777 
1636	 4.54186127229581E-02 
1637	 4.52518410869096E-02 
1638	 4.50802590137132E-02 
1639	 4.53757780741948E-02 
1640	 4.53751625200479E-02 
1641	 4.53409570564666E-02 
1642	 4.54245258712146E-02 
1643	 4.51845616508755E-02 
1644	 4.53422531379991E-02 
1645	 4.57313237020142E-02 
1646	 4.56310732522831E-02 
1647	 4.55269585710864E-02 
1648	 4.57955319696327E-02 
1649	 4.58652300185327E-02 
1650	 4.56411787647258E-02 
1651	 4.57820780424664E-02 
1652	 4.60070969013918E-02 
1653	 4.59674718460228E-02 
1654	 4.60322919447358E-02 
1655	 4.59283290239427E-02 
1656	 4.59573945587708E-02 
1657	 4.61629775578326E-02 
1658	 4.63398865955336E-02 
1659	 4.66494100150785E-02 
1660	 4.67476295772419E-02 
1661	 4.67353504094647E-02 
1662	 4.66832124784819E-02 
1663	 4.63728918038956E-02 
1664	 4.62952495275982E-02 
1665	 4.64137290802583E-02 
1666	 4.65833910194055E-02 
1667	 4.68632340463976E-02 
1668	 4.68629823262143E-02 
1669	 0.04686365873049 
1670	 4.66786004385425E-02 
1671	 4.66169315763898E-02 
1672	 0.046809333376194 
1673	 4.67751258389726E-02 
1674	 0.046557102805219 
1675	 4.65291531548283E-02 
1676	 4.67486862946381E-02 
1677	 0.046769852042504 
1678	 4.65175091354995E-02 
1679	 4.67529678595173E-02 
1680	 4.70547703113356E-02 
1681	 0.046916134033109 
1682	 4.71256617530705E-02 
1683	 4.74278227119474E-02 
1684	 4.70303843774993E-02 
1685	 4.66942763343141E-02 
1686	 4.70153404778622E-02 
1687	 4.70218203222094E-02 
1688	 4.67110647873502E-02 
1689	 4.70123140556523E-02 
1690	 4.75804097290115E-02 
1691	 4.77114364896927E-02 
1692	 4.74294867199441E-02 
1693	 4.71162253272551E-02 
1694	 4.68513861139025E-02 
1695	 4.66510215784819E-02 
1696	 4.69742077787883E-02 
1697	 4.74393256271896E-02 
1698	 4.71301418022713E-02 
1699	 4.66764355212073E-02 
1700	 4.67234536050127E-02 
1701	 0.046671375471594 
1702	 4.64487493803504E-02 
1703	 4.63462297546637E-02 
1704	 4.64517854186034E-02 
1705	 4.67183050369183E-02 
1706	 4.66380548469511E-02 
1707	 4.62955105528935E-02 
1708	 4.58427141340553E-02 
1709	 4.54411250689542E-02 
1710	 4.58041569443899E-02 
1711	 4.62076243461841E-02 
1712	 4.61471093446541E-02 
1713	 4.62228455658583E-02 
1714	 4.60263815292317E-02 
1715	 4.58469754090143E-02 
1716	 4.57260546479904E-02 
1717	 4.55176660300002E-02 
1718	 4.53997361531599E-02 
1719	 0.045418430719635 
1720	 4.52008662533907E-02 
1721	 4.47599667131995E-02 
1722	 4.47961339270775E-02 
1723	 0.045061243359606 
1724	 4.54267179113461E-02 
1725	 4.55128561843015E-02 
1726	 4.53204195751925E-02 
1727	 4.52552190858864E-02 
1728	 4.49660698015001E-02 
1729	 0.044744269819666 
1730	 4.46176877400382E-02 
1731	 4.48075550544646E-02 
1732	 4.50051866607304E-02 
1733	 0.044477018713263 
1734	 4.38756851774433E-02 
1735	 4.31533259483225E-02 
1736	 4.26470685964595E-02 
1737	 4.36557715971516E-02 
1738	 0.044425380727514 
1739	 4.37450662143985E-02 
1740	 4.31571964414941E-02 
1741	 4.25082540471844E-02 
1742	 4.23141553997914E-02 
1743	 4.31291936349104E-02 
1744	 4.34108678326062E-02 
1745	 4.29313004662584E-02 
1746	 4.21518471915402E-02 
1747	 4.19587448354388E-02 
1748	 4.22360646037161E-02 
1749	 4.21645296126009E-02 
1750	 4.24610063010671E-02 
1751	 4.23926862947025E-02 
1752	 4.15913794825406E-02 
1753	 4.14704144950031E-02 
1754	 4.15561051792098E-02 
1755	 4.12731191726976E-02 
1756	 4.14147157779171E-02 
1757	 4.12146863260797E-02 
1758	 4.02293020122559E-02 
1759	 3.96112995014194E-02 
1760	 3.96067401637949E-02 
1761	 3.92042167910069E-02 
1762	 3.88767096175396E-02 
1763	 0.039800446029293 
1764	 3.95808905333982E-02 
1765	 3.87578277813414E-02 
1766	 0.039988490495988 
1767	 3.98731778761016E-02 
1768	 3.90692126914232E-02 
1769	 4.00331502820302E-02 
1770	 3.94388636492292E-02 
1771	 3.89444899530669E-02 
1772	 3.99627330475863E-02 
1773	 3.90584852129554E-02 
1774	 3.81971471753557E-02 
1775	 3.80249475642671E-02 
1776	 3.74027919781617E-02 
1777	 3.79639598552565E-02 
1778	 3.80682378592088E-02 
1779	 3.64505965147237E-02 
1780	 3.64798287877905E-02 
1781	 3.89709293052425E-02 
1782	 3.82840548042029E-02 
1783	 3.55424645960044E-02 
1784	 3.52032794305704E-02 
1785	 3.32627382719266E-02 
1786	 3.36072330868375E-02 
1787	 3.88740169510443E-02 
1788	 4.01737057211012E-02 
1789	 3.99703959180056E-02 
1790	 3.88456481277144E-02 
1791	 3.62684634772983E-02 
1792	 3.37836548585605E-02 
1793	 2.95340623246808E-02 
1794	 3.04229470330459E-02 
1795	 3.77441430312682E-02 
1796	 4.23854271658157E-02 
1797	 4.46565945177629E-02 
1798	 4.28947919285543E-02 
1799	 3.26643606317904E-02 
1800	 0.03709643153083 
1801	 3.89876656135281E-02 
1802	 4.26890666148406E-02 
1803	 4.40379903560481E-02 
1804	 0.036992115675506 
1805	 2.75705983436985E-02 
1806	 1.29807699517257E-02 
1807	 7.80184660627091E-03 
1808	-2.80837597424518E-03 
1809	 5.65446068319663E-03 
1810	 9.72378460095645E-02 
1811	 0.154451965456441 
1812	 0.185376406775976 
1813	 0.177760290723106 
1814	 1.25017054805796E-02 
1815	-4.59651585413578E-02 
1816	-0.170925750729239 
1817	 1.41610954554657E-02 
1818	 0.277638685187845 
1819	 0.45653638206438 
1820	 0.477139953006755 
1821	 0.41176837704981 
1822	 0.163313280711967 
1823	 3.05312192817288E-02 
1824	-9.62359042888445E-03 
1825	-0.189309019426409 
1826	-0.220362516241567 
1827	 2.34970689979131E-02 
1828	 0.761217438085845 
1829	 2.14060213478058 
1830	 1.48190635217589 
1831	 1.8185818438051 
1832	 1.08070129743415 
1833	 0.410999134392192 
1834	 0.269892368696046 
1835	 1.62104905074616E-02 
1836	-3.09470479933838E-02 
1837	 5.95256324851685E-02 
1838	 0.200720861123606 
1839	 0.843110056106279 
1840	 1.36121015348447 
1841	 10.2332754455797 
1842	-1.17630835135648 
1843	-1.01698487530816 
1844	-0.945295959888477 
1845	-0.399552581649603 
1846	-0.340159314627118 
1847	-0.368440176701475 
1848	-0.781583798352254 
1849	-2.7490110546588 
1850	-2.95657155638015 
1851	 9.31736821601223 
1852	 3.67101080378264 
1853	-19.9251404487992 
1854	 120.872779977114 
1855	 3.52896968878695 
1856	 2.37279289778241 
1857	 1.32395709628017 
1858	 1.31959978080591 
1859	 1.90074105567001 
1860	-77.7495728610554 
1861	-20.8563036857381 
1862	-1.08257097685777 
1863	-1.12121589249398 
1864	-5.83721287861366 
1865	-2.27421225565952 
1866	-0.394817528127614 
1867	-0.158917659254013 
1868	 0.989072273292834 
1869	 1.32448031096333 
1870	 2.45190014500976 
1871	 1.44205552264688 
1872	 0.171755068929787 
1873	-6.01511515521893E-02 
1874	-0.377929270807702 
1875	-0.533906453597513 
1876	-1.18417437815056 
1877	 0.277157573092631 
1878	 0.186058468902897 
1879	 0.162293894087511 
1880	-0.108818509594207 
1881	-0.446043707355048 
1882	-0.50273231060838 
1883	-1.40560995747578 
1884	 5.07231893505489E-02 
1885	-0.266439923298251 
1886	-0.36618482034588 
1887	-0.917207849007947 
1888	-0.995374207167998 
1889	-1.20715207455925 
1890	-2.00055309217004 
1891	-2.0954354118167 
1892	-1.41701920802998 
1893	-0.752922020049418 
1894	-0.260008748778127 
1895	-2.83775503571233 
1896	-2.25138866843729 
1897	-2.81388138400571 
1898	-1.8583855055706 
1899	 13.8985128872277 
1900	 2.47738804857971 
1901	 0.851998214047586 
1902	 1.08023354657635 
1903	 1.74874426772674 
1904	 2.48832080332567 
1905	 7.35810739882907 
1906	 1.49056148251354 
1907	 0.829083303266322 
1908	 1.11356550275516 
1909	 6.2628733766088 
1910	-0.616551378626958 
1911	-0.117836307599329 
1912	 1.23135319782128 
1913	-6.67441421925013 
1914	-0.580534036486364 
1915	-0.401277528639837 
1916	-0.447993980473567 
1917	-0.26412036710408 
1918	-0.886039146140522 
1919	-2.8547616526789 
1920	-3.71713634795356 
1921	 3.37140345161336 
1922	 3.45358002242673 
1923	-105.168954662998 
1924	 8.18396157700583 
1925	 3.74345308391571 
1926	 2.44968640607815 
1927	 0.298380900177804 
1928	 55.8874563492206 
1929	-60.3287906415808 
1930	 20.5512997315906 
1931	-61.8609096701064 
1932	-0.211926451374413 
1933	 0.20972469142915 
1934	 0.434832337059802 
1935	 0.730616330359619 
1936	 0.806554081170852 
1937	 0.364034891620349 
1938	 0.114934459566259 
1939	 2.95661024419653E-02 
1940	-1.56215192684545E-03 
1941	 9.17100966269196E-03 
1942	 0.15151788806045 
1943	 0.142402090414563 
1944	 0.106269971609522 
1945	 0.112236797540655 
1946	 3.49454068387245E-02 
1947	 2.64105940055501E-02 
1948	 7.79852899767926E-02 
1949	 5.91779348958709E-02 
1950	 3.06406592309613E-02 
1951	 1.71182542635078E-02 
1952	 1.39403469969268E-02 
1953	 1.44162066955394E-03 
1954	 1.76851667733978E-02 
1955	 0.023857341541308 
1956	 1.97566314447673E-02 
1957	 1.86197650707028E-02 
1958	 1.26745382023243E-02 
1959	 9.34877411695987E-03 
1960	 1.00581485889101E-02 
1961	 7.91380991462501E-03 
1962	 5.07843688376666E-03 
1963	 4.7958321283041E-03 
1964	 5.3273279015193E-03 
1965	 8.45982537328201E-03 
1966	 9.25654864693518E-03 
1967	 9.48799201632898E-03 
1968	 9.22545631651844E-03 
1969	 1.00130474600667E-02 
1970	 8.97485058211005E-03 
1971	 7.67521706338653E-03 
1972	 5.81664212051989E-03 
1973	 3.76747435841897E-03 
1974	 4.6156989458716E-03 
1975	 3.7332643216182E-03 
1976	 1.93825906764931E-03 
1977	 4.69789280650463E-03 
1978	 4.58824308697742E-03 
1979	 4.54279946199724E-03 
1980	 4.24780221232218E-03 
1981	 8.12536781895032E-03 
1982	 7.89258807747153E-03 
1983	 7.31354730876912E-03 
1984	 8.3073416627653E-03 
1985	 6.70677574550543E-03 
1986	 6.03592470460864E-03 
1987	 6.72137645166101E-03 
1988	 6.81955474523249E-03 
1989	 6.89431984310723E-03 
1990	 7.11923860157331E-03 
1991	 6.88724008129026E-03 
1992	 6.71779483812252E-03 
1993	 7.21524077991719E-03 
1994	 6.98826761671791E-03 
1995	 6.25331985566571E-03 
1996	 4.58520476038065E-03 
1997	 4.59638533222288E-03 
1998	 5.99804181079961E-03 
1999	 7.23928417557412E-03 
2000	 8.53224517205265E-03 
2001	 8.18234592098445E-03 
2002	 7.85997577423216E-03 
2003	 8.92939247309194E-03 
2004	 1.04643255420729E-02 
2005	 1.03528438385434E-02 
2006	 5.49537087863527E-03 
2007	 4.56222592611497E-03 
2008	 7.99566147726805E-03 
2009	 8.56040678519182E-03 
2010	 1.14120700146301E-02 
2011	 1.12138096732657E-02 
2012	 7.65873025393392E-03 
2013	 4.75739274875683E-03 
2014	 3.9040841272355E-03 
2015	 6.63769367565952E-03 
2016	 8.85004069521691E-03 
2017	 8.2505792312855E-03 
2018	 7.58413998530656E-03 
2019	 8.94089160862449E-03 
2020	 1.01801451184861E-02 
2021	 9.58289327882916E-03 
2022	 9.71733354525634E-03 
2023	 9.20640799718627E-03 
2024	 8.66960857283913E-03 
2025	 8.19531006810208E-03 
2026	 8.13410687698397E-03 
2027	 8.11239524923003E-03 
2028	 7.55671088138769E-03 
2029	 8.18307813700516E-03 
2030	 8.56068552227375E-03 
2031	 8.25059034080046E-03 
2032	 8.99323870615401E-03 
2033	 9.92880786432936E-03 
2034	 9.90377823524094E-03 
2035	 1.01774566576723E-02 
2036	 1.03554066659397E-02 
2037	 9.93010188783591E-03 
2038	 9.74362607112051E-03 
2039	 9.64884051344857E-03 
2040	 9.93414760128931E-03 
2041	 9.75594556676812E-03 
2042	 8.90135707213708E-03 
2043	 9.26617487482128E-03 
2044	 1.02689735026632E-02 
2045	 1.13606924849948E-02 
2046	 1.20840594379863E-02 
2047	 1.12339636025475E-02 
2048	 1.01237531758447E-02 
2049	 9.18589734225254E-03 
2050	 8.4003922552257E-03 
2051	 9.86732159260284E-03 
2052	 1.07207961096057E-02 
2053	 1.07703744402596E-02 
2054	 1.24891539519632E-02 
2055	 1.27282082228045E-02 
2056	 1.30915604998283E-02 
2057	 1.36716343825921E-02 
2058	 1.37728631791318E-02 
2059	 0.012737225623698 
2060	 0.012635981193102 
2061	 0.012689028787316 
2062	 1.25672518180159E-02 
2063	 0.013259311500994 
2064	 1.51965696158519E-02 
2065	 1.67373197642387E-02 
2066	 1.64857109189868E-02 
2067	 0.015345803629773 
2068	 1.47474138710818E-02 
2069	 1.48378939433186E-02 
2070	 1.43788948478877E-02 
2071	 1.32618978796163E-02 
2072	 1.25397958354861E-02 
2073	 1.20813296451845E-02 
2074	 1.06028392846887E-02 
2075	 1.08535256377825E-02 
2076	 1.32136886060383E-02 
2077	 1.38216550924477E-02 
2078	 1.38157939760964E-02 
2079	 1.42171200775813E-02 
2080	 1.45441059659668E-02 
2081	 1.41867961800531E-02 
2082	 1.44748303360951E-02 
2083	 1.55175022779362E-02 
2084	 1.58185232828528E-02 
2085	 1.52788191698878E-02 
2086	 1.41828210998928E-02 
2087	 1.35718827173888E-02 
2088	 0.014116032045203 
2089	 1.45011888201801E-02 
2090	 1.46954167607802E-02 
2091	 1.54282970523867E-02 
2092	 1.59519195165245E-02 
2093	 1.60258169638905E-02 
2094	 1.57362314335013E-02 
2095	 1.53310668434376E-02 
2096	 1.56137134278243E-02 
2097	 1.57259328655785E-02 
2098	 1.60240325847748E-02 
2099	 1.76855193862058E-02 
2100	 1.75849015332097E-02 
2101	 1.66486755868901E-02 
2102	 1.60693168641337E-02 
2103	 1.59184991979457E-02 
2104	 1.64258277276499E-02 
2105	 1.74951665024872E-02 
2106	 1.75550308980754E-02 
2107	 1.68251239000114E-02 
2108	 1.68512023648581E-02 
2109	 1.68378887241419E-02 
2110	 0.016494537944036 
2111	 1.66293067878774E-02 
2112	 1.75815759752819E-02 
2113	 1.81657310255653E-02 
2114	 1.86743424617492E-02 
2115	 1.91656951227798E-02 
2116	 1.99940415405616E-02 
2117	 2.00818439883786E-02 
2118	 1.94397839278225E-02 
2119	 1.91631674206726E-02 
2120	 1.88098518037736E-02 
2121	 1.84291741980088E-02 
2122	 1.76328237439231E-02 
2123	 1.86780587269419E-02 
2124	 1.96168287104826E-02 
2125	 1.88681797752435E-02 
2126	 1.85305029469836E-02 
2127	 1.86722171678531E-02 
2128	 1.90305314250989E-02 
2129	 1.97051950184611E-02 
2130	 1.98766163032491E-02 
2131	 1.91584150315212E-02 
2132	 1.83756642221428E-02 
2133	 1.82961187889797E-02 
2134	 0.018594548948625 
2135	 2.04991785812127E-02 
2136	 2.07569443705755E-02 
2137	 2.01326622569436E-02 
2138	 1.98333620785888E-02 
2139	 1.87105017340255E-02 
2140	 1.83235144334088E-02 
2141	 1.89760367201118E-02 
2142	 1.90095298748748E-02 
2143	 1.88045150735116E-02 
2144	 1.84210782310359E-02 
2145	 1.92002857993302E-02 
2146	 0.019427185631699 
2147	 1.96330501253821E-02 
2148	 2.06785806965884E-02 
2149	 2.07115649279066E-02 
2150	 2.11874597014118E-02 
2151	 2.13054736626791E-02 
2152	 2.10976734010878E-02 
2153	 0.022167780102974 
2154	 2.14246467138301E-02 
2155	 2.03604004290207E-02 
2156	 2.12389983544428E-02 
2157	 2.16388711573235E-02 
2158	 2.12294973090661E-02 
2159	 2.13749162827079E-02 
2160	 2.31419275388691E-02 
2161	 2.33001834569931E-02 
2162	 2.16837728122524E-02 
2163	 2.16443355041363E-02 
2164	 2.21840229324338E-02 
2165	 2.19209649768647E-02 
2166	 2.20434923458378E-02 
2167	 2.24483572940613E-02 
2168	 2.23799312227203E-02 
2169	 2.22281366249567E-02 
2170	 2.25951728453528E-02 
2171	 2.24028989574875E-02 
2172	 2.15290127464463E-02 
2173	 2.08329121733574E-02 
2174	 2.02970477277958E-02 
2175	 2.02587461601458E-02 
2176	 2.04458338419961E-02 
2177	 2.10239621514561E-02 
2178	 2.13176610481556E-02 
2179	 2.04517324845112E-02 
2180	 1.99493214878064E-02 
2181	 0.019980414176059 
2182	 1.97049603987892E-02 
2183	 2.07844324956142E-02 
2184	 2.23076492268613E-02 
2185	 2.18916731671988E-02 
2186	 2.20771428378669E-02 
2187	 2.24201038934795E-02 
2188	 0.022888949170865 
2189	 2.34958433482592E-02 
2190	 2.37442544544797E-02 
2191	 2.38546805782111E-02 
2192	 0.023496958955286 
2193	 2.21613499688647E-02 
2194	 2.20178597127513E-02 
2195	 2.29547292963481E-02 
2196	 2.25996966949752E-02 
2197	 2.17117955275412E-02 
2198	 2.10976804636067E-02 
2199	 1.93692938451626E-02 
2200	 1.89792214158161E-02 
2201	 0.019147471832029 
2202	 1.92865028715413E-02 
2203	 0.020522722269996 
2204	 2.21043470854852E-02 
2205	 2.23413090278795E-02 
2206	 2.29176849996431E-02 
2207	 2.28993572684361E-02 
2208	 2.11300286271104E-02 
2209	 2.05829273928306E-02 
2210	 2.16745180546853E-02 
2211	 2.28505451036572E-02 
2212	 2.33045076123183E-02 
2213	 2.30284927871626E-02 
2214	 2.20852255498503E-02 
2215	 2.09761648372148E-02 
2216	 2.03578237961731E-02 
2217	 0.01964228360079 
2218	 1.96340850765998E-02 
2219	 1.92867808486291E-02 
2220	 1.79890451427577E-02 
2221	 1.80486353745501E-02 
2222	 0.018890173834621 
2223	 0.020200257487831 
2224	 2.29553798367814E-02 
2225	 2.34170473899057E-02 
2226	 2.38677966323677E-02 
2227	 2.32697955008112E-02 
2228	 1.96694945374024E-02 
2229	 1.89978267982665E-02 
2230	 1.95840097019937E-02 
2231	 1.94455036106276E-02 
2232	 2.03542795442494E-02 
2233	 2.08657634662903E-02 
2234	 2.08174714879726E-02 
2235	 2.08707107257164E-02 
2236	 2.10504505001504E-02 
2237	 2.08997393517373E-02 
2238	 1.99415435726551E-02 
2239	 1.88852169499276E-02 
2240	 0.020032732178725 
2241	 2.16736376010836E-02 
2242	 2.19423495844291E-02 
2243	 2.11848809347239E-02 
2244	 2.04520452064649E-02 
2245	 2.07845342993816E-02 
2246	 2.23210272565598E-02 
2247	 2.44693361429714E-02 
2248	 2.45885778642817E-02 
2249	 0.022249152439459 
2250	 2.18476511109089E-02 
2251	 2.38937819480282E-02 
2252	 2.47179908639754E-02 
2253	 0.0232120174226 
2254	 2.10771709478145E-02 
2255	 1.98876965972725E-02 
2256	 1.94146179307679E-02 
2257	 2.01125647663406E-02 
2258	 2.02774959354899E-02 
2259	 0.018841496677923 
2260	 1.89954363462644E-02 
2261	 1.97716533797576E-02 
2262	 1.97010634584423E-02 
2263	 0.020780992501826 
2264	 2.10464801382883E-02 
2265	 2.02825940419822E-02 
2266	 2.02294634326248E-02 
2267	 1.98864463941104E-02 
2268	 1.93959365093233E-02 
2269	 1.85526449001932E-02 
2270	 0.017757295308948 
2271	 1.75209913833342E-02 
2272	 1.79051203295605E-02 
2273	 1.79533802280851E-02 
2274	 1.80213487208488E-02 
2275	 0.019114142825569 
2276	 1.99594614904742E-02 
2277	 2.01086344697729E-02 
2278	 2.13968232865927E-02 
2279	 2.53224077164523E-02 
2280	 2.47394490596923E-02 
2281	 2.09757257207508E-02 
2282	 1.99467650397161E-02 
2283	 1.78957138498778E-02 
2284	 1.54174699572208E-02 
2285	 1.93963436021562E-02 
2286	 2.23395582689175E-02 
2287	 0.022096598449459 
2288	 2.35302125922363E-02 
2289	 2.28916872399995E-02 
2290	 2.02359603680553E-02 
2291	 2.00863710281126E-02 
2292	 0.01929987880695 
2293	 1.78146625201794E-02 
2294	 1.94643505580493E-02 
2295	 2.02617721765554E-02 
2296	 0.021015639309161 
2297	 2.17280825004067E-02 
2298	 2.12856935514162E-02 
2299	 2.03121730055381E-02 
2300	 0.01669735226892 
2301	 1.82020787012743E-02 
2302	 2.14315123473801E-02 
2303	 2.19325511286887E-02 
2304	 2.40688125042124E-02 
2305	 1.95380891544559E-02 
2306	 0.011275026811125 
2307	 7.76289963478421E-03 
2308	 7.46249398355335E-03 
2309	 9.69109949076901E-03 
2310	 1.40146884587876E-02 
2311	 1.48978104931729E-02 
2312	 0.011405187200173 
2313	 1.10084090830884E-02 
2314	 9.77536530025204E-03 
2315	 7.12404550414405E-03 
2316	 6.9741068963265E-03 
2317	 5.34542884882882E-03 
2318	 7.51525407846588E-03 
2319	 1.32067541541524E-02 
2320	 1.59438599871648E-02 
2321	 1.64431832657765E-02 
2322	 1.66943996548967E-02 
2323	 0.017770624412537 
2324	 1.94000168436373E-02 
2325	 1.72011492261939E-02 
2326	 0.012114024016469 
2327	 1.27320963002152E-02 
2328	 1.52999705427397E-02 
2329	 0.014614101380595 
2330	 1.25619152156184E-02 
2331	 8.1061250601771E-03 
2332	 3.59123728063935E-03 
2333	 5.94867745555175E-03 
2334	 1.23004844683579E-02 
2335	 1.15644251417614E-02 
2336	 5.09444933945901E-03 
2337	 4.49741520511067E-03 
2338	 6.78557985637371E-03 
2339	 7.54152747017206E-03 
2340	 1.14106036192481E-02 
2341	 1.08971573268346E-02 
2342	 5.54305054258333E-03 
2343	 6.78629000547373E-03 
2344	 1.06365559300233E-02 
2345	 6.84083473768798E-03 
2346	 6.90799858684194E-03 
2347	 1.09846370337179E-02 
2348	 6.35955794705304E-03 
2349	 2.10206059023056E-04 
2350	 3.7184006658836E-03 
2351	 1.01299962322385E-02 
2352	 8.05701516606924E-03 
2353	 1.00526502616888E-02 
2354	 1.15381238410024E-02 
2355	 3.43951518136327E-03 
2356	-6.69820683170213E-03 
2357	-1.11024615619583E-02 
2358	-3.52178383073599E-03 
2359	 1.03324806228318E-02 
2360	 2.34480272446712E-02 
2361	 0.032107643965678 
2362	 2.89293142104692E-02 
2363	 3.17078493965328E-03 
2364	-7.39561497245124E-03 
2365	 1.54325653084303E-03 
2366	-6.64440896597247E-03 
2367	 3.57175117586933E-04 
2368	 5.30289443097146E-03 
2369	-1.16449348206311E-02 
2370	-2.50903677465863E-03 
2371	-3.94788000665183E-04 
2372	-1.64338010615132E-02 
2373	 1.85096938440206E-03 
2374	 1.54067266587651E-02 
2375	 9.80162005099528E-03 
2376	 3.06122540328429E-02 
2377	 2.69955764920815E-02 
2378	-8.1673391546635E-03 
2379	-1.40603534575103E-02 
2380	-2.01615603348653E-02 
2381	-3.43980946301702E-02 
2382	-2.53443568186744E-02 
2383	-1.42411202662235E-02 
2384	-3.92219830594983E-02 
2385	-5.29992525107097E-02 
2386	-2.44390464921232E-02 
2387	-2.19243101422837E-02 
2388	-1.48081127143245E-02 
2389	 3.18834392446214E-02 
2390	 4.66531780015859E-02 
2391	 4.30825900388493E-02 
2392	 6.19730679943423E-02 
2393	 5.04900887675596E-02 
2394	 1.28254030298353E-02 
2395	-1.65795436923587E-02 
2396	-3.91685668483697E-02 
2397	-2.46103210039037E-02 
2398	-1.49507424693527E-02 
2399	-3.50840167501352E-02 
2400	-2.39388637808256E-02 
2401	-2.82225958913654E-02 
2402	-5.86720625822342E-02 
2403	-2.49042589388222E-02 
2404	 7.43336938576199E-03 
2405	-2.51930678515315E-03 
2406	-2.17076012922569E-02 
2407	-5.56883574013151E-02 
2408	-9.44461188573583E-02 
2409	-0.142297494093772 
2410	-0.124085074576545 
2411	-8.70718179525214E-02 
2412	-8.05088779688645E-02 
2413	-3.86016434850537E-02 
2414	-5.87257480070215E-02 
2415	-9.97552646269576E-02 
2416	-0.124280719288873 
2417	-0.186155110155784 
2418	-0.178304732596618 
2419	-9.41425207571245E-02 
2420	-0.104390985197635 
2421	-5.47630383577871E-02 
2422	 1.16117903730646E-02 
2423	-0.063123018114631 
2424	-5.70198458283747E-02 
2425	-5.01887306073863E-02 
2426	-5.85617569729666E-02 
2427	-1.55716392113277E-02 
2428	-4.78756627108631E-02 
2429	-6.46463809036643E-03 
2430	-1.23358354937797E-02 
2431	-8.69588421811616E-02 
2432	-0.06863988398908 
2433	-0.116072719802536 
2434	-0.119561341488491 
2435	-0.134718710602533 
2436	-0.171507539537617 
2437	-0.163831361910719 
2438	-0.190221548435964 
2439	-9.43930457043584E-02 
2440	 5.08765476662093E-02 
2441	 0.170021641709059 
2442	 0.172798753896514 
2443	-0.175485846710545 
2444	-0.387450026053574 
2445	-0.587499269435333 
2446	-0.967574862903641 
2447	-1.29122736370656 
2448	-1.4627276932405 
2449	-1.17868348446373 
2450	-0.928191059196713 
2451	-0.290271631369524 
2452	-0.553760607078391 
2453	-1.44886240898171 
2454	-0.705258958412735 
2455	-0.583047701416484 
2456	 0.342855558597632 
2457	 0.625551714705776 
2458	 0.604555858222749 
2459	 0.338325703266829 
2460	-8.25272840947658E-03 
2461	-0.193169590790983 
2462	-0.421801288701348 
2463	-0.358097636370332 
2464	-0.088865010846029 
2465	 5.08188983709439E-02 
2466	-9.81205695841116E-02 
2467	-0.328612588716564 
2468	-0.730021191887056 
2469	-0.720816988978898 
2470	-0.388276657787452 
2471	 0.253482912931755 
2472	 0.188450616650893 
2473	 0.196039301833272 
2474	 0.787412496343471 
2475	 0.202984854807979 
2476	 0.578374153580256 
2477	-1.02289587230111 
2478	 1.18509425440552 
2479	 0.109630257401813 
2480	-0.214509484935964 
2481	-0.135210028473762 
2482	-0.217011896001777 
2483	-0.144697370938531 
2484	 5.53383377017694E-02 
2485	 0.918194201318841 
2486	 1.69325123568045 
2487	 0.206107951675658 
2488	 19.1552162829016 
2489	 6.5357869667743 
2490	 6.11182980830823 
2491	-6.68752987309986E-02 
2492	-0.362768181115126 
2493	 3.02931803506645 
2494	 0.75031655249687 
2495	 0.467681105812 
2496	 0.665375635021262 
2497	-9.78177379675921 
2498	 0.295138601893593 
2499	 2.48047277699211 
2500	-1.40444320518289 
