Wavelength	rt0716a200006.asd
350	 9.98989986397302E-02 
351	 0.100892285969468 
352	 0.100937445673881 
353	 0.100483058679496 
354	 0.100340101228016 
355	 0.101286447577078 
356	 0.101489282143081 
357	 0.101173280151281 
358	 0.10109519883436 
359	 0.101178764858093 
360	 0.101507108428555 
361	 0.102004247674803 
362	 0.102458776010655 
363	 0.102438590565357 
364	 0.102311700909944 
365	 0.102278748475727 
366	 0.102133583931397 
367	 0.101984230023302 
368	 0.102147123651374 
369	 0.102605503104392 
370	 0.101997258391764 
371	 0.101764704737517 
372	 0.102137304676427 
373	 0.102535185238028 
374	 0.102306213751214 
375	 0.102207769362197 
376	 0.102570534203142 
377	 0.102937131455062 
378	 0.102569777520511 
379	 0.102215718542904 
380	 0.102527803197831 
381	 0.102703375799752 
382	 0.103093083183513 
383	 0.103331920999368 
384	 0.102933778337541 
385	 0.102948469913633 
386	 0.102750534797217 
387	 0.102394361599464 
388	 0.102764466200191 
389	 0.102993493315907 
390	 0.10305969451271 
391	 0.103082787976694 
392	 0.103119139469734 
393	 0.102766567643806 
394	 0.10260209194307 
395	 0.103145878529671 
396	 0.102779495991089 
397	 0.102309374339884 
398	 0.102207856148031 
399	 0.102476038831597 
400	 0.102090763467151 
401	 0.101833534701231 
402	 0.102089741964149 
403	 0.101751320736026 
404	 0.10149986209364 
405	 0.101366926744315 
406	 0.101201859401051 
407	 0.101239701286681 
408	 0.101217810893729 
409	 0.10100817511025 
410	 0.100656624543263 
411	 0.100421571299424 
412	 0.100367687707766 
413	 0.100444042261248 
414	 0.100474942652993 
415	 0.100277253593455 
416	 0.100039166359874 
417	 0.100026846882743 
418	 9.99276489871156E-02 
419	 9.98981673450116E-02 
420	 9.99458223920693E-02 
421	 9.98950244748308E-02 
422	 9.99245449938818E-02 
423	 0.100055415048689 
424	 0.100223670074812 
425	 0.100197813144971 
426	 0.100442802166929 
427	 0.100799620056723 
428	 0.100896989073181 
429	 0.101230205134105 
430	 0.101521207545587 
431	 0.101724785332769 
432	 0.10214250658813 
433	 0.102358251421159 
434	 0.102519460410071 
435	 0.102801513008282 
436	 0.103095089984844 
437	 0.103289042924238 
438	 0.103469259828751 
439	 0.103780512536302 
440	 0.103873352524842 
441	 0.103873877431232 
442	 0.103914021403985 
443	 0.104059802322176 
444	 0.104065311090458 
445	 0.10401392125848 
446	 0.104032435698637 
447	 0.104040020192708 
448	 0.10398451748573 
449	 0.103895755803836 
450	 0.103859975764583 
451	 0.103879850895468 
452	 0.10381782477523 
453	 0.103619439747395 
454	 0.103425556723194 
455	 0.103288893236098 
456	 0.103221428554589 
457	 0.103182730013153 
458	 0.103011498710634 
459	 0.1027738937525 
460	 0.102563071753305 
461	 0.102474046760178 
462	 0.102295219318124 
463	 0.102075534429504 
464	 0.101892590620504 
465	 0.101754191570973 
466	 0.101605261168167 
467	 0.101448454704457 
468	 0.101308376330433 
469	 0.10114157550991 
470	 0.100968426157813 
471	 0.100789799371558 
472	 0.100572949459759 
473	 0.100469305026411 
474	 0.100446747978114 
475	 0.100427019257938 
476	 0.100373999052009 
477	 0.100272273312926 
478	 0.100140928850723 
479	 0.100027662855784 
480	 9.99958391743251E-02 
481	 0.10008533186506 
482	 0.100259444397563 
483	 0.100341164313316 
484	 0.100401351682696 
485	 0.10049038322101 
486	 0.100622386007839 
487	 0.100634315352323 
488	 0.100705581416732 
489	 0.100868230920801 
490	 0.101002117719645 
491	 0.101209109900843 
492	 0.101491122498171 
493	 0.101786228027194 
494	 0.10190441388522 
495	 0.102098181076892 
496	 0.102382785884231 
497	 0.102660873504989 
498	 0.103016941045917 
499	 0.103277032003145 
500	 0.10339985128922 
501	 0.103574953045788 
502	 0.103928738989643 
503	 0.104298043939144 
504	 0.104507176886878 
505	 0.104691127292877 
506	 0.104977348796565 
507	 0.105361751491379 
508	 0.105731807427199 
509	 0.106011591660558 
510	 0.106273745937507 
511	 0.106580415028048 
512	 0.106894591777051 
513	 0.107364274406378 
514	 0.107909031793376 
515	 0.108363645675042 
516	 0.108810812798972 
517	 0.109292477997331 
518	 0.109817910493636 
519	 0.110360391453546 
520	 0.110961504211086 
521	 0.111631280272839 
522	 0.112345944699311 
523	 0.112967329388727 
524	 0.113694870066106 
525	 0.114561793843104 
526	 0.115471595587851 
527	 0.116280609665057 
528	 0.117177502884587 
529	 0.118231078514642 
530	 0.119192566506178 
531	 0.12012078080017 
532	 0.121198783764756 
533	 0.12254823900053 
534	 0.123635597333132 
535	 0.124735165931354 
536	 0.125971655374997 
537	 0.127233350252709 
538	 0.128556204426996 
539	 0.129869836756281 
540	 0.131108285023312 
541	 0.132278543663545 
542	 0.133536878908226 
543	 0.134829442585596 
544	 0.135994483914596 
545	 0.137175842812852 
546	 0.138386667812932 
547	 0.139587909203194 
548	 0.140671813483505 
549	 0.141793286407866 
550	 0.142914477680411 
551	 0.143946896031888 
552	 0.144922894581358 
553	 0.14593160893996 
554	 0.14696725275809 
555	 0.14791281356046 
556	 0.148845704545684 
557	 0.149864173957188 
558	 0.150970945630622 
559	 0.151885933842265 
560	 0.152811092742776 
561	 0.153757296588323 
562	 0.154634910093682 
563	 0.155588112106524 
564	 0.156505141450479 
565	 0.157323548544096 
566	 0.158139292811936 
567	 0.158957774150367 
568	 0.15976314075768 
569	 0.160524720470365 
570	 0.161227110535387 
571	 0.161856430126648 
572	 0.162481354855135 
573	 0.163244613143878 
574	 0.163717910895811 
575	 0.1642139692299 
576	 0.164973493423963 
577	 0.165439366446325 
578	 0.165973033691021 
579	 0.166542315404006 
580	 0.166910326034401 
581	 0.167351608951055 
582	 0.167809510474407 
583	 0.168211004294944 
584	 0.168521844043815 
585	 0.168811908022854 
586	 0.169071720948191 
587	 0.169284715177011 
588	 0.169556993580356 
589	 0.169829894313302 
590	 0.17005912008987 
591	 0.170253019555267 
592	 0.170400929220525 
593	 0.170556165257389 
594	 0.170720323195046 
595	 0.170700726403596 
596	 0.170784851304009 
597	 0.17090315375775 
598	 0.17082190844742 
599	 0.170844210542663 
600	 0.170901142564394 
601	 0.170948795680048 
602	 0.171069379484973 
603	 0.171140490674158 
604	 0.171215719321162 
605	 0.171377477266889 
606	 0.171539429920069 
607	 0.17175138631962 
608	 0.171947572455945 
609	 0.171951877488633 
610	 0.172062843782907 
611	 0.172229254628911 
612	 0.172357734487409 
613	 0.172464236925316 
614	 0.172555718462998 
615	 0.172653174488723 
616	 0.172777109107781 
617	 0.172894300811436 
618	 0.172941567935311 
619	 0.172962925146824 
620	 0.173184556296324 
621	 0.173251691706637 
622	 0.173293172440022 
623	 0.173504366233668 
624	 0.173592012323167 
625	 0.173641395422853 
626	 0.173709423976117 
627	 0.173810053664852 
628	 0.173929201124867 
629	 0.17405708871642 
630	 0.174188126233447 
631	 0.17432526833898 
632	 0.174435928292164 
633	 0.174507780149925 
634	 0.174546517958714 
635	 0.174584539596211 
636	 0.17469495569963 
637	 0.174859354948025 
638	 0.174929303426301 
639	 0.175038024800191 
640	 0.175066309085279 
641	 0.174943851271602 
642	 0.175092632207635 
643	 0.175172238141294 
644	 0.175119629455643 
645	 0.175104059278087 
646	 0.175040543650684 
647	 0.174973438714709 
648	 0.174952581908451 
649	 0.174998475442862 
650	 0.174961761318502 
651	 0.174877071991678 
652	 0.174833599856764 
653	 0.174730891593811 
654	 0.174630500995691 
655	 0.17449093151033 
656	 0.17414978343011 
657	 0.173952060643813 
658	 0.173860790503199 
659	 0.173748591071866 
660	 0.173475216291582 
661	 0.173239326545833 
662	 0.173084525188727 
663	 0.172951999145882 
664	 0.172775661589396 
665	 0.17260342177699 
666	 0.172452283498028 
667	 0.172250972600165 
668	 0.172191906919995 
669	 0.172198100836531 
670	 0.172146602591063 
671	 0.172182001003076 
672	 0.172200854715589 
673	 0.172182846150483 
674	 0.172198688440785 
675	 0.172359156868256 
676	 0.172512769928344 
677	 0.172578314221993 
678	 0.172779020613183 
679	 0.173013189410095 
680	 0.173253170859347 
681	 0.17351500599094 
682	 0.173891137247192 
683	 0.17430753298561 
684	 0.174670269686532 
685	 0.174903016217626 
686	 0.175201650498542 
687	 0.17563046885133 
688	 0.176116211538493 
689	 0.176489022628467 
690	 0.176733184377479 
691	 0.176921712593033 
692	 0.177172179687309 
693	 0.177416177559189 
694	 0.17753871937172 
695	 0.177566043545671 
696	 0.177746738011108 
697	 0.177873503832542 
698	 0.177831927282857 
699	 0.17758332792922 
700	 0.177355699391812 
701	 0.177326186549559 
702	 0.177329508716907 
703	 0.176982020572141 
704	 0.176643158365056 
705	 0.176337975796798 
706	 0.176039062403039 
707	 0.175705954850576 
708	 0.175262491776916 
709	 0.174786008652323 
710	 0.174355276744045 
711	 0.17370174241933 
712	 0.172982757042977 
713	 0.172238945839787 
714	 0.171342548775241 
715	 0.170398927041163 
716	 0.16947924003143 
717	 0.168632354138759 
718	 0.167325523083193 
719	 0.166072452872763 
720	 0.165119700568698 
721	 0.164229842169494 
722	 0.1631636034854 
723	 0.161956197707768 
724	 0.160790865721692 
725	 0.15959633917015 
726	 0.158263237986139 
727	 0.156628486532801 
728	 0.154711439332548 
729	 0.153020461114747 
730	 0.151168586461385 
731	 0.149294934720817 
732	 0.147619340891619 
733	 0.146135946624076 
734	 0.144764860582893 
735	 0.143576232790041 
736	 0.142808786877099 
737	 0.142089006243121 
738	 0.141480871824527 
739	 0.141086532341019 
740	 0.140745790852217 
741	 0.140529239265134 
742	 0.140456635402558 
743	 0.140492288432692 
744	 0.140437182643716 
745	 0.140394523459297 
746	 0.140375886594381 
747	 0.140227536422984 
748	 0.140230997303129 
749	 0.140295991240058 
750	 0.140291272469082 
751	 0.140288831443297 
752	 0.140290820538646 
753	 0.14029090563009 
754	 0.140290155793651 
755	 0.140410312384463 
756	 0.140427315012683 
757	 0.140289974556503 
758	 0.140222320263902 
759	 0.140193703711023 
760	 0.140199723952025 
761	 0.140237840602278 
762	 0.140481443445095 
763	 0.140419345243927 
764	 0.140467765429865 
765	 0.141005359396466 
766	 0.141259888779374 
767	 0.141328225755027 
768	 0.141381686678915 
769	 0.141634301006118 
770	 0.141834754317051 
771	 0.141992403544537 
772	 0.142178584626035 
773	 0.142497633025236 
774	 0.142735002073924 
775	 0.142914105061764 
776	 0.143153757855981 
777	 0.143414825061318 
778	 0.143710590278672 
779	 0.144037228836617 
780	 0.144372969750812 
781	 0.144693808743929 
782	 0.145027468089979 
783	 0.145382346801252 
784	 0.145695496101619 
785	 0.146084324214645 
786	 0.146514318708591 
787	 0.146905463635422 
788	 0.147285716920972 
789	 0.1475983191208 
790	 0.147874883227347 
791	 0.148228686906126 
792	 0.148760965252389 
793	 0.149299163207924 
794	 0.149702129942465 
795	 0.149917977352945 
796	 0.150159629201268 
797	 0.150468158553445 
798	 0.15083048725506 
799	 0.151235259801523 
800	 0.151469118550622 
801	 0.151620580407107 
802	 0.151922102248859 
803	 0.15221545271056 
804	 0.15237306277182 
805	 0.152347681950466 
806	 0.152185238533167 
807	 0.152280484453357 
808	 0.152360910796986 
809	 0.152201242131413 
810	 0.152067697668775 
811	 0.151938798913796 
812	 0.15179710685501 
813	 0.151587935807482 
814	 0.151118060526982 
815	 0.150691027714767 
816	 0.150338212844901 
817	 0.14983768776303 
818	 0.149301909486275 
819	 0.14858081247969 
820	 0.147729963243466 
821	 0.147133347467392 
822	 0.146012561774192 
823	 0.144717693710519 
824	 0.143561226329013 
825	 0.141837244980898 
826	 0.140194312161112 
827	 0.138518738387152 
828	 0.136588965866768 
829	 0.134638246812474 
830	 0.132858790941014 
831	 0.131397959515168 
832	 0.130339957522249 
833	 0.129094031331996 
834	 0.128044261895376 
835	 0.127394242865777 
836	 0.126975409583612 
837	 0.126209750585427 
838	 0.125653127873984 
839	 0.125606589027698 
840	 0.125065423083593 
841	 0.124696666552909 
842	 0.124315735996933 
843	 0.123618275887461 
844	 0.123177949894215 
845	 0.122926567276072 
846	 0.12273276574166 
847	 0.122449693026976 
848	 0.122113118232522 
849	 0.121728175138481 
850	 0.121364267417107 
851	 0.12114490963212 
852	 0.120633428898198 
853	 0.120399246443746 
854	 0.120589080818639 
855	 0.120045772427693 
856	 0.119434359285257 
857	 0.119072601904429 
858	 0.118986519769298 
859	 0.118560403024546 
860	 0.118287485524173 
861	 0.118183083031104 
862	 0.117995441313948 
863	 0.117543215433408 
864	 0.117094129116885 
865	 0.116816356047283 
866	 0.11669950880181 
867	 0.116331626338588 
868	 0.11599838230915 
869	 0.115815626444598 
870	 0.115553512933395 
871	 0.114964819423948 
872	 0.114469746804635 
873	 0.114212575874098 
874	 0.113359209200744 
875	 0.112990517713751 
876	 0.112873016717354 
877	 0.112481152188957 
878	 0.111852766677554 
879	 0.111366743373602 
880	 0.11095171565227 
881	 0.11038738014837 
882	 0.109995299896675 
883	 0.109570455758422 
884	 0.109114904978135 
885	 0.108770398108462 
886	 0.108266768745748 
887	 0.10786916178953 
888	 0.107605214468038 
889	 0.1071775694018 
890	 0.10652551255391 
891	 0.105947441030662 
892	 0.105676074570984 
893	 0.105672228496909 
894	 0.105383539299121 
895	 0.104961338342722 
896	 0.104609389113642 
897	 0.103886070113901 
898	 0.103654814621103 
899	 0.103451748001408 
900	 0.102710244043357 
901	 0.102277930407107 
902	 0.101499965377766 
903	 0.100948306008813 
904	 0.101229534321862 
905	 0.100771922062649 
906	 0.10032417954803 
907	 9.99556074108153E-02 
908	 9.93052348157127E-02 
909	 9.90456055934778E-02 
910	 0.098652790446543 
911	 9.78864873201856E-02 
912	 9.69971321913694E-02 
913	 9.72672741887759E-02 
914	 9.65518188488746E-02 
915	 9.47244435799475E-02 
916	 9.41473108768036E-02 
917	 9.28717566756727E-02 
918	 0.091943975694956 
919	 9.16512758718962E-02 
920	 9.08460675961466E-02 
921	 8.96886035380932E-02 
922	 8.87122393165579E-02 
923	 8.81270203730167E-02 
924	 8.73079937190095E-02 
925	 8.58283613238932E-02 
926	 8.50592122207572E-02 
927	 8.59258647769362E-02 
928	 8.49846664101503E-02 
929	 8.42191732250397E-02 
930	 8.37661767218399E-02 
931	 0.082967208404806 
932	 8.34883191141522E-02 
933	 0.079864379146112 
934	 0.076271011597679 
935	 7.85739373816082E-02 
936	 7.55778571930516E-02 
937	 7.35605427667089E-02 
938	 7.34613732436869E-02 
939	 7.40297658871926E-02 
940	 7.33656665332806E-02 
941	 7.22951930658586E-02 
942	 7.27559085187414E-02 
943	 7.56159770056887E-02 
944	 7.15848489336207E-02 
945	 7.40597723178463E-02 
946	 7.60149161639972E-02 
947	 6.41986047067791E-02 
948	 6.43142840934768E-02 
949	 0.067981443312556 
950	 6.93232533534117E-02 
951	 6.72316496034725E-02 
952	 6.85474801896653E-02 
953	 6.74386978533996E-02 
954	 0.064419836867739 
955	 6.41810292747946E-02 
956	 6.53612075529891E-02 
957	 6.56858034843013E-02 
958	 6.50077760341681E-02 
959	 6.46963421815839E-02 
960	 6.52602830164136E-02 
961	 0.066379875220666 
962	 6.65638137233435E-02 
963	 6.45246651138232E-02 
964	 6.40407555266709E-02 
965	 6.45882371236479E-02 
966	 6.43804976743626E-02 
967	 0.062002974478956 
968	 6.28803015480031E-02 
969	 0.063969675405104 
970	 6.41121610094278E-02 
971	 6.42683578323552E-02 
972	 0.063184705266789 
973	 6.16965764470599E-02 
974	 6.12179811590112E-02 
975	 6.28077159923453E-02 
976	 6.26558910996318E-02 
977	 6.36008168252984E-02 
978	 6.46549301218559E-02 
979	 6.21426950874709E-02 
980	 6.21561939274771E-02 
981	 6.29526772071658E-02 
982	 6.28968514171594E-02 
983	 6.16804675062152E-02 
984	 6.25024850553798E-02 
985	 6.28392821964421E-02 
986	 6.26452622237894E-02 
987	 6.37457134806836E-02 
988	 6.36999745497607E-02 
989	 6.23887575798375E-02 
990	 6.17901513744525E-02 
991	 6.39323522735676E-02 
992	 6.20478185338588E-02 
993	 6.22186558639091E-02 
994	 6.41353820311207E-02 
995	 6.32310734392532E-02 
996	 6.26073333392177E-02 
997	 6.30912183023005E-02 
998	 6.37840144439204E-02 
999	 6.33822203359154E-02 
1000	 6.43473380206255E-02 
1001	 6.23462594760867E-02 
1002	 6.21721283114869E-02 
1003	 6.24328055227002E-02 
1004	 6.34188437872525E-02 
1005	 6.38384657527949E-02 
1006	 6.42759227526371E-02 
1007	 6.43799718344242E-02 
1008	 6.42648868262482E-02 
1009	 6.41872991260776E-02 
1010	 6.41685451225195E-02 
1011	 6.40770784480997E-02 
1012	 6.42998401430377E-02 
1013	 6.42453458848793E-02 
1014	 6.44285350354259E-02 
1015	 6.49826591759562E-02 
1016	 6.51915110454686E-02 
1017	 6.51875482086094E-02 
1018	 6.53936523106812E-02 
1019	 0.065521712503811 
1020	 6.56541703545802E-02 
1021	 6.59300345767652E-02 
1022	 6.62153607676707E-02 
1023	 6.62478046228799E-02 
1024	 6.62198073600027E-02 
1025	 6.65055552204533E-02 
1026	 6.67710926532078E-02 
1027	 6.70703163228435E-02 
1028	 6.76127780288284E-02 
1029	 6.78305699535506E-02 
1030	 6.77902879582401E-02 
1031	 6.80468639461356E-02 
1032	 6.84215834675105E-02 
1033	 6.86358475528382E-02 
1034	 6.88446872455662E-02 
1035	 6.90664926593241E-02 
1036	 6.90485400339739E-02 
1037	 6.92437500264257E-02 
1038	 6.95527038307068E-02 
1039	 7.02053792886822E-02 
1040	 7.01918328201029E-02 
1041	 7.04170683165332E-02 
1042	 7.06181697923005E-02 
1043	 7.05819209533918E-02 
1044	 0.070846991589706 
1045	 0.071358867132375 
1046	 7.17880807051332E-02 
1047	 7.24332465119424E-02 
1048	 7.27092306523262E-02 
1049	 7.27356141706605E-02 
1050	 7.30063592589641E-02 
1051	 7.31733238528903E-02 
1052	 7.33273669630966E-02 
1053	 7.37412871556894E-02 
1054	 7.40036466940474E-02 
1055	 7.39472223537642E-02 
1056	 7.40855399169054E-02 
1057	 7.42946367728156E-02 
1058	 7.46077215787361E-02 
1059	 7.48743302667056E-02 
1060	 7.53365370174391E-02 
1061	 7.54128328180789E-02 
1062	 7.51786934694369E-02 
1063	 7.52630721080188E-02 
1064	 7.51847157541446E-02 
1065	 7.53653750773709E-02 
1066	 7.61257376260837E-02 
1067	 7.63565745602361E-02 
1068	 7.63299967935625E-02 
1069	 7.63700322661122E-02 
1070	 7.61883830105123E-02 
1071	 7.60575476810345E-02 
1072	 7.57898397275702E-02 
1073	 7.59501205054509E-02 
1074	 7.58927611206795E-02 
1075	 7.57589481135673E-02 
1076	 7.57171727422259E-02 
1077	 0.075759290733947 
1078	 7.57102721429798E-02 
1079	 7.57013251064024E-02 
1080	 7.55343564671503E-02 
1081	 7.52789581843027E-02 
1082	 7.50349013723187E-02 
1083	 0.074466399146973 
1084	 7.43009311187846E-02 
1085	 7.45409557377271E-02 
1086	 7.44134722079632E-02 
1087	 7.43972922572413E-02 
1088	 7.42530365046836E-02 
1089	 7.36641671963882E-02 
1090	 7.32516241129777E-02 
1091	 7.29610404290619E-02 
1092	 7.27636939098126E-02 
1093	 7.25088114441186E-02 
1094	 7.22959250176945E-02 
1095	 7.21059182159351E-02 
1096	 7.21021480036669E-02 
1097	 7.16827845828855E-02 
1098	 0.070996265423589 
1099	 7.05379318323564E-02 
1100	 6.95287642316064E-02 
1101	 6.92210881763486E-02 
1102	 6.99558003079715E-02 
1103	 6.98787557906705E-02 
1104	 0.069590794331286 
1105	 6.94011832566382E-02 
1106	 6.86767172637663E-02 
1107	 6.82435178834415E-02 
1108	 0.068706053553037 
1109	 6.91440967575777E-02 
1110	 6.90335255370904E-02 
1111	 6.85378723343756E-02 
1112	 6.81343387919438E-02 
1113	 6.70905863867443E-02 
1114	 6.67030298348698E-02 
1115	 6.69061806043757E-02 
1116	 6.69001901074979E-02 
1117	 6.68474859125548E-02 
1118	 6.66747959093193E-02 
1119	 0.06788748118394 
1120	 6.80169503618282E-02 
1121	 6.64853815786707E-02 
1122	 6.52974408382633E-02 
1123	 6.71811270544212E-02 
1124	 6.22378764549064E-02 
1125	 6.26822730157878E-02 
1126	 6.82529773473276E-02 
1127	 6.49149907511488E-02 
1128	 6.29388713052727E-02 
1129	 6.25783399235164E-02 
1130	 6.14095011909941E-02 
1131	 0.060305356257308 
1132	 6.21077217751579E-02 
1133	 6.11998030388759E-02 
1134	 5.75038934566823E-02 
1135	 5.73389962198704E-02 
1136	 5.85187374812287E-02 
1137	 5.83310354028077E-02 
1138	 5.97994394163647E-02 
1139	 0.058285469069748 
1140	 5.59077627453478E-02 
1141	 5.58739531933221E-02 
1142	 5.41888245280284E-02 
1143	 5.33531077439139E-02 
1144	 5.49628575335595E-02 
1145	 5.62657204184485E-02 
1146	 5.57940314046028E-02 
1147	 5.46045362858348E-02 
1148	 5.38206953100698E-02 
1149	 5.10832480601707E-02 
1150	 5.01522853180235E-02 
1151	 5.18697609846358E-02 
1152	 5.22585946800633E-02 
1153	 5.15585259482666E-02 
1154	 5.11956829209138E-02 
1155	 5.11026242329536E-02 
1156	 5.07026601431681E-02 
1157	 4.98106471366103E-02 
1158	 5.01665404952862E-02 
1159	 5.09561982836027E-02 
1160	 5.10850742561171E-02 
1161	 5.08505528919217E-02 
1162	 5.07593635855601E-02 
1163	 5.06659489572147E-02 
1164	 5.04459325558968E-02 
1165	 5.08081146845782E-02 
1166	 5.11826110717435E-02 
1167	 0.050992205474447 
1168	 5.08530781808828E-02 
1169	 5.07620481751479E-02 
1170	 5.08656578877691E-02 
1171	 5.08443870637288E-02 
1172	 5.07587495912742E-02 
1173	 5.06799428511196E-02 
1174	 5.05455124861807E-02 
1175	 5.05440703134399E-02 
1176	 5.03287508177424E-02 
1177	 5.04733644121053E-02 
1178	 5.08948836491835E-02 
1179	 5.06740013725842E-02 
1180	 5.02794217015028E-02 
1181	 5.02947496450931E-02 
1182	 4.99702411232025E-02 
1183	 4.99093353957555E-02 
1184	 5.04232545170467E-02 
1185	 5.05027691125422E-02 
1186	 5.03843533563064E-02 
1187	 0.050240676493225 
1188	 5.00083519765632E-02 
1189	 5.02038333995906E-02 
1190	 5.04793009473846E-02 
1191	 0.050265340500675 
1192	 5.02779428138416E-02 
1193	 5.03437216271724E-02 
1194	 5.04552563333149E-02 
1195	 0.050257489342108 
1196	 5.02986186979829E-02 
1197	 0.050410984894318 
1198	 5.02947554226696E-02 
1199	 5.01917748293007E-02 
1200	 5.01545401113065E-02 
1201	 5.00895290690101E-02 
1202	 4.99359040105326E-02 
1203	 4.98512520666482E-02 
1204	 4.98683310731164E-02 
1205	 4.98399078875724E-02 
1206	 4.98751257256965E-02 
1207	 5.00306581982977E-02 
1208	 5.01748298819797E-02 
1209	 5.01424349134169E-02 
1210	 5.00427010326259E-02 
1211	 4.98675417281538E-02 
1212	 4.96658304211917E-02 
1213	 4.99601539107862E-02 
1214	 5.01086802254454E-02 
1215	 5.03199854257862E-02 
1216	 5.00810390516982E-02 
1217	 5.00655937410072E-02 
1218	 5.02546618319008E-02 
1219	 5.01140154136913E-02 
1220	 5.00124179058458E-02 
1221	 0.050348234410314 
1222	 5.03643373184132E-02 
1223	 5.00551839110762E-02 
1224	 5.02617922123579E-02 
1225	 5.04307687157094E-02 
1226	 5.01956547920859E-02 
1227	 5.02665342100323E-02 
1228	 5.05366555423572E-02 
1229	 0.050574365040098 
1230	 5.03760751396362E-02 
1231	 5.02962516262805E-02 
1232	 5.04153573621986E-02 
1233	 5.04381625189565E-02 
1234	 5.05777658457845E-02 
1235	 5.06443434204116E-02 
1236	 5.06082122685048E-02 
1237	 5.05590149146284E-02 
1238	 5.04574601964982E-02 
1239	 5.04833585377979E-02 
1240	 5.04317632216264E-02 
1241	 5.04324413137747E-02 
1242	 5.05092262230695E-02 
1243	 5.04734190904705E-02 
1244	 5.04422064014498E-02 
1245	 5.05368791067813E-02 
1246	 5.06915846546981E-02 
1247	 0.050849721041477 
1248	 5.08412855990424E-02 
1249	 5.07320398746535E-02 
1250	 5.06125511121485E-02 
1251	 5.04626189624788E-02 
1252	 5.04568917705606E-02 
1253	 0.05068365915575 
1254	 0.050875254966108 
1255	 5.08771734793293E-02 
1256	 5.09054169451693E-02 
1257	 5.09130912595881E-02 
1258	 5.09305349872965E-02 
1259	 0.051022233697621 
1260	 5.10543938493555E-02 
1261	 0.051044472638095 
1262	 5.09718093115692E-02 
1263	 5.08321197161626E-02 
1264	 5.05231697964755E-02 
1265	 5.04469707100411E-02 
1266	 5.08116008454462E-02 
1267	 5.10210233859536E-02 
1268	 5.09498125573741E-02 
1269	 5.09281192061756E-02 
1270	 5.06862005745654E-02 
1271	 5.05642643626696E-02 
1272	 5.07967820933612E-02 
1273	 0.050654666669999 
1274	 5.04539291813595E-02 
1275	 0.050518547433121 
1276	 5.05350175439891E-02 
1277	 0.050527084696704 
1278	 5.04165062362062E-02 
1279	 5.02282110939345E-02 
1280	 5.01947617412775E-02 
1281	 5.01477647868814E-02 
1282	 5.02402818650922E-02 
1283	 0.050213210931731 
1284	 5.00987964047365E-02 
1285	 5.00176782227909E-02 
1286	 4.99463015941655E-02 
1287	 4.99022958649601E-02 
1288	 0.04990756386541 
1289	 0.049815240626987 
1290	 4.96545253941992E-02 
1291	 4.95022707005789E-02 
1292	 4.92275002551015E-02 
1293	 4.90054199062954E-02 
1294	 4.92604384538097E-02 
1295	 4.94855099717576E-02 
1296	 4.92395841907453E-02 
1297	 4.90470724032901E-02 
1298	 4.89139579374604E-02 
1299	 4.84778769838414E-02 
1300	 4.82516050837917E-02 
1301	 0.048468701787424 
1302	 4.85426476731943E-02 
1303	 4.83344175396349E-02 
1304	 4.80388996075664E-02 
1305	 4.78606046583107E-02 
1306	 4.77067278582883E-02 
1307	 4.70580575265846E-02 
1308	 4.68662816440459E-02 
1309	 4.73843942173911E-02 
1310	 0.047347232885247 
1311	 4.69808340909283E-02 
1312	 4.67968817042409E-02 
1313	 4.66221473976393E-02 
1314	 4.63430143851198E-02 
1315	 4.59176514269622E-02 
1316	 4.57033410575967E-02 
1317	 4.55239588623427E-02 
1318	 4.53110342961383E-02 
1319	 4.55063699825859E-02 
1320	 4.54165438896475E-02 
1321	 0.045151789174782 
1322	 4.44389245616699E-02 
1323	 0.044445499907295 
1324	 4.44620487387298E-02 
1325	 4.39737662804931E-02 
1326	 4.36330481632312E-02 
1327	 0.043621756177096 
1328	 4.34400106792154E-02 
1329	 0.042882474152491 
1330	 4.30850564811521E-02 
1331	 4.33939495075937E-02 
1332	 4.23522800446989E-02 
1333	 4.18757624976636E-02 
1334	 4.19201844835122E-02 
1335	 0.041932368089881 
1336	 4.18647233104879E-02 
1337	 0.041683432435281 
1338	 4.17603177283998E-02 
1339	 4.16982407142528E-02 
1340	 4.08934811686858E-02 
1341	 4.05954875121803E-02 
1342	 4.11670251713263E-02 
1343	 0.041155356524445 
1344	 4.05563725054428E-02 
1345	 4.02322256330598E-02 
1346	 3.93040561053003E-02 
1347	 3.93723572271583E-02 
1348	 4.33618556629061E-02 
1349	 4.33027480248589E-02 
1350	 3.64199940861857E-02 
1351	 3.32804709571494E-02 
1352	 2.68122178455766E-02 
1353	 1.64791223220413E-02 
1354	 1.98537123265874E-02 
1355	 1.63272445174672E-02 
1356	-2.56425033892271E-03 
1357	-3.78446754195115E-02 
1358	-8.29451541999987E-02 
1359	-5.45606207919228E-02 
1360	-4.99914432429112E-02 
1361	-7.45677079556715E-02 
1362	-9.03711894101532E-02 
1363	-0.177442334518147 
1364	-0.297292087360221 
1365	-0.371025028737883 
1366	-0.317983747412129 
1367	-0.150481586422501 
1368	-0.103824976971923 
1369	-4.46661413780729E-02 
1370	-8.97090475775594E-02 
1371	-0.364924848444113 
1372	-0.363909892832073 
1373	-0.307673810774638 
1374	-0.255087315016436 
1375	 9.54868207940205E-02 
1376	 9.07038827462467E-02 
1377	-0.296915109168879 
1378	-0.361348979760763 
1379	-0.2075772762116 
1380	-0.239488890007606 
1381	-0.362491759242884 
1382	-0.102270968911246 
1383	 0.308250391670347 
1384	 0.274909599693145 
1385	 0.179815101615007 
1386	 0.231184850342216 
1387	 2.72075572659132E-02 
1388	-0.111687226069745 
1389	-0.034796355993737 
1390	 7.32115868700006E-02 
1391	 0.116358490507812 
1392	 4.80192974630662E-02 
1393	-0.245731657903408 
1394	 6.00628260265828E-02 
1395	 0.373338047127643 
1396	 9.24182220296304E-02 
1397	-0.143322382560411 
1398	 0.127035741433318 
1399	 0.396736435827166 
1400	 0.417998082562069 
1401	 0.134603821324172 
1402	-1.77792382249847E-02 
1403	-2.94368001688666E-02 
1404	-0.181731995804768 
1405	-0.262424777082892 
1406	-2.29684580364949E-03 
1407	-1.23193244437453E-02 
1408	-0.365469179148606 
1409	-0.279457834309072 
1410	 7.30566375549809E-02 
1411	 0.101228252501134 
1412	 8.86449439795915E-02 
1413	 7.73001819319902E-02 
1414	-6.22026871288337E-02 
1415	-5.26490373561383E-02 
1416	 0.073664721578219 
1417	 5.03228278051938E-02 
1418	-3.84546793791883E-02 
1419	-2.96995007956151E-02 
1420	-4.49125785630033E-03 
1421	-1.49418294193357E-02 
1422	-3.81330245119584E-02 
1423	-7.69964141909508E-04 
1424	 7.74410297811788E-02 
1425	 5.78926501519567E-02 
1426	 9.95550603491819E-03 
1427	 1.85230494481814E-02 
1428	 1.46302900783753E-02 
1429	-3.34126727132973E-03 
1430	 1.18723215040623E-02 
1431	 1.87452302877968E-02 
1432	-1.90036319388151E-02 
1433	-0.035386820147351 
1434	-1.54871227379687E-02 
1435	-7.64865261041621E-03 
1436	-1.22997477300746E-02 
1437	-0.018798703786763 
1438	-9.84100883969326E-03 
1439	-1.10745080542626E-03 
1440	 1.01201420542755E-03 
1441	-6.99185158698873E-03 
1442	-1.11656358905713E-02 
1443	-5.34854142564567E-03 
1444	-1.93769761365407E-03 
1445	 3.28163215753117E-03 
1446	 9.25618062254911E-03 
1447	 1.12399178880084E-02 
1448	 1.42008492037269E-02 
1449	 1.49163281237694E-02 
1450	 1.06451488662403E-02 
1451	 7.23954993412454E-03 
1452	 7.67427176581401E-03 
1453	 1.00575916256668E-02 
1454	 1.04598866138404E-02 
1455	 1.31816202632987E-02 
1456	 1.31696095979505E-02 
1457	 1.08148563287615E-02 
1458	 9.36094234993943E-03 
1459	 7.9210079336766E-03 
1460	 8.18571116733398E-03 
1461	 8.63965714502049E-03 
1462	 7.92298518438977E-03 
1463	 8.00763859961454E-03 
1464	 8.48706519129142E-03 
1465	 7.90783789292069E-03 
1466	 7.60394341246648E-03 
1467	 8.62994991554216E-03 
1468	 9.54434410173783E-03 
1469	 9.55462239328666E-03 
1470	 8.97086964640089E-03 
1471	 9.66055384053125E-03 
1472	 9.87774245919365E-03 
1473	 7.56419491196618E-03 
1474	 7.40117269711086E-03 
1475	 9.46502481994464E-03 
1476	 9.91736679065301E-03 
1477	 9.93801630854627E-03 
1478	 9.73575069000652E-03 
1479	 9.00722674527796E-03 
1480	 8.87981420635223E-03 
1481	 8.00453769477313E-03 
1482	 8.84937280380046E-03 
1483	 1.14642158617936E-02 
1484	 1.18881398818523E-02 
1485	 1.18019729710681E-02 
1486	 1.21879663852278E-02 
1487	 1.19025475030421E-02 
1488	 1.18650851049335E-02 
1489	 1.21850759424101E-02 
1490	 1.26599773435945E-02 
1491	 1.31733324036259E-02 
1492	 1.32232671546773E-02 
1493	 1.33125728846801E-02 
1494	 0.013503902549468 
1495	 1.33105259389526E-02 
1496	 1.33524753619732E-02 
1497	 0.013780978437459 
1498	 1.39648535007935E-02 
1499	 1.39986909890158E-02 
1500	 1.40615151057287E-02 
1501	 1.39508494703124E-02 
1502	 1.41955519625124E-02 
1503	 1.48869118431585E-02 
1504	 1.50279524903881E-02 
1505	 1.50850545679682E-02 
1506	 1.50453867203494E-02 
1507	 1.50108665318913E-02 
1508	 1.51706941218342E-02 
1509	 1.53819468704152E-02 
1510	 1.56109061538393E-02 
1511	 1.57760346291843E-02 
1512	 1.56793657200097E-02 
1513	 1.54015292148817E-02 
1514	 1.56787949722773E-02 
1515	 1.62818612828575E-02 
1516	 1.62272777503229E-02 
1517	 1.63519693048154E-02 
1518	 1.67377577272387E-02 
1519	 1.66081355561507E-02 
1520	 1.66259680249693E-02 
1521	 0.016900431702136 
1522	 1.67896476959625E-02 
1523	 1.67350449771214E-02 
1524	 1.71736518635004E-02 
1525	 1.76246346100459E-02 
1526	 1.78490583115396E-02 
1527	 1.78278718017412E-02 
1528	 1.76376853246716E-02 
1529	 1.77329468805139E-02 
1530	 1.81420890857514E-02 
1531	 1.84711136602159E-02 
1532	 1.85917392716058E-02 
1533	 1.85763787539723E-02 
1534	 1.86623777264178E-02 
1535	 0.018805843694143 
1536	 1.90247043467234E-02 
1537	 1.92326463367867E-02 
1538	 1.91048490905616E-02 
1539	 1.91439995062365E-02 
1540	 1.93643166241263E-02 
1541	 1.93815880274274E-02 
1542	 0.019577696816773 
1543	 1.98204493525294E-02 
1544	 0.019807932567592 
1545	 0.019895948286335 
1546	 2.00895141784724E-02 
1547	 2.01947188175118E-02 
1548	 0.020383126397078 
1549	 2.05456245367926E-02 
1550	 2.05998799149583E-02 
1551	 0.020842765046245 
1552	 2.11961171762059E-02 
1553	 2.13291321808683E-02 
1554	 2.13859854797529E-02 
1555	 2.15174197852163E-02 
1556	 2.15168149217802E-02 
1557	 2.15806001067332E-02 
1558	 2.17887824483672E-02 
1559	 2.17002229267752E-02 
1560	 2.14946261189831E-02 
1561	 2.16021328020964E-02 
1562	 2.19064208141901E-02 
1563	 0.022190729298191 
1564	 2.23094283203107E-02 
1565	 2.23527730425914E-02 
1566	 2.24565010380114E-02 
1567	 2.24804468952069E-02 
1568	 2.25157699311329E-02 
1569	 2.26756764323391E-02 
1570	 2.28861398551397E-02 
1571	 2.32980201598414E-02 
1572	 2.35731252829495E-02 
1573	 2.33567647623844E-02 
1574	 2.33032779457487E-02 
1575	 2.35986759217927E-02 
1576	 2.38398321036894E-02 
1577	 2.40184559561469E-02 
1578	 2.40110465195081E-02 
1579	 2.38212006556945E-02 
1580	 2.38453059474593E-02 
1581	 2.41009548710917E-02 
1582	 0.024251589058541 
1583	 2.42269836072443E-02 
1584	 2.42833276775491E-02 
1585	 2.45052464942761E-02 
1586	 2.45970369927239E-02 
1587	 2.46051912754275E-02 
1588	 2.47237714604044E-02 
1589	 2.47926439498857E-02 
1590	 2.49006399998107E-02 
1591	 2.50652401497488E-02 
1592	 0.02514963124268 
1593	 0.025182131193624 
1594	 2.51669705403854E-02 
1595	 2.52615126862106E-02 
1596	 2.53893075839936E-02 
1597	 2.55050723988468E-02 
1598	 2.57063348834163E-02 
1599	 2.57287531358211E-02 
1600	 2.55678779563124E-02 
1601	 2.56255791024832E-02 
1602	 2.59149097111481E-02 
1603	 2.60460234787263E-02 
1604	 2.61082619652103E-02 
1605	 2.62740282923073E-02 
1606	 2.62792003706667E-02 
1607	 2.62992255940123E-02 
1608	 2.65223645201745E-02 
1609	 0.026576857361634 
1610	 2.64882373515485E-02 
1611	 0.026487284312427 
1612	 2.63930963073243E-02 
1613	 2.62224080138598E-02 
1614	 2.61582484196299E-02 
1615	 2.62052347339781E-02 
1616	 0.026466147321274 
1617	 2.68599279909648E-02 
1618	 0.02698531005463 
1619	 2.69106128159831E-02 
1620	 2.69939738483174E-02 
1621	 2.71254310104712E-02 
1622	 2.71972621555942E-02 
1623	 2.73242392252876E-02 
1624	 2.74263721929452E-02 
1625	 2.73163257768642E-02 
1626	 2.72876255604061E-02 
1627	 0.027523656156068 
1628	 2.75761767049781E-02 
1629	 2.75244692229834E-02 
1630	 2.74945759422397E-02 
1631	 2.74050816265055E-02 
1632	 2.74512543417129E-02 
1633	 2.74676330966604E-02 
1634	 2.75330678297125E-02 
1635	 0.027745570672336 
1636	 2.77734655161315E-02 
1637	 2.78074459244064E-02 
1638	 0.027826705609648 
1639	 2.76348043135146E-02 
1640	 0.027765891859712 
1641	 2.79304759228018E-02 
1642	 2.79249152131581E-02 
1643	 2.83633813286813E-02 
1644	 2.84671911382743E-02 
1645	 0.028060531068892 
1646	 2.81779016864588E-02 
1647	 2.82711623814766E-02 
1648	 2.79890714578987E-02 
1649	 0.028231438970504 
1650	 2.86006417175698E-02 
1651	 2.84397142708067E-02 
1652	 2.82497068087539E-02 
1653	 2.84977683099912E-02 
1654	 2.85333930790244E-02 
1655	 2.82700110629993E-02 
1656	 2.82338414229391E-02 
1657	 0.02843370858594 
1658	 2.83397264318831E-02 
1659	 2.79429722756617E-02 
1660	 2.80489296307009E-02 
1661	 2.84795401214979E-02 
1662	 2.84912820568855E-02 
1663	 2.86620493528774E-02 
1664	 0.028764383434962 
1665	 2.81633755453652E-02 
1666	 2.80560693223394E-02 
1667	 2.86863577135364E-02 
1668	 2.86178716970441E-02 
1669	 2.81818543349154E-02 
1670	 2.81850246859895E-02 
1671	 2.85518233254203E-02 
1672	 2.83563421220793E-02 
1673	 2.82650673081841E-02 
1674	 2.88243923477641E-02 
1675	 2.86169613404597E-02 
1676	 0.028274931547473 
1677	 2.85693362473617E-02 
1678	 2.83788943772412E-02 
1679	 2.82074513764504E-02 
1680	 2.85619252825166E-02 
1681	 2.87843716407611E-02 
1682	 2.86026560298644E-02 
1683	 2.82935428965016E-02 
1684	 2.84298092115038E-02 
1685	 2.90542291595351E-02 
1686	 2.94920062067106E-02 
1687	 2.91132887266139E-02 
1688	 2.84355284334088E-02 
1689	 2.81183953235479E-02 
1690	 0.02808093603482 
1691	 2.83788020825202E-02 
1692	 2.87793949625945E-02 
1693	 2.85286566673412E-02 
1694	 2.81558366210834E-02 
1695	 2.85230375517521E-02 
1696	 2.87120761265733E-02 
1697	 2.86713093456464E-02 
1698	 2.87383901450813E-02 
1699	 2.82951227444056E-02 
1700	 2.80662514671039E-02 
1701	 2.82344990678084E-02 
1702	 2.81331978086032E-02 
1703	 2.81015319827245E-02 
1704	 2.81394563519404E-02 
1705	 2.80027478035052E-02 
1706	 2.80187172247142E-02 
1707	 2.80224911952158E-02 
1708	 2.78449224795772E-02 
1709	 2.77705921082898E-02 
1710	 2.77680805041519E-02 
1711	 2.78693197696005E-02 
1712	 2.78210737711516E-02 
1713	 2.79184805866291E-02 
1714	 0.027988026279653 
1715	 2.79649317521799E-02 
1716	 0.028157701848618 
1717	 2.77062435065398E-02 
1718	 2.73670289072473E-02 
1719	 2.77776491056841E-02 
1720	 2.78028670939504E-02 
1721	 2.79845680824624E-02 
1722	 0.028164677036008 
1723	 2.74363097181158E-02 
1724	 2.71182566243027E-02 
1725	 2.74920973726626E-02 
1726	 2.76719201320591E-02 
1727	 2.78348491841313E-02 
1728	 2.78011108223703E-02 
1729	 2.71435305628827E-02 
1730	 2.68939898593083E-02 
1731	 2.72411657181828E-02 
1732	 2.72337452132863E-02 
1733	 2.74318792213212E-02 
1734	 2.71075547800043E-02 
1735	 2.62161082131687E-02 
1736	 2.64031769714911E-02 
1737	 2.62795656499061E-02 
1738	 0.025891850303095 
1739	 2.65975376775493E-02 
1740	 2.68768355224749E-02 
1741	 2.64499173327957E-02 
1742	 2.58772342522484E-02 
1743	 2.50725478199367E-02 
1744	 2.50047434483655E-02 
1745	 2.55641741191876E-02 
1746	 2.65261647870352E-02 
1747	 2.66565222068338E-02 
1748	 2.49391969291279E-02 
1749	 2.44218334080439E-02 
1750	 0.024816761561386 
1751	 2.47366330905095E-02 
1752	 2.50624876630321E-02 
1753	 2.50644365169829E-02 
1754	 2.42666909647525E-02 
1755	 2.41174420649182E-02 
1756	 2.42655003756056E-02 
1757	 2.48543817311041E-02 
1758	 2.52530864661213E-02 
1759	 2.48641347348768E-02 
1760	 2.41809881081129E-02 
1761	 2.38284988290129E-02 
1762	 2.38346764133661E-02 
1763	 2.42440282689447E-02 
1764	 2.46548864108306E-02 
1765	 2.41066992504245E-02 
1766	 2.30633868787805E-02 
1767	 2.20115386648244E-02 
1768	 2.13300546374749E-02 
1769	 2.18524997310858E-02 
1770	 2.24607352981454E-02 
1771	 2.28304687669016E-02 
1772	 2.35130305993709E-02 
1773	 2.32148415854871E-02 
1774	 2.21416294736889E-02 
1775	 2.26903896651431E-02 
1776	 0.022669008808161 
1777	 2.21780470928164E-02 
1778	 2.28462557435724E-02 
1779	 2.46567581482765E-02 
1780	 2.40219712023168E-02 
1781	 2.18478764717481E-02 
1782	 2.18326271133634E-02 
1783	 2.08898410617079E-02 
1784	 2.11688523860012E-02 
1785	 2.57502479785132E-02 
1786	 2.61444004885539E-02 
1787	 2.34748036123397E-02 
1788	 2.23336780785265E-02 
1789	 1.88639798823301E-02 
1790	 2.10499287240099E-02 
1791	 2.33177359824557E-02 
1792	 1.85116682642872E-02 
1793	 1.94230414412034E-02 
1794	 2.17421984216607E-02 
1795	 1.87798949862874E-02 
1796	 2.24062135946446E-02 
1797	 2.45925223796327E-02 
1798	 0.015195273410865 
1799	 2.6753186904731E-03 
1800	 4.35414110982627E-03 
1801	 3.99145031693572E-03 
1802	 1.34845163184757E-02 
1803	 0.018077188523345 
1804	 1.59761541517278E-02 
1805	 1.36444962683146E-02 
1806	 2.09240042218669E-04 
1807	-1.54944757817618E-02 
1808	-4.55784340961933E-02 
1809	-6.64606751588688E-02 
1810	-8.80170322676352E-02 
1811	-9.32692759066934E-02 
1812	 2.62356531347388E-03 
1813	 2.81080073518151E-02 
1814	 1.84729625180967E-02 
1815	 1.06297147957946E-02 
1816	-5.96716335740972E-02 
1817	-8.69458496795756E-02 
1818	-0.234575664862296 
1819	-0.368835758060294 
1820	-0.524406175855026 
1821	-0.35896984749438 
1822	-0.20690665634611 
1823	-0.161828645678367 
1824	-5.53603806297982E-02 
1825	 0.156929066879411 
1826	 0.142880541784069 
1827	 0.202386468791372 
1828	 0.291625650037099 
1829	-1.77157031917333 
1830	-1.22800938610054 
1831	 2.1272048498304 
1832	 1.29894874947688 
1833	 0.686591334191 
1834	 0.504640664312398 
1835	 0.387539079555749 
1836	 0.359994580614533 
1837	 0.258368203767081 
1838	 1.30421165115696E-02 
1839	-0.354100716994487 
1840	-0.106268491282892 
1841	 3.35489558986996 
1842	-0.417473347049823 
1843	-0.550547073786178 
1844	-2.66897318653327 
1845	-3.09711256029794 
1846	-0.129949766350434 
1847	-0.424231444396664 
1848	-0.783962457429378 
1849	-6.16246237997506 
1850	 4.09470761081043 
1851	-5.13670742066462 
1852	-1.86164191536847 
1853	-2.03955309987306 
1854	 24.1804576408376 
1855	-0.619682386458751 
1856	-4.02535462212191E-02 
1857	 0.499571358427646 
1858	 0.802999842447251 
1859	 2.48304322450756 
1860	-121.417485795351 
1861	-20.124993126926 
1862	-0.645429280913531 
1863	-0.179908475245704 
1864	 0.45716012878448 
1865	 0.292719814778461 
1866	-0.215316327071825 
1867	-0.345010927957299 
1868	-0.580765676671896 
1869	-0.651834831123905 
1870	-1.89326323208051 
1871	-2.17907081155824 
1872	-0.136341760623494 
1873	 0.139244703368353 
1874	 0.488284263574656 
1875	 1.12650051035006 
1876	 1.54096528986553 
1877	 1.16338832230016 
1878	 1.1730243030111 
1879	 2.28666001260703 
1880	 2.78177499694509 
1881	 2.14300880399934 
1882	 2.4361025465155 
1883	 7.58473763116171 
1884	-5.98482023068887 
1885	-1.57561312106903 
1886	-0.756996237623974 
1887	-0.468253209685457 
1888	-0.871110671927016 
1889	-1.05181231701663 
1890	-1.53491045536546 
1891	-1.68116741804599 
1892	-1.39148895977287 
1893	-1.36103559183821 
1894	-2.30668545935648 
1895	 3.76236332892768 
1896	 1.6891724170934 
1897	 5.00869538595149 
1898	 2.5692524038318 
1899	-14.4874020819205 
1900	-2.90364758895967 
1901	-2.01750094971749 
1902	-2.07926267283058 
1903	-1.91472969961572 
1904	-1.7695792838474 
1905	-4.15574105930201 
1906	-0.251773783789815 
1907	 0.100643762181649 
1908	-0.249366789530711 
1909	-2.20309501872751 
1910	 0.132195681007075 
1911	 0.572756546215279 
1912	 3.52867182206255 
1913	-10.9386261117445 
1914	-1.58193002156581 
1915	-0.952865876580442 
1916	-0.385059168467357 
1917	-0.313272336051048 
1918	-0.437275025889488 
1919	-0.14007952054178 
1920	-1.5724789954399 
1921	 1.77643899770454 
1922	 1.17666050690117 
1923	-43.8738356763144 
1924	 3.43092343593367 
1925	 0.687314072852154 
1926	 0.257370426511646 
1927	 1.93379671328321 
1928	-46.0115827553352 
1929	 32.2655566089836 
1930	-12.8246678338621 
1931	 52.4254461994384 
1932	 0.464007695127794 
1933	 0.152208182824808 
1934	 0.360182895305048 
1935	 0.602004519506797 
1936	 0.45881274364967 
1937	 0.112558967505994 
1938	-0.134179359265542 
1939	-0.193853285705452 
1940	-0.283195534853742 
1941	-0.107949085265298 
1942	 6.41213079475235E-02 
1943	 5.53255706918794E-02 
1944	 0.0482721924602 
1945	 3.69137972993758E-02 
1946	-2.77630927541531E-02 
1947	-4.91548761532533E-02 
1948	-0.033175530421255 
1949	-4.62836463801116E-02 
1950	-0.080336804321087 
1951	-5.12572486508147E-02 
1952	-2.84672841050443E-02 
1953	-1.23321121799165E-02 
1954	-1.92171795097574E-02 
1955	 1.07474592514916E-02 
1956	 1.26065979533931E-02 
1957	-6.14193849265644E-03 
1958	 1.95946635275833E-04 
1959	 1.29103289816273E-03 
1960	-6.13874194186436E-04 
1961	-6.53030751789646E-03 
1962	-1.34101611404637E-02 
1963	-1.11858402670669E-02 
1964	-8.38271818515446E-03 
1965	-5.89066523789466E-03 
1966	-2.77788345409256E-03 
1967	 2.87520058157041E-03 
1968	 3.77619324337134E-03 
1969	 1.13277726061413E-03 
1970	 2.06001504198867E-03 
1971	 3.95589254142497E-03 
1972	 5.56359977974186E-03 
1973	 7.69496609715496E-03 
1974	 7.09189439488277E-03 
1975	 5.74832448427112E-03 
1976	 6.10106168214147E-03 
1977	 5.44553150721631E-03 
1978	 3.25137363551454E-03 
1979	 3.04959491700882E-03 
1980	 2.9042556901115E-03 
1981	 2.56688623498512E-03 
1982	 3.23607430967711E-03 
1983	 5.72808827296982E-03 
1984	 6.09788187770342E-03 
1985	 4.76207926497179E-03 
1986	 4.1674841529385E-03 
1987	 4.93512022868882E-03 
1988	 6.29659054785926E-03 
1989	 6.42219489944329E-03 
1990	 5.94061984220834E-03 
1991	 4.78781592442659E-03 
1992	 3.0680826790172E-03 
1993	 3.49610241881365E-03 
1994	 3.95958170419976E-03 
1995	 6.01899401377525E-03 
1996	 6.80417501738986E-03 
1997	 7.80008767403086E-03 
1998	 7.42838630497815E-03 
1999	 4.77680739205026E-03 
2000	 4.69885111803754E-03 
2001	 4.32331747946498E-03 
2002	 5.52464917912471E-04 
2003	 1.52050112223282E-03 
2004	 6.2142299536902E-03 
2005	 9.40423332667401E-03 
2006	 0.013606518438279 
2007	 1.39615553930648E-02 
2008	 1.00086967242435E-02 
2009	 8.96764764368887E-03 
2010	 8.63149239941832E-03 
2011	 8.26807277974016E-03 
2012	 8.5370777080738E-03 
2013	 1.05003694667379E-02 
2014	 0.011121791584548 
2015	 1.00501854133739E-02 
2016	 9.66993915177311E-03 
2017	 8.78226235631722E-03 
2018	 6.9108805935064E-03 
2019	 5.08102619374196E-03 
2020	 4.59594740513578E-03 
2021	 4.41805971858193E-03 
2022	 5.36678409943434E-03 
2023	 6.44822056642997E-03 
2024	 6.51074896215738E-03 
2025	 6.32711119785434E-03 
2026	 6.17500646513051E-03 
2027	 4.80117803716382E-03 
2028	 5.58342156179294E-03 
2029	 7.10149712886805E-03 
2030	 6.94084064849029E-03 
2031	 7.92615929905122E-03 
2032	 8.03297623009453E-03 
2033	 6.68914556755976E-03 
2034	 6.71796001803305E-03 
2035	 6.55127897021149E-03 
2036	 5.90972534464925E-03 
2037	 6.22041987905449E-03 
2038	 6.77777592779788E-03 
2039	 7.10150205592878E-03 
2040	 7.5643842127314E-03 
2041	 7.71296648572369E-03 
2042	 7.70462057197586E-03 
2043	 7.76351898772839E-03 
2044	 7.72469137567666E-03 
2045	 7.44032486205521E-03 
2046	 7.70911330522428E-03 
2047	 7.60508212904124E-03 
2048	 7.81267530344513E-03 
2049	 8.66477248576543E-03 
2050	 8.57228175869083E-03 
2051	 7.64342865435869E-03 
2052	 7.04228211231929E-03 
2053	 6.64976643272232E-03 
2054	 7.05241862738996E-03 
2055	 8.24404459869571E-03 
2056	 8.70607002925101E-03 
2057	 8.75661810267087E-03 
2058	 9.06599053917027E-03 
2059	 9.38348947847878E-03 
2060	 9.37907688386601E-03 
2061	 9.4853725765222E-03 
2062	 8.90921562987307E-03 
2063	 9.02906409691687E-03 
2064	 9.27586416844804E-03 
2065	 8.75733936356989E-03 
2066	 9.71327455518149E-03 
2067	 1.01090879235767E-02 
2068	 9.21599480880209E-03 
2069	 9.17143380039775E-03 
2070	 8.8982181084412E-03 
2071	 8.54298679481942E-03 
2072	 8.73649680102746E-03 
2073	 8.70238568262329E-03 
2074	 8.72046892666976E-03 
2075	 8.7250368436527E-03 
2076	 8.84799332483106E-03 
2077	 8.82913617653937E-03 
2078	 8.59318833028245E-03 
2079	 8.92262437288139E-03 
2080	 9.73097413415389E-03 
2081	 9.45950736439586E-03 
2082	 9.67160108020777E-03 
2083	 1.10206302163602E-02 
2084	 1.08308876335089E-02 
2085	 9.78735985110864E-03 
2086	 9.13819183975668E-03 
2087	 8.74165512064699E-03 
2088	 8.7110136244416E-03 
2089	 8.87182247831707E-03 
2090	 9.39579515155809E-03 
2091	 9.57273088924001E-03 
2092	 9.55613019950624E-03 
2093	 9.52219436554644E-03 
2094	 9.52789412215072E-03 
2095	 8.73624240147249E-03 
2096	 8.91711537873659E-03 
2097	 0.010309059079435 
2098	 1.05362427246795E-02 
2099	 1.06328401458617E-02 
2100	 0.010717815060729 
2101	 9.7587449138605E-03 
2102	 9.06372194963636E-03 
2103	 1.00320351792359E-02 
2104	 1.07880558349265E-02 
2105	 1.15122024055253E-02 
2106	 1.17051610734559E-02 
2107	 1.12249440240933E-02 
2108	 1.15691325517404E-02 
2109	 1.21848944454662E-02 
2110	 0.012283159735293 
2111	 1.17586055462681E-02 
2112	 1.12866507054345E-02 
2113	 1.10473715402251E-02 
2114	 1.05316518181242E-02 
2115	 1.05835743692575E-02 
2116	 1.15502746094055E-02 
2117	 1.14638063448998E-02 
2118	 1.04685488315978E-02 
2119	 1.06673106666147E-02 
2120	 1.10625058046908E-02 
2121	 1.18318549250495E-02 
2122	 1.23693038835522E-02 
2123	 1.27944876381753E-02 
2124	 0.013135127014911 
2125	 1.31360107510847E-02 
2126	 1.32064397285421E-02 
2127	 1.39481930684815E-02 
2128	 1.45335189203158E-02 
2129	 1.43792317255999E-02 
2130	 1.47893777473211E-02 
2131	 0.01547341248781 
2132	 1.51779452347968E-02 
2133	 1.37984548268636E-02 
2134	 1.30961079836485E-02 
2135	 1.21128987915534E-02 
2136	 1.16993292416774E-02 
2137	 1.20543909152062E-02 
2138	 1.21832305559479E-02 
2139	 1.25659877505192E-02 
2140	 1.24447445528615E-02 
2141	 1.15786806539359E-02 
2142	 1.13775431759044E-02 
2143	 0.011154993106588 
2144	 1.14341860859644E-02 
2145	 1.21292436956501E-02 
2146	 1.28542104163068E-02 
2147	 1.39345177005869E-02 
2148	 1.49219582344797E-02 
2149	 0.015226090943668 
2150	 0.015981936246498 
2151	 1.62246237552711E-02 
2152	 1.54030867839393E-02 
2153	 1.44275339914263E-02 
2154	 1.34040622184316E-02 
2155	 1.35989994719738E-02 
2156	 1.40068865003648E-02 
2157	 1.38414710251241E-02 
2158	 1.43100499904463E-02 
2159	 1.46408781608268E-02 
2160	 1.41031009252971E-02 
2161	 1.36780220894058E-02 
2162	 1.38785242031139E-02 
2163	 1.40955794759006E-02 
2164	 1.33806186146041E-02 
2165	 1.35161182702345E-02 
2166	 1.49684881309575E-02 
2167	 1.51639124081389E-02 
2168	 1.49680738842189E-02 
2169	 1.48994096816996E-02 
2170	 1.43250265021141E-02 
2171	 1.43305408397459E-02 
2172	 1.36652015310188E-02 
2173	 1.28015808869677E-02 
2174	 1.26155498839907E-02 
2175	 1.19365319068293E-02 
2176	 1.22538444786197E-02 
2177	 1.29042608293903E-02 
2178	 1.30505337552288E-02 
2179	 1.29104122081888E-02 
2180	 1.26050749778719E-02 
2181	 1.27148142267562E-02 
2182	 1.21296783645854E-02 
2183	 1.17936887450464E-02 
2184	 1.30407552940702E-02 
2185	 1.41942183440909E-02 
2186	 0.014549657506601 
2187	 1.50492314896584E-02 
2188	 1.51649358595146E-02 
2189	 1.40327858293312E-02 
2190	 1.37186159354288E-02 
2191	 1.41641687395632E-02 
2192	 1.42499840889508E-02 
2193	 1.40084657666969E-02 
2194	 1.39404412959629E-02 
2195	 1.33712835459158E-02 
2196	 1.35835712918433E-02 
2197	 1.43985597612091E-02 
2198	 1.51530428731273E-02 
2199	 1.64057888575552E-02 
2200	 1.85114782332855E-02 
2201	 0.017345702445723 
2202	 1.65122528551333E-02 
2203	 1.60950577909442E-02 
2204	 1.43791235454821E-02 
2205	 1.55310507270995E-02 
2206	 0.01695464018594 
2207	 1.60353307921418E-02 
2208	 1.49347275302316E-02 
2209	 1.27405929580344E-02 
2210	 1.01900257805627E-02 
2211	 1.01996649118114E-02 
2212	 0.012044528763418 
2213	 1.34732959386545E-02 
2214	 0.014995853279974 
2215	 1.55181745837591E-02 
2216	 1.51904468623057E-02 
2217	 1.54089678991745E-02 
2218	 1.67613890369733E-02 
2219	 1.64716085892933E-02 
2220	 0.014144352478127 
2221	 1.45138871669498E-02 
2222	 1.61080229331726E-02 
2223	 1.66883555038406E-02 
2224	 1.90959451695926E-02 
2225	 1.89002732516646E-02 
2226	 0.015665600833176 
2227	 0.014473679771944 
2228	 1.32344494450013E-02 
2229	 1.29731759165791E-02 
2230	 1.44281976654327E-02 
2231	 1.42208380008182E-02 
2232	 1.35279829908909E-02 
2233	 1.30886875857457E-02 
2234	 1.14487432053112E-02 
2235	 1.12566737204499E-02 
2236	 1.24182897347196E-02 
2237	 1.29730241125215E-02 
2238	 1.67376041870062E-02 
2239	 1.80739707619994E-02 
2240	 1.60726856020196E-02 
2241	 1.67782373093557E-02 
2242	 1.59228750462903E-02 
2243	 1.53210091329469E-02 
2244	 1.53666574052357E-02 
2245	 1.42500197468507E-02 
2246	 1.38714560577098E-02 
2247	 1.31155733959566E-02 
2248	 1.28868762084451E-02 
2249	 1.26022074449634E-02 
2250	 1.24349219980737E-02 
2251	 1.09924455743372E-02 
2252	 1.07274125630074E-02 
2253	 0.013861997364342 
2254	 1.40181732704042E-02 
2255	 1.31825692518934E-02 
2256	 1.35138431907897E-02 
2257	 1.18087120242253E-02 
2258	 9.81873493892422E-03 
2259	 1.01340046394756E-02 
2260	 1.06789982025857E-02 
2261	 1.21685901905451E-02 
2262	 1.18567608450709E-02 
2263	 1.12332344913614E-02 
2264	 1.15870368960023E-02 
2265	 1.15658241352595E-02 
2266	 1.19885440514728E-02 
2267	 1.41487278373656E-02 
2268	 1.48701858773814E-02 
2269	 1.32208482171486E-02 
2270	 1.34788062957472E-02 
2271	 0.01650785106755 
2272	 1.58573535809229E-02 
2273	 1.29770934694154E-02 
2274	 1.16085004283692E-02 
2275	 8.20316779906449E-03 
2276	 6.69543540269227E-03 
2277	 6.51596214579209E-03 
2278	 8.18749997797962E-03 
2279	 1.36473741185426E-02 
2280	 1.48799938075928E-02 
2281	 1.53862612062818E-02 
2282	 1.56518028589301E-02 
2283	 1.51073234525046E-02 
2284	 0.010168598893422 
2285	 1.01360831098943E-02 
2286	 1.30786740628409E-02 
2287	 1.06792848201464E-02 
2288	 0.01100552341644 
2289	 1.12123624610133E-02 
2290	 8.28819847885678E-03 
2291	 7.5705329761299E-03 
2292	 6.00549064691856E-03 
2293	 5.55745761520466E-03 
2294	 6.90279498068952E-03 
2295	 8.71478762174516E-03 
2296	 1.13075889560128E-02 
2297	 1.05988011723605E-02 
2298	 9.00252603667909E-03 
2299	 8.23336961818703E-03 
2300	 8.84300966438272E-03 
2301	 0.010255495306079 
2302	 9.57629851604452E-03 
2303	 1.25061117526377E-02 
2304	 0.014438432773047 
2305	 1.41932034707876E-02 
2306	 1.84032740907553E-02 
2307	 1.79214612076397E-02 
2308	 1.12197120985302E-02 
2309	 9.00545441313262E-03 
2310	 1.11913003953935E-02 
2311	 8.0471125018333E-03 
2312	 6.81835897781781E-03 
2313	 1.11261196187408E-02 
2314	 8.96852416465715E-03 
2315	 1.02411760797535E-02 
2316	 1.84202292457972E-02 
2317	 0.016338189945603 
2318	 0.00984531191638 
2319	 8.85749915329527E-03 
2320	 3.61622149235252E-03 
2321	-3.95860280815495E-04 
2322	 2.5122119178216E-03 
2323	 2.16364447458449E-03 
2324	-2.15940641534983E-04 
2325	 5.48601917406061E-04 
2326	 5.07263339418531E-03 
2327	 8.39023779053713E-03 
2328	 7.93123810303482E-03 
2329	 9.20193505854102E-03 
2330	 9.04517704687015E-03 
2331	 4.39594112063493E-03 
2332	 3.62219097602107E-03 
2333	 6.04502137310412E-03 
2334	 6.82886962522565E-03 
2335	 7.06928262984676E-03 
2336	 4.32641428129349E-03 
2337	 7.28177006283755E-03 
2338	 1.30771159536459E-02 
2339	 9.08786731673779E-03 
2340	 1.09423114992214E-02 
2341	 1.12837556456173E-02 
2342	-3.49505989104238E-03 
2343	-7.18165746245121E-03 
2344	-5.63814691904284E-04 
2345	-4.35716829864763E-03 
2346	-8.04334388460483E-03 
2347	-9.02493935768838E-03 
2348	-1.86478832364196E-02 
2349	-2.25773715393246E-02 
2350	-0.015798058302869 
2351	-1.17402192534027E-02 
2352	-7.04423645826181E-03 
2353	 1.3251807712988E-04 
2354	 3.33850714420962E-03 
2355	 6.08591091486537E-03 
2356	 9.80713048328651E-03 
2357	 3.08826806972365E-03 
2358	-1.97683805779802E-03 
2359	 8.43357370399962E-04 
2360	 1.4228926819446E-03 
2361	 1.02634030160001E-02 
2362	 2.31604982233782E-02 
2363	 2.28896628604717E-02 
2364	 1.53423018569703E-02 
2365	 1.41357389575302E-02 
2366	 9.62938340357214E-03 
2367	 7.55354968466192E-03 
2368	 1.20117412333424E-02 
2369	 1.20340595787507E-02 
2370	 1.33387469560888E-02 
2371	 2.21666890494327E-02 
2372	 0.03834824936716 
2373	 2.88963367508066E-02 
2374	 4.26175615524926E-03 
2375	-0.018636475426994 
2376	-5.79526766863978E-02 
2377	-7.27634997974378E-02 
2378	-4.85985947194184E-02 
2379	-2.75074195557522E-02 
2380	-9.14770401644593E-03 
2381	-2.13363635490377E-03 
2382	-3.26788360972484E-03 
2383	-1.58079035500682E-03 
2384	-0.010171059922751 
2385	 1.93253944376525E-02 
2386	 4.59555297284481E-02 
2387	 3.64995633594109E-02 
2388	 4.07575198887372E-02 
2389	 1.92041501223927E-02 
2390	-1.39077556908187E-02 
2391	-1.02764226145188E-02 
2392	 8.92821071739026E-03 
2393	 3.59422246888515E-02 
2394	 5.38346515796381E-02 
2395	 4.19512530551917E-02 
2396	 1.99741390384746E-02 
2397	-6.30190373436764E-03 
2398	-2.01771367046657E-02 
2399	 7.5954619548999E-03 
2400	 5.11422487123195E-02 
2401	 5.28535243534614E-02 
2402	 1.62925953265749E-02 
2403	-1.34141745782017E-02 
2404	-4.72279234186814E-02 
2405	-4.84769421239053E-02 
2406	 1.51687558426032E-02 
2407	 6.69620659383786E-02 
2408	 0.11985401394498 
2409	 0.155990122283436 
2410	 0.139176449757784 
2411	 0.108348510281621 
2412	 0.100001021605148 
2413	 0.124100058940102 
2414	 0.167232193330307 
2415	 0.229608560733694 
2416	 0.216517488298984 
2417	 0.174167560931517 
2418	 0.143962582315403 
2419	 0.11294289442856 
2420	 8.27843606587325E-02 
2421	 3.13932757283688E-02 
2422	 2.71350796509281E-02 
2423	 5.44037643743035E-02 
2424	 4.10057298315558E-02 
2425	 7.45738137022486E-02 
2426	 0.13559927694031 
2427	 5.46085317134978E-02 
2428	 1.55336611114361E-02 
2429	 5.59711528804876E-02 
2430	-1.68412899235364E-02 
2431	-1.64559813675847E-02 
2432	 2.11113325194243E-02 
2433	-3.47884249490725E-02 
2434	-2.45825244762009E-02 
2435	 1.91659940856103E-02 
2436	 3.96350544248065E-02 
2437	 2.50620402507197E-02 
2438	 3.39696130553057E-02 
2439	 6.92129090038943E-02 
2440	 0.060025202293612 
2441	 6.59757171788155E-02 
2442	-2.83110777060369E-02 
2443	-0.123468280503936 
2444	-3.71403511284263E-02 
2445	 8.48319594319501E-02 
2446	 7.69737400388948E-02 
2447	-0.286126682229416 
2448	-0.491902591522607 
2449	-0.763292670835039 
2450	-0.710531567813153 
2451	-3.22798147481003E-02 
2452	-0.332899171820363 
2453	-0.688395233539062 
2454	-0.507536207727087 
2455	-0.868445563283666 
2456	-9.89791975530865E-02 
2457	 2.39178422550174E-02 
2458	-0.150847446775202 
2459	-0.271237342010916 
2460	-0.29308359459818 
2461	-0.135645911632023 
2462	 0.275963707724595 
2463	 0.24589913981463 
2464	-0.138897777977444 
2465	-0.32749042874044 
2466	-0.419739599232993 
2467	-0.379102574857563 
2468	 0.645926916490444 
2469	 0.725854887900413 
2470	 0.533425832554758 
2471	 0.887015921024759 
2472	 0.515640495392887 
2473	 0.383638807889632 
2474	 1.07197778093244 
2475	 1.61869735300791 
2476	-2.72720072529006 
2477	 0.673829878019257 
2478	-0.314377685868108 
2479	-1.45704503487478 
2480	 1.05835432433608 
2481	 0.371562799392956 
2482	 0.523448377903503 
2483	 0.783966456582141 
2484	 1.1099435380646 
2485	 1.25119091343895 
2486	 1.89076474569996 
2487	 2.46119742769452 
2488	-21.3550976551802 
2489	-0.829969749010065 
2490	-0.354730225652957 
2491	 0.522952996244283 
2492	 0.53497820128244 
2493	 0.554636386731402 
2494	 0.156793215112135 
2495	-9.35264783782296E-02 
2496	 0.390002102210787 
2497	-16.3944443022946 
2498	 5.72197930027454E-02 
2499	-1.03979724008371 
2500	 1.97444581403388 
