Wavelength	rt0716a00002.asd
350	 9.60321794902747E-02 
351	 9.58525371819413E-02 
352	 9.57658437575455E-02 
353	 9.57704526630299E-02 
354	 9.57502561071686E-02 
355	 9.58490440489441E-02 
356	 0.096507711390976 
357	 9.69014907803107E-02 
358	 9.64034648931732E-02 
359	 9.68191460056347E-02 
360	 9.73037869610345E-02 
361	 9.77222488169571E-02 
362	 9.83657778432703E-02 
363	 9.81324545876854E-02 
364	 9.77806081964359E-02 
365	 9.78470027475026E-02 
366	 9.81987359064863E-02 
367	 9.84525454315452E-02 
368	 9.86766313721246E-02 
369	 9.89339921907781E-02 
370	 9.87769277729727E-02 
371	 9.86604748845221E-02 
372	 9.87623519834686E-02 
373	 9.90355151106804E-02 
374	 9.91524458259769E-02 
375	 9.91354693703465E-02 
376	 0.099204860758445 
377	 9.97601131565795E-02 
378	 9.94267244764856E-02 
379	 0.099277753935535 
380	 0.100054910454517 
381	 0.099611063225826 
382	 9.98163453618646E-02 
383	 0.100486402441849 
384	 0.100564222289107 
385	 0.100439363464204 
386	 0.10020405640209 
387	 0.100137727852806 
388	 0.100676707020423 
389	 0.100748983224455 
390	 0.100647773486454 
391	 0.100704182264487 
392	 0.100651195677046 
393	 0.100537875104248 
394	 0.100495310032664 
395	 0.100609279543172 
396	 0.100580977447374 
397	 0.100670651306379 
398	 0.100782599881527 
399	 0.100535321667713 
400	 0.100375532261357 
401	 0.10036575269261 
402	 0.100407915119424 
403	 0.100193537539122 
404	 0.100031039222229 
405	 0.100014087678015 
406	 0.10008661584281 
407	 9.98598031021556E-02 
408	 9.96676091839315E-02 
409	 9.96163387918498E-02 
410	 0.099547575193863 
411	 9.94262403681673E-02 
412	 9.93231813577406E-02 
413	 9.92900045009522E-02 
414	 0.099305364031562 
415	 9.91615828999691E-02 
416	 9.89780596694429E-02 
417	 9.89903333119514E-02 
418	 9.92625198541884E-02 
419	 9.93107861616216E-02 
420	 9.91616738962233E-02 
421	 9.93932788945385E-02 
422	 9.93762986912055E-02 
423	 9.94401033051918E-02 
424	 9.98242663773305E-02 
425	 9.99792868509983E-02 
426	 0.100164516798724 
427	 0.100451778424296 
428	 0.10080769020089 
429	 0.101118555985367 
430	 0.101501685517416 
431	 0.101981274245772 
432	 0.10245405154459 
433	 0.102669619305333 
434	 0.102917103902423 
435	 0.103398609989571 
436	 0.103711876436802 
437	 0.103944717331594 
438	 0.104171388153936 
439	 0.104437420304923 
440	 0.104583545570232 
441	 0.104739454012391 
442	 0.104939064637844 
443	 0.105034161221125 
444	 0.105051166990293 
445	 0.105067356607587 
446	 0.105148490438786 
447	 0.105268804522413 
448	 0.105288053858292 
449	 0.105206776398146 
450	 0.105133873751977 
451	 0.105114069778378 
452	 0.105086747179881 
453	 0.105003264636324 
454	 0.104872600142832 
455	 0.104715947819353 
456	 0.104588687256942 
457	 0.104519519643132 
458	 0.10434022927788 
459	 0.104186182198654 
460	 0.104081871389869 
461	 0.103931051429834 
462	 0.10383307386624 
463	 0.103678623361226 
464	 0.103409502355881 
465	 0.103211382829391 
466	 0.103010531192335 
467	 0.102875673497321 
468	 0.102881276434533 
469	 0.102650090232274 
470	 0.102469226579641 
471	 0.102421399350109 
472	 0.102239612230807 
473	 0.102112067153021 
474	 0.102077124448546 
475	 0.102093783802194 
476	 0.101990236933109 
477	 0.101892763888913 
478	 0.101800154170799 
479	 0.101649681928464 
480	 0.101746592020655 
481	 0.101865599884558 
482	 0.101866317499131 
483	 0.101909955964741 
484	 0.10212137347814 
485	 0.102382375639967 
486	 0.102499100900551 
487	 0.10244694725558 
488	 0.102521993683697 
489	 0.102755505226282 
490	 0.102919479364274 
491	 0.103182629259947 
492	 0.103493102894649 
493	 0.103770318099279 
494	 0.103959720024465 
495	 0.10423642017707 
496	 0.10458051896717 
497	 0.104884157789619 
498	 0.105251557852276 
499	 0.105480936194147 
500	 0.105585378965282 
501	 0.105945780244813 
502	 0.106288471849982 
503	 0.106591669462189 
504	 0.106899071049475 
505	 0.107209532041969 
506	 0.107553898377024 
507	 0.107893334314466 
508	 0.108150164712846 
509	 0.108545788875298 
510	 0.108932241071278 
511	 0.109230908525334 
512	 0.109667157324289 
513	 0.110132397590103 
514	 0.110624456447019 
515	 0.111168623390486 
516	 0.111708166341756 
517	 0.112260071433147 
518	 0.112849921542181 
519	 0.113505614189325 
520	 0.114124969187122 
521	 0.114770080913082 
522	 0.11549060668806 
523	 0.116122463637842 
524	 0.116900908010952 
525	 0.1178410202813 
526	 0.118799587326715 
527	 0.119745509137242 
528	 0.120754777171224 
529	 0.121825442525957 
530	 0.122761377418083 
531	 0.123792426510704 
532	 0.124971905187299 
533	 0.126250870042807 
534	 0.127438526410285 
535	 0.128657655423816 
536	 0.129949811994717 
537	 0.131233619166816 
538	 0.132568161418285 
539	 0.133932903223759 
540	 0.135282106961215 
541	 0.136543641653726 
542	 0.137846175263875 
543	 0.139167815983282 
544	 0.140410566639076 
545	 0.141686363011414 
546	 0.142988591008555 
547	 0.144280125432341 
548	 0.145497842405577 
549	 0.146728332991541 
550	 0.147920639047751 
551	 0.149009760509605 
552	 0.15012553151005 
553	 0.151280418742394 
554	 0.152408873870773 
555	 0.153369793340445 
556	 0.154541079886074 
557	 0.155704909979649 
558	 0.156652529019934 
559	 0.15774224171932 
560	 0.158801175345522 
561	 0.159800149958612 
562	 0.160803882726885 
563	 0.16180227059747 
564	 0.162792625185658 
565	 0.163780737844072 
566	 0.16480053989548 
567	 0.165728177135704 
568	 0.166566617332818 
569	 0.167372483688717 
570	 0.168198702642927 
571	 0.169049757648691 
572	 0.169868707282308 
573	 0.170544512393942 
574	 0.171338729974946 
575	 0.172116570210147 
576	 0.172745365188219 
577	 0.173427322282901 
578	 0.174072689933195 
579	 0.174671954239407 
580	 0.175265527367148 
581	 0.175866031028943 
582	 0.176405176983103 
583	 0.176878548028511 
584	 0.177416509296204 
585	 0.177886219090588 
586	 0.178245065318873 
587	 0.178515847299787 
588	 0.178860929042211 
589	 0.179336571162876 
590	 0.179837216756936 
591	 0.180155895636856 
592	 0.180460399738338 
593	 0.18082242389991 
594	 0.181232247487404 
595	 0.181524071401741 
596	 0.181841375208617 
597	 0.182164271139254 
598	 0.182398517276602 
599	 0.182713808869592 
600	 0.182996634452885 
601	 0.183206499289443 
602	 0.183493554952402 
603	 0.183666012717755 
604	 0.183813134023519 
605	 0.184067516701235 
606	 0.184292975102745 
607	 0.184518431731598 
608	 0.184755075622687 
609	 0.184988191997666 
610	 0.185245556750674 
611	 0.185471023596189 
612	 0.185629020659604 
613	 0.185782452719609 
614	 0.18599174462297 
615	 0.186220844962529 
616	 0.186386699934438 
617	 0.186581341787768 
618	 0.186745398313548 
619	 0.186885804084151 
620	 0.1871439071423 
621	 0.187286704211877 
622	 0.187354634115619 
623	 0.187476861058897 
624	 0.187749980719585 
625	 0.187854408461627 
626	 0.187846517499287 
627	 0.188128048333385 
628	 0.188310165769129 
629	 0.188431824902713 
630	 0.188593327928459 
631	 0.188830990341416 
632	 0.189039010346678 
633	 0.189187979676668 
634	 0.189306071390029 
635	 0.189518342718338 
636	 0.189767307679882 
637	 0.189989069707199 
638	 0.190140949861087 
639	 0.190258431792921 
640	 0.1903586651523 
641	 0.190470420505494 
642	 0.190698645581511 
643	 0.190865283034609 
644	 0.190922527984124 
645	 0.190940580317067 
646	 0.191060470489199 
647	 0.191140705422839 
648	 0.191144048142363 
649	 0.191437895702113 
650	 0.191510704634332 
651	 0.191448934808992 
652	 0.191534110324442 
653	 0.191674929135363 
654	 0.19179463072547 
655	 0.191821600549401 
656	 0.19170693186693 
657	 0.191827276586282 
658	 0.191986415354818 
659	 0.19197938588038 
660	 0.191900835369872 
661	 0.191898933349137 
662	 0.191928201116065 
663	 0.191845951509242 
664	 0.191875693024957 
665	 0.191982680989553 
666	 0.192069515012268 
667	 0.19197498369786 
668	 0.192008014804509 
669	 0.192143976273302 
670	 0.192267669398087 
671	 0.192436306951715 
672	 0.19256072975973 
673	 0.192614487137291 
674	 0.192645168417717 
675	 0.192895894465897 
676	 0.19313128186142 
677	 0.193199744503623 
678	 0.193387834112429 
679	 0.193644939581527 
680	 0.193897195729858 
681	 0.194094318852922 
682	 0.194484402534084 
683	 0.194885781353083 
684	 0.195160674228096 
685	 0.195293240958092 
686	 0.195535601417898 
687	 0.195900184878436 
688	 0.196269568116897 
689	 0.196571437860993 
690	 0.196816804981795 
691	 0.197031667936316 
692	 0.197258838725494 
693	 0.197583316946582 
694	 0.197891815380534 
695	 0.198139581127398 
696	 0.198475013000961 
697	 0.198688037313383 
698	 0.198731329554087 
699	 0.198652848732645 
700	 0.198739074937762 
701	 0.199058431176393 
702	 0.199386989820514 
703	 0.199351476007709 
704	 0.19933155754175 
705	 0.199378725364557 
706	 0.19946854092379 
707	 0.199534208703493 
708	 0.19961659720163 
709	 0.199642144690338 
710	 0.199536334496597 
711	 0.199444038616138 
712	 0.199389661352496 
713	 0.199285498101419 
714	 0.19893670238292 
715	 0.198636686322901 
716	 0.198368187825855 
717	 0.198047384833719 
718	 0.197508950382278 
719	 0.197297637324559 
720	 0.197248662962645 
721	 0.196987952763479 
722	 0.196704159060183 
723	 0.196295305283563 
724	 0.195850230053914 
725	 0.19561887843906 
726	 0.195149288463863 
727	 0.194522366705023 
728	 0.193887241882042 
729	 0.193208812471023 
730	 0.192468980555982 
731	 0.191770829533921 
732	 0.191177559654237 
733	 0.190528050407172 
734	 0.189908579350018 
735	 0.189432193988522 
736	 0.189214733888293 
737	 0.188990803645671 
738	 0.188798779324307 
739	 0.188711803038818 
740	 0.188655978026685 
741	 0.188663981053183 
742	 0.188710616865266 
743	 0.188757337879849 
744	 0.188921631026958 
745	 0.189029283237112 
746	 0.189045333123216 
747	 0.189157566263588 
748	 0.189219541325247 
749	 0.189299481036047 
750	 0.189457558666501 
751	 0.189556221705641 
752	 0.189647434323329 
753	 0.189756426812804 
754	 0.189877764459486 
755	 0.189885298927953 
756	 0.18990739169018 
757	 0.189938898036411 
758	 0.189678606686859 
759	 0.189436797841377 
760	 0.189464597754838 
761	 0.189712453190795 
762	 0.189779760452613 
763	 0.189963357315717 
764	 0.190278485888713 
765	 0.19062853183855 
766	 0.190888878622279 
767	 0.191091558851669 
768	 0.191267211873906 
769	 0.191432892591795 
770	 0.191579080083589 
771	 0.191743589205157 
772	 0.191941289827236 
773	 0.192108906421389 
774	 0.192215451270225 
775	 0.192358712851477 
776	 0.192644869239647 
777	 0.192860969432408 
778	 0.193002495248363 
779	 0.193150420654596 
780	 0.19344108942455 
781	 0.193667159341951 
782	 0.193880553515812 
783	 0.194114792246637 
784	 0.194238138711667 
785	 0.194506246172777 
786	 0.194800995800534 
787	 0.194933169409413 
788	 0.195132303877355 
789	 0.195352453909737 
790	 0.19556342433022 
791	 0.19576239109801 
792	 0.19596663631413 
793	 0.196122144954215 
794	 0.196236697240106 
795	 0.196424162051699 
796	 0.196643206181795 
797	 0.196866938821075 
798	 0.197067312835176 
799	 0.197174316150905 
800	 0.197224132913823 
801	 0.197322030371987 
802	 0.197564950205321 
803	 0.19771614418399 
804	 0.197850036073953 
805	 0.197912976435095 
806	 0.197705879198122 
807	 0.197715590780484 
808	 0.197795130576519 
809	 0.197740174380103 
810	 0.197535260471978 
811	 0.197405773237826 
812	 0.197306322489073 
813	 0.197095783287133 
814	 0.196887552788409 
815	 0.19666116239986 
816	 0.196436532895023 
817	 0.196244285681575 
818	 0.195967476810017 
819	 0.195592141503308 
820	 0.195106168274847 
821	 0.194499916551663 
822	 0.193893910519385 
823	 0.19344643900043 
824	 0.193036540266824 
825	 0.191867496988269 
826	 0.190988320836503 
827	 0.19016471261219 
828	 0.188899639741941 
829	 0.187926025937197 
830	 0.186945704838484 
831	 0.185938141174658 
832	 0.185134202771066 
833	 0.18446388837089 
834	 0.183883318439714 
835	 0.18341797690203 
836	 0.183182444669426 
837	 0.182762395179429 
838	 0.182401710174902 
839	 0.182244608519776 
840	 0.181789046716052 
841	 0.18146601208761 
842	 0.181234791729322 
843	 0.180923336109017 
844	 0.18060246708932 
845	 0.180357812174106 
846	 0.180129636342088 
847	 0.179799129483861 
848	 0.179695498875298 
849	 0.179525397121399 
850	 0.179197415766598 
851	 0.17895346005676 
852	 0.178575254356126 
853	 0.178275003390226 
854	 0.178152572525696 
855	 0.177883838092122 
856	 0.177589934162964 
857	 0.177369030913143 
858	 0.177219495295357 
859	 0.176799622233644 
860	 0.176529772395296 
861	 0.176497373429907 
862	 0.176528679688727 
863	 0.176114408408804 
864	 0.175783900381377 
865	 0.175615657737164 
866	 0.175253890970181 
867	 0.175068292885895 
868	 0.174947467973476 
869	 0.174754337942896 
870	 0.17441664799668 
871	 0.173992443901586 
872	 0.173670205737501 
873	 0.173468356618169 
874	 0.17296564326219 
875	 0.172579943109311 
876	 0.172419976128423 
877	 0.172300074595497 
878	 0.171344503321016 
879	 0.171051585525636 
880	 0.170968453794213 
881	 0.170051829163083 
882	 0.169720417188637 
883	 0.169586228654736 
884	 0.169406607090322 
885	 0.16912952039619 
886	 0.168749673114464 
887	 0.168201935866359 
888	 0.167736350355391 
889	 0.167848029824254 
890	 0.167104086373751 
891	 0.166370151735966 
892	 0.166231768297487 
893	 0.165918584254952 
894	 0.165640277512695 
895	 0.165319057709112 
896	 0.164830999156615 
897	 0.164136365930492 
898	 0.163623521304124 
899	 0.163590195589774 
900	 0.163797289321199 
901	 0.16264530346846 
902	 0.162074789918392 
903	 0.161889912800639 
904	 0.16131866742173 
905	 0.161237853953792 
906	 0.160766527406006 
907	 0.159915979608847 
908	 0.159378552874725 
909	 0.159011761473971 
910	 0.158540869811508 
911	 0.157868776778495 
912	 0.157147089753421 
913	 0.157102926990744 
914	 0.15617279606028 
915	 0.154214729459631 
916	 0.152934039296117 
917	 0.152567239992705 
918	 0.151782239924285 
919	 0.150263539875444 
920	 0.149220324961341 
921	 0.147954545950848 
922	 0.146963862566746 
923	 0.146348751758049 
924	 0.144936749841841 
925	 0.143544619260943 
926	 0.142361472965209 
927	 0.141128302016534 
928	 0.138453978167425 
929	 0.137305500859621 
930	 0.136546237062032 
931	 0.133050060368465 
932	 0.131948198927736 
933	 0.129554293717461 
934	 0.125701389176424 
935	 0.122525183040563 
936	 0.119179336606534 
937	 0.118563998480597 
938	 0.118583207863665 
939	 0.116637845522556 
940	 0.113246869533796 
941	 0.112035854421172 
942	 0.111735277352311 
943	 0.109104109446645 
944	 0.105888297553196 
945	 0.103853177138842 
946	 0.101675177591594 
947	 9.71980460659336E-02 
948	 9.52841092721386E-02 
949	 9.48520868357147E-02 
950	 0.092853760965368 
951	 8.70072153124432E-02 
952	 8.42846575063249E-02 
953	 0.084278198587828 
954	 8.40939583356084E-02 
955	 8.09500179057929E-02 
956	 7.97619494980822E-02 
957	 8.03070864417464E-02 
958	 7.96785272886017E-02 
959	 7.53147220515655E-02 
960	 7.60190057493103E-02 
961	 7.67706451282753E-02 
962	 7.54234023303618E-02 
963	 7.35043043113389E-02 
964	 0.075932777911482 
965	 7.52353373247788E-02 
966	 7.23738598530455E-02 
967	 0.073517288500578 
968	 7.27977957245492E-02 
969	 7.14302380369769E-02 
970	 7.09188210084779E-02 
971	 7.19979015228642E-02 
972	 7.17336848170589E-02 
973	 7.19481681031917E-02 
974	 7.31511685324185E-02 
975	 7.39714700121194E-02 
976	 7.35387653279965E-02 
977	 7.21978858411038E-02 
978	 7.15530483762832E-02 
979	 7.31556180742899E-02 
980	 7.20066172770595E-02 
981	 7.23027183445923E-02 
982	 7.36291935639849E-02 
983	 7.21601228072185E-02 
984	 7.26943070707024E-02 
985	 0.072993613088631 
986	 7.23417227448347E-02 
987	 0.072017517508386 
988	 7.46748888376581E-02 
989	 7.47951152989351E-02 
990	 7.35761166313877E-02 
991	 7.62680695493709E-02 
992	 7.58203804932631E-02 
993	 7.62974055353905E-02 
994	 0.077537389143216 
995	 7.67222407599575E-02 
996	 7.77846325221201E-02 
997	 7.74018682613903E-02 
998	 7.64227349923641E-02 
999	 7.78936810440049E-02 
1000	 8.00488815444371E-02 
1001	 7.54213287927888E-02 
1002	 7.60457981165127E-02 
1003	 7.65466162691295E-02 
1004	 7.64883255228969E-02 
1005	 7.68671429237818E-02 
1006	 7.72410775228605E-02 
1007	 7.82305084882734E-02 
1008	 7.87901915847388E-02 
1009	 7.93568667046921E-02 
1010	 8.02759349295809E-02 
1011	 8.07093631265042E-02 
1012	 0.081719362618622 
1013	 8.31016929196998E-02 
1014	 8.40649484560545E-02 
1015	 8.48152919311715E-02 
1016	 8.56911242932079E-02 
1017	 8.64619357134628E-02 
1018	 0.087286775204996 
1019	 8.81437973066519E-02 
1020	 8.91304020210736E-02 
1021	 9.01215787755207E-02 
1022	 9.11463954977882E-02 
1023	 9.24598609308508E-02 
1024	 9.36675113910511E-02 
1025	 9.50170159832996E-02 
1026	 9.60611899195749E-02 
1027	 9.70217642833084E-02 
1028	 9.77778778442494E-02 
1029	 9.87899995844994E-02 
1030	 0.099702701222495 
1031	 0.100811035169614 
1032	 0.102232140040172 
1033	 0.103396819248096 
1034	 0.104486824547372 
1035	 0.1055971786502 
1036	 0.106604547588841 
1037	 0.107717866295249 
1038	 0.109002742582311 
1039	 0.110063037430015 
1040	 0.11119629707635 
1041	 0.112198580699891 
1042	 0.113096998226985 
1043	 0.113779210948945 
1044	 0.114665131023084 
1045	 0.11552871698746 
1046	 0.116451878541688 
1047	 0.117564290559706 
1048	 0.118488693345917 
1049	 0.119436707384231 
1050	 0.120180868359526 
1051	 0.120737156165365 
1052	 0.121298595553524 
1053	 0.121529901608404 
1054	 0.122094378323042 
1055	 0.122846440623717 
1056	 0.123587808521491 
1057	 0.124410033859904 
1058	 0.125546946023204 
1059	 0.126209156272213 
1060	 0.126693397452366 
1061	 0.127187570136394 
1062	 0.127473502438413 
1063	 0.127825726024886 
1064	 0.128225902871318 
1065	 0.128540388740105 
1066	 0.128783042917076 
1067	 0.128980751693459 
1068	 0.129113578267122 
1069	 0.129273911380346 
1070	 0.129406885450916 
1071	 0.129509353325338 
1072	 0.130021121713475 
1073	 0.129714402141122 
1074	 0.129637645125068 
1075	 0.129536632957194 
1076	 0.129266622178521 
1077	 0.128759612195372 
1078	 0.128428212306245 
1079	 0.127956541458486 
1080	 0.12764621156716 
1081	 0.127396501665994 
1082	 0.127293232520006 
1083	 0.127708473007352 
1084	 0.127454930723288 
1085	 0.126891280194835 
1086	 0.126416150132363 
1087	 0.125332727370322 
1088	 0.12456156146518 
1089	 0.124043638479914 
1090	 0.123732642644988 
1091	 0.123151999903705 
1092	 0.122537681705387 
1093	 0.121834063090438 
1094	 0.120884463753802 
1095	 0.120183899355607 
1096	 0.119657147309483 
1097	 0.118874732714323 
1098	 0.117907767093555 
1099	 0.117222561142387 
1100	 0.116471030223372 
1101	 0.115749432701138 
1102	 0.115351873561675 
1103	 0.114863655188749 
1104	 0.114304731031659 
1105	 0.113613502700116 
1106	 0.113174550925095 
1107	 0.112698982220523 
1108	 0.112062618719985 
1109	 0.111770976810581 
1110	 0.111370253608576 
1111	 0.111039581072692 
1112	 0.110720700016087 
1113	 0.110306775402151 
1114	 0.109894312567276 
1115	 0.109793443086303 
1116	 0.109069081069213 
1117	 0.108215846703879 
1118	 0.106789628952 
1119	 0.10313380684721 
1120	 0.10056908547058 
1121	 9.90632362286872E-02 
1122	 9.53481485790156E-02 
1123	 9.53297920043561E-02 
1124	 9.65483978776671E-02 
1125	 9.56753938299568E-02 
1126	 9.44010062878493E-02 
1127	 9.11785462904639E-02 
1128	 8.54739715535089E-02 
1129	 8.30983877402662E-02 
1130	 8.42145699281904E-02 
1131	 8.17656018068877E-02 
1132	 7.91345109335702E-02 
1133	 7.62920324832937E-02 
1134	 6.93080343821897E-02 
1135	 6.67772446870265E-02 
1136	 0.068979423622144 
1137	 6.80013700203666E-02 
1138	 6.67860714272016E-02 
1139	 6.51326007544933E-02 
1140	 6.29992122798958E-02 
1141	 5.81451777318508E-02 
1142	 0.054293096022795 
1143	 5.40648433311555E-02 
1144	 5.50189851590255E-02 
1145	 5.49463846657527E-02 
1146	 5.35229498385417E-02 
1147	 5.13497012990359E-02 
1148	 4.83719247879135E-02 
1149	 4.59214821860311E-02 
1150	 4.49068391866041E-02 
1151	 4.66513298824212E-02 
1152	 4.59813974553626E-02 
1153	 4.46680572014332E-02 
1154	 4.35254366867049E-02 
1155	 4.19189376103422E-02 
1156	 4.12100218967821E-02 
1157	 4.12402883912958E-02 
1158	 4.16268384772458E-02 
1159	 4.18729565741988E-02 
1160	 4.17033786237199E-02 
1161	 0.041705199254397 
1162	 4.14539255159324E-02 
1163	 4.07527492406008E-02 
1164	 0.040610482260827 
1165	 4.05134927197969E-02 
1166	 0.040034939953681 
1167	 4.02772985063395E-02 
1168	 4.04228506577304E-02 
1169	 3.99022691135089E-02 
1170	 3.97738073144195E-02 
1171	 3.95292393504481E-02 
1172	 3.89250850741469E-02 
1173	 3.87768917729114E-02 
1174	 3.88728997689536E-02 
1175	 3.89522649167907E-02 
1176	 3.90268515394349E-02 
1177	 3.93490373793276E-02 
1178	 3.95994397420278E-02 
1179	 3.95137450740535E-02 
1180	 3.96797848659464E-02 
1181	 3.95627620769795E-02 
1182	 3.89121934032068E-02 
1183	 3.86125224929578E-02 
1184	 3.82712585187849E-02 
1185	 3.79973560048933E-02 
1186	 0.038289803946003 
1187	 3.84664172689164E-02 
1188	 0.038469299959981 
1189	 3.86958793138205E-02 
1190	 3.86618044623108E-02 
1191	 3.84090065655731E-02 
1192	 3.83602497846219E-02 
1193	 0.038416781139524 
1194	 3.83440242412685E-02 
1195	 0.038211056131843 
1196	 3.82572488273422E-02 
1197	 3.82365557498569E-02 
1198	 3.81549151545842E-02 
1199	 3.83748234845289E-02 
1200	 3.86976422311034E-02 
1201	 3.88949778294011E-02 
1202	 3.91508251965479E-02 
1203	 3.91037134154179E-02 
1204	 3.88743064849553E-02 
1205	 0.038880299728943 
1206	 3.88739024358596E-02 
1207	 3.88284364311163E-02 
1208	 3.90607583697094E-02 
1209	 3.93338774169735E-02 
1210	 3.91814408339211E-02 
1211	 3.90024873576741E-02 
1212	 3.88217690960114E-02 
1213	 0.038613440725772 
1214	 3.85667504576899E-02 
1215	 3.87201077523289E-02 
1216	 3.87626375056773E-02 
1217	 3.89615282891265E-02 
1218	 3.96075478623577E-02 
1219	 3.99538625016697E-02 
1220	 4.00924794913818E-02 
1221	 0.040322951440836 
1222	 4.03411847606089E-02 
1223	 4.01363968943824E-02 
1224	 0.040214365852794 
1225	 4.03472260410876E-02 
1226	 3.98864790785169E-02 
1227	 3.95470750727616E-02 
1228	 0.039720830592496 
1229	 3.99170090701308E-02 
1230	 4.00792713097865E-02 
1231	 4.01772471051578E-02 
1232	 4.00606345941839E-02 
1233	 3.99824477030253E-02 
1234	 0.039990244921959 
1235	 4.00844642087506E-02 
1236	 0.040410161791002 
1237	 4.05936571173447E-02 
1238	 4.06964326137635E-02 
1239	 4.09603987256542E-02 
1240	 4.13671715855967E-02 
1241	 4.14853755856076E-02 
1242	 0.04138760523966 
1243	 4.13016660599321E-02 
1244	 4.14955930434342E-02 
1245	 4.17011190223837E-02 
1246	 4.18233116939499E-02 
1247	 4.20547105771131E-02 
1248	 4.20775969209989E-02 
1249	 4.17731544479035E-02 
1250	 4.19842598184951E-02 
1251	 4.26729592123055E-02 
1252	 4.27103569941571E-02 
1253	 4.26679640793918E-02 
1254	 4.30589893511464E-02 
1255	 0.043189118444599 
1256	 4.30912654891841E-02 
1257	 4.28145845836469E-02 
1258	 4.28578600179835E-02 
1259	 4.27656318979671E-02 
1260	 0.04259095395091 
1261	 4.27088765453295E-02 
1262	 4.28385346086459E-02 
1263	 4.27771661011329E-02 
1264	 4.26038546541853E-02 
1265	 4.30572889305229E-02 
1266	 4.34008044688644E-02 
1267	 4.32235678442775E-02 
1268	 4.31045953927341E-02 
1269	 4.31431821900772E-02 
1270	 4.31748492968332E-02 
1271	 4.33258558899047E-02 
1272	 4.34245403175673E-02 
1273	 4.33549377413737E-02 
1274	 4.32905133807849E-02 
1275	 4.32495050043244E-02 
1276	 4.34940391986784E-02 
1277	 4.35615841752965E-02 
1278	 0.043244897562681 
1279	 4.28735884057003E-02 
1280	 4.23811881774704E-02 
1281	 4.22816915983133E-02 
1282	 4.27487087409532E-02 
1283	 0.042631226973271 
1284	 4.22933162823944E-02 
1285	 4.21304402056004E-02 
1286	 4.17222932490832E-02 
1287	 4.13407745525264E-02 
1288	 4.12129094648726E-02 
1289	 4.11090712174027E-02 
1290	 4.10465341053527E-02 
1291	 4.04505194646917E-02 
1292	 4.01257202623223E-02 
1293	 4.01192572826415E-02 
1294	 3.98611884268746E-02 
1295	 0.039630125900528 
1296	 3.94411819599641E-02 
1297	 3.91089773150553E-02 
1298	 3.87485492041984E-02 
1299	 3.84445358636753E-02 
1300	 3.84025582864305E-02 
1301	 3.83069642535507E-02 
1302	 3.79607202938058E-02 
1303	 3.76361193540269E-02 
1304	 3.75736152597105E-02 
1305	 3.76893142831187E-02 
1306	 3.74099088510763E-02 
1307	 3.68956740386888E-02 
1308	 3.66102137093504E-02 
1309	 3.63082721546445E-02 
1310	 0.0357943727873 
1311	 3.53560080973907E-02 
1312	 3.50599479695623E-02 
1313	 3.43858189092162E-02 
1314	 3.37165197971077E-02 
1315	 3.34338742988364E-02 
1316	 3.31310996859807E-02 
1317	 3.25068123002468E-02 
1318	 3.20571620967053E-02 
1319	 3.19718414295909E-02 
1320	 3.17644474620311E-02 
1321	 3.13750134064188E-02 
1322	 0.031225398169682 
1323	 3.12998295626383E-02 
1324	 3.09308195111116E-02 
1325	 3.03517909310661E-02 
1326	 0.029963569486079 
1327	 3.00008993697638E-02 
1328	 3.01242196856431E-02 
1329	 2.95367173336249E-02 
1330	 2.90265799761362E-02 
1331	 2.89379147786917E-02 
1332	 2.84337248888309E-02 
1333	 2.87966260200045E-02 
1334	 2.95926260042385E-02 
1335	 2.92067637596413E-02 
1336	 2.70587125944516E-02 
1337	 2.65651970223176E-02 
1338	 2.67206867433652E-02 
1339	 2.61500990573477E-02 
1340	 2.57116392260511E-02 
1341	 2.56917604065768E-02 
1342	 2.50535153260836E-02 
1343	 2.46659017971042E-02 
1344	 2.53200959040707E-02 
1345	 2.59262222145173E-02 
1346	 2.68204660457931E-02 
1347	 2.70823027905203E-02 
1348	 2.71740590026763E-02 
1349	 2.92592446094352E-02 
1350	 3.27592326522288E-02 
1351	 3.43226440423061E-02 
1352	 3.81525835630613E-02 
1353	 4.54346162762792E-02 
1354	 4.96605332716743E-02 
1355	 3.41879348013384E-02 
1356	 4.00431874491533E-02 
1357	 7.73562730283069E-02 
1358	 0.160889784715211 
1359	 0.211324046915114 
1360	 0.117322506925761 
1361	 9.28626525179855E-02 
1362	 9.79441264457221E-02 
1363	-0.019422806278256 
1364	-0.085252120407974 
1365	-0.112724512642043 
1366	-0.250848796108593 
1367	-0.257122121974365 
1368	-0.178247383234751 
1369	 0.101380298102164 
1370	 0.197835209508699 
1371	 0.1963672141474 
1372	 0.218894502896636 
1373	 0.363483025037518 
1374	 0.363663099852073 
1375	 1.56784521628045E-02 
1376	 1.19785389428016E-02 
1377	 0.319193967973905 
1378	 0.32829341085041 
1379	 0.208544634676656 
1380	 0.189356612644175 
1381	-0.246423445863004 
1382	-0.310906224396737 
1383	 0.208131144446139 
1384	 0.28085352657202 
1385	 0.151458827874757 
1386	 0.217416080596541 
1387	 0.307202196193351 
1388	 0.300997266289405 
1389	 0.444396168559366 
1390	 0.49516820866968 
1391	 0.34957529740022 
1392	 0.280053859156242 
1393	-2.52761605096556E-02 
1394	-3.23407612243555E-02 
1395	 0.352509994573187 
1396	 0.343398948711294 
1397	 0.20432498242792 
1398	 0.26306865359824 
1399	 0.209229485452295 
1400	 9.31072379487293E-02 
1401	-6.33334763123881E-02 
1402	-0.101849229991652 
1403	 0.235509770607692 
1404	 0.275873767544352 
1405	 0.169742487715741 
1406	 0.247849030022984 
1407	 0.31428282168507 
1408	 4.93019704627665E-02 
1409	-3.67126800964699E-02 
1410	 0.113206784661007 
1411	 0.166067683442314 
1412	 0.105942706140777 
1413	 4.50983163782121E-02 
1414	 2.08685283494666E-02 
1415	 6.92579402249312E-02 
1416	 9.09348686887029E-02 
1417	 7.12660548169723E-02 
1418	 0.132911922595245 
1419	 0.11838972967802 
1420	-2.5324893024736E-03 
1421	-0.014503546847388 
1422	 2.91314893815946E-02 
1423	 0.043609013811366 
1424	 6.70143025262154E-02 
1425	 6.44757932177341E-02 
1426	 5.09418373663861E-02 
1427	 0.041829922157283 
1428	 2.15913580458511E-02 
1429	 1.15453147120737E-02 
1430	 4.53342919032244E-03 
1431	 5.25668375855721E-03 
1432	 1.71477496992583E-02 
1433	 1.77235008759584E-02 
1434	 1.14580565901157E-02 
1435	 1.22904166890241E-02 
1436	 4.94369510229249E-03 
1437	 1.26239969023256E-02 
1438	 2.27403446509614E-02 
1439	 2.17057230926644E-02 
1440	 1.74927047473707E-02 
1441	 1.61703932843042E-02 
1442	 1.11018876143479E-02 
1443	 8.54951499982329E-03 
1444	 1.43246256023091E-02 
1445	 1.36106778755205E-02 
1446	 5.99898357890775E-03 
1447	 7.2221392482451E-03 
1448	 1.02075225953161E-02 
1449	 5.97828139326645E-03 
1450	 5.65910527398676E-03 
1451	 9.82427555558755E-03 
1452	 6.84143277877874E-03 
1453	 3.9814421148774E-03 
1454	 5.05258134300826E-03 
1455	 8.72239947800969E-03 
1456	 8.02459843760157E-03 
1457	 7.04569363182652E-03 
1458	 0.00710827571831 
1459	 5.14994184214389E-03 
1460	 5.19242465580644E-03 
1461	 8.0379536444513E-03 
1462	 8.78291746728863E-03 
1463	 8.12803586781369E-03 
1464	 8.64286224923118E-03 
1465	 1.04598588407958E-02 
1466	 1.02109721706006E-02 
1467	 7.48144983102125E-03 
1468	 8.31502583767667E-03 
1469	 1.05284443069001E-02 
1470	 1.12578779104598E-02 
1471	 1.52747595075647E-02 
1472	 1.54450639785791E-02 
1473	 1.04961133897477E-02 
1474	 9.34014561456785E-03 
1475	 9.41810250997981E-03 
1476	 8.92656391366327E-03 
1477	 9.24419650725276E-03 
1478	 9.3435232952141E-03 
1479	 9.15937055760224E-03 
1480	 8.97761854523826E-03 
1481	 8.80610285846146E-03 
1482	 8.64662033334403E-03 
1483	 8.63603468582464E-03 
1484	 8.25540128594549E-03 
1485	 7.34796775483654E-03 
1486	 7.36726878485194E-03 
1487	 7.95873510264382E-03 
1488	 7.82429420084482E-03 
1489	 7.1556577840893E-03 
1490	 7.75649483697872E-03 
1491	 9.2981994545593E-03 
1492	 9.16624523063084E-03 
1493	 8.49266327285699E-03 
1494	 8.70057683371905E-03 
1495	 8.63483112746885E-03 
1496	 8.2663151040501E-03 
1497	 8.26917635406248E-03 
1498	 8.55243439932707E-03 
1499	 8.67131539399472E-03 
1500	 8.53655001181806E-03 
1501	 8.56047815580009E-03 
1502	 8.75826902625379E-03 
1503	 8.76588449367083E-03 
1504	 8.53886516177915E-03 
1505	 8.29139283415521E-03 
1506	 8.52332291292181E-03 
1507	 8.73105951431829E-03 
1508	 8.46106783025245E-03 
1509	 8.33410920794482E-03 
1510	 8.66329272403147E-03 
1511	 8.83852556502526E-03 
1512	 8.86948905650232E-03 
1513	 8.8514014712381E-03 
1514	 8.50962424046772E-03 
1515	 8.2843941570601E-03 
1516	 8.39990060895713E-03 
1517	 8.83822635983726E-03 
1518	 9.48924989733799E-03 
1519	 9.76977774227541E-03 
1520	 9.78359535646717E-03 
1521	 9.61287377640568E-03 
1522	 9.67687498894326E-03 
1523	 9.86675992019547E-03 
1524	 9.72720599916934E-03 
1525	 9.64309574378924E-03 
1526	 9.65832652291727E-03 
1527	 9.69503862060847E-03 
1528	 9.76195158677995E-03 
1529	 9.91844261162942E-03 
1530	 1.00545665000565E-02 
1531	 1.00942444496715E-02 
1532	 9.99481812933203E-03 
1533	 9.89375302970117E-03 
1534	 1.00827773369967E-02 
1535	 1.02343124259742E-02 
1536	 1.02013437911181E-02 
1537	 1.01186594179256E-02 
1538	 1.00864851315643E-02 
1539	 1.02757257911094E-02 
1540	 1.04575802916433E-02 
1541	 0.010475750214594 
1542	 1.05343568011438E-02 
1543	 1.06902700238915E-02 
1544	 1.08634255087182E-02 
1545	 1.10345365663579E-02 
1546	 1.10987442063244E-02 
1547	 1.08799447112463E-02 
1548	 1.06621165236014E-02 
1549	 1.07155447604718E-02 
1550	 1.09927667396449E-02 
1551	 1.13953639499787E-02 
1552	 1.15418345823656E-02 
1553	 1.13426223051758E-02 
1554	 1.12816430753554E-02 
1555	 1.15714625169483E-02 
1556	 1.17857638098696E-02 
1557	 1.17633544049335E-02 
1558	 1.17054265611354E-02 
1559	 1.19750594661424E-02 
1560	 0.012262988080757 
1561	 0.012182890539179 
1562	 1.24241404861111E-02 
1563	 1.25841321079756E-02 
1564	 1.22458501930715E-02 
1565	 1.23170972440039E-02 
1566	 1.25293898042547E-02 
1567	 1.24149384569562E-02 
1568	 1.25368407446534E-02 
1569	 1.27764838458714E-02 
1570	 1.29595990144805E-02 
1571	 1.30018642125765E-02 
1572	 1.26698976516649E-02 
1573	 1.27839638643471E-02 
1574	 1.33522276829347E-02 
1575	 0.013333602995505 
1576	 1.32136337482786E-02 
1577	 0.013345394019968 
1578	 1.30794162953469E-02 
1579	 1.28533369354508E-02 
1580	 1.32144981631706E-02 
1581	 1.34884333593579E-02 
1582	 1.34220555333624E-02 
1583	 1.36660141608212E-02 
1584	 1.39263513023288E-02 
1585	 1.38511893515439E-02 
1586	 1.40360401406373E-02 
1587	 1.42433520585371E-02 
1588	 1.41633355560823E-02 
1589	 1.42397113144045E-02 
1590	 1.42544367368415E-02 
1591	 1.41108208923475E-02 
1592	 1.41436227612084E-02 
1593	 1.42436382539999E-02 
1594	 1.43581746979704E-02 
1595	 1.44557935254513E-02 
1596	 1.45209821249482E-02 
1597	 1.46865473356371E-02 
1598	 1.48623709678133E-02 
1599	 1.49075647280049E-02 
1600	 1.49868403005006E-02 
1601	 1.50506197042288E-02 
1602	 1.48617672963265E-02 
1603	 1.48178057394407E-02 
1604	 1.51101931374196E-02 
1605	 1.51328753500794E-02 
1606	 1.49777394658819E-02 
1607	 1.49982972510689E-02 
1608	 1.50157230469486E-02 
1609	 0.0150928854048 
1610	 1.50962564342383E-02 
1611	 1.50727345183319E-02 
1612	 1.51453590845869E-02 
1613	 1.51842721137724E-02 
1614	 1.52087915424613E-02 
1615	 1.53096096194491E-02 
1616	 1.53545323929431E-02 
1617	 1.50547833281826E-02 
1618	 1.49136968507282E-02 
1619	 1.52822758341474E-02 
1620	 1.55058449016104E-02 
1621	 1.55805273399176E-02 
1622	 1.58626517960111E-02 
1623	 1.61719984205017E-02 
1624	 1.63478301838642E-02 
1625	 1.69021418830387E-02 
1626	 1.75933479170844E-02 
1627	 1.76869594203368E-02 
1628	 0.017872878670005 
1629	 1.83034246023319E-02 
1630	 1.86439039462739E-02 
1631	 1.91561797877118E-02 
1632	 1.94837940747634E-02 
1633	 1.95435861505373E-02 
1634	 1.98847438591654E-02 
1635	 0.020230431283113 
1636	 2.05767737835095E-02 
1637	 2.11070106365105E-02 
1638	 2.15914156126532E-02 
1639	 2.11618266477691E-02 
1640	 2.05536945247811E-02 
1641	 2.05609435784894E-02 
1642	 2.02078919818542E-02 
1643	 2.06902526098186E-02 
1644	 2.17912693763342E-02 
1645	 2.18917615542477E-02 
1646	 2.19191988684885E-02 
1647	 2.14191631702321E-02 
1648	 2.02422965714286E-02 
1649	 1.99400078949034E-02 
1650	 1.99856349574916E-02 
1651	 2.02654284340288E-02 
1652	 2.10386682493566E-02 
1653	 0.021057138339908 
1654	 2.09177868625374E-02 
1655	 2.05106520847165E-02 
1656	 0.020414306936167 
1657	 2.06995614158387E-02 
1658	 2.05027116587039E-02 
1659	 1.98716168152257E-02 
1660	 1.98447526354866E-02 
1661	 1.97934993692988E-02 
1662	 1.95101052421397E-02 
1663	 1.97060133630102E-02 
1664	 1.97460799977288E-02 
1665	 1.93134156802579E-02 
1666	 1.92085533557741E-02 
1667	 1.95024015789925E-02 
1668	 1.93716644301277E-02 
1669	 1.92869698474711E-02 
1670	 1.92724500973258E-02 
1671	 1.88130371329443E-02 
1672	 1.85530975793613E-02 
1673	 1.88059028220792E-02 
1674	 0.018818636488499 
1675	 1.87937589205185E-02 
1676	 1.91239307766932E-02 
1677	 1.91705943728532E-02 
1678	 1.87702976823859E-02 
1679	 1.94781388234974E-02 
1680	 2.02805894860299E-02 
1681	 2.00240323262471E-02 
1682	 2.04071726045347E-02 
1683	 2.04473714857157E-02 
1684	 1.95792804887725E-02 
1685	 1.95465389619261E-02 
1686	 1.99893465928093E-02 
1687	 1.94033623760058E-02 
1688	 1.88370639065935E-02 
1689	 1.88960055851291E-02 
1690	 1.87106230987209E-02 
1691	 1.90603267371393E-02 
1692	 1.99105880837823E-02 
1693	 2.00245378423196E-02 
1694	 1.94014261358665E-02 
1695	 1.90752262159806E-02 
1696	 1.92239614317406E-02 
1697	 1.94766613693596E-02 
1698	 1.98458562156223E-02 
1699	 2.01765153398675E-02 
1700	 1.97589796823105E-02 
1701	 1.92552977559596E-02 
1702	 1.92219985091823E-02 
1703	 1.88325588053057E-02 
1704	 1.87012407426352E-02 
1705	 1.85787906185263E-02 
1706	 1.78632067448501E-02 
1707	 1.77286869831382E-02 
1708	 1.79854507378195E-02 
1709	 1.79226847484718E-02 
1710	 1.81790151828372E-02 
1711	 1.82085873943156E-02 
1712	 1.77154107954332E-02 
1713	 0.018197251775072 
1714	 1.83851412316903E-02 
1715	 1.85575878087408E-02 
1716	 1.91089852363195E-02 
1717	 1.93239585653102E-02 
1718	 1.94979848209469E-02 
1719	 1.98920577333894E-02 
1720	 1.99670296094806E-02 
1721	 1.98550543426337E-02 
1722	 1.93488454603831E-02 
1723	 0.018333670551507 
1724	 1.82318131249636E-02 
1725	 1.83721151373543E-02 
1726	 1.84423639017089E-02 
1727	 1.91298132836829E-02 
1728	 0.018696677625753 
1729	 1.77667074592462E-02 
1730	 1.81040994247251E-02 
1731	 0.018128203342854 
1732	 1.80355945270022E-02 
1733	 1.85530592000878E-02 
1734	 1.79741088812585E-02 
1735	 1.72829684242013E-02 
1736	 0.017412112049212 
1737	 1.71686969678773E-02 
1738	 1.75983603026651E-02 
1739	 1.89674754048176E-02 
1740	 1.90617757638576E-02 
1741	 1.83119070981818E-02 
1742	 0.017347347262166 
1743	 1.57605636500179E-02 
1744	 1.56057222497768E-02 
1745	 1.64741744532658E-02 
1746	 1.66480463458627E-02 
1747	 1.66575434314818E-02 
1748	 1.57959051701329E-02 
1749	 1.56901306698134E-02 
1750	 1.63935673972745E-02 
1751	 1.65765244633983E-02 
1752	 1.68032142519849E-02 
1753	 0.016871065269448 
1754	 1.65180935027579E-02 
1755	 1.63425711384826E-02 
1756	 1.61479929358712E-02 
1757	 1.60256414590489E-02 
1758	 1.63718353899241E-02 
1759	 1.57346384889834E-02 
1760	 1.51240334591731E-02 
1761	 0.015341204364544 
1762	 0.014991842188442 
1763	 1.54253089654531E-02 
1764	 1.70039233512631E-02 
1765	 1.75705572404722E-02 
1766	 1.74635664678179E-02 
1767	 1.79841197499368E-02 
1768	 1.82920651718799E-02 
1769	 1.83208824511634E-02 
1770	 1.85119137188395E-02 
1771	 1.83700141310698E-02 
1772	 1.76275811197668E-02 
1773	 1.77762806032775E-02 
1774	 1.87651798743947E-02 
1775	 1.93429794827304E-02 
1776	 1.97312440512999E-02 
1777	 1.84276454060872E-02 
1778	 1.75181816198201E-02 
1779	 1.69192657971604E-02 
1780	 1.67266274465189E-02 
1781	 0.017533731181423 
1782	 1.76482017507114E-02 
1783	 1.79310165819884E-02 
1784	 1.75663512935058E-02 
1785	 1.47631750177583E-02 
1786	 1.42539191509178E-02 
1787	 1.60053571343889E-02 
1788	 1.66606309034286E-02 
1789	 1.83187413649339E-02 
1790	 1.62735398267155E-02 
1791	 1.36715336628715E-02 
1792	 1.36230506370239E-02 
1793	 1.71614922880332E-02 
1794	 2.02299625265977E-02 
1795	 2.07671059881182E-02 
1796	 2.30285911468841E-02 
1797	 1.83421072101059E-02 
1798	 1.09329740547899E-02 
1799	 1.66435203312312E-02 
1800	 1.70864501155872E-02 
1801	 1.90084577131384E-02 
1802	 0.044355091582647 
1803	 4.79711708816653E-02 
1804	 7.67128400510222E-03 
1805	-3.98764577854494E-03 
1806	-1.21793191169786E-02 
1807	-1.30723239484602E-02 
1808	 6.59627869722131E-02 
1809	 9.10727186747982E-02 
1810	 2.29521687305337E-02 
1811	 1.34032918358499E-03 
1812	-3.67947143046122E-02 
1813	-4.43908978301517E-02 
1814	 4.98085595634074E-02 
1815	 8.59948226975325E-02 
1816	 0.101243922191016 
1817	 8.45490963597942E-02 
1818	 0.07184218191144 
1819	 6.04322488767338E-02 
1820	 2.90281910402597E-02 
1821	 0.288267499517039 
1822	 0.347153826471753 
1823	 0.175255598040409 
1824	 0.132639376279305 
1825	-2.10312060618667E-02 
1826	-7.72090085638727E-02 
1827	-0.339882977779126 
1828	-0.511249639176457 
1829	 0.428903758995966 
1830	 0.602460682791776 
1831	 0.443943679827733 
1832	 0.31336393090262 
1833	-6.15604481874321E-03 
1834	 5.71170014304384E-02 
1835	 0.217219320592279 
1836	 0.281942307656075 
1837	 0.966379315404199 
1838	 1.2184762526533 
1839	 1.2655033328042 
1840	-0.682767071032375 
1841	-12.1731643165573 
1842	 2.1591718343268 
1843	 2.01622668340931 
1844	 0.915971126791603 
1845	-0.360894415911634 
1846	 1.22372509554965 
1847	 1.12776865751989 
1848	 1.04550599969004 
1849	 4.71135756152653 
1850	-2.74727941337318 
1851	 4.56726497730913 
1852	 3.4053017722548 
1853	-0.208161555907307 
1854	-24.7350751755116 
1855	-2.45817038229524 
1856	-1.51107711812564 
1857	-0.452636849863465 
1858	-0.419384651595806 
1859	 0.15094557546909 
1860	-10.6534087341397 
1861	 15.0676168496814 
1862	 0.150799769391393 
1863	-0.909499535372683 
1864	-1.99403274012218 
1865	-1.20835734800809 
1866	-0.603636472824835 
1867	-0.540547079075176 
1868	-0.339894691962794 
1869	-0.37378543946788 
1870	-1.04021577248279 
1871	-1.83121424519166 
1872	-0.43839366786174 
1873	-0.164970070488219 
1874	 0.358790719832699 
1875	 1.14115229406716 
1876	 3.58163953244074 
1877	-1.14062548251337 
1878	-0.859479618507572 
1879	-1.08718159420493 
1880	-1.06902996856874 
1881	-1.18230608078667 
1882	-0.923499971887388 
1883	-2.3385106584562 
1884	 1.19931189475244 
1885	-0.689825593173615 
1886	-0.763638335446489 
1887	-0.679245576665689 
1888	-0.860505596916259 
1889	-0.900669180516919 
1890	-2.66106865364617E-02 
1891	-3.07116008828996E-02 
1892	-0.992924831765506 
1893	-1.71389373972975 
1894	-1.56849855571014 
1895	 3.71953634213573 
1896	 2.49514751801952 
1897	 1.55292776383803 
1898	 0.671227315621958 
1899	-5.89017311294105 
1900	-0.68208847042479 
1901	 0.451602096332648 
1902	 0.575990760437167 
1903	 0.420476594961896 
1904	 0.78172761285744 
1905	 1.69208698299761 
1906	 4.62937289740662E-02 
1907	-1.12555343141127E-02 
1908	-0.276329582204229 
1909	-4.71129134510981 
1910	 1.05394681674544 
1911	 0.424925986822867 
1912	-1.28902761973547 
1913	 6.81104675751486 
1914	 0.772113607753264 
1915	 0.559485011995561 
1916	 0.407127101780563 
1917	 0.254767056686959 
1918	-7.53297170347707E-02 
1919	-0.138769641748048 
1920	-0.384044573818559 
1921	 1.44176548529253 
1922	 1.62868035860603 
1923	-65.3676619302583 
1924	 7.07541308417692 
1925	 2.97047556904029 
1926	 3.33175837339048 
1927	 6.81366462546043 
1928	-68.0344863192225 
1929	 46.0973807294524 
1930	-19.9709589585389 
1931	 86.3026215372597 
1932	 1.37546394026212 
1933	 0.879004255742597 
1934	 0.706195670221166 
1935	 8.80931411475043E-02 
1936	-0.11873523780284 
1937	-0.344051370276883 
1938	-0.39487739178613 
1939	-0.346691137754319 
1940	-0.171689335588927 
1941	-0.304811325801344 
1942	-0.265673516202055 
1943	-0.138993663672883 
1944	-0.116929769915692 
1945	 5.01155145767011E-02 
1946	 0.119830650644369 
1947	 5.42587107944521E-02 
1948	 5.78817025134278E-02 
1949	 6.39357140814288E-02 
1950	 2.77302425417383E-02 
1951	 2.89862265466591E-02 
1952	 4.12785855743779E-02 
1953	 6.67585790148452E-02 
1954	 0.062237949562793 
1955	 6.37798044145979E-02 
1956	 6.57720579060888E-02 
1957	 3.67051573133462E-02 
1958	 1.49769076618905E-02 
1959	 1.24660892834776E-02 
1960	 1.28758888278492E-02 
1961	 1.22300265042294E-02 
1962	 0.012994643762784 
1963	 1.15460009334316E-02 
1964	 3.48377113272294E-03 
1965	-1.86463591341858E-03 
1966	-1.23426861877892E-03 
1967	 2.03804443221319E-03 
1968	 3.24617915668927E-03 
1969	 3.77804648629137E-03 
1970	 5.24136640820184E-03 
1971	 2.98662218027661E-03 
1972	 3.54873582998563E-04 
1973	 1.34117317399366E-03 
1974	 2.71961770886107E-03 
1975	 2.63359810285642E-03 
1976	 2.81900411089111E-03 
1977	 2.17183498702505E-03 
1978	 7.48149916669038E-04 
1979	 5.98063814596246E-04 
1980	 1.14232740305413E-03 
1981	 1.54995624456532E-03 
1982	 1.88788292513899E-03 
1983	 2.42694207963177E-03 
1984	 2.35208093416254E-03 
1985	 1.90776488694411E-03 
1986	 2.61698367520498E-03 
1987	 4.14831519459396E-03 
1988	 4.16696672475423E-03 
1989	 4.62597923956419E-03 
1990	 5.29852641316032E-03 
1991	 4.1654381377084E-03 
1992	 3.61258972134926E-03 
1993	 4.37318958224827E-03 
1994	 4.3650392611492E-03 
1995	 3.59151633153373E-03 
1996	 2.93005894473969E-03 
1997	 3.80596031670854E-03 
1998	 2.92436696278655E-03 
1999	 3.65906872439243E-04 
2000	 1.88027343993447E-04 
2001	 6.7031149482649E-04 
2002	-4.62568297218905E-04 
2003	 6.6853224259736E-04 
2004	 2.46462387801371E-03 
2005	 2.67419443257258E-04 
2006	-9.38408287247539E-04 
2007	 7.13675820293917E-04 
2008	 3.06482878203491E-03 
2009	 3.86063754347089E-03 
2010	 3.71155603655895E-03 
2011	 5.05949638037391E-03 
2012	 7.39735780640785E-03 
2013	 5.99581736089373E-03 
2014	 5.83535340094972E-03 
2015	 7.8555865960918E-03 
2016	 5.14343834242716E-03 
2017	 3.38361605823375E-03 
2018	 2.20072025940964E-03 
2019	 4.54984891298954E-05 
2020	 1.09861027376711E-03 
2021	 3.02293891531816E-03 
2022	 3.45076210372283E-03 
2023	 3.34646649354685E-03 
2024	 3.31040257227351E-03 
2025	 1.86673398390508E-03 
2026	 1.63610642513804E-03 
2027	 1.88821557983385E-03 
2028	 2.92778361630258E-03 
2029	 3.0734544561824E-03 
2030	 3.14324066883231E-03 
2031	 3.17547152762091E-03 
2032	 2.13166710450986E-03 
2033	 2.08791833459461E-03 
2034	 3.22152621987805E-03 
2035	 4.23374230219711E-03 
2036	 4.97554664608878E-03 
2037	 5.03471928505458E-03 
2038	 4.42809739249295E-03 
2039	 4.10230603019661E-03 
2040	 3.66851110998201E-03 
2041	 3.50775721239803E-03 
2042	 3.25826282295879E-03 
2043	 3.02530826272297E-03 
2044	 3.01056521365398E-03 
2045	 2.17434744031003E-03 
2046	 1.69290178528875E-03 
2047	 3.03664694987696E-03 
2048	 3.26307628296166E-03 
2049	 4.26604468200393E-03 
2050	 5.86942800931135E-03 
2051	 5.18284370872951E-03 
2052	 5.13709454079202E-03 
2053	 4.90323248714361E-03 
2054	 3.36681066163227E-03 
2055	 3.59132112269237E-03 
2056	 4.31575505111609E-03 
2057	 6.73854985983347E-03 
2058	 6.78776497451217E-03 
2059	 5.71799975963046E-03 
2060	 6.10596160761517E-03 
2061	 6.47166184533478E-03 
2062	 5.51465964278128E-03 
2063	 5.28956246574212E-03 
2064	 5.78955204152266E-03 
2065	 4.69653379335915E-03 
2066	 4.06398005171027E-03 
2067	 4.82668298856593E-03 
2068	 4.85273298296933E-03 
2069	 3.44772744827325E-03 
2070	 1.70111572356654E-03 
2071	 1.76465492839359E-03 
2072	 2.11973463535933E-03 
2073	 2.26745191796757E-03 
2074	 3.06586308237494E-03 
2075	 3.61151760279239E-03 
2076	 3.98919688503807E-03 
2077	 4.47714579536555E-03 
2078	 5.2679923740084E-03 
2079	 5.61185372276122E-03 
2080	 6.01235592530465E-03 
2081	 5.0381880846403E-03 
2082	 4.90363858194884E-03 
2083	 5.44622384935736E-03 
2084	 5.89478409355614E-03 
2085	 6.08456752756856E-03 
2086	 5.32024236464056E-03 
2087	 5.65692579291729E-03 
2088	 6.29965931919945E-03 
2089	 6.18962239989023E-03 
2090	 6.67251857184947E-03 
2091	 6.40448782056708E-03 
2092	 5.5868852424789E-03 
2093	 3.29034844024381E-03 
2094	 2.94200130582156E-03 
2095	 3.04814314776502E-03 
2096	 2.9354894889394E-03 
2097	 3.81915395133542E-03 
2098	 4.26481553811754E-03 
2099	 4.19089912680244E-03 
2100	 0.004517789988029 
2101	 5.15186489064197E-03 
2102	 5.38236758093206E-03 
2103	 5.29291271187739E-03 
2104	 4.76549353941101E-03 
2105	 4.19771833681388E-03 
2106	 3.66994606122852E-03 
2107	 4.16153452512537E-03 
2108	 6.10605139931033E-03 
2109	 7.13990280907398E-03 
2110	 7.50827073055186E-03 
2111	 7.92504506984126E-03 
2112	 7.54949345975825E-03 
2113	 7.54610610184362E-03 
2114	 8.67901531841742E-03 
2115	 8.20728292332166E-03 
2116	 5.84485224993613E-03 
2117	 5.33521922825255E-03 
2118	 4.98326791438389E-03 
2119	 4.99524265216675E-03 
2120	 6.16944475276301E-03 
2121	 7.8293675102884E-03 
2122	 7.06853448136729E-03 
2123	 5.86524154638011E-03 
2124	 6.13126707371584E-03 
2125	 5.98289404601078E-03 
2126	 6.49306414911785E-03 
2127	 7.33823918817863E-03 
2128	 7.64410028887629E-03 
2129	 7.94858597722659E-03 
2130	 8.27768655920242E-03 
2131	 8.96564038673021E-03 
2132	 8.72355138430925E-03 
2133	 7.80306800474733E-03 
2134	 7.73612165550613E-03 
2135	 7.76392147721604E-03 
2136	 7.88071888243047E-03 
2137	 8.84649605714805E-03 
2138	 8.85752581164629E-03 
2139	 8.31586697784661E-03 
2140	 8.18709040378987E-03 
2141	 7.61208389971501E-03 
2142	 7.52559519027973E-03 
2143	 8.17765941558963E-03 
2144	 8.02603910225919E-03 
2145	 7.28341562883529E-03 
2146	 7.2889367012307E-03 
2147	 0.006791701803078 
2148	 6.58404446127667E-03 
2149	 7.68886200661184E-03 
2150	 8.40697730378735E-03 
2151	 9.66950153771259E-03 
2152	 1.07648139716543E-02 
2153	 8.93492268395076E-03 
2154	 7.12658100554642E-03 
2155	 6.98314642370865E-03 
2156	 7.0619156780246E-03 
2157	 6.75352204682449E-03 
2158	 7.88979802079789E-03 
2159	 7.86234444669552E-03 
2160	 6.06839969433822E-03 
2161	 5.44158434188658E-03 
2162	 5.43561771028136E-03 
2163	 5.71968582796651E-03 
2164	 6.63158395478094E-03 
2165	 6.90925410696432E-03 
2166	 7.40479664684528E-03 
2167	 7.48781218800816E-03 
2168	 6.34049704740023E-03 
2169	 5.87886296283398E-03 
2170	 4.89133053575691E-03 
2171	 6.44308830800417E-03 
2172	 7.10761926524159E-03 
2173	 7.98644958659139E-03 
2174	 8.46475708865264E-03 
2175	 8.09097480204172E-03 
2176	 8.24331866170526E-03 
2177	 7.79117062312283E-03 
2178	 8.91005338649475E-03 
2179	 9.5844504622438E-03 
2180	 8.85743511242769E-03 
2181	 1.00381343803617E-02 
2182	 1.04849774149725E-02 
2183	 1.01437939744487E-02 
2184	 9.41499950702415E-03 
2185	 7.23354999043365E-03 
2186	 6.51144220887396E-03 
2187	 5.79553305281015E-03 
2188	 4.93699988371252E-03 
2189	 5.00477925344572E-03 
2190	 5.12588415569779E-03 
2191	 4.1993407417211E-03 
2192	 4.29831767207527E-03 
2193	 6.76906160823239E-03 
2194	 6.95470775774903E-03 
2195	 5.42536769391676E-03 
2196	 5.75073939361331E-03 
2197	 5.43014426847534E-03 
2198	 5.4619166070432E-03 
2199	 7.7248536975932E-03 
2200	 8.5779516714867E-03 
2201	 6.09105334398385E-03 
2202	 5.24303749333241E-03 
2203	 3.99465163436189E-03 
2204	 2.87715931053701E-03 
2205	 4.39596458556258E-03 
2206	 0.00581161277177 
2207	 5.74833026748776E-03 
2208	 5.39221527524392E-03 
2209	 5.39382032667174E-03 
2210	 4.82028894949256E-03 
2211	 5.91050116530048E-03 
2212	 8.1706129682402E-03 
2213	 8.08719367852189E-03 
2214	 8.83410267969015E-03 
2215	 1.05341008729638E-02 
2216	 9.92706261146552E-03 
2217	 8.64061464795677E-03 
2218	 5.67013015756281E-03 
2219	 4.8142973856141E-03 
2220	 3.5628199897113E-03 
2221	 3.30910410236301E-03 
2222	 5.7352824916568E-03 
2223	 5.85645617012919E-03 
2224	 3.86241588166392E-03 
2225	 3.53211172890772E-03 
2226	 3.90275237285245E-03 
2227	 4.23033968064913E-03 
2228	 5.62715826655853E-03 
2229	 5.94837338166251E-03 
2230	 4.36556006357812E-03 
2231	 4.48224211843188E-03 
2232	 6.38245499889621E-03 
2233	 6.76591321132881E-03 
2234	 7.23055596943057E-03 
2235	 7.65130577257675E-03 
2236	 6.46137593112958E-03 
2237	 6.02922881751354E-03 
2238	 7.25287714392016E-03 
2239	 6.61675761161256E-03 
2240	 5.27535390491346E-03 
2241	 5.86787653898769E-03 
2242	 8.17072722049438E-03 
2243	 9.68613755448801E-03 
2244	 1.14166715928151E-02 
2245	 1.08224035036045E-02 
2246	 6.79074755409241E-03 
2247	 5.00169608222831E-03 
2248	 4.38609993351512E-03 
2249	 3.57121391288561E-03 
2250	 2.97329600706217E-03 
2251	 3.06774432562933E-03 
2252	 4.3736926557992E-03 
2253	 5.33665102908015E-03 
2254	 5.80427625631178E-03 
2255	 4.67641660714126E-03 
2256	 3.66318273480418E-03 
2257	 4.60501549878314E-03 
2258	 4.65312612277643E-03 
2259	 5.04631266620378E-03 
2260	 3.99075251116837E-03 
2261	-1.24862523213358E-03 
2262	-1.30788035993191E-03 
2263	 1.56694033787871E-03 
2264	 1.81638259699111E-03 
2265	 4.39864705006793E-03 
2266	 5.77443336723079E-03 
2267	 4.2418651094542E-03 
2268	 3.91772477858507E-03 
2269	 4.52712584633871E-03 
2270	 5.16030485005132E-03 
2271	 5.18779682449833E-03 
2272	 5.40453372238258E-03 
2273	 7.61190692446835E-03 
2274	 7.76216138510684E-03 
2275	 4.5447062984458E-03 
2276	 3.97612969798038E-03 
2277	 4.85932324141069E-03 
2278	 5.59347427742405E-03 
2279	 8.41643168715227E-03 
2280	 9.6465653449232E-03 
2281	 1.08967226954384E-02 
2282	 8.83275464711186E-03 
2283	 7.01668587954102E-03 
2284	 5.73231281685743E-03 
2285	 5.42336282933982E-03 
2286	 7.04923547945021E-03 
2287	 8.83118175681001E-03 
2288	 1.01151956062805E-02 
2289	 8.59049731163239E-03 
2290	 4.8017553562911E-03 
2291	 2.26925238182573E-03 
2292	-9.43266041706319E-04 
2293	-8.32240677555542E-04 
2294	 8.75916492676072E-04 
2295	-1.3884386267751E-03 
2296	-3.94266491392965E-04 
2297	-7.71369629785187E-04 
2298	-3.24344268265819E-03 
2299	 1.29398019128131E-03 
2300	 2.8953830504738E-03 
2301	 2.00152475549222E-03 
2302	 4.43097550433714E-03 
2303	 3.25900266006521E-03 
2304	 8.458209614061E-04 
2305	 2.04453205951635E-03 
2306	 6.66019430900903E-03 
2307	 8.65056998933228E-03 
2308	 8.57213043025346E-03 
2309	 8.60847624674874E-03 
2310	 4.4899854167515E-03 
2311	 4.2674315441426E-03 
2312	 7.31690727664646E-03 
2313	 8.16406796779747E-03 
2314	 9.45720875263328E-03 
2315	 6.3470352981374E-03 
2316	 2.62891830151369E-03 
2317	 1.4087765610946E-03 
2318	 4.1634179543574E-04 
2319	 1.2427917849071E-03 
2320	 2.43418886288831E-03 
2321	 4.71655844275501E-03 
2322	 4.49228629458034E-03 
2323	 6.77144816731767E-03 
2324	 1.06488839236863E-02 
2325	 7.1469372543243E-03 
2326	 6.02393015790784E-03 
2327	 8.45930647584194E-03 
2328	 8.63133852717359E-03 
2329	 7.88494777355598E-03 
2330	 7.87616031304294E-03 
2331	 8.47152019834054E-03 
2332	 3.21251739795255E-03 
2333	-2.51820718299329E-03 
2334	-2.16786882758339E-04 
2335	-3.74863298480219E-03 
2336	-1.27848735267809E-02 
2337	-1.20207452859028E-02 
2338	-8.50784472736682E-03 
2339	-6.9474700198569E-03 
2340	-2.8637482459702E-03 
2341	-8.41480990108055E-03 
2342	-1.60318718694749E-02 
2343	-9.48020992868743E-03 
2344	 2.57944487985542E-04 
2345	 1.49556611011354E-02 
2346	 0.022488000209732 
2347	 1.39921901864513E-02 
2348	 1.07033185165155E-02 
2349	 3.30876118869735E-03 
2350	 1.79097856428156E-03 
2351	 1.45741996381536E-02 
2352	 1.18682518191429E-02 
2353	 1.31250352461287E-02 
2354	 0.024666876203984 
2355	 1.38918210892656E-02 
2356	 2.81094499053083E-03 
2357	 8.68815736603671E-03 
2358	 9.81968662729575E-03 
2359	 8.52593833753947E-03 
2360	 6.09399188738219E-03 
2361	-3.31808607196183E-03 
2362	-5.62569769791757E-03 
2363	-8.4150295804931E-03 
2364	-1.42082704281948E-03 
2365	 8.72660158261376E-03 
2366	-1.00690813458567E-02 
2367	-1.80424845037586E-02 
2368	-2.18195952019087E-02 
2369	-4.20546180667661E-02 
2370	-3.51228351145371E-02 
2371	-0.01991942198663 
2372	-2.00422337007319E-02 
2373	-1.30368324381255E-02 
2374	-1.53583023391071E-03 
2375	 7.10441406304648E-04 
2376	-4.62373909036561E-03 
2377	-9.46099025186159E-04 
2378	 1.17830492481604E-02 
2379	-4.72208959676138E-05 
2380	-3.3577530054628E-03 
2381	 9.1843116841184E-03 
2382	-2.04485884481924E-02 
2383	-3.55582028144035E-02 
2384	-9.32162923330287E-04 
2385	 0.015275375946384 
2386	 0.015645793869192 
2387	 4.70416060412005E-02 
2388	 6.00482619784851E-02 
2389	 4.86829266558754E-02 
2390	 4.04343272881583E-02 
2391	 3.02026641494323E-02 
2392	 1.17032649072418E-02 
2393	-1.79743403095115E-02 
2394	-1.01090573418299E-02 
2395	 2.87509549148387E-03 
2396	-1.14897194464871E-02 
2397	 3.49015688848334E-03 
2398	 3.48733850519419E-02 
2399	 5.23692998501536E-02 
2400	 7.21522369546154E-02 
2401	 5.85432939340194E-02 
2402	 2.89889389111727E-02 
2403	 2.89998462351968E-03 
2404	-0.046879365995883 
2405	-5.02714920651201E-02 
2406	-9.35837544470994E-03 
2407	-2.23676228022336E-03 
2408	 3.96983272935931E-02 
2409	 9.73191374137741E-02 
2410	 5.11164654385311E-02 
2411	-4.39373891430369E-02 
2412	-8.64913085301643E-02 
2413	-0.149986590620595 
2414	-0.208708861264965 
2415	-0.131769207584811 
2416	-6.66005094429738E-02 
2417	-6.88704146875362E-02 
2418	-5.68810250065448E-02 
2419	-3.08373723905461E-02 
2420	-8.04575137556311E-02 
2421	-0.124135549227476 
2422	-0.160979576907485 
2423	-0.230381235410608 
2424	-0.243462824854896 
2425	-0.195622952946294 
2426	-7.87923955808231E-02 
2427	-4.42573451141034E-02 
2428	-0.112604181791273 
2429	-0.17794350466073 
2430	-0.281603270702005 
2431	-0.287659637201525 
2432	-0.249565759985308 
2433	-0.266772537387619 
2434	-0.269858894948046 
2435	-0.244657509867946 
2436	-0.172300389338041 
2437	-0.107910862450476 
2438	-0.117997385620089 
2439	-0.216702736186666 
2440	-0.277744891693821 
2441	-0.135736395259397 
2442	-1.73654379336852E-02 
2443	 6.34680241674183E-02 
2444	 0.118709687728048 
2445	-7.10717330869644E-02 
2446	-0.155581085287118 
2447	-0.308576861595952 
2448	-0.404097168998806 
2449	-0.197147572318364 
2450	-0.121908662894223 
2451	-3.11989983154709E-02 
2452	 0.778509132473172 
2453	 0.26539543505686 
2454	-0.352784797032306 
2455	-0.946759462363014 
2456	-0.919389555191889 
2457	-0.551319595192649 
2458	-0.377405131681556 
2459	-0.137658417445711 
2460	-0.146588118272608 
2461	-0.267399470004644 
2462	-0.446049343584944 
2463	-0.634062306578361 
2464	-0.393716417322689 
2465	-0.24997662685361 
2466	-0.166366142675481 
2467	 0.114899820226572 
2468	-0.314911613408733 
2469	-0.524372998549539 
2470	-0.412547056593085 
2471	-0.400848848745451 
2472	-7.47152326364958E-02 
2473	 0.315300678834721 
2474	 0.893560321260265 
2475	 0.762576457471219 
2476	 0.664147948004578 
2477	 2.11717259573257 
2478	-4.29718895702389 
2479	-3.18802729716684 
2480	 1.12642863880665 
2481	-0.641285648144617 
2482	-0.835917377667324 
2483	-0.38570418438635 
2484	-0.320471944862463 
2485	 0.972303769822165 
2486	 2.33288529185364 
2487	 2.5470001067754 
2488	-64.0155902152818 
2489	-7.722854292101 
2490	-9.74830786921008 
2491	-1.66084694257276 
2492	-0.948847838783598 
2493	 4.44985623723061 
2494	 0.932257164168049 
2495	 0.637388239479456 
2496	 0.65032741643464 
2497	-1.6307044107492 
2498	 1.41034835998466 
2499	 2.57495323202919 
2500	 0.621220097516643 
