Wavelength	rt0716clean00001.asd
350	 2.71044928768484E-02 
351	 2.65143642219606E-02 
352	 2.62451329649402E-02 
353	 2.62332740334715E-02 
354	 0.026118734903118 
355	 2.56389959374846E-02 
356	 2.53401909078055E-02 
357	 2.55059633363908E-02 
358	 2.60094490463011E-02 
359	 0.025487686925699 
360	 2.53739178298613E-02 
361	 2.58657450895449E-02 
362	 2.62554472421332E-02 
363	 2.63889900005275E-02 
364	 2.62748332682041E-02 
365	 2.61471551196466E-02 
366	 2.65242234376301E-02 
367	 2.65722562758259E-02 
368	 2.64665050596138E-02 
369	 2.65095725095313E-02 
370	 2.64294316896413E-02 
371	 2.65333613159296E-02 
372	 0.026729000525764 
373	 2.66877862189307E-02 
374	 2.62146292231275E-02 
375	 2.60796976098518E-02 
376	 2.65323368821398E-02 
377	 2.69912419589443E-02 
378	 2.66497086089332E-02 
379	 2.64419190219959E-02 
380	 2.70737577104239E-02 
381	 2.72164269613657E-02 
382	 2.74474592214529E-02 
383	 2.77250011590314E-02 
384	 2.77838382982033E-02 
385	 0.027899682453086 
386	 2.80553112366837E-02 
387	 2.82280995775901E-02 
388	 2.84176768906984E-02 
389	 0.028757282070437 
390	 2.87640354066693E-02 
391	 2.84012845941077E-02 
392	 2.89789243154697E-02 
393	 2.91581426390502E-02 
394	 2.92868940399343E-02 
395	 2.99955522799897E-02 
396	 2.99356563065041E-02 
397	 2.99929022025092E-02 
398	 3.03447194179536E-02 
399	 3.04739938019705E-02 
400	 3.02933165837693E-02 
401	 3.02616401932535E-02 
402	 3.05746445681887E-02 
403	 3.07076977817872E-02 
404	 3.07258941119065E-02 
405	 3.08128147380928E-02 
406	 0.031101240326861 
407	 3.11007578361833E-02 
408	 3.12687646504115E-02 
409	 3.15882906618144E-02 
410	 3.15627570005957E-02 
411	 0.031588144778712 
412	 3.17598527037726E-02 
413	 0.032050610607505 
414	 3.23129090082465E-02 
415	 0.032409405658043 
416	 3.24890046454822E-02 
417	 3.27495730961917E-02 
418	 3.28898723273204E-02 
419	 3.29906750780179E-02 
420	 3.31563324155107E-02 
421	 3.34766555217276E-02 
422	 3.36519951253709E-02 
423	 3.38764486928595E-02 
424	 3.42515277203439E-02 
425	 3.43156100578887E-02 
426	 3.44787309286016E-02 
427	 3.48536535454255E-02 
428	 3.53505645236824E-02 
429	 3.56218111203991E-02 
430	 3.58798855720202E-02 
431	 3.62162102774951E-02 
432	 3.65187986243289E-02 
433	 3.68494496115184E-02 
434	 3.71225076532959E-02 
435	 3.73234459000617E-02 
436	 3.77468954556903E-02 
437	 3.80862040382514E-02 
438	 3.83236562727405E-02 
439	 3.85975357934466E-02 
440	 3.88938223865676E-02 
441	 3.92332431142452E-02 
442	 3.95718171422336E-02 
443	 3.97650120268744E-02 
444	 4.00749029889713E-02 
445	 4.04347127408471E-02 
446	 4.07164717009681E-02 
447	 4.09319575842035E-02 
448	 4.11913018191768E-02 
449	 4.14518779739347E-02 
450	 0.04158425356947 
451	 4.18903689802029E-02 
452	 4.20680299139429E-02 
453	 4.20436142266063E-02 
454	 4.23988193857815E-02 
455	 4.25266777118564E-02 
456	 4.25690170674933E-02 
457	 0.042818509574717 
458	 4.28387883239223E-02 
459	 4.29313711100077E-02 
460	 4.31523790972591E-02 
461	 4.32845574487492E-02 
462	 4.34553077600571E-02 
463	 4.35775653725703E-02 
464	 0.043601701372566 
465	 4.36733929745446E-02 
466	 4.38349073736349E-02 
467	 4.40016050737484E-02 
468	 4.40566831244977E-02 
469	 4.41772000885375E-02 
470	 0.044391446174666 
471	 0.044625436714064 
472	 4.46929301939094E-02 
473	 4.47765647002251E-02 
474	 4.49741432704999E-02 
475	 4.52718928328231E-02 
476	 4.53501497912582E-02 
477	 4.55087109833695E-02 
478	 0.045737918330485 
479	 4.58430880207574E-02 
480	 0.046124688038005 
481	 4.64225427646569E-02 
482	 4.66205480538764E-02 
483	 4.68008020454057E-02 
484	 4.71139841753212E-02 
485	 4.74655759865476E-02 
486	 0.04770695883344 
487	 4.79694299397543E-02 
488	 4.82421524487823E-02 
489	 4.84902288087793E-02 
490	 4.86736565694342E-02 
491	 4.90058770999305E-02 
492	 4.94314964588218E-02 
493	 4.98485044429088E-02 
494	 5.01912635431732E-02 
495	 0.050535072594908 
496	 5.08874251866112E-02 
497	 5.12302786195838E-02 
498	 5.16299790634079E-02 
499	 5.20522115769649E-02 
500	 5.24489537395721E-02 
501	 0.052764700214899 
502	 5.32191495898207E-02 
503	 5.36778915766723E-02 
504	 5.40027368340136E-02 
505	 5.44719035077135E-02 
506	 5.49334962264643E-02 
507	 5.53766079870574E-02 
508	 5.58985225507835E-02 
509	 0.056374229769494 
510	 5.67702275138831E-02 
511	 5.71226639010556E-02 
512	 0.057584811103021 
513	 5.81253582298739E-02 
514	 5.86973739316213E-02 
515	 5.92440469528214E-02 
516	 5.97891404300273E-02 
517	 6.03178152734009E-02 
518	 6.08354547105558E-02 
519	 6.13750330281457E-02 
520	 0.062011652839085 
521	 6.26411502452175E-02 
522	 6.31769888662906E-02 
523	 6.37181055508051E-02 
524	 6.42958450559433E-02 
525	 6.48851990446078E-02 
526	 6.54375359888462E-02 
527	 6.60964612186075E-02 
528	 6.68043800985874E-02 
529	 6.74790174843963E-02 
530	 6.80463897475526E-02 
531	 6.85874266611049E-02 
532	 6.92272710533778E-02 
533	 7.00375201189379E-02 
534	 7.07049100058121E-02 
535	 7.13134930061084E-02 
536	 7.19413194617966E-02 
537	 7.26219618160518E-02 
538	 7.33728726105321E-02 
539	 7.41225173303218E-02 
540	 7.48013885531258E-02 
541	 7.54070468497109E-02 
542	 7.60901040148636E-02 
543	 7.68349329067135E-02 
544	 7.75296251967992E-02 
545	 7.82150502705855E-02 
546	 7.89250014877481E-02 
547	 7.96484178889977E-02 
548	 8.02879727607754E-02 
549	 8.09447751057698E-02 
550	 0.081634448048018 
551	 8.23364647512477E-02 
552	 8.30082304596505E-02 
553	 8.36882816110425E-02 
554	 8.43680135791078E-02 
555	 8.49804960455591E-02 
556	 8.56496023347152E-02 
557	 8.63320808098953E-02 
558	 8.69681257238081E-02 
559	 8.76085040739408E-02 
560	 8.82552814620334E-02 
561	 8.88619441620624E-02 
562	 8.93709181004263E-02 
563	 8.99131485053583E-02 
564	 9.04276258999154E-02 
565	 9.08927917652226E-02 
566	 9.14197120487641E-02 
567	 9.18872762891443E-02 
568	 0.092320913094527 
569	 0.092777812304531 
570	 0.093180512467873 
571	 9.35404393146581E-02 
572	 9.38754649354141E-02 
573	 9.42025504732761E-02 
574	 9.44999636853553E-02 
575	 9.48263137489338E-02 
576	 9.51860034710174E-02 
577	 9.53530502314566E-02 
578	 0.095571153249428 
579	 9.58458986633948E-02 
580	 0.096032975926084 
581	 0.09609260362115 
582	 9.61301299204192E-02 
583	 9.62185690716837E-02 
584	 9.63532091821369E-02 
585	 9.63071869147096E-02 
586	 0.096155073675721 
587	 9.60645055332531E-02 
588	 0.096009101166066 
589	 9.58910846223564E-02 
590	 9.57455528561997E-02 
591	 9.57289726423816E-02 
592	 9.55604265666866E-02 
593	 9.53077356052087E-02 
594	 9.50502687855135E-02 
595	 9.46594969106949E-02 
596	 9.42149411365664E-02 
597	 9.37661440294909E-02 
598	 9.33386525309476E-02 
599	 9.28657149696809E-02 
600	 0.092417604342135 
601	 9.20572135317863E-02 
602	 9.18048392807231E-02 
603	 9.16362575116414E-02 
604	 9.15093525737959E-02 
605	 9.14038433660122E-02 
606	 9.14345821580403E-02 
607	 9.14763791872529E-02 
608	 9.14906977337308E-02 
609	 9.15384491662635E-02 
610	 9.15825801814995E-02 
611	 0.091624172236424 
612	 9.16532152744211E-02 
613	 9.16021696038251E-02 
614	 9.15241967858998E-02 
615	 9.14905636156259E-02 
616	 9.15530535192309E-02 
617	 9.14978977088175E-02 
618	 9.14526256569733E-02 
619	 9.14910715188968E-02 
620	 9.15462927786723E-02 
621	 0.091568153798705 
622	 9.14856400152867E-02 
623	 9.13102715027118E-02 
624	 9.14529269231691E-02 
625	 9.14691353106473E-02 
626	 9.12929187029957E-02 
627	 9.12441037510349E-02 
628	 9.12726881771417E-02 
629	 9.13042098116539E-02 
630	 0.091288370025792 
631	 9.12638719114224E-02 
632	 9.12160662250825E-02 
633	 9.11671371649094E-02 
634	 9.11478196330941E-02 
635	 9.10991786747681E-02 
636	 9.11711503235513E-02 
637	 9.13175387188193E-02 
638	 9.11883580444967E-02 
639	 0.091166132455408 
640	 9.11431954990099E-02 
641	 9.09800617851648E-02 
642	 0.091020183146069 
643	 9.09458854167708E-02 
644	 9.07521048566331E-02 
645	 9.06925971719074E-02 
646	 9.06831201034661E-02 
647	 9.06401275354859E-02 
648	 9.05204420673973E-02 
649	 9.03831085096504E-02 
650	 9.01647192463316E-02 
651	 8.99690123777822E-02 
652	 8.98996235929208E-02 
653	 8.95759265382093E-02 
654	 8.92751014070154E-02 
655	 8.89806496135942E-02 
656	 8.82783381213468E-02 
657	 0.08780567577183 
658	 8.75353272858782E-02 
659	 8.72892813144795E-02 
660	 8.69165130952814E-02 
661	 8.66043800350895E-02 
662	 8.63861083237276E-02 
663	 8.61956454711317E-02 
664	 0.085972601967884 
665	 8.57326999973759E-02 
666	 8.55110261230528E-02 
667	 8.53608268980643E-02 
668	 0.085261560802784 
669	 8.51769021089719E-02 
670	 8.50910527296324E-02 
671	 8.51267461491736E-02 
672	 8.51217841335116E-02 
673	 0.085040710706589 
674	 0.084983987144619 
675	 8.51128459156997E-02 
676	 8.51675041395965E-02 
677	 8.50417794047608E-02 
678	 8.52325749810462E-02 
679	 8.53607014171908E-02 
680	 8.54365419700802E-02 
681	 8.56240670049999E-02 
682	 8.58533541555874E-02 
683	 8.60501733702083E-02 
684	 8.61940808129926E-02 
685	 8.63508784430962E-02 
686	 8.64071962343205E-02 
687	 0.086434857568979 
688	 8.65292880958786E-02 
689	 8.66315627002365E-02 
690	 8.66108674849636E-02 
691	 8.64964151269471E-02 
692	 8.64000334492254E-02 
693	 8.62337427877818E-02 
694	 8.59334208616081E-02 
695	 8.55636614600617E-02 
696	 8.53310667738136E-02 
697	 0.084923825033178 
698	 8.43235653015043E-02 
699	 8.36587800108738E-02 
700	 8.30762903565935E-02 
701	 0.082567390573154 
702	 8.20051559670654E-02 
703	 8.11961207781996E-02 
704	 8.04616039756946E-02 
705	 7.96630678085231E-02 
706	 7.87448919414664E-02 
707	 7.79356697326069E-02 
708	 7.69477827325585E-02 
709	 7.58313543832568E-02 
710	 7.47151109428742E-02 
711	 7.33942330779183E-02 
712	 7.20875300577635E-02 
713	 0.070759821576466 
714	 6.90585276571248E-02 
715	 0.067513944971996 
716	 6.59440488625081E-02 
717	 6.41890411172377E-02 
718	 6.22804722452399E-02 
719	 6.04678245774587E-02 
720	 5.89459088955522E-02 
721	 5.74403771741606E-02 
722	 0.055910606502703 
723	 5.40598361115099E-02 
724	 5.21309667525141E-02 
725	 5.05101605166452E-02 
726	 4.86033920277427E-02 
727	 4.64814954581858E-02 
728	 4.42950010278726E-02 
729	 4.18633859967759E-02 
730	 3.95030138145012E-02 
731	 3.73447077075203E-02 
732	 3.53005010168354E-02 
733	 3.36655829887102E-02 
734	 3.21956787171398E-02 
735	 3.08892220339995E-02 
736	 3.00554091354908E-02 
737	 2.92423081413063E-02 
738	 2.85877643086393E-02 
739	 2.82486706307526E-02 
740	 2.79645681703435E-02 
741	 0.027747463013874 
742	 2.76171008059133E-02 
743	 2.75794928914236E-02 
744	 2.75015137302948E-02 
745	 2.74465941041311E-02 
746	 2.74346535031376E-02 
747	 2.73998235414764E-02 
748	 2.73279328021576E-02 
749	 0.027268999458892 
750	 2.72697430078733E-02 
751	 2.73168351520962E-02 
752	 0.027269645609217 
753	 2.72072722572949E-02 
754	 2.72941841779025E-02 
755	 2.73068240567757E-02 
756	 2.72955729645936E-02 
757	 2.72915898227142E-02 
758	 2.72512332933249E-02 
759	 2.72237027664223E-02 
760	 2.72886613586446E-02 
761	 2.74301877295467E-02 
762	 2.75584980271216E-02 
763	 2.76479725298787E-02 
764	 2.77039012902221E-02 
765	 2.77616801015298E-02 
766	 2.78910284440392E-02 
767	 2.80124629950512E-02 
768	 2.81392413057001E-02 
769	 2.83606556457079E-02 
770	 2.85475854410281E-02 
771	 2.86986471543399E-02 
772	 0.028848085202491 
773	 2.90526102871076E-02 
774	 2.92321011734083E-02 
775	 2.94614040895129E-02 
776	 2.98261350165969E-02 
777	 3.00322646284979E-02 
778	 3.03086211957482E-02 
779	 3.06857998111014E-02 
780	 3.09649216522443E-02 
781	 3.11382261990775E-02 
782	 3.14241075326415E-02 
783	 3.18938062604209E-02 
784	 3.21877795674674E-02 
785	 3.26164087030559E-02 
786	 3.30770921340318E-02 
787	 3.33864818766468E-02 
788	 3.37800492103549E-02 
789	 3.41214846534763E-02 
790	 0.034432039239443 
791	 3.48594856231131E-02 
792	 3.52721967199495E-02 
793	 3.56868281757994E-02 
794	 0.036117136129887 
795	 3.65227055104924E-02 
796	 3.68743075072383E-02 
797	 3.72160173771755E-02 
798	 3.76015251232462E-02 
799	 3.80072657040524E-02 
800	 3.82221575635571E-02 
801	 3.83832395177462E-02 
802	 3.87660165857712E-02 
803	 3.90257560336762E-02 
804	 3.92239868315959E-02 
805	 3.93340658198878E-02 
806	 3.92112915663188E-02 
807	 3.92124508815943E-02 
808	 3.92161454854569E-02 
809	 0.03908517094807 
810	 3.88984926441073E-02 
811	 3.87109226084809E-02 
812	 3.85423688544746E-02 
813	 3.83645344516207E-02 
814	 3.80029145092249E-02 
815	 3.75612492384133E-02 
816	 3.70471848957973E-02 
817	 3.64027487942122E-02 
818	 3.58979702559687E-02 
819	 3.53324664480898E-02 
820	 3.45749560403874E-02 
821	 3.36637088437666E-02 
822	 3.25694531537909E-02 
823	 3.14869103119721E-02 
824	 3.04287847043318E-02 
825	 2.87096644258588E-02 
826	 2.72447242572303E-02 
827	 2.58237988023371E-02 
828	 2.40576829675005E-02 
829	 2.26270503244721E-02 
830	 2.12322185563666E-02 
831	 1.99792483927746E-02 
832	 1.92448228063938E-02 
833	 1.82771396081174E-02 
834	 1.76271442632373E-02 
835	 1.73493547796187E-02 
836	 1.67108933089807E-02 
837	 1.64209497903939E-02 
838	 1.62046417731803E-02 
839	 1.58018912720809E-02 
840	 1.55419653653516E-02 
841	 1.51941630481036E-02 
842	 1.48849253122674E-02 
843	 1.47642517042531E-02 
844	 1.44648342012023E-02 
845	 1.42092819161794E-02 
846	 0.01404940492047 
847	 1.39027290801314E-02 
848	 1.37456318518164E-02 
849	 1.36382870331263E-02 
850	 1.35623932251125E-02 
851	 1.33868102349303E-02 
852	 1.29318459677129E-02 
853	 1.26853374201756E-02 
854	 1.27925756224516E-02 
855	 1.23813601964066E-02 
856	 1.22315443025044E-02 
857	 1.22060571095741E-02 
858	 1.20138369322167E-02 
859	 1.17484053766687E-02 
860	 1.16502152161565E-02 
861	 1.16604320543212E-02 
862	 1.15702840738244E-02 
863	 1.13514700156685E-02 
864	 1.10899900155882E-02 
865	 1.08847091104641E-02 
866	 1.08092478455454E-02 
867	 1.07194752228936E-02 
868	 1.05806123496163E-02 
869	 1.04134000959652E-02 
870	 1.02822158327415E-02 
871	 1.00287465643561E-02 
872	 9.80825021838133E-03 
873	 9.66002269973343E-03 
874	 9.19445386623717E-03 
875	 9.03970214181871E-03 
876	 0.009098023214601 
877	 9.01540894524228E-03 
878	 8.41356438363041E-03 
879	 8.13740672607167E-03 
880	 8.15926582630651E-03 
881	 8.0396198189124E-03 
882	 7.77967303203201E-03 
883	 7.55437822148845E-03 
884	 7.39604134803456E-03 
885	 7.23359704219069E-03 
886	 7.22016057807015E-03 
887	 7.00311841319531E-03 
888	 6.68271294256783E-03 
889	 6.84533365617884E-03 
890	 6.47066971106214E-03 
891	 6.08501729676215E-03 
892	 6.09651521676039E-03 
893	 6.14078902021428E-03 
894	 6.21663927379376E-03 
895	 5.94399738962024E-03 
896	 5.25738958972304E-03 
897	 5.3788179467987E-03 
898	 5.26770718332313E-03 
899	 5.23787814186399E-03 
900	 5.67597745979552E-03 
901	 5.60952455352633E-03 
902	 5.01434843101723E-03 
903	 4.52977742501477E-03 
904	 4.74757369546463E-03 
905	 4.85301014418004E-03 
906	 4.42688538394341E-03 
907	 3.81004205054413E-03 
908	 3.81000272195998E-03 
909	 3.82412292144666E-03 
910	 3.80569375672718E-03 
911	 3.5619575583757E-03 
912	 2.96356560995356E-03 
913	 4.12833539788733E-03 
914	 3.75423045845683E-03 
915	 1.9012632332039E-03 
916	 2.69030185420899E-03 
917	 3.51646781435801E-03 
918	 3.41727415322384E-03 
919	 2.60302526316304E-03 
920	 2.35514443270639E-03 
921	 2.67816726568085E-03 
922	 2.71404233085759E-03 
923	 2.14068487375361E-03 
924	 2.1603662620393E-03 
925	 1.60000574910068E-03 
926	 1.99333741808181E-03 
927	 4.06404113291897E-03 
928	 1.82942159223349E-03 
929	 2.15369264447614E-05 
930	 1.03041702789008E-03 
931	 4.45813919318648E-03 
932	 2.67461440718431E-04 
933	-4.45855169282254E-04 
934	 3.21654380105132E-03 
935	 4.11089576429398E-03 
936	 3.58477919948705E-04 
937	-9.78252557727336E-04 
938	-3.69021157452864E-04 
939	-2.63813120753783E-04 
940	-4.25341199365773E-04 
941	-8.90458736160876E-04 
942	 4.09699005451952E-05 
943	 3.38505847813669E-03 
944	 4.83748131632385E-04 
945	 1.47825760093776E-03 
946	 3.43640121346476E-03 
947	-1.84935159428704E-03 
948	-2.57505085076912E-03 
949	 1.66365578735186E-03 
950	 3.75980548022411E-03 
951	-2.9957384804245E-03 
952	-2.36100551598156E-04 
953	 4.71774563250525E-03 
954	 5.48969842130197E-03 
955	 2.95220028564265E-04 
956	-4.56682123846271E-04 
957	 1.73169799843805E-03 
958	 3.37484265817088E-03 
959	 1.64516894721009E-03 
960	 3.37664811327037E-04 
961	 1.95782540934684E-03 
962	 3.48540650872701E-03 
963	 3.22334274802542E-04 
964	 8.26697683551274E-04 
965	 2.21352524737322E-03 
966	 2.72513665429615E-03 
967	 2.23402335060974E-03 
968	 1.38087710835138E-03 
969	 7.83951884692939E-04 
970	 8.68464507015478E-04 
971	 1.59475096334104E-03 
972	 3.59481593343154E-04 
973	 3.91096636956525E-04 
974	 1.86825444477365E-03 
975	 1.77812450190205E-03 
976	 2.60007561141361E-03 
977	 2.01934175615366E-03 
978	 7.48198914821246E-04 
979	 1.64644127659955E-03 
980	 1.05781150488477E-04 
981	 6.0626489336701E-04 
982	 2.24389761119739E-03 
983	 2.7802107099154E-04 
984	-4.9123715028883E-04 
985	 4.94667549424971E-04 
986	 1.82049140355532E-03 
987	 1.38846864880416E-03 
988	 1.1013015703035E-03 
989	 1.49198450812607E-03 
990	 1.89930652017985E-03 
991	 1.28206598390171E-03 
992	 1.50275823738203E-03 
993	 2.59320494908497E-03 
994	 3.00887708872282E-03 
995	 1.20608777013146E-03 
996	 1.2601715244979E-03 
997	 9.73094878994619E-04 
998	 5.24626896680533E-04 
999	 1.45558739838821E-03 
1000	 2.86954614584198E-03 
1001	 8.50167240695352E-04 
1002	 9.03401293227217E-04 
1003	 9.04908077199586E-04 
1004	 1.07425381955481E-03 
1005	 1.11967502612867E-03 
1006	 1.00356843569296E-03 
1007	 9.56939261175852E-04 
1008	 1.01446587960706E-03 
1009	 1.13009601513465E-03 
1010	 1.14936504640071E-03 
1011	 9.50367227047612E-04 
1012	 5.18131679474872E-04 
1013	 1.80531679389037E-04 
1014	 1.97297612072134E-04 
1015	 5.40602498445975E-04 
1016	 6.88556996773642E-04 
1017	 1.11724364255272E-03 
1018	 1.21066984511952E-03 
1019	 9.71184276672777E-04 
1020	 8.63756645720534E-04 
1021	 6.35221786287246E-04 
1022	 7.01148704858114E-04 
1023	 7.14809457290215E-04 
1024	 6.21455957748806E-04 
1025	 6.5722358106279E-04 
1026	 5.39502286992973E-04 
1027	 5.07722927548935E-04 
1028	 4.46213571099371E-04 
1029	 5.05964949005674E-04 
1030	 6.5245634054368E-04 
1031	 7.67884789929182E-04 
1032	 9.20785994296453E-04 
1033	 1.08523631843939E-03 
1034	 1.34007128240269E-03 
1035	 1.42913764985607E-03 
1036	 1.57863200900499E-03 
1037	 1.52866930575645E-03 
1038	 1.15631922774634E-03 
1039	 8.59093411107695E-04 
1040	 9.78734964352213E-04 
1041	 9.0657342290901E-04 
1042	 7.9653959271001E-04 
1043	 7.18661422636562E-04 
1044	 8.51688147443849E-04 
1045	 9.42023596149086E-04 
1046	 1.0722518177389E-03 
1047	 1.72228603910401E-03 
1048	 1.7280918733724E-03 
1049	 1.13732386417664E-03 
1050	 9.18475983913982E-04 
1051	 5.14283788485268E-04 
1052	 4.22218092110093E-04 
1053	 8.20768717321722E-04 
1054	 8.89647337767959E-04 
1055	 8.47283300113644E-04 
1056	 8.72082674307794E-04 
1057	 8.66853589480719E-04 
1058	 7.14618622200568E-04 
1059	 6.53875438778214E-04 
1060	 5.26422467771656E-04 
1061	 8.04027164265664E-04 
1062	 1.43045630320285E-03 
1063	 1.59253917504313E-03 
1064	 2.04784260708788E-03 
1065	 2.02473136673862E-03 
1066	 1.08811492157316E-03 
1067	 8.47330651145653E-04 
1068	 9.07028042566501E-04 
1069	 8.62069487668655E-04 
1070	 1.11720366174617E-03 
1071	 1.1738127209128E-03 
1072	 1.2518355962031E-03 
1073	 8.30225329831522E-04 
1074	 8.19305666539957E-04 
1075	 8.83284132622733E-04 
1076	 8.81778182584315E-04 
1077	 1.00004599757492E-03 
1078	 1.0194501926785E-03 
1079	 8.83951423063855E-04 
1080	 8.82733194388108E-04 
1081	 9.04375385004369E-04 
1082	 1.00550221714845E-03 
1083	 1.31063454521441E-03 
1084	 1.39511038226344E-03 
1085	 1.48632076327775E-03 
1086	 1.4490660015178E-03 
1087	 1.01599921603312E-03 
1088	 8.80154308330957E-04 
1089	 9.12865652874713E-04 
1090	 8.76006236374442E-04 
1091	 8.92750782509619E-04 
1092	 1.11196373280402E-03 
1093	 1.14761266896963E-03 
1094	 1.01001696319638E-03 
1095	 1.12745062410209E-03 
1096	 1.37278635537067E-03 
1097	 1.43889356222547E-03 
1098	 1.63023965066945E-03 
1099	 1.66393331935696E-03 
1100	 1.48686310307855E-03 
1101	 1.36280405641475E-03 
1102	 1.01456021335552E-03 
1103	 9.09915870321608E-04 
1104	 8.72993534773718E-04 
1105	 1.00886961106885E-03 
1106	 9.52096944253432E-04 
1107	 1.17923997679854E-03 
1108	 1.28852613934279E-03 
1109	 1.43319182514522E-03 
1110	 1.4747041531867E-03 
1111	 1.58584420648871E-03 
1112	 1.82469150165024E-03 
1113	 1.96776728252395E-03 
1114	 1.84760903530296E-03 
1115	 2.57199695747681E-03 
1116	 2.39981815880985E-03 
1117	-7.49783601985744E-04 
1118	-1.49626290120555E-03 
1119	-3.54300714620515E-04 
1120	-4.86939422504773E-04 
1121	 5.0488465955192E-04 
1122	 5.0370215200417E-03 
1123	 2.42466570686297E-03 
1124	-1.97027107127609E-03 
1125	-3.80547955675302E-03 
1126	-5.03920297313806E-03 
1127	-0.001198853869913 
1128	 2.97188873986429E-03 
1129	 2.39816284200945E-03 
1130	-1.09567905273983E-03 
1131	-1.66134105981145E-03 
1132	-3.9168338252789E-03 
1133	-3.22391402161544E-03 
1134	-4.95522733267216E-05 
1135	 1.14736377556242E-03 
1136	 2.46984780674019E-03 
1137	 3.09290247285275E-03 
1138	 3.0672027836579E-03 
1139	 3.93430010730755E-03 
1140	 2.93654000280792E-03 
1141	-2.42825636399117E-04 
1142	-1.70750343750925E-03 
1143	-7.2531968580734E-04 
1144	 9.41442773556867E-04 
1145	 2.93456979629439E-03 
1146	 4.52866507110359E-03 
1147	 3.74512893294636E-03 
1148	 1.42546205559584E-03 
1149	 2.20342428478423E-04 
1150	-3.49961511129503E-05 
1151	-2.40769630537137E-04 
1152	-1.88341921145099E-04 
1153	 8.50154357922721E-04 
1154	 9.11735036619953E-04 
1155	 3.9336282368769E-04 
1156	 3.41363881043051E-04 
1157	 4.46266704320913E-04 
1158	 1.00729577704798E-03 
1159	 1.4981936527015E-03 
1160	 1.18668937150104E-03 
1161	 6.16887049528148E-04 
1162	 4.21933206966466E-04 
1163	 5.12799387737274E-04 
1164	 8.3527591695344E-04 
1165	 1.19943130854999E-03 
1166	 9.51401147599222E-04 
1167	 6.21786992315796E-04 
1168	 7.15014479917841E-04 
1169	 4.43797255447001E-04 
1170	 2.87886386987811E-04 
1171	 4.22699683382194E-04 
1172	 8.51849606793056E-04 
1173	 7.38988914515906E-04 
1174	 4.77577103461527E-04 
1175	 5.81180235274194E-04 
1176	 4.46959654545582E-04 
1177	 2.05463146047341E-04 
1178	 4.21248174350628E-04 
1179	 6.80776407563632E-04 
1180	 4.05135743880946E-04 
1181	 7.63860324153154E-05 
1182	 1.32678715993152E-04 
1183	 2.59924900442039E-04 
1184	 5.49496103683084E-04 
1185	 1.0502486238961E-03 
1186	 1.13276868885803E-03 
1187	 8.38826062288338E-04 
1188	 6.88705914696091E-04 
1189	 6.95306053160445E-04 
1190	 8.19249918226487E-04 
1191	 8.98928999066998E-04 
1192	 8.15099993592922E-04 
1193	 6.67542065802887E-04 
1194	 4.185429089986E-04 
1195	 1.58785368384526E-04 
1196	 1.31983683128061E-04 
1197	 4.97311499335927E-04 
1198	 8.35382553106234E-04 
1199	 8.81521594243488E-04 
1200	 8.17509311281537E-04 
1201	 8.2061453815811E-04 
1202	 9.98466268985604E-04 
1203	 1.14062702717998E-03 
1204	 1.14944840111578E-03 
1205	 1.05872653418621E-03 
1206	 7.83699727431608E-04 
1207	 6.95263238485434E-04 
1208	 9.1321766005669E-04 
1209	 9.88631847198874E-04 
1210	 9.06957464016403E-04 
1211	 8.75631609434301E-04 
1212	 7.81967175653363E-04 
1213	 4.98608417312047E-04 
1214	 3.99973836265174E-04 
1215	 3.68838558512053E-04 
1216	 4.78746846496613E-04 
1217	 4.7609413889104E-04 
1218	 4.45301772695243E-04 
1219	 4.36770492855932E-04 
1220	 3.56296607841617E-04 
1221	 4.10865236608615E-04 
1222	 5.85744889253904E-04 
1223	 5.74699544723817E-04 
1224	 5.38057774221336E-04 
1225	 6.4376320713866E-04 
1226	 7.58214211027513E-04 
1227	 7.90183688735981E-04 
1228	 8.52043076369997E-04 
1229	 9.47524096360826E-04 
1230	 8.59639896241584E-04 
1231	 7.71608351024726E-04 
1232	 7.5368589379855E-04 
1233	 4.93475919269477E-04 
1234	 3.51537464949934E-04 
1235	 3.57223496823141E-04 
1236	 7.52799168813711E-04 
1237	 7.7082886392894E-04 
1238	 6.83383975606802E-04 
1239	 5.77862415051101E-04 
1240	 3.54722451374127E-04 
1241	 2.55664708163926E-04 
1242	 3.42654993401891E-04 
1243	 4.68121858136508E-04 
1244	 6.09401874986322E-04 
1245	 7.13142107653712E-04 
1246	 7.21841480083429E-04 
1247	 7.14475709279478E-04 
1248	 6.36767742382915E-04 
1249	 5.74577179527456E-04 
1250	 7.06171654755801E-04 
1251	 7.23057009989114E-04 
1252	 5.4002972694489E-04 
1253	 5.923924199148E-04 
1254	 6.37277332662012E-04 
1255	 4.06022621224519E-04 
1256	 3.95724886618223E-04 
1257	 7.06699671537429E-04 
1258	 7.78537849058735E-04 
1259	 6.38104063495151E-04 
1260	 6.84886402738006E-04 
1261	 9.15440827868496E-04 
1262	 9.1130253206504E-04 
1263	 7.58562375774305E-04 
1264	 8.27377891758113E-04 
1265	 9.14224911639985E-04 
1266	 7.79735453744014E-04 
1267	 7.5053636589658E-04 
1268	 8.03085981318142E-04 
1269	 6.89816097966309E-04 
1270	 4.57249674466917E-04 
1271	 4.17186578204122E-04 
1272	 5.2611811048304E-04 
1273	 6.0253434980587E-04 
1274	 7.45277624889274E-04 
1275	 7.77145452065738E-04 
1276	 6.44779542170258E-04 
1277	 6.57616505299979E-04 
1278	 7.21694494437212E-04 
1279	 7.71924776979402E-04 
1280	 9.72613894782269E-04 
1281	 1.00895881087543E-03 
1282	 9.41138631850587E-04 
1283	 9.2909711591111E-04 
1284	 8.69321478129808E-04 
1285	 8.04042039345481E-04 
1286	 8.1858695923542E-04 
1287	 8.51077213839146E-04 
1288	 8.01020997776501E-04 
1289	 6.90891699569679E-04 
1290	 5.42667063441465E-04 
1291	 5.92154065111254E-04 
1292	 6.80719385534037E-04 
1293	 7.22738231801294E-04 
1294	 7.17829252555615E-04 
1295	 7.7890340547412E-04 
1296	 6.63039320349512E-04 
1297	 4.69991530935445E-04 
1298	 6.19665073361365E-04 
1299	 7.71854734252239E-04 
1300	 6.65956549457314E-04 
1301	 6.91924551945423E-04 
1302	 8.51840220143539E-04 
1303	 6.86387829737286E-04 
1304	 5.87648065490828E-04 
1305	 8.1991662695185E-04 
1306	 8.52135913574032E-04 
1307	 9.23378439360448E-04 
1308	 9.44332708277297E-04 
1309	 7.16932058724485E-04 
1310	 7.00402073921652E-04 
1311	 9.9083707319962E-04 
1312	 8.86869305294405E-04 
1313	 4.34648473195466E-04 
1314	 5.31396525683034E-04 
1315	 1.00745443319838E-03 
1316	 8.02679540860455E-04 
1317	 2.84681204307432E-04 
1318	 3.44429153433943E-04 
1319	 2.29321149115903E-04 
1320	 6.95007406440067E-05 
1321	 4.63906167182819E-04 
1322	 9.73667189331685E-04 
1323	 9.61895060643465E-04 
1324	 5.03189110105906E-04 
1325	 4.32291859543205E-04 
1326	 8.88698439845744E-04 
1327	 1.12066591437132E-03 
1328	 8.53920392046999E-04 
1329	 5.01241128350492E-04 
1330	 4.92998485644418E-04 
1331	 7.43716525152342E-04 
1332	 5.12869101912953E-04 
1333	 2.4413718010233E-04 
1334	 6.12223775819189E-04 
1335	 9.29833707127562E-04 
1336	 8.51702454517584E-04 
1337	 5.16604963563295E-04 
1338	 6.05896666367635E-04 
1339	 9.5149703117643E-04 
1340	 5.48911787464791E-04 
1341	 2.26569657934787E-04 
1342	 1.00266502555954E-03 
1343	 9.44492588727977E-04 
1344	-8.68261991685477E-04 
1345	-1.41115880525485E-03 
1346	-4.2111960932497E-04 
1347	-1.98484157289354E-04 
1348	-5.4002542592051E-04 
1349	-8.58834503803126E-04 
1350	-2.93052950679126E-03 
1351	-2.32373715022025E-03 
1352	 9.22909642011738E-03 
1353	 1.42534379918519E-02 
1354	 1.37752435231695E-02 
1355	 1.32653676029486E-02 
1356	 1.16804681610708E-02 
1357	-3.28340177922502E-02 
1358	-6.81262680516197E-02 
1359	-3.43253963661566E-02 
1360	-4.02230807847811E-02 
1361	-6.65876902520761E-02 
1362	 0.076789637499458 
1363	 0.211176239016289 
1364	 4.38022293613622E-02 
1365	-0.176322874048778 
1366	-7.02574530530921E-02 
1367	 0.096001279710626 
1368	-2.12090753927937E-02 
1369	-1.25503007762984E-02 
1370	 0.115516387969037 
1371	 2.38133181680976E-02 
1372	-4.53291042664483E-02 
1373	 0.27776708203124 
1374	 0.447773434977019 
1375	 2.80065263623391E-03 
1376	-6.41703572343362E-02 
1377	 0.443083321829678 
1378	 0.55253285546269 
1379	 0.040072447111448 
1380	-1.70499111288966E-02 
1381	-2.65270353008322E-02 
1382	-7.43258427501501E-02 
1383	 4.24985731140083E-02 
1384	 0.130551932313428 
1385	 0.228771911438894 
1386	 0.227291368135518 
1387	 0.218502464203993 
1388	 0.247288822954671 
1389	 0.263958419874695 
1390	 0.143729521233795 
1391	-0.090560130406122 
1392	-0.152746888305256 
1393	-9.02153989593712E-02 
1394	-8.67696265663385E-02 
1395	-0.138147103939792 
1396	-0.110583162195135 
1397	 0.186581811729656 
1398	 0.151536496488475 
1399	 2.56982448085851E-02 
1400	 0.1224394700805 
1401	 4.88039403470891E-02 
1402	-0.227174939161746 
1403	-0.300814046125984 
1404	-0.046344884458979 
1405	-4.98961930243067E-02 
1406	-0.353648152433187 
1407	-0.281960049102956 
1408	 4.49304077053559E-02 
1409	 4.56187704922003E-02 
1410	-4.98524179720799E-02 
1411	 3.42488926564578E-02 
1412	 0.148655589592252 
1413	 0.103442801452119 
1414	 6.56294053796189E-02 
1415	 6.78951831920946E-02 
1416	-2.84870916509558E-02 
1417	-8.42860755335747E-02 
1418	-8.90275333463373E-02 
1419	-3.84896416983347E-02 
1420	 2.46214201639598E-02 
1421	 0.011541123415708 
1422	 3.71624525824794E-03 
1423	 1.65868352205248E-02 
1424	 1.41192420046239E-02 
1425	-4.16266788598524E-03 
1426	-2.64941227517814E-02 
1427	-1.37596607074447E-02 
1428	 6.26723109069767E-03 
1429	 1.37922743556601E-03 
1430	 1.23995372770631E-02 
1431	 2.15540243572467E-02 
1432	 2.94749450102227E-03 
1433	-8.99192714782817E-03 
1434	-1.08600845685955E-02 
1435	-2.53718152924462E-03 
1436	 1.24677731520996E-02 
1437	 1.04400955172549E-02 
1438	 8.6583620168863E-03 
1439	 1.19983803546231E-02 
1440	 4.93609163567467E-03 
1441	-1.52424852013403E-03 
1442	-7.19504508784441E-03 
1443	-9.00669993119487E-03 
1444	-1.65491623185946E-03 
1445	-2.58846244069362E-03 
1446	-6.4782328663387E-03 
1447	-1.99747199216999E-03 
1448	-2.76624734482582E-03 
1449	-7.42675185146183E-03 
1450	-4.19111307004787E-03 
1451	 1.68565681349614E-03 
1452	 2.55836065146233E-03 
1453	 5.89003704752687E-04 
1454	 9.35375366059941E-04 
1455	 2.33422003843293E-03 
1456	 1.63165868080733E-03 
1457	 9.25504732164804E-05 
1458	 5.33642297454752E-05 
1459	-1.96094610601924E-04 
1460	-1.11387598855925E-03 
1461	-1.86400680531837E-03 
1462	-1.36562132089602E-03 
1463	-1.25010536827186E-03 
1464	-1.50140736887278E-03 
1465	 2.0916020871333E-04 
1466	 1.30834954669538E-03 
1467	 3.2764212545833E-04 
1468	 6.85956061047543E-04 
1469	 4.48331944021502E-03 
1470	 3.38714205285597E-03 
1471	-3.23434979761825E-03 
1472	-3.41655752634523E-03 
1473	-1.19566702432165E-03 
1474	-1.63867577578923E-03 
1475	-6.50871052188522E-04 
1476	 9.63672489736462E-04 
1477	 1.60744245306706E-03 
1478	 3.94815052065833E-04 
1479	-1.27290530017063E-03 
1480	-2.92862272058106E-04 
1481	 5.67613862101775E-04 
1482	 5.63870100354888E-04 
1483	 2.62221395852007E-03 
1484	 3.07319294250803E-03 
1485	 9.13774548817904E-04 
1486	 4.88528384611772E-04 
1487	 1.70924186435271E-03 
1488	 1.47257944866095E-03 
1489	 1.81749929739758E-04 
1490	 2.21506283520204E-04 
1491	 5.41304956366863E-04 
1492	 5.78692658367369E-04 
1493	 1.2480207826002E-03 
1494	 1.33680449759433E-03 
1495	 8.06928624267842E-04 
1496	 6.37815666525772E-04 
1497	 6.3785468998549E-04 
1498	 5.51060693279988E-04 
1499	 2.41024793777169E-04 
1500	 2.21608029291649E-04 
1501	 5.43607397013852E-04 
1502	 5.53572530859058E-04 
1503	 5.2124822420978E-04 
1504	 4.99730669728849E-04 
1505	 2.64638520026351E-04 
1506	 1.70873376237575E-04 
1507	 1.48862392346921E-04 
1508	 2.72085447306893E-04 
1509	 6.88387841859765E-04 
1510	 6.56864157765872E-04 
1511	 4.12824582825886E-04 
1512	 6.35990154333833E-04 
1513	 8.48998616529845E-04 
1514	 6.57512122408195E-04 
1515	 3.50811708828854E-04 
1516	 3.34313894654606E-04 
1517	 4.87309350635451E-04 
1518	 4.43670517623484E-04 
1519	 5.03085793758969E-04 
1520	 6.35772348291758E-04 
1521	 3.68007520383987E-04 
1522	 1.78014160738451E-04 
1523	 4.84364302212703E-04 
1524	 6.2793639213058E-04 
1525	 4.80539606933914E-04 
1526	 4.86685063971865E-04 
1527	 3.95382303590464E-04 
1528	 2.97683060802758E-04 
1529	 4.9585967558101E-04 
1530	 5.75199915669277E-04 
1531	 4.82923999190621E-04 
1532	 4.55750644218877E-04 
1533	 5.56688314406201E-04 
1534	 7.20073329144147E-04 
1535	 6.56079232853098E-04 
1536	 5.05528865728005E-04 
1537	 4.37663367875224E-04 
1538	 2.78823172172219E-04 
1539	 2.8649400722074E-04 
1540	 5.22219536851727E-04 
1541	 5.4420202990647E-04 
1542	 5.00475187153471E-04 
1543	 5.70092759217009E-04 
1544	 6.00170475599184E-04 
1545	 5.32370963790637E-04 
1546	 3.51989966817766E-04 
1547	 3.65386376648745E-04 
1548	 5.1264258437137E-04 
1549	 6.02308541366492E-04 
1550	 7.40463033244048E-04 
1551	 7.55998157438693E-04 
1552	 6.34844034491228E-04 
1553	 5.35417140774007E-04 
1554	 4.19803596520924E-04 
1555	 3.50463418697614E-04 
1556	 4.65319848406953E-04 
1557	 4.67048721987881E-04 
1558	 3.0608901624525E-04 
1559	 4.04022329808665E-04 
1560	 4.55876764129386E-04 
1561	 1.86179838412087E-04 
1562	 1.97911253818513E-04 
1563	 4.93973298268927E-04 
1564	 4.83902037492579E-04 
1565	 4.21618974394588E-04 
1566	 5.85158788358491E-04 
1567	 6.22535402993153E-04 
1568	 4.91375693457496E-04 
1569	 5.12254341299171E-04 
1570	 5.75707171486979E-04 
1571	 5.14780158236829E-04 
1572	 4.45007650377972E-04 
1573	 2.83516582713624E-04 
1574	 2.74650370371701E-04 
1575	 2.71569050621314E-04 
1576	-8.24500293673889E-06 
1577	 6.26793770842652E-05 
1578	 3.99779723165037E-04 
1579	 3.4762156343069E-04 
1580	 1.66886714708399E-04 
1581	 1.64686248603369E-04 
1582	 8.47411650199839E-05 
1583	 2.02977982532151E-05 
1584	 9.58700029266849E-05 
1585	 1.93799854946651E-05 
1586	-1.31399379467214E-04 
1587	 6.41363502518792E-05 
1588	 4.43889098027875E-04 
1589	 5.01778699239422E-04 
1590	 3.48759268930962E-04 
1591	 2.08924304218991E-04 
1592	 6.67404154582383E-05 
1593	 1.13731539664986E-04 
1594	 3.00339949109264E-04 
1595	 2.42960027406226E-04 
1596	 9.0523517390001E-05 
1597	 1.83296075593452E-04 
1598	 3.52747272211494E-04 
1599	 4.9690576733534E-04 
1600	 5.57541419912207E-04 
1601	 4.62700634888015E-04 
1602	 3.66417717034585E-04 
1603	 3.2504635425081E-04 
1604	 3.20144902060458E-04 
1605	 3.45923317595982E-04 
1606	 2.93899094609284E-04 
1607	 2.95900299950245E-04 
1608	 3.93225634972969E-04 
1609	 3.56958000499359E-04 
1610	 3.86335924435873E-04 
1611	 5.24653018396253E-04 
1612	 5.23249764942679E-04 
1613	 3.57248089356649E-04 
1614	 2.29546935988335E-04 
1615	 1.37499737748497E-04 
1616	 8.42670967175466E-05 
1617	 4.5409195666524E-04 
1618	 7.57524940048209E-04 
1619	 5.94161177421483E-04 
1620	 6.92693847491955E-04 
1621	 8.0589317954896E-04 
1622	 4.36110198804616E-04 
1623	 3.86960052741778E-04 
1624	 5.1929597759092E-04 
1625	 1.86590474085424E-04 
1626	 1.29554494119707E-04 
1627	 6.0713043029898E-04 
1628	 7.67365840526983E-04 
1629	 5.33824234961896E-04 
1630	 6.05930934535141E-04 
1631	 6.94970504225357E-04 
1632	 4.15944021699575E-04 
1633	 3.46583750034369E-04 
1634	 4.85266821488856E-04 
1635	 5.02806558145088E-04 
1636	 5.00962585901552E-04 
1637	 5.13723570340877E-04 
1638	 5.58262340082155E-04 
1639	 4.48002210079479E-04 
1640	 1.17721017769117E-04 
1641	 1.55625458970506E-04 
1642	 5.22881175017897E-04 
1643	 4.53615795887497E-04 
1644	 2.54328702805905E-04 
1645	 4.47084983121477E-04 
1646	 4.32249139941554E-04 
1647	 3.12013903648847E-04 
1648	 5.1150057327863E-04 
1649	 4.91328872048892E-04 
1650	 2.82396753612959E-04 
1651	 1.92401825775511E-04 
1652	 3.78163735751728E-04 
1653	 7.1760723135752E-04 
1654	 6.43920091271197E-04 
1655	 5.48789181570384E-04 
1656	 4.9952183467476E-04 
1657	-9.15530268037434E-05 
1658	 1.72832906041965E-05 
1659	 8.69922250290269E-04 
1660	 9.11825723029382E-04 
1661	 8.50473381304862E-04 
1662	 8.21468098643711E-04 
1663	 2.62466991162826E-04 
1664	 1.82842471627953E-04 
1665	 4.39680021058329E-04 
1666	 5.24021803482779E-04 
1667	 7.51054589240444E-04 
1668	 4.98216667538387E-04 
1669	 2.45479780445435E-04 
1670	-1.2281052674909E-05 
1671	 4.08950895867706E-05 
1672	 3.16484513949394E-04 
1673	 4.31448991851124E-04 
1674	 4.99629824165723E-04 
1675	 2.73346776996521E-04 
1676	 2.20758181248356E-04 
1677	 6.12454971901368E-04 
1678	 5.4311566050385E-04 
1679	 3.18592444675139E-04 
1680	 4.58062564139227E-04 
1681	 4.11219229447095E-04 
1682	 2.99740435476486E-04 
1683	 2.47835707204984E-04 
1684	 1.33446275493555E-04 
1685	 1.94002212632137E-04 
1686	 2.56587709015724E-04 
1687	 3.75254415232975E-04 
1688	 4.88600525423766E-04 
1689	 3.27307091000064E-04 
1690	 2.66495951731277E-04 
1691	 1.8953942673674E-04 
1692	-1.12736481521786E-04 
1693	-1.49536452459619E-04 
1694	 1.55887754656361E-04 
1695	 4.58179830495397E-04 
1696	 5.22193491770914E-04 
1697	 3.22791124392695E-04 
1698	 4.05131078861434E-05 
1699	 1.80983389798139E-04 
1700	 8.12866499993973E-04 
1701	 8.96802114073155E-04 
1702	 4.72472867743277E-04 
1703	 4.7309098985653E-04 
1704	 4.41454172226049E-04 
1705	 3.02266516557286E-04 
1706	 6.6186332197281E-04 
1707	 7.13148597040816E-04 
1708	 1.06025865998459E-04 
1709	 1.33395332417037E-04 
1710	 3.94228260831521E-04 
1711	-4.14970447297971E-05 
1712	 7.0245868880184E-05 
1713	 4.65361470993521E-04 
1714	 4.43924631254623E-04 
1715	 6.13290805453089E-04 
1716	 5.83809881628504E-04 
1717	 4.96973756161615E-04 
1718	 7.57357224089194E-04 
1719	 6.19117020091984E-04 
1720	-3.415853748008E-05 
1721	 1.23813509869061E-04 
1722	 4.38728268201243E-04 
1723	-4.21730903383485E-05 
1724	 5.55576437494925E-05 
1725	 3.89778890028761E-04 
1726	 3.5678073452756E-04 
1727	 6.27112627550194E-04 
1728	 7.49266662684465E-04 
1729	 3.85629191797616E-04 
1730	 2.3759182226221E-04 
1731	 5.95462109797542E-04 
1732	 9.6649318335906E-04 
1733	 8.75350497904661E-04 
1734	 4.24473790634956E-04 
1735	 2.05884366980434E-04 
1736	 6.03616020453783E-04 
1737	 1.09235540224421E-03 
1738	 8.53691360892546E-04 
1739	 4.12931407423454E-04 
1740	 3.82330338308388E-04 
1741	 5.01855975399852E-04 
1742	 1.06134580453719E-03 
1743	 1.51441417807079E-03 
1744	 6.17124960501439E-04 
1745	-1.34468958788972E-04 
1746	 2.36556728033227E-04 
1747	 2.59892186334819E-04 
1748	 7.83465795960502E-04 
1749	 9.54273961668167E-04 
1750	 6.89750910820549E-04 
1751	 4.52419424871123E-04 
1752	 1.59953069164045E-04 
1753	 3.62292481530792E-04 
1754	 6.37169829458656E-04 
1755	 6.87240756719283E-04 
1756	 0.001211026956716 
1757	 6.48556011318556E-04 
1758	-1.17551838800055E-04 
1759	 1.60575632666541E-05 
1760	 7.29387136912473E-04 
1761	 5.16762161506959E-04 
1762	 3.89038973244239E-04 
1763	 6.68102344452295E-04 
1764	-1.72291732335204E-04 
1765	-6.69909951702829E-05 
1766	 1.41897374097403E-03 
1767	 8.46461282393689E-04 
1768	 5.30424992563106E-04 
1769	 1.27085525828738E-03 
1770	 4.31243321212174E-04 
1771	 6.79231581446771E-04 
1772	 1.26641318560926E-03 
1773	 9.98270512350324E-04 
1774	 1.59093378509604E-03 
1775	 3.68676589038521E-04 
1776	 2.56397025412119E-04 
1777	 4.21964310084651E-04 
1778	 1.2396080079981E-04 
1779	 1.10553109177166E-03 
1780	 1.33044086911898E-03 
1781	-6.11127680260439E-04 
1782	-5.27673968887397E-04 
1783	 1.80222555938456E-03 
1784	 2.0161966123412E-03 
1785	 2.14576622477845E-03 
1786	 1.48801739926909E-03 
1787	-2.47954074680883E-03 
1788	-3.6235369796987E-03 
1789	-2.71970501590538E-03 
1790	-3.2212844644106E-03 
1791	-4.86716928000687E-04 
1792	 2.34972220104951E-03 
1793	 1.93846795608157E-03 
1794	 2.8365604462412E-03 
1795	 2.82494097535344E-03 
1796	-1.29781978822161E-03 
1797	-3.75059037028771E-03 
1798	-4.30069234770718E-03 
1799	-7.33321774405943E-03 
1800	 1.29835731028212E-03 
1801	 4.79655518823092E-03 
1802	 9.23279580046524E-03 
1803	 1.35723388402155E-02 
1804	 1.04373557396661E-02 
1805	 8.04838373653654E-03 
1806	-4.31654145274034E-03 
1807	-1.74353292078642E-02 
1808	-5.74801103651141E-02 
1809	-6.43455415156828E-02 
1810	 2.27126037062274E-02 
1811	 8.94275903035563E-02 
1812	 0.220058484202865 
1813	 0.166893342975548 
1814	-0.20086809046098 
1815	-0.271178360141449 
1816	-0.402214458409184 
1817	 1.15264825524778E-02 
1818	 0.198053209426551 
1819	-1.86888397457018E-04 
1820	-0.18390849184299 
1821	-0.60376521471193 
1822	-0.653023189484816 
1823	 4.13822269313642E-02 
1824	 0.14538500496816 
1825	 7.71590271775648E-02 
1826	 9.54976820314313E-02 
1827	 0.11095954862656 
1828	 0.11175576718016 
1829	 0.579262950627965 
1830	 0.501126445332348 
1831	 0.388148263395434 
1832	 0.443232849756404 
1833	 0.376076950007955 
1834	 0.428731743719498 
1835	 0.793044918405169 
1836	 0.808788378552435 
1837	 0.33721056257682 
1838	 0.15080377858827 
1839	-0.328922457031656 
1840	-0.155453995990386 
1841	 1.75921114075088 
1842	-0.286626166985806 
1843	-0.293455323522674 
1844	 0.439009077206442 
1845	 0.6466317890436 
1846	 3.80206014680929E-02 
1847	 0.132688750576809 
1848	 0.186910829712611 
1849	 1.28199146260972 
1850	-3.02374377986723 
1851	 12.113965115383 
1852	 7.8319108620203 
1853	-19.3939341998424 
1854	 125.551745074858 
1855	 8.88796746541741 
1856	 5.61701815315028 
1857	 1.42495675825028 
1858	 1.39005830982112 
1859	 2.0605121854 
1860	-61.5900060168703 
1861	-19.7259157077567 
1862	-1.79188632652641 
1863	-0.724442478776535 
1864	 0.964235856654653 
1865	 0.75592423924951 
1866	 0.124828491406957 
1867	 0.177312199008586 
1868	 0.143135686483561 
1869	 0.189667394314211 
1870	 0.649831928039757 
1871	 2.80084035520774 
1872	 0.900173279703708 
1873	 0.381350315807974 
1874	-6.04423635379214E-02 
1875	-0.86067694099606 
1876	-1.88746197616136 
1877	-0.320696774911385 
1878	-0.46913099692709 
1879	-1.93016007335923 
1880	-2.10602548414572 
1881	-1.13621480059616 
1882	-0.184870699723456 
1883	-0.258358347704657 
1884	 0.544173857231701 
1885	-0.047283772137734 
1886	-0.238538125396915 
1887	-0.344468682937217 
1888	-0.672548065380024 
1889	-0.670796682700672 
1890	 0.168978035152748 
1891	 0.41473055934693 
1892	 0.736735846812172 
1893	 0.287827471241254 
1894	-1.19183007117094 
1895	 5.03892780978897 
1896	 3.73028414597187 
1897	 7.1016243118734 
1898	 2.56476905736378 
1899	-15.8179961547607 
1900	-2.47639316642614 
1901	-0.466456702542285 
1902	-0.166819074259611 
1903	 5.69674246628381E-02 
1904	 0.369536323088542 
1905	 0.747200329902419 
1906	-0.394497685222112 
1907	-0.173099826326894 
1908	 0.110492204815014 
1909	-0.912937175822505 
1910	 0.502857165648624 
1911	 0.465628108973452 
1912	 1.93254447952373 
1913	-5.59365798451015 
1914	-0.019864310518106 
1915	-1.79548557071613E-02 
1916	-0.232248947783506 
1917	-0.728486957970936 
1918	-1.3968756154986 
1919	-0.6037791942433 
1920	 1.29297002371855 
1921	-1.48912012937283 
1922	-1.06539811750407 
1923	 21.1604559711104 
1924	-2.14391281847861 
1925	-1.16445352658655 
1926	-1.08655977017974 
1927	-3.51034088140851 
1928	 29.018115191925 
1929	-1.94745887427425 
1930	 1.39385682633747 
1931	 4.26871264129693 
1932	 0.622062250910655 
1933	 0.627536389288736 
1934	 0.721802650088532 
1935	 0.491879167564833 
1936	 0.684038175395175 
1937	 0.732292807616353 
1938	 0.410741373729788 
1939	 0.326098755145449 
1940	 0.354588982590867 
1941	 0.199107531227984 
1942	 5.06567892519428E-02 
1943	 0.135180419103132 
1944	 0.177863256092201 
1945	 0.157433237597194 
1946	 0.180475501974856 
1947	 0.154785780669151 
1948	 8.19946349315101E-02 
1949	 5.94387790307233E-02 
1950	 7.49337123572594E-02 
1951	 8.62342400538008E-02 
1952	 8.32349276114101E-02 
1953	 8.85734909227205E-02 
1954	 5.61815663648945E-02 
1955	 2.13068619937206E-02 
1956	 2.09010345352192E-02 
1957	 1.51067282115478E-03 
1958	 1.34967055691654E-03 
1959	 1.13545399259262E-02 
1960	 4.96454365762209E-03 
1961	 4.78065909878864E-03 
1962	 1.03279343797162E-03 
1963	 8.64447441639784E-04 
1964	 7.04947736401486E-03 
1965	 3.74086555588775E-03 
1966	 1.8431897741529E-03 
1967	 1.5691511872104E-03 
1968	 1.04292605326208E-03 
1969	-3.40935222616314E-03 
1970	-3.72774769828269E-03 
1971	-3.20360159122864E-03 
1972	-3.6626651710022E-03 
1973	-2.68614059458321E-03 
1974	-1.78436035942454E-03 
1975	-1.84928170822894E-03 
1976	-1.07675192203534E-03 
1977	 1.48948339293661E-04 
1978	 4.98462262230509E-05 
1979	 6.20859379256598E-04 
1980	 2.33096564540255E-03 
1981	 3.58255681342996E-03 
1982	 2.65796813667564E-03 
1983	 2.41262365979871E-03 
1984	 1.74146669146421E-03 
1985	 6.42748603935168E-04 
1986	 8.66953153009077E-04 
1987	 9.50459135272168E-04 
1988	 8.80731464458504E-04 
1989	 4.86572517429391E-04 
1990	-7.75393777605802E-05 
1991	 1.11842896882532E-04 
1992	 7.16932747925893E-04 
1993	 2.14317793541365E-03 
1994	 2.29181314282584E-03 
1995	 1.90060462905386E-03 
1996	-1.06293671516746E-03 
1997	-2.9323459191448E-03 
1998	-0.003286092931697 
1999	-3.66061110750511E-03 
2000	-2.15446683224036E-03 
2001	-8.81191270828818E-04 
2002	-9.30908377417521E-04 
2003	 5.58894389052778E-04 
2004	 3.03074030053094E-03 
2005	 2.88829838147619E-03 
2006	-4.33195146927987E-04 
2007	-9.43728055896628E-04 
2008	-1.30870617249416E-03 
2009	-2.34123908435033E-03 
2010	 8.20259724113619E-05 
2011	 1.78793220824202E-03 
2012	 1.47106905476814E-03 
2013	-7.04757540235151E-04 
2014	 3.29816661465518E-03 
2015	 4.42699886005785E-03 
2016	 4.41979736313058E-03 
2017	 5.80884337364646E-03 
2018	 5.74714927952918E-03 
2019	 4.55034684371456E-03 
2020	 2.69155569131538E-03 
2021	 1.70268337340334E-03 
2022	 4.21601257793773E-04 
2023	-6.63305985866303E-04 
2024	-9.44728382683452E-04 
2025	-1.18525537009323E-03 
2026	-9.4583626953542E-04 
2027	-2.25710369015204E-04 
2028	 1.00378495739921E-03 
2029	 1.38489516586958E-03 
2030	 1.63941172163953E-03 
2031	 1.53040397737576E-03 
2032	 3.93022382162688E-04 
2033	-6.60801298785707E-04 
2034	-1.03866856356218E-03 
2035	-1.33161337454555E-03 
2036	-1.26662682204799E-03 
2037	-1.92805301341506E-04 
2038	 7.07179804707673E-04 
2039	 9.90898782192378E-04 
2040	 5.54838140376805E-04 
2041	 1.21199444292509E-03 
2042	 2.71730810115402E-03 
2043	 3.08228464885764E-03 
2044	 3.48973539149679E-03 
2045	 3.90002349928548E-03 
2046	 3.87903949011611E-03 
2047	 2.1482342896573E-03 
2048	 1.30334066466088E-03 
2049	 1.71769914349499E-03 
2050	 1.39025659858851E-03 
2051	 8.75520498018199E-04 
2052	 8.25252938176428E-04 
2053	 9.92912228387812E-04 
2054	 3.71900993522829E-04 
2055	-4.77476113585131E-04 
2056	-4.19246960823567E-04 
2057	 6.2836038492989E-04 
2058	 6.98388283012187E-04 
2059	 9.15138827385329E-04 
2060	 1.15527295128987E-03 
2061	 6.4465825101417E-04 
2062	 9.89521590638613E-04 
2063	 2.08931417828332E-03 
2064	 1.59413232229746E-03 
2065	 1.11879794545538E-03 
2066	 8.45026417325602E-04 
2067	-1.21810282790294E-03 
2068	-1.85859809661156E-03 
2069	 3.81337338875448E-05 
2070	 4.59600661560178E-04 
2071	 6.89067809633071E-04 
2072	 2.4918180459012E-03 
2073	 3.20296569801127E-03 
2074	 2.62825251876102E-03 
2075	 2.33855023215139E-03 
2076	 2.41173097290603E-03 
2077	 2.02241029753682E-03 
2078	 7.85071149506413E-04 
2079	 1.06191681608081E-04 
2080	-5.02664858804285E-04 
2081	-6.21824751947506E-04 
2082	-3.03519445619687E-04 
2083	 3.94363695211669E-04 
2084	 1.66970470324561E-03 
2085	 3.31661398587892E-03 
2086	 3.72188522230733E-03 
2087	 2.68459446995347E-03 
2088	 2.12673563258481E-03 
2089	 2.5747904522674E-03 
2090	 2.91710396719861E-03 
2091	 2.69338328003083E-03 
2092	 2.21852757363271E-03 
2093	 9.5863679143576E-04 
2094	-2.59236355521206E-05 
2095	-1.39140913131218E-03 
2096	-1.56704012121648E-03 
2097	-1.00543300278739E-03 
2098	-1.10242684973808E-03 
2099	-1.22821189653587E-03 
2100	-5.58430776277564E-04 
2101	-7.48190528462151E-04 
2102	-1.14529715964681E-03 
2103	-6.40066834260541E-04 
2104	-1.58085158047119E-04 
2105	-7.84289255154769E-05 
2106	 6.03246951895436E-04 
2107	 1.70666883443348E-03 
2108	 1.56978294375743E-03 
2109	 7.08574187834666E-04 
2110	 9.31492543033866E-04 
2111	 1.20998646092125E-03 
2112	 4.86514190048724E-04 
2113	-5.35943726688248E-05 
2114	-4.52962957574206E-04 
2115	-5.75766080338293E-04 
2116	-1.13778632552511E-03 
2117	-8.81853592585068E-04 
2118	 5.96638170569346E-04 
2119	 1.15589608728157E-03 
2120	 1.46233065245265E-03 
2121	 1.76707241209436E-03 
2122	 1.6513223976493E-03 
2123	 9.49399099371797E-04 
2124	 5.89708981915904E-04 
2125	 6.80844265814216E-04 
2126	 8.27555716892954E-04 
2127	 1.29917058944993E-03 
2128	 1.16665023072999E-03 
2129	 5.28193735800413E-04 
2130	 3.63213406381281E-04 
2131	 4.45547391378178E-04 
2132	 2.96202670455071E-04 
2133	 3.72371480468371E-04 
2134	 6.11128777390366E-04 
2135	 9.12650105876406E-04 
2136	 6.47852654393026E-04 
2137	 6.22739471540656E-05 
2138	 3.28221185791125E-04 
2139	 9.82690006913428E-04 
2140	 6.76713047338079E-04 
2141	 3.26977675292053E-04 
2142	 4.25600345421794E-04 
2143	-3.14903675528692E-05 
2144	-1.02419711215511E-03 
2145	 3.74057522985539E-04 
2146	 2.06038736286123E-03 
2147	 9.82538836152189E-04 
2148	 7.11052969257315E-04 
2149	 2.08096218584889E-04 
2150	-1.31686583033846E-03 
2151	-6.65046129005638E-04 
2152	 1.41332228073952E-04 
2153	-4.01563863688514E-04 
2154	-4.171386590221E-04 
2155	-9.04607445873422E-04 
2156	-1.44205194483146E-03 
2157	-1.21845433237287E-03 
2158	-8.35486422314535E-07 
2159	 3.70873899978001E-04 
2160	 5.09092279308846E-04 
2161	 1.19256083708986E-03 
2162	 2.45768262432596E-03 
2163	 2.46990201072157E-03 
2164	 2.05542852458813E-03 
2165	 2.03693779648006E-03 
2166	 1.03646334871808E-03 
2167	 0.000514362947148 
2168	 1.13366278375503E-03 
2169	 1.27933120981895E-03 
2170	 1.20364570165297E-03 
2171	-1.78618354169755E-06 
2172	 1.78015694576433E-04 
2173	 5.21703353465571E-04 
2174	-4.72323221928174E-05 
2175	 2.38957677283092E-04 
2176	-7.79996460936723E-06 
2177	 2.07126707084868E-04 
2178	 6.69780633499177E-04 
2179	 7.34201584722144E-05 
2180	-1.32945529620942E-04 
2181	-1.75117665451733E-03 
2182	-3.21768141010268E-03 
2183	-1.77086177282508E-03 
2184	 4.38060907920853E-04 
2185	 1.49661236900774E-03 
2186	 2.17325953505849E-03 
2187	 2.39483219833928E-03 
2188	 2.20703312896431E-03 
2189	 1.17660243903561E-03 
2190	 1.22132741612829E-03 
2191	 1.28559385974182E-03 
2192	 1.42710483419767E-03 
2193	 2.26656747060082E-03 
2194	 2.07963624994382E-03 
2195	 1.46421342724495E-03 
2196	 9.91192345886895E-04 
2197	-5.1531691218054E-04 
2198	-1.07135770354139E-03 
2199	-1.05336645347521E-03 
2200	-8.9057587018518E-04 
2201	-4.94287399722086E-04 
2202	 1.25355492897367E-03 
2203	 1.85938988880092E-03 
2204	 2.28806214395777E-03 
2205	 1.56250730557237E-03 
2206	-2.24439006600778E-04 
2207	 3.00997769102642E-05 
2208	-5.02956624157297E-05 
2209	-6.81881599157931E-04 
2210	-5.98295508913125E-04 
2211	-6.87925699468732E-04 
2212	-3.81718601777187E-06 
2213	 1.20670215489733E-03 
2214	 2.76530522750539E-03 
2215	 3.63136022732978E-03 
2216	 2.34423485930485E-03 
2217	 1.4674961217239E-03 
2218	-1.77460744255229E-04 
2219	-6.3013069102984E-04 
2220	-8.39109889772295E-04 
2221	-7.05905642690309E-04 
2222	 1.24967911573571E-03 
2223	 1.07759029404902E-03 
2224	-7.33046949561031E-04 
2225	-1.79303626396144E-03 
2226	-4.11012327984606E-03 
2227	-4.73882644043595E-03 
2228	-3.94523102250847E-03 
2229	-3.35491864197404E-03 
2230	-1.9069839838706E-03 
2231	-9.36937141024159E-04 
2232	 6.31419586313498E-04 
2233	 7.72526077793597E-04 
2234	-1.78064132489131E-04 
2235	-8.35795342867175E-04 
2236	-1.8369411906939E-03 
2237	-2.86218564256154E-03 
2238	-1.37303800131976E-03 
2239	-5.3687486334696E-04 
2240	-4.3313601302755E-04 
2241	 3.86361881228244E-04 
2242	-6.98375295808682E-04 
2243	-2.33821963311514E-03 
2244	-2.04237400714015E-03 
2245	-1.51648810419323E-03 
2246	-9.05133328889268E-04 
2247	 1.08291490824052E-03 
2248	 3.36866743377477E-03 
2249	 4.10989694716808E-03 
2250	 4.35992018122895E-03 
2251	 4.87479259291814E-03 
2252	 2.23097780012697E-03 
2253	-1.62468554679881E-03 
2254	-3.7685015597087E-03 
2255	-4.12445934457585E-03 
2256	-3.0097609504141E-04 
2257	 3.55307379465357E-03 
2258	 4.15685621083071E-03 
2259	 3.69251496806157E-03 
2260	 3.42289182724941E-03 
2261	-5.45261600293342E-04 
2262	-1.4104750486315E-03 
2263	 9.95399293700419E-04 
2264	 2.25662898261804E-03 
2265	 3.22163386042135E-03 
2266	 3.76396962765421E-03 
2267	 4.43542999354925E-03 
2268	 4.15932949753305E-03 
2269	 2.57128999134316E-03 
2270	 2.58184720641693E-03 
2271	 3.79750079771147E-03 
2272	 3.06233640616429E-03 
2273	 1.48673880252674E-03 
2274	 9.01910139196783E-04 
2275	-9.30244755180799E-04 
2276	-1.21699879196013E-03 
2277	 1.31384863406464E-03 
2278	 6.3455884198146E-04 
2279	-3.55767736652017E-03 
2280	-3.11487199511751E-03 
2281	-1.08351828332627E-03 
2282	 1.09603235489929E-03 
2283	 2.30040370943711E-03 
2284	 5.0117201571826E-03 
2285	 4.5392736043729E-03 
2286	 1.05796176425838E-03 
2287	 1.45972941099552E-03 
2288	 3.13160442355257E-03 
2289	 1.34507864883227E-03 
2290	-1.46292466727523E-04 
2291	 1.88576940365292E-04 
2292	-3.60539482719257E-03 
2293	-5.12530668968941E-03 
2294	-1.98017097918895E-03 
2295	-2.68320357584751E-03 
2296	-4.71456342821002E-03 
2297	-5.62903538700481E-03 
2298	-4.42939083783873E-03 
2299	-2.64991227736429E-03 
2300	-1.22239402531978E-03 
2301	 6.20361406384558E-05 
2302	-1.92746311382979E-03 
2303	-2.65988266349308E-03 
2304	-5.06276244514643E-04 
2305	 1.7979116967317E-04 
2306	 7.4640293257299E-04 
2307	 2.24474067436387E-03 
2308	 2.76002261151507E-03 
2309	 3.44084901977236E-03 
2310	 3.18072973605848E-03 
2311	 3.33256809807836E-03 
2312	 3.36039317186419E-03 
2313	 2.5288275925081E-03 
2314	 3.95887476139661E-03 
2315	 3.44320231731336E-03 
2316	 4.52972340849167E-03 
2317	 8.53548125577923E-03 
2318	 9.80998040020337E-03 
2319	 1.17979029671451E-02 
2320	 1.18330299381529E-02 
2321	 7.68430820833938E-03 
2322	 5.23256755250954E-03 
2323	 1.04182122553861E-03 
2324	-1.99074651418503E-03 
2325	-1.39257753384169E-03 
2326	 1.28496413404816E-06 
2327	 5.18019166234902E-03 
2328	 4.74495807900716E-03 
2329	 3.32261354746531E-03 
2330	 5.64603070759821E-03 
2331	 1.91329681428933E-03 
2332	 4.64225077928284E-04 
2333	 3.69266838167005E-04 
2334	-4.10731072520375E-03 
2335	-2.11295469837377E-03 
2336	-2.74749238489379E-03 
2337	-8.3000801108963E-03 
2338	-4.06784421945119E-03 
2339	-2.03787994492146E-03 
2340	-7.30506301118268E-04 
2341	 5.47078692846627E-03 
2342	 3.04367865757602E-03 
2343	-4.40071351932121E-03 
2344	-1.46501515743214E-02 
2345	-2.47535328764249E-02 
2346	-2.32762061204031E-02 
2347	-0.016101595249841 
2348	-7.25621086678239E-03 
2349	 4.30123161055275E-03 
2350	 4.23763259142081E-03 
2351	-7.2878088135648E-03 
2352	-0.016545056162834 
2353	-2.21014151965719E-02 
2354	-2.50121367374183E-02 
2355	-0.020859110518361 
2356	-1.52371891415046E-02 
2357	-1.38032253062798E-02 
2358	-7.39410401948995E-03 
2359	-4.69539805746023E-03 
2360	-9.74347556355515E-03 
2361	-4.40633727632638E-03 
2362	 4.43842280976227E-04 
2363	-5.82239066127621E-03 
2364	-2.91942921094726E-03 
2365	 6.5308803798577E-03 
2366	 7.66046949350599E-03 
2367	 1.99651247766264E-02 
2368	 4.06923335232886E-02 
2369	 0.045585447636 
2370	 4.85616469327523E-02 
2371	 5.54400768203132E-02 
2372	 4.57254803422233E-02 
2373	 3.78095980973804E-02 
2374	 0.029180184193282 
2375	 6.85459818698538E-03 
2376	-9.24967769051788E-04 
2377	-1.29732391353353E-03 
2378	-4.19235366115811E-03 
2379	-2.75821558708862E-05 
2380	 5.99513034355197E-03 
2381	-8.0016215361967E-03 
2382	-2.50509924131511E-02 
2383	-2.42791727913292E-02 
2384	-2.82081901407778E-02 
2385	-1.18378145426305E-02 
2386	 1.91656989991945E-02 
2387	 2.19243247331066E-02 
2388	 3.16983239914318E-04 
2389	-0.02218512065151 
2390	-0.022418214928399 
2391	-1.47745645635663E-02 
2392	 2.88028967463317E-04 
2393	 5.27274153954637E-03 
2394	-2.49179996778944E-02 
2395	-4.08909820443056E-02 
2396	-3.98196247673711E-02 
2397	-4.11777491680223E-02 
2398	-3.12338619648933E-02 
2399	-2.52383771283007E-02 
2400	-3.32682497576857E-02 
2401	-1.87004079930965E-02 
2402	-9.41649297892471E-03 
2403	-0.0305502394757 
2404	-4.30734934788617E-02 
2405	-9.76045603213627E-02 
2406	-0.131729197041053 
2407	-5.40501026505898E-02 
2408	-1.94242141504036E-02 
2409	-2.52395231887523E-02 
2410	 2.26196830939425E-02 
2411	-1.08967518962128E-02 
2412	-0.107548229376904 
2413	-2.83604180761659E-02 
2414	 2.98740785194031E-02 
2415	-7.34717675369622E-02 
2416	-6.09364363712684E-02 
2417	-2.71519140787884E-02 
2418	-6.06701680588408E-03 
2419	 0.186893852766522 
2420	 0.307451932983932 
2421	 0.230197703561081 
2422	 0.131837015290884 
2423	-2.18644635146953E-02 
2424	-0.120977197715582 
2425	-0.140063632861634 
2426	-0.123572550275671 
2427	-1.81073880995902E-02 
2428	 1.63884130178378E-02 
2429	 3.08441867700411E-02 
2430	 9.92424966602903E-02 
2431	 6.58585448592554E-02 
2432	 2.34763104873578E-02 
2433	 5.86296975232959E-02 
2434	 7.45069451195905E-02 
2435	 4.01688482558081E-02 
2436	 0.123670462893015 
2437	 0.230930056825773 
2438	 0.155973767448122 
2439	 8.61603025278797E-02 
2440	 0.126439682356087 
2441	 0.230351523109597 
2442	 0.301843313221396 
2443	 0.334270924109707 
2444	 0.199636895177474 
2445	 6.44759358836459E-02 
2446	 0.416120303713937 
2447	 0.734690147497442 
2448	 0.569822603898908 
2449	-0.315440386003718 
2450	-0.622641157264316 
2451	-0.329320753604282 
2452	-0.962521181397499 
2453	-1.44905823362184 
2454	-0.86636936199318 
2455	-1.28851039185415 
2456	-0.422967462346621 
2457	-0.081664309683654 
2458	-0.237664961659581 
2459	-0.104353339301983 
2460	 0.164355826395632 
2461	 5.32117202723047E-02 
2462	-7.49264034911971E-02 
2463	-0.102640631857331 
2464	-0.168790140608004 
2465	-9.84060157500999E-03 
2466	 0.33557609617808 
2467	 0.527361305759982 
2468	 0.342858247716733 
2469	-0.138634146604674 
2470	-0.466912828199664 
2471	-0.590835736577066 
2472	-0.438697945446963 
2473	-0.771777000239136 
2474	-1.38485645764597 
2475	-1.1537549034566 
2476	 9.39950902793893 
2477	 2.20839357269618 
2478	-3.15475740525781 
2479	-2.57568711390466 
2480	 0.454410995105939 
2481	 9.11729905598619E-02 
2482	 0.241702423098018 
2483	 0.180030554335434 
2484	 0.494365278526551 
2485	 0.832110108743455 
2486	 0.801596884458253 
2487	 1.57503871156659 
2488	-34.5373228548558 
2489	-2.87476588738015 
2490	-1.59372831278989 
2491	-0.121828954828628 
2492	 0.18945268258164 
2493	 1.90898081099475 
2494	 0.268320998820233 
2495	-5.02324793109357E-03 
2496	-0.481113146999575 
2497	 0.906611635615577 
2498	-0.810941557930676 
2499	-4.05592429478435 
2500	 3.9171432263896 
