Wavelength	rt0716clean00002.asd
350	 2.99861608401598E-02 
351	 2.91103082384004E-02 
352	 0.02829317871583 
353	 0.027992750845765 
354	 2.81281160963115E-02 
355	 0.02798687636383 
356	 2.78251991541878E-02 
357	 2.80881472157658E-02 
358	 2.88008730278048E-02 
359	 2.79272468828219E-02 
360	 2.81493985540136E-02 
361	 2.90357211389636E-02 
362	 2.83066906625543E-02 
363	 2.83873011538864E-02 
364	 0.028720253534634 
365	 2.87204186101187E-02 
366	 2.83037056696787E-02 
367	 2.82650622279334E-02 
368	 2.83259269540551E-02 
369	 2.81442932382917E-02 
370	 2.82459761350074E-02 
371	 2.82874369170346E-02 
372	 2.82315492080141E-02 
373	 2.82160129271096E-02 
374	 2.82013146445664E-02 
375	 0.028021414798967 
376	 0.02796051809725 
377	 2.88704494111734E-02 
378	 2.85372104084372E-02 
379	 2.80602823122856E-02 
380	 2.85879754705411E-02 
381	 2.88592219756583E-02 
382	 0.029533764993113 
383	 2.99069199438653E-02 
384	 2.90928434098973E-02 
385	 2.94509810085156E-02 
386	 2.97978738078865E-02 
387	 2.97205033721527E-02 
388	 2.99565439125933E-02 
389	 3.02622741361215E-02 
390	 3.03433991123849E-02 
391	 0.030231052086709 
392	 3.08136327669241E-02 
393	 3.07459016735043E-02 
394	 3.04777754264188E-02 
395	 3.08468026728681E-02 
396	 3.09894010844246E-02 
397	 3.10356025999905E-02 
398	 3.10653133629388E-02 
399	 3.10652560874752E-02 
400	 3.10772411416989E-02 
401	 3.10989753633342E-02 
402	 3.12093017888429E-02 
403	 3.17687555688596E-02 
404	 3.18115722444019E-02 
405	 3.16310679449578E-02 
406	 3.18323189040123E-02 
407	 3.18288669372537E-02 
408	 3.19294615226009E-02 
409	 0.032168349341452 
410	 3.22739419866778E-02 
411	 3.22266523185641E-02 
412	 3.23791539472904E-02 
413	 3.28196065898032E-02 
414	 3.28618710148896E-02 
415	 3.29512201748438E-02 
416	 3.30840840841039E-02 
417	 0.033144163932385 
418	 3.34700585924942E-02 
419	 3.37737023190062E-02 
420	 3.39382753752565E-02 
421	 3.40770950464846E-02 
422	 3.42089788123679E-02 
423	 3.44259917996572E-02 
424	 3.47302710141077E-02 
425	 3.48392562975758E-02 
426	 3.50626698088267E-02 
427	 3.53409366304169E-02 
428	 3.54987345942597E-02 
429	 3.59213567064234E-02 
430	 3.62990015433906E-02 
431	 3.65351382276252E-02 
432	 3.68553153442217E-02 
433	 3.71901103355732E-02 
434	 3.74428074265363E-02 
435	 3.76040196430104E-02 
436	 3.79249601696841E-02 
437	 3.83525340476598E-02 
438	 3.87475316525734E-02 
439	 3.89571623342177E-02 
440	 3.91505311297911E-02 
441	 3.94238110877072E-02 
442	 3.97776412844059E-02 
443	 4.00917065489902E-02 
444	 0.040393209437619 
445	 4.06429818737522E-02 
446	 4.08426260725558E-02 
447	 0.041213758340468 
448	 4.15359831720962E-02 
449	 4.17149112554693E-02 
450	 4.17833079802188E-02 
451	 4.20206203375165E-02 
452	 4.22155558431518E-02 
453	 4.22804837414887E-02 
454	 4.25326079141286E-02 
455	 0.042735442960678 
456	 4.28648213131994E-02 
457	 0.042972841516991 
458	 4.30954478221399E-02 
459	 4.31646736300106E-02 
460	 4.32318353425902E-02 
461	 4.34563169790398E-02 
462	 4.35684667240924E-02 
463	 4.35979213759491E-02 
464	 4.36332203973358E-02 
465	 4.37400367728493E-02 
466	 4.39173827923239E-02 
467	 4.40712578303162E-02 
468	 4.41072669371727E-02 
469	 4.42965491937874E-02 
470	 4.45009128223544E-02 
471	 4.46143225259536E-02 
472	 4.46232010836764E-02 
473	 4.48352247824115E-02 
474	 4.51098600120289E-02 
475	 4.52613349631533E-02 
476	 4.53986474014476E-02 
477	 4.55529655782199E-02 
478	 4.57286276279902E-02 
479	 0.04591274681112 
480	 4.61225474632177E-02 
481	 4.63940917524602E-02 
482	 4.67126754574382E-02 
483	 4.69561949376693E-02 
484	 4.71831951723392E-02 
485	 4.74472064124405E-02 
486	 4.77724533591168E-02 
487	 4.80330581989561E-02 
488	 4.82782491894449E-02 
489	 4.85285840769904E-02 
490	 4.87721287174288E-02 
491	 4.91176570009069E-02 
492	 4.95096629271597E-02 
493	 4.98898378066076E-02 
494	 5.03043583542667E-02 
495	 5.06303181724693E-02 
496	 5.09157309472848E-02 
497	 5.12889140453293E-02 
498	 5.17288963443091E-02 
499	 5.21652996696281E-02 
500	 0.052561507042289 
501	 5.29395274133742E-02 
502	 5.33862113646347E-02 
503	 5.38258441176942E-02 
504	 5.41995384688823E-02 
505	 0.054723182571287 
506	 5.51590109753574E-02 
507	 5.55193317251927E-02 
508	 5.60134835587983E-02 
509	 5.66141641055298E-02 
510	 5.70467172502257E-02 
511	 5.72552400184123E-02 
512	 5.77730092825583E-02 
513	 5.83503986113628E-02 
514	 5.89231732152826E-02 
515	 5.94953329522139E-02 
516	 6.00920549370573E-02 
517	 6.07014670056539E-02 
518	 6.12706486799963E-02 
519	 6.17067211194816E-02 
520	 6.22993065655661E-02 
521	 6.29845501843154E-02 
522	 6.36244068534018E-02 
523	 6.41100514367415E-02 
524	 0.064666612033843 
525	 6.53382436764357E-02 
526	 6.60342230087448E-02 
527	 6.67141739434975E-02 
528	 6.73831264587537E-02 
529	 0.068034261686782 
530	 6.86129077704596E-02 
531	 6.92164887144856E-02 
532	 6.99070692303139E-02 
533	 7.06875409016995E-02 
534	 7.13315183146775E-02 
535	 7.19946640016975E-02 
536	 0.072734234907646 
537	 7.34643823302771E-02 
538	 7.42485941281354E-02 
539	 7.49968794834121E-02 
540	 7.56506975457065E-02 
541	 7.63644433585142E-02 
542	 7.70741227048388E-02 
543	 7.77846219577789E-02 
544	 7.85366089724597E-02 
545	 7.92321052548869E-02 
546	 7.99468633038106E-02 
547	 8.07177195829445E-02 
548	 8.14723155261609E-02 
549	 8.21834017130563E-02 
550	 8.28845343692989E-02 
551	 8.36169122005182E-02 
552	 8.43007300225235E-02 
553	 8.50257607026643E-02 
554	 8.57738602490079E-02 
555	 8.63982061448056E-02 
556	 0.08714122773082 
557	 8.79183087057821E-02 
558	 8.86071603563988E-02 
559	 8.92666739533732E-02 
560	 8.98884040853087E-02 
561	 9.04924000908188E-02 
562	 9.11145798901876E-02 
563	 9.17342106496641E-02 
564	 9.23167858451741E-02 
565	 9.28546837563465E-02 
566	 0.093397540649464 
567	 9.39106087429467E-02 
568	 9.43973249382191E-02 
569	 9.48768584207898E-02 
570	 9.53917090909342E-02 
571	 9.58314243022575E-02 
572	 9.61905188433485E-02 
573	 9.65798229286854E-02 
574	 9.68317240908686E-02 
575	 9.71531320794743E-02 
576	 9.76638911210046E-02 
577	 9.79395665557003E-02 
578	 0.098226563553118 
579	 9.84934419490234E-02 
580	 9.85737241650293E-02 
581	 9.87367826091961E-02 
582	 9.88647679810186E-02 
583	 9.89014039728369E-02 
584	 9.89932769121335E-02 
585	 9.90363583403346E-02 
586	 9.89685352828084E-02 
587	 9.87718433088573E-02 
588	 9.85973219242294E-02 
589	 0.098560108801169 
590	 9.85895025792797E-02 
591	 9.84385764738919E-02 
592	 0.098277149229349 
593	 9.80808379002756E-02 
594	 9.78053112967587E-02 
595	 9.74523394713584E-02 
596	 9.70373714249763E-02 
597	 9.65507463314914E-02 
598	 9.59871230840537E-02 
599	 9.54757714365659E-02 
600	 9.50542949946378E-02 
601	 9.47307594747252E-02 
602	 9.44888343030881E-02 
603	 9.42661922653814E-02 
604	 9.41579814586751E-02 
605	 9.42343804504089E-02 
606	 9.41506492417444E-02 
607	 9.41439915219737E-02 
608	 9.42560949862748E-02 
609	 9.43033343162171E-02 
610	 9.43782190402646E-02 
611	 9.44333438790425E-02 
612	 9.44261016732194E-02 
613	 9.43938878966376E-02 
614	 9.44321003740615E-02 
615	 9.44819101181981E-02 
616	 9.44281323174226E-02 
617	 9.45415947839918E-02 
618	 9.45522878494367E-02 
619	 9.43985834220702E-02 
620	 9.44409096717084E-02 
621	 0.094504566003703 
622	 9.44948232553686E-02 
623	 9.44016123401599E-02 
624	 9.45309142642176E-02 
625	 9.45322316119702E-02 
626	 9.43664470001751E-02 
627	 9.43118253943906E-02 
628	 9.43947380183576E-02 
629	 9.44667523825954E-02 
630	 9.44400912287402E-02 
631	 9.44907208428027E-02 
632	 9.44777780501788E-02 
633	 9.44312263318946E-02 
634	 9.44400156168364E-02 
635	 9.43581725637373E-02 
636	 0.094397770025338 
637	 9.45639045738359E-02 
638	 9.45277540404452E-02 
639	 9.44513661067189E-02 
640	 9.43669654629008E-02 
641	 9.42938111774118E-02 
642	 9.43403920669447E-02 
643	 9.42706053788689E-02 
644	 9.41058555916729E-02 
645	 9.40714385546888E-02 
646	 9.39850034855997E-02 
647	 9.38801459539145E-02 
648	 9.38146509052709E-02 
649	 0.093825192504252 
650	 9.36898095802791E-02 
651	 9.34777747022793E-02 
652	 9.33319388239362E-02 
653	 9.30036166039621E-02 
654	 9.26271067817617E-02 
655	 9.22165301680095E-02 
656	 9.16531479052907E-02 
657	 9.13205206103359E-02 
658	 9.10738704491716E-02 
659	 9.07330334796275E-02 
660	 9.03616855514446E-02 
661	 9.00679850385443E-02 
662	 8.98531968001871E-02 
663	 8.96595643288512E-02 
664	 8.95461334298515E-02 
665	 0.089434580720796 
666	 8.92709422465506E-02 
667	 8.90680923324932E-02 
668	 8.89580082492602E-02 
669	 8.89040000258471E-02 
670	 8.88326270943885E-02 
671	 8.88097393098608E-02 
672	 8.87943087174163E-02 
673	 8.87745561667077E-02 
674	 8.87732779521434E-02 
675	 8.88594963312882E-02 
676	 8.89609355487989E-02 
677	 0.089020390799971 
678	 8.90837858489316E-02 
679	 8.91811828118857E-02 
680	 8.92776772278567E-02 
681	 8.93293934215088E-02 
682	 8.94647689997911E-02 
683	 8.96236221791933E-02 
684	 8.97426060464072E-02 
685	 8.97815885963037E-02 
686	 0.089766904842497 
687	 8.98140686260506E-02 
688	 8.99541603477051E-02 
689	 8.98979863444511E-02 
690	 0.089695862980113 
691	 8.94610446694382E-02 
692	 0.089318983115442 
693	 8.90398755075815E-02 
694	 8.86606437277387E-02 
695	 8.83093224901746E-02 
696	 8.81513334535504E-02 
697	 8.76556192849286E-02 
698	 0.086916507812982 
699	 8.62396508684636E-02 
700	 8.56375552806116E-02 
701	 8.50203563075982E-02 
702	 8.43347766559169E-02 
703	 8.35517181446074E-02 
704	 0.082771317860542 
705	 8.18768245595282E-02 
706	 0.080878283756867 
707	 8.00869885955904E-02 
708	 0.07903326413201 
709	 0.077746306612633 
710	 7.64262434537686E-02 
711	 7.50632964385587E-02 
712	 7.36626922965685E-02 
713	 7.21707096254243E-02 
714	 7.04400135069869E-02 
715	 6.89121326370146E-02 
716	 6.72858297487686E-02 
717	 6.53296643018988E-02 
718	 6.33522723892887E-02 
719	 6.14666183189411E-02 
720	 0.059822863129908 
721	 5.81584721988841E-02 
722	 5.65853381464983E-02 
723	 5.47226137937482E-02 
724	 0.052705958162327 
725	 5.08147047686084E-02 
726	 4.88701239485161E-02 
727	 4.66832475499691E-02 
728	 4.42274359868338E-02 
729	 4.18529685384199E-02 
730	 3.93572469101442E-02 
731	 3.70026946667975E-02 
732	 3.50201814458008E-02 
733	 3.33467978724389E-02 
734	 3.19003117651683E-02 
735	 3.06815066206503E-02 
736	 2.97527984103956E-02 
737	 0.028915076958456 
738	 2.82363712233866E-02 
739	 0.027803027366133 
740	 2.75115352324447E-02 
741	 2.73212089110737E-02 
742	 2.71858062771547E-02 
743	 0.027073154580483 
744	 2.70898617553191E-02 
745	 2.70798336521912E-02 
746	 2.69821352421553E-02 
747	 2.68959382166155E-02 
748	 2.67919818738981E-02 
749	 2.67465502917226E-02 
750	 2.68063912857953E-02 
751	 2.68568413113817E-02 
752	 2.68448284664136E-02 
753	 2.68189243665332E-02 
754	 0.02686920669594 
755	 2.69075869853477E-02 
756	 2.69231220235475E-02 
757	 2.69134706441695E-02 
758	 2.68629895519305E-02 
759	 2.67978817814935E-02 
760	 2.68630490689671E-02 
761	 2.70973854741205E-02 
762	 2.72789457888283E-02 
763	 2.71732976037327E-02 
764	 2.71037354611524E-02 
765	 2.73638667802639E-02 
766	 2.75766623813198E-02 
767	 2.76598402362338E-02 
768	 2.77204702209306E-02 
769	 2.80136482955462E-02 
770	 2.81227771886659E-02 
771	 2.82134100712871E-02 
772	 2.84470476585333E-02 
773	 2.86567412403585E-02 
774	 2.87874567384081E-02 
775	 2.89887577240808E-02 
776	 2.94181000375678E-02 
777	 2.96712687409632E-02 
778	 2.99494389783924E-02 
779	 3.02784669111945E-02 
780	 3.04846620374813E-02 
781	 3.08103961441288E-02 
782	 3.12268868382757E-02 
783	 0.031624892619678 
784	 3.18073848113348E-02 
785	 3.22778784894632E-02 
786	 3.28156920577318E-02 
787	 0.033061748532156 
788	 3.34887605028483E-02 
789	 3.38215578907039E-02 
790	 3.40706092783034E-02 
791	 3.44890142292331E-02 
792	 3.49699427130158E-02 
793	 3.54617529795329E-02 
794	 3.59260104463869E-02 
795	 0.036317295861953 
796	 3.65731018088812E-02 
797	 3.69411370055565E-02 
798	 3.75495409480494E-02 
799	 3.77827462154853E-02 
800	 3.80331913523524E-02 
801	 3.83720972213277E-02 
802	 3.86787101278327E-02 
803	 3.89161033588083E-02 
804	 3.90378954469531E-02 
805	 3.90637095816482E-02 
806	 3.90789538693633E-02 
807	 3.91901764467012E-02 
808	 3.91871234513809E-02 
809	 3.89691881588607E-02 
810	 3.89026367609696E-02 
811	 3.86839218356111E-02 
812	 3.83839834875509E-02 
813	 3.81588056872098E-02 
814	 3.75899716962038E-02 
815	 3.73064434302237E-02 
816	 3.70397055539835E-02 
817	 3.59833017136622E-02 
818	 3.56743896253691E-02 
819	 3.50909502393549E-02 
820	 3.40170361070783E-02 
821	 3.35380396767333E-02 
822	 0.032246532007288 
823	 3.08593343399546E-02 
824	 2.99554759670527E-02 
825	 2.83392333436176E-02 
826	 2.67949991871975E-02 
827	 2.52300578217704E-02 
828	 2.34604752614085E-02 
829	 2.20445648057144E-02 
830	 2.06859537566036E-02 
831	 1.94350570568144E-02 
832	 1.86029416819377E-02 
833	 1.77291163852253E-02 
834	 0.017012269436375 
835	 0.016575089918553 
836	 1.63499059964912E-02 
837	 1.59435237145577E-02 
838	 1.55472184519313E-02 
839	 1.53205661330326E-02 
840	 1.49799738387187E-02 
841	 0.014768305926755 
842	 1.45727018046099E-02 
843	 1.42206204183159E-02 
844	 1.38753773390519E-02 
845	 0.013703578491761 
846	 1.36270755232613E-02 
847	 1.34127029948488E-02 
848	 1.30639617167728E-02 
849	 1.29149881630786E-02 
850	 1.29825390546372E-02 
851	 1.28415261446692E-02 
852	 1.23892961189116E-02 
853	 1.21204816034508E-02 
854	 1.22193943078605E-02 
855	 1.19427035473364E-02 
856	 1.17211992767673E-02 
857	 1.14943436322432E-02 
858	 1.12159621930965E-02 
859	 1.14125391444544E-02 
860	 1.12892755942851E-02 
861	 1.09186938073406E-02 
862	 1.07729303853852E-02 
863	 0.010723439766563 
864	 1.05549096128825E-02 
865	 0.010307506820078 
866	 1.02351453663683E-02 
867	 1.01421667659227E-02 
868	 1.00660956790832E-02 
869	 9.99014354269578E-03 
870	 9.79703417532045E-03 
871	 9.63840377539705E-03 
872	 9.32904871785979E-03 
873	 8.84826021734113E-03 
874	 8.68428130439997E-03 
875	 8.60117014641854E-03 
876	 8.58888731042426E-03 
877	 8.59627484242437E-03 
878	 8.19998024451213E-03 
879	 7.8662841050376E-03 
880	 7.62991708938817E-03 
881	 7.35538187364141E-03 
882	 7.28012608886902E-03 
883	 7.10667157432505E-03 
884	 6.87347852596183E-03 
885	 6.85024953459174E-03 
886	 6.8246217464873E-03 
887	 6.60947911370619E-03 
888	 6.34287734461089E-03 
889	 6.4576930289556E-03 
890	 6.17094147299686E-03 
891	 5.80977542882396E-03 
892	 5.69232714223087E-03 
893	 5.72338096154868E-03 
894	 5.58465064180323E-03 
895	 5.57316990336905E-03 
896	 5.80607705689915E-03 
897	 5.1808220875983E-03 
898	 5.07879909505955E-03 
899	 5.3325023752419E-03 
900	 5.22875519180652E-03 
901	 4.44114911411366E-03 
902	 4.06002199569783E-03 
903	 4.12022838488466E-03 
904	 4.26690254553967E-03 
905	 4.55259791156695E-03 
906	 4.56414937124676E-03 
907	 4.11339638945817E-03 
908	 3.41168415815733E-03 
909	 3.88823349890906E-03 
910	 3.81872673010516E-03 
911	 3.12929219175678E-03 
912	 3.38104137275037E-03 
913	 4.01182140050832E-03 
914	 3.86266586917775E-03 
915	 2.88151033928199E-03 
916	 2.31713731275267E-03 
917	 2.40557099556341E-03 
918	 2.26502744814744E-03 
919	 1.92499192737114E-03 
920	 2.67563027382288E-03 
921	 1.94151444493278E-03 
922	 1.5637562964052E-03 
923	 2.59927339484196E-03 
924	 2.65238418665367E-03 
925	 1.0820253984688E-03 
926	 7.47198097772918E-04 
927	 3.27607993892543E-03 
928	 1.76830449885504E-04 
929	-3.35115307875371E-04 
930	 2.11343764278013E-03 
931	 0.002579990474235 
932	-1.31413906859316E-03 
933	-4.95646772230331E-03 
934	-3.37288822163962E-03 
935	 2.34106459989497E-03 
936	-5.30663182511095E-04 
937	-6.74636517943298E-04 
938	-3.64615304919264E-04 
939	-3.28602224699705E-03 
940	-1.40928394667927E-03 
941	 8.30889656594376E-04 
942	 1.83528583605158E-03 
943	 1.50137512431412E-03 
944	-6.72523064799787E-04 
945	 1.31112838758392E-03 
946	 3.71490489683866E-03 
947	-5.95711788355011E-04 
948	-3.97108442525582E-03 
949	-1.11940866855601E-03 
950	 1.53333684616065E-03 
951	-4.94681430297013E-03 
952	-2.3214700468612E-03 
953	 1.84852395030398E-03 
954	 2.94876518786205E-03 
955	 9.06663030210636E-04 
956	-6.78640605260936E-05 
957	 1.27292553905428E-03 
958	 1.6743840244198E-03 
959	-2.62433313057481E-03 
960	-5.46233172023486E-04 
961	 1.57837747328983E-03 
962	 2.24662212446449E-03 
963	 3.74784388491645E-03 
964	 1.9359674238817E-03 
965	 5.20380611224045E-04 
966	 6.85004485251334E-04 
967	 1.19015026410367E-03 
968	-4.53111403391759E-05 
969	 8.95072001182574E-04 
970	 2.42975040327019E-03 
971	-6.55591391254554E-04 
972	 1.35701486950268E-04 
973	 1.17256402872932E-03 
974	 9.18028143577782E-04 
975	 1.11085147521379E-03 
976	 1.10334287594021E-03 
977	 7.72222870816506E-04 
978	 3.80587778908843E-04 
979	 3.59782836120771E-04 
980	 1.71259042784352E-04 
981	 9.761947235231E-04 
982	 1.74588471198455E-03 
983	 3.32191332211182E-04 
984	 1.50323353354302E-05 
985	 7.72578410066953E-04 
986	 8.51310364252545E-04 
987	-1.39659679044472E-03 
988	 8.08415260407674E-04 
989	 8.06307409462893E-04 
990	-8.08336658354818E-04 
991	 1.39237725343559E-03 
992	 2.92015481040833E-04 
993	 3.20519923246049E-04 
994	 1.81686698290103E-03 
995	 1.87104948673436E-03 
996	 6.45408535841352E-04 
997	-1.17423262370109E-04 
998	 1.08229113673192E-04 
999	 7.8646568256008E-04 
1000	 1.29845752187476E-03 
1001	 3.15232679771515E-04 
1002	 5.34793228907835E-04 
1003	 4.87990302845638E-04 
1004	 3.57630459414962E-04 
1005	 2.54868265530652E-04 
1006	-1.42164512846408E-04 
1007	-2.41057548331071E-04 
1008	-2.16705358836329E-05 
1009	 8.24888622034094E-05 
1010	 3.86033834389374E-04 
1011	 6.76206200179828E-04 
1012	 6.83933965731151E-04 
1013	 7.60497453221945E-04 
1014	 8.54135778632148E-04 
1015	 1.02537479743333E-03 
1016	 9.9458946161789E-04 
1017	 8.65555970527202E-04 
1018	 7.58706937284335E-04 
1019	 4.18349822994253E-04 
1020	 1.7814781195083E-04 
1021	-8.40378445521302E-05 
1022	-6.73168533071962E-05 
1023	-1.09900770119051E-04 
1024	 2.93676625786465E-04 
1025	 6.87682347331151E-04 
1026	 9.4998317353067E-04 
1027	 9.27780291285496E-04 
1028	 5.2212843512704E-04 
1029	 3.7658469506966E-04 
1030	 1.64559457366849E-05 
1031	 1.27162829842558E-04 
1032	 7.4775572836656E-04 
1033	 9.04533566447948E-04 
1034	 1.12979141325748E-03 
1035	 1.10812246896222E-03 
1036	 6.18293689923107E-04 
1037	 3.99176126016437E-04 
1038	-1.51409465152344E-04 
1039	 1.22313577291819E-04 
1040	 4.81586823465901E-04 
1041	 7.63146609008522E-04 
1042	 8.63859675969081E-04 
1043	 1.08649379718099E-03 
1044	 1.00815996569807E-03 
1045	 4.0343232617812E-04 
1046	 3.72519324741311E-04 
1047	 6.26818364376653E-04 
1048	 7.12940371936108E-04 
1049	 1.01851620319781E-03 
1050	 1.10161317549652E-03 
1051	 1.05354349791985E-03 
1052	 8.90577697782898E-04 
1053	 2.77488851653588E-04 
1054	 2.05550177467549E-04 
1055	 4.13817449506202E-04 
1056	 4.83047212945706E-04 
1057	 6.54131984626663E-04 
1058	 1.31791367931549E-03 
1059	 1.42224495661006E-03 
1060	 1.11572246144916E-03 
1061	 1.07568123630424E-03 
1062	 1.11334945382675E-03 
1063	 9.73077679632263E-04 
1064	 8.03029022999126E-04 
1065	 5.74734514753777E-04 
1066	-1.2680503421804E-04 
1067	-1.98757434547581E-04 
1068	 9.50656998425338E-05 
1069	 3.12078499789188E-04 
1070	 1.18846150343368E-03 
1071	 1.47433677867025E-03 
1072	 1.50894343031001E-03 
1073	 1.13959229334181E-03 
1074	 1.07395374753544E-03 
1075	 7.91918872879721E-04 
1076	 7.67416154474369E-04 
1077	 1.07040650038086E-03 
1078	 1.09716708877481E-03 
1079	 9.34257710356527E-04 
1080	 9.36684035792002E-04 
1081	 1.00121953302412E-03 
1082	 9.78512442774035E-04 
1083	 9.60472712185644E-04 
1084	 1.00939916562486E-03 
1085	 1.0739543001231E-03 
1086	 1.02199273002558E-03 
1087	 1.00283382972035E-03 
1088	 9.73959321457311E-04 
1089	 6.41204083027081E-04 
1090	 5.43530425476304E-04 
1091	 7.11894663051019E-04 
1092	 1.18756665938384E-03 
1093	 1.3510085620043E-03 
1094	 1.80565867848098E-03 
1095	 1.80128388894968E-03 
1096	 1.34656851382452E-03 
1097	 1.11083467511914E-03 
1098	 5.62492436188637E-04 
1099	 3.78560833914025E-04 
1100	 3.42501832134819E-04 
1101	 4.42871451151278E-04 
1102	 1.29957633035185E-03 
1103	 1.42993750003784E-03 
1104	 1.19884364135684E-03 
1105	 9.06330360818456E-04 
1106	 2.59882939630408E-04 
1107	 7.81158568545678E-05 
1108	 1.00770770901369E-03 
1109	 1.20971589677544E-03 
1110	 1.17190798704276E-03 
1111	 9.39478933741027E-04 
1112	 6.7077678314391E-04 
1113	-7.32628898019672E-04 
1114	-8.17505811223737E-04 
1115	 6.69945689147428E-04 
1116	 6.51124903332392E-04 
1117	 4.0437111218248E-04 
1118	 6.25803181291545E-05 
1119	-3.18879683634791E-03 
1120	-4.04557909004632E-03 
1121	-2.45669070256198E-03 
1122	 6.74221972736663E-04 
1123	 6.23496322927359E-03 
1124	 5.07234009307653E-03 
1125	-4.48560006406998E-03 
1126	-7.15039440746423E-03 
1127	-5.31962906705508E-03 
1128	-2.39150198911177E-03 
1129	-7.53123097193359E-04 
1130	 4.50406106821097E-03 
1131	 4.67360083828382E-03 
1132	 7.64008500783748E-05 
1133	 4.50263164582013E-04 
1134	 4.54498850543173E-03 
1135	 4.21333107723397E-03 
1136	 2.42918827516203E-03 
1137	 1.54781163751986E-03 
1138	-1.06407362172666E-03 
1139	-2.80674787494739E-03 
1140	-1.60313591307607E-03 
1141	-6.08653235066078E-04 
1142	-2.54905080048373E-04 
1143	-6.25018100722365E-04 
1144	-1.02785494971993E-03 
1145	-2.44093280812485E-04 
1146	-2.17575133381078E-04 
1147	-4.26352540000827E-04 
1148	 2.42562041219044E-04 
1149	 2.00245054309508E-04 
1150	 3.16392429289756E-04 
1151	 1.17676891575363E-03 
1152	 1.01878926473852E-03 
1153	 3.63117820927331E-05 
1154	-1.05073350947109E-04 
1155	-3.64830276059061E-04 
1156	-8.07604185453702E-05 
1157	 4.23377324907887E-04 
1158	 2.96135857908984E-04 
1159	 1.07337611740013E-04 
1160	 2.12235402740952E-04 
1161	 6.13110021552867E-05 
1162	 2.84730304144886E-04 
1163	 8.23380100570645E-04 
1164	 4.780340603308E-04 
1165	 5.85754912530339E-04 
1166	 1.01286251379063E-03 
1167	 1.99292168173134E-04 
1168	-8.20340589565941E-05 
1169	 5.09235145436402E-04 
1170	 5.4707472858133E-04 
1171	 4.38505842786837E-04 
1172	 5.55097473816368E-04 
1173	 7.34416730369219E-04 
1174	 6.24885037912319E-04 
1175	 4.22015345120039E-04 
1176	 5.87313307605714E-04 
1177	 8.74095461640968E-04 
1178	 6.16221591944855E-04 
1179	 3.13564083538676E-04 
1180	 4.0483088473821E-04 
1181	 6.05802211562686E-04 
1182	 5.8195208119248E-04 
1183	 4.41796298882062E-04 
1184	 5.06268875566611E-04 
1185	 4.89038831583807E-04 
1186	 3.77803472141969E-04 
1187	 4.15442711698862E-04 
1188	 5.01943496983683E-04 
1189	 5.88807421077856E-04 
1190	 5.17688374711319E-04 
1191	 3.3355858425229E-04 
1192	 3.82323005648418E-04 
1193	 4.6416525032918E-04 
1194	 5.41420940594487E-04 
1195	 7.41909477219342E-04 
1196	 1.01571330789195E-03 
1197	 6.89348036932487E-04 
1198	 2.6622182251884E-04 
1199	 5.67750081893388E-04 
1200	 7.53267046900227E-04 
1201	 5.41651663855039E-04 
1202	 6.4029808357899E-04 
1203	 5.75387198489163E-04 
1204	 2.3602376437349E-04 
1205	 3.88663320477867E-04 
1206	 7.20658150463604E-04 
1207	 7.02100517213874E-04 
1208	 4.55044081250741E-04 
1209	 5.06613256667314E-04 
1210	 9.07221471099319E-04 
1211	 8.71995174504586E-04 
1212	 5.99076195901241E-04 
1213	 5.63652340984285E-04 
1214	 5.34312932258651E-04 
1215	 2.6844930185804E-04 
1216	 1.34870500200009E-04 
1217	 2.88900617683084E-04 
1218	 3.24895636928979E-04 
1219	 2.73111284367506E-04 
1220	 3.51992470234122E-04 
1221	 4.7249695199687E-04 
1222	 4.81698348710518E-04 
1223	 4.52808172590307E-04 
1224	 3.87468658918769E-04 
1225	 4.4016960446952E-04 
1226	 6.62939741862768E-04 
1227	 8.11171834129523E-04 
1228	 8.21748597813777E-04 
1229	 8.25630937233545E-04 
1230	 8.35770269289338E-04 
1231	 7.36344406790909E-04 
1232	 6.70622427660581E-04 
1233	 7.05596880185301E-04 
1234	 5.30619896979706E-04 
1235	 4.00180555993277E-04 
1236	 3.56049081436909E-04 
1237	 3.77289219105526E-04 
1238	 3.6790409331438E-04 
1239	 2.79605206609395E-04 
1240	 4.4416343785497E-04 
1241	 4.44137520703351E-04 
1242	 3.15144402872152E-04 
1243	 3.40312980307712E-04 
1244	 4.40007248107195E-04 
1245	 5.32878112278397E-04 
1246	 5.38674109669497E-04 
1247	 4.73855678672533E-04 
1248	 3.73628857734472E-04 
1249	 2.84200018983829E-04 
1250	 1.94810553996782E-04 
1251	 1.32241297856412E-04 
1252	 3.95123851549642E-04 
1253	 7.35590083952962E-04 
1254	 7.0516149718022E-04 
1255	 7.07784389973656E-04 
1256	 7.76163307473962E-04 
1257	 7.06235987734392E-04 
1258	 5.45337834831136E-04 
1259	 4.35608293491285E-04 
1260	 4.69108510783552E-04 
1261	 3.01680921457984E-04 
1262	 2.34013231967289E-04 
1263	 3.11812597090771E-04 
1264	 7.79105252193963E-04 
1265	 8.12614253698997E-04 
1266	 6.20634758448659E-04 
1267	 5.44266397237283E-04 
1268	 3.6303327667772E-04 
1269	 1.9355097972829E-04 
1270	 3.58031494818488E-04 
1271	 7.75018087850665E-04 
1272	 8.19699795513487E-04 
1273	 6.71741825733899E-04 
1274	 6.98182312140148E-04 
1275	 5.0495204247233E-04 
1276	 3.33868871323318E-04 
1277	 4.49257266366132E-04 
1278	 5.26350433376712E-04 
1279	 7.3856815991689E-04 
1280	 1.04041479923327E-03 
1281	 1.05606238784988E-03 
1282	 7.52986714580848E-04 
1283	 7.06589304462897E-04 
1284	 6.6831757089111E-04 
1285	 5.75459391886381E-04 
1286	 5.19690607174165E-04 
1287	 5.46221152448426E-04 
1288	 5.97019739594698E-04 
1289	 5.69051391802133E-04 
1290	 6.19139372999265E-04 
1291	 5.92667793410768E-04 
1292	 4.53286767018574E-04 
1293	 2.5321814691277E-04 
1294	 2.39257373412944E-04 
1295	 3.67593357322585E-04 
1296	 5.57205893413454E-04 
1297	 6.80576149591366E-04 
1298	 5.56188137203094E-04 
1299	 5.44942990378567E-04 
1300	 5.81820601023348E-04 
1301	 3.53785591545046E-04 
1302	 2.77397225918283E-04 
1303	 4.54044467473132E-04 
1304	 4.31298295227777E-04 
1305	 9.05652828141359E-05 
1306	 1.3946595081987E-05 
1307	-5.62120027886765E-06 
1308	 9.29830537019993E-06 
1309	 2.74965805380385E-04 
1310	 2.12300089619865E-04 
1311	-2.06440145052499E-04 
1312	-2.24171429756285E-04 
1313	-9.90025881972856E-05 
1314	-1.0981917463419E-04 
1315	 8.97288525347762E-05 
1316	 1.70859850336334E-04 
1317	-9.0759707607598E-05 
1318	-1.31448845592936E-04 
1319	 2.06633703552057E-04 
1320	 2.90181524929677E-04 
1321	 2.55274781098456E-04 
1322	 6.54616470229287E-05 
1323	-5.00009381104742E-04 
1324	-6.17851720974793E-04 
1325	-2.69875435753457E-04 
1326	-1.52199223844517E-04 
1327	-1.11898489496471E-04 
1328	-4.6838225617977E-04 
1329	-6.14772859216402E-04 
1330	-7.18834985736654E-04 
1331	-1.01742419187147E-03 
1332	-5.95993084221511E-04 
1333	-5.64269555137717E-04 
1334	-8.05596924048697E-04 
1335	-6.50916840822078E-04 
1336	 7.85235740188616E-04 
1337	 1.1299610212816E-03 
1338	 5.4494652383146E-04 
1339	 3.24275922996911E-04 
1340	 3.0143189499963E-05 
1341	 3.69082194739575E-04 
1342	 1.45855035441192E-03 
1343	 1.47494654505101E-03 
1344	 1.02861808577822E-03 
1345	 1.23575311217608E-03 
1346	 4.1744745960096E-04 
1347	-4.82559664917134E-04 
1348	 1.15718623005891E-03 
1349	 2.02595165329685E-03 
1350	-1.85165895592678E-03 
1351	-3.96513767355799E-03 
1352	-6.07506038331605E-04 
1353	 9.59913262602515E-05 
1354	-1.77954483492045E-03 
1355	-7.10909783005774E-03 
1356	-5.29579796651547E-03 
1357	 2.44047458190645E-02 
1358	 5.49902979638522E-03 
1359	 4.65864650839493E-02 
1360	 0.193930933346945 
1361	 0.15465642340898 
1362	 3.56100973233775E-02 
1363	 5.76024852744844E-02 
1364	 5.50809367928213E-02 
1365	-0.112376114842941 
1366	-0.125373225434184 
1367	 3.64397952272564E-02 
1368	 0.054454142051429 
1369	-1.27062691150631E-02 
1370	-2.37466755356538E-02 
1371	-1.33705719774189E-02 
1372	-2.61181228155432E-02 
1373	-6.51945706531598E-02 
1374	-0.150133559296573 
1375	-0.300632806967934 
1376	-0.230060499850454 
1377	 2.44628854953172E-02 
1378	-9.70399592311209E-02 
1379	-0.330886111801429 
1380	-0.245294887119997 
1381	-0.129884953677544 
1382	-0.310896098054177 
1383	-0.392743996910861 
1384	-0.315866256376534 
1385	-0.454315733710164 
1386	-0.528704821298347 
1387	-0.197806016571308 
1388	 1.77871807125016E-02 
1389	 2.92722545378669E-02 
1390	-4.72636756647324E-02 
1391	-4.59806203792783E-02 
1392	 4.17457803323109E-03 
1393	 3.33710522990592E-02 
1394	-0.121571682874277 
1395	-0.1333857990445 
1396	 1.73472642248492E-02 
1397	-0.123053603648469 
1398	-0.321359855606101 
1399	-0.248150493863621 
1400	 0.194296885430507 
1401	 8.44763637238445E-02 
1402	-0.110676062184074 
1403	-9.12851784078936E-02 
1404	-4.41335095867938E-02 
1405	-0.025088585392673 
1406	 0.192641571447122 
1407	 0.145505159060529 
1408	-0.106998250890607 
1409	-0.12680093923838 
1410	-7.54573391407976E-02 
1411	-0.101931138386076 
1412	-0.157236542446827 
1413	-0.110771244755126 
1414	-1.03849577413428E-02 
1415	-2.48712862002338E-02 
1416	-3.11939825353492E-02 
1417	 1.0250717832879E-03 
1418	 1.13251384350706E-03 
1419	-4.11680165548477E-02 
1420	-0.095669978851065 
1421	-6.82458990514404E-02 
1422	-3.94929025092762E-02 
1423	-3.14879343873956E-02 
1424	 0.020129106068799 
1425	 3.80017912641452E-02 
1426	 1.35941274925801E-02 
1427	 3.26808535758099E-03 
1428	 4.32210967915913E-03 
1429	 5.66718195025852E-03 
1430	 3.86121443441128E-03 
1431	-3.29125516603115E-04 
1432	-5.66310957771683E-03 
1433	-6.47371189159433E-04 
1434	 1.70469614141976E-02 
1435	 1.12978367252258E-02 
1436	-6.64972315092872E-03 
1437	-1.17781665773341E-02 
1438	-9.26137916788158E-03 
1439	-2.21964959694516E-02 
1440	-3.33962850940335E-02 
1441	-2.50496150111955E-02 
1442	-1.32737546526565E-02 
1443	-1.23733295648524E-02 
1444	-9.29196369437564E-03 
1445	 7.94737340091389E-04 
1446	 3.61996981459209E-03 
1447	-1.00687583866927E-03 
1448	-1.88197445800253E-03 
1449	-3.78270034016407E-04 
1450	-2.23888503184413E-04 
1451	 6.6249312395687E-04 
1452	 2.32047340857994E-03 
1453	 2.02628200537485E-03 
1454	 2.26772141281708E-03 
1455	 4.45602003826425E-04 
1456	-4.26879857782491E-04 
1457	-4.12334540247303E-04 
1458	-3.35778327141069E-04 
1459	-1.0118777392083E-03 
1460	-1.56423289414338E-03 
1461	-1.32088813206556E-03 
1462	-5.2979855353859E-04 
1463	 7.84153540072376E-06 
1464	-7.40691782434903E-04 
1465	-1.08212815553955E-03 
1466	-3.19619335825321E-04 
1467	-9.09762396840719E-04 
1468	-1.21602753402819E-03 
1469	 6.66787361193681E-04 
1470	 1.82199586293818E-03 
1471	 1.64590067980982E-03 
1472	 1.24118590839355E-03 
1473	 1.03307615309373E-03 
1474	 2.22905291614862E-03 
1475	 4.16837904500523E-03 
1476	 3.12694633405442E-03 
1477	 1.26026497390113E-03 
1478	 1.27329332838896E-03 
1479	 2.98477822608157E-04 
1480	-8.83688938365013E-04 
1481	-5.78263824790648E-04 
1482	-9.66880939973243E-05 
1483	-1.20537627987785E-03 
1484	-1.21920929698091E-03 
1485	 1.02653077748143E-03 
1486	 1.45612033699191E-03 
1487	 3.39616144590791E-04 
1488	 2.97395166308356E-04 
1489	 8.69200034169884E-04 
1490	 0.000717606377892 
1491	 2.17585701856015E-04 
1492	 3.14314079419786E-04 
1493	 6.98674497722145E-04 
1494	 3.5438644073639E-04 
1495	-5.25909253023862E-04 
1496	-3.48591940718158E-04 
1497	 2.93077469041449E-04 
1498	 2.40927770843667E-04 
1499	 4.67847548286422E-04 
1500	 6.60454303428027E-04 
1501	 2.21308684042473E-04 
1502	-1.13361540637748E-04 
1503	-3.29443668754537E-04 
1504	-1.66836674079775E-04 
1505	 1.18232454521612E-04 
1506	 2.58118846802629E-04 
1507	 1.74256787143282E-04 
1508	 1.64545210053235E-04 
1509	 1.62633090300796E-04 
1510	 2.87470873470153E-05 
1511	-3.95917332554502E-05 
1512	 2.55770639675377E-04 
1513	 3.66153266301616E-04 
1514	 1.33539860298352E-04 
1515	 2.46712356808418E-04 
1516	 3.84935711364959E-04 
1517	 1.92917012749335E-04 
1518	 1.34701492598882E-04 
1519	 1.87908089006111E-04 
1520	 1.76393580518161E-04 
1521	 2.4884828538807E-04 
1522	 3.09223747938923E-04 
1523	 3.52373829596463E-04 
1524	 4.71737776147851E-04 
1525	 5.31016932102938E-04 
1526	 3.51912126282236E-04 
1527	 1.8246746117567E-04 
1528	 1.66562441144245E-04 
1529	 2.78303540888272E-05 
1530	 1.00203672912782E-05 
1531	 2.00410696343582E-04 
1532	 2.93101616343888E-04 
1533	 3.54534016439873E-04 
1534	 3.66665820317853E-04 
1535	 2.30426868775045E-04 
1536	 2.57752213800975E-04 
1537	 3.71707261330349E-04 
1538	 3.08627844377101E-04 
1539	 4.30481832399617E-04 
1540	 4.85402756676543E-04 
1541	 1.87491976941384E-04 
1542	 1.871050231457E-04 
1543	 4.10256813254009E-04 
1544	 4.24810527201799E-04 
1545	 4.65336527037074E-04 
1546	 4.67257073242709E-04 
1547	 3.38841633612491E-04 
1548	 3.2747832951364E-04 
1549	 4.22201133053376E-04 
1550	 3.89348451203978E-04 
1551	 3.23598503790241E-04 
1552	 4.54922811970351E-04 
1553	 3.53686698028218E-04 
1554	 1.29909688406356E-04 
1555	 3.44773275726067E-04 
1556	 5.27861407645729E-04 
1557	 5.83147957847584E-04 
1558	 6.612704199177E-04 
1559	 3.03198597456132E-04 
1560	-2.70500947899476E-05 
1561	 2.37980777567481E-04 
1562	 5.07531578796654E-04 
1563	 3.81086631413723E-04 
1564	 2.22393051512449E-04 
1565	 2.81479711207487E-04 
1566	 3.37657231654023E-04 
1567	 4.65822956427176E-04 
1568	 5.33550555734707E-04 
1569	 3.55300510969801E-04 
1570	 4.19126246330401E-04 
1571	 4.87923131845859E-04 
1572	 4.76840293278405E-04 
1573	 4.33582678807758E-04 
1574	-1.82450734445791E-05 
1575	-2.44061210792987E-04 
1576	 1.8635498472682E-05 
1577	 2.27212859637145E-04 
1578	 3.76968610066172E-04 
1579	 5.84334482715411E-04 
1580	 5.04590262410915E-04 
1581	 1.45237565495519E-04 
1582	 3.37508417278435E-05 
1583	 2.59051210840237E-04 
1584	 4.05205553503491E-04 
1585	 3.22783511523783E-04 
1586	 3.65508365674145E-04 
1587	 4.81755683579202E-04 
1588	 3.60047214459361E-04 
1589	 2.01328583427898E-04 
1590	 2.00093626719667E-04 
1591	 3.15003624433073E-04 
1592	 3.55292735406718E-04 
1593	 4.04018167545152E-04 
1594	 6.28882539979546E-04 
1595	 4.79210517125066E-04 
1596	 2.31756789195681E-04 
1597	 5.10839199087405E-04 
1598	 6.65146967574916E-04 
1599	 4.37303533493239E-04 
1600	 4.42482866352237E-04 
1601	 6.9941866110422E-04 
1602	 6.30661442830696E-04 
1603	 3.2653632278549E-04 
1604	 2.39938145674076E-04 
1605	 2.35413828642547E-04 
1606	 1.81365096026562E-04 
1607	 3.56490774346224E-04 
1608	 6.07079006676461E-04 
1609	 5.58007373011501E-04 
1610	 3.33100884261698E-04 
1611	 2.1028667911046E-04 
1612	 2.71894919344157E-04 
1613	 4.70515732984689E-04 
1614	 4.37788214230408E-04 
1615	 1.30266062543034E-04 
1616	 1.94416927516829E-04 
1617	 2.64416436083256E-04 
1618	 9.71907614080877E-05 
1619	 4.04056332665652E-04 
1620	 6.56336535971803E-04 
1621	 1.67033693494175E-04 
1622	-9.33323807488401E-06 
1623	 5.19645029590055E-04 
1624	 4.31248476143466E-04 
1625	-5.58066893627285E-07 
1626	 2.26400381255428E-04 
1627	 4.04469069450239E-04 
1628	 2.84064341887976E-04 
1629	 3.84645694297053E-04 
1630	 4.88211763222579E-04 
1631	 4.07434314154425E-04 
1632	 3.48050019528139E-04 
1633	 4.5795033509387E-04 
1634	 5.47985145009178E-04 
1635	 1.93408178820947E-04 
1636	-6.72048336725136E-05 
1637	 1.83256899517765E-04 
1638	 2.9402145004041E-04 
1639	 3.78991757790922E-04 
1640	 4.65019528184628E-04 
1641	 2.8106050286605E-04 
1642	 1.7563204198134E-04 
1643	-5.98202666594372E-05 
1644	-8.21931453352619E-05 
1645	 4.48085752474745E-04 
1646	 4.24683171234287E-04 
1647	 6.22677879699247E-05 
1648	 9.2445836868183E-05 
1649	 8.76365446686941E-06 
1650	 1.23122097406645E-04 
1651	 5.50028183961137E-04 
1652	 5.00568429711029E-04 
1653	-2.30803720251027E-05 
1654	-4.69451978198608E-05 
1655	 4.88302460347872E-04 
1656	 4.5738733198511E-04 
1657	 1.38706108686594E-04 
1658	 1.5589774694953E-04 
1659	 3.32758082620983E-05 
1660	 1.32437115229158E-04 
1661	 7.45479265943226E-04 
1662	 7.1806133922783E-04 
1663	 2.42462800543344E-04 
1664	 2.85425167251026E-04 
1665	 3.55082313688645E-04 
1666	 3.09855436657629E-04 
1667	 4.69539078603738E-04 
1668	 3.40521809563539E-04 
1669	 3.95072009888108E-04 
1670	 4.65379719343995E-04 
1671	 3.37570964177992E-04 
1672	 1.61862444952564E-04 
1673	 1.49497404606329E-05 
1674	 2.01191566577738E-05 
1675	 2.48584036494124E-04 
1676	 2.14047227110478E-04 
1677	 2.36669663776904E-04 
1678	 5.45213408503829E-04 
1679	 7.55607019118751E-04 
1680	 7.38730042266517E-04 
1681	 2.73350793134332E-04 
1682	 6.86880910328666E-05 
1683	 5.62770342129583E-04 
1684	 9.16294844522907E-04 
1685	 8.69459296328149E-04 
1686	 6.27378596096452E-04 
1687	 1.81957160645116E-04 
1688	 2.61941804672734E-06 
1689	 2.26703293904192E-04 
1690	 3.59458276497916E-04 
1691	 8.88739169182992E-05 
1692	-3.04875903389885E-04 
1693	-8.98183615337024E-05 
1694	 2.24852101030187E-04 
1695	 2.08768351385799E-05 
1696	 1.6000419329133E-04 
1697	 4.30173207328995E-04 
1698	-1.00405367776468E-04 
1699	-2.81402099283743E-04 
1700	 2.24708461632518E-04 
1701	 3.49310237899951E-04 
1702	 4.05470594775239E-04 
1703	 3.27914197821929E-04 
1704	 1.0896917217486E-04 
1705	 2.69414609214396E-04 
1706	 5.2319547429217E-04 
1707	 7.08245770404614E-04 
1708	 9.01988483149286E-04 
1709	 6.51551956803001E-04 
1710	 5.73367238498375E-05 
1711	 4.69874698641059E-04 
1712	 7.90726310705354E-04 
1713	-3.76539697683164E-04 
1714	-3.1126023416923E-04 
1715	 4.09822162905361E-04 
1716	 2.38771315930482E-04 
1717	 5.57299502738893E-04 
1718	 7.06895265512661E-04 
1719	 1.15941383239836E-04 
1720	 8.65260005656574E-05 
1721	 5.45408716931216E-04 
1722	 2.86460359998223E-04 
1723	-1.20719614017589E-04 
1724	 2.76854958037202E-04 
1725	 5.98046892288955E-04 
1726	 2.87995384755397E-04 
1727	 2.49223195946672E-04 
1728	 2.62183013387324E-04 
1729	-1.63251702528818E-04 
1730	-9.39325027618122E-05 
1731	 6.45494261199891E-04 
1732	 6.58735692863079E-04 
1733	-2.05634762157232E-04 
1734	-2.15325131686749E-04 
1735	 3.76563548526296E-04 
1736	 4.15289319683502E-04 
1737	 5.15031794471771E-04 
1738	 4.44785297368255E-04 
1739	-4.94492397476088E-05 
1740	-1.02310436367273E-04 
1741	 2.66996904028562E-04 
1742	 4.55824746870919E-04 
1743	 3.39549391925798E-04 
1744	 1.43231079947089E-04 
1745	 2.46604547658392E-04 
1746	 4.87435399064367E-04 
1747	 3.80385442014525E-04 
1748	-4.3854449835586E-04 
1749	-6.71279487076041E-04 
1750	-5.4693989784877E-04 
1751	-1.96131269332331E-04 
1752	 1.03057481000354E-03 
1753	 1.07367895826762E-03 
1754	 2.95532519333109E-04 
1755	 9.19020296578367E-05 
1756	-8.45724014895576E-04 
1757	-1.47018719486252E-04 
1758	 6.33196843566354E-04 
1759	-3.90316748556636E-05 
1760	 4.504607451348E-04 
1761	 9.90361973701061E-04 
1762	 1.68034438964481E-04 
1763	-1.79042820724806E-04 
1764	-6.18841782955486E-04 
1765	-5.33207402620142E-04 
1766	 4.38833176423819E-04 
1767	 8.17522066058377E-04 
1768	 1.07792018827628E-03 
1769	 6.21362665246291E-04 
1770	-3.96995899213076E-04 
1771	-2.47560184709651E-04 
1772	 2.95151284470105E-04 
1773	 5.54951410116443E-05 
1774	-5.86331265282109E-04 
1775	-1.59006879879065E-03 
1776	-1.57642165932738E-03 
1777	-2.96305652834033E-04 
1778	-7.06191155668944E-04 
1779	-1.76977065660616E-03 
1780	-1.47145390656865E-03 
1781	-1.6620183131542E-03 
1782	-1.82124355292191E-03 
1783	-6.04494673075426E-04 
1784	-2.43463021279674E-04 
1785	-1.42138324068158E-03 
1786	-1.44921910762744E-03 
1787	 6.81577184549779E-04 
1788	 1.11376398619916E-03 
1789	-1.65753565905931E-04 
1790	-1.86502344977142E-03 
1791	-1.98912438758279E-03 
1792	-1.38793208278629E-03 
1793	-1.47199401629405E-03 
1794	 2.18807194754983E-04 
1795	 4.64357382786551E-04 
1796	-8.79374803645069E-04 
1797	-2.79114183669151E-03 
1798	-5.64184817249318E-03 
1799	-9.65914954394494E-03 
1800	-0.014716758269585 
1801	-1.70726809104181E-02 
1802	-5.36806185567082E-03 
1803	-9.8057062763109E-03 
1804	-4.02609132051854E-02 
1805	-5.40426402152992E-02 
1806	-7.47155296942663E-02 
1807	-8.87306826176626E-02 
1808	-4.07991619687361E-02 
1809	-2.98126452303838E-02 
1810	-7.16102640215353E-02 
1811	-0.120163012215107 
1812	-0.18591870578547 
1813	-0.218054038259655 
1814	-0.195473990954259 
1815	-0.198454363289871 
1816	-0.236322710505422 
1817	-0.284186870685261 
1818	-0.204893005771522 
1819	-0.547293131304937 
1820	-9.57875117972722E-02 
1821	 0.323815857527464 
1822	 0.349027107049175 
1823	 3.43336527967922E-02 
1824	-2.48237457762628E-02 
1825	-0.238823733958056 
1826	-0.341559055584623 
1827	-0.663673015145347 
1828	-0.753698996171373 
1829	 0.066140370289416 
1830	 0.657519803004512 
1831	 0.100196629570481 
1832	-0.484008527070894 
1833	-0.566773047453222 
1834	-0.505936554290225 
1835	-0.377541004161996 
1836	-0.418313854684027 
1837	-0.120574680626127 
1838	-7.61715777754646E-02 
1839	-1.42827061275463 
1840	-1.627264899665 
1841	-8.30575983935126 
1842	 1.64565396866394 
1843	 1.62187825276685 
1844	 1.47592550975082 
1845	 1.33076721853951 
1846	-0.560706818014609 
1847	-0.210030227417804 
1848	 0.550855047570184 
1849	 2.00063826215544 
1850	 1.32784595897853 
1851	-10.8112367695105 
1852	-8.95356783695004 
1853	 31.2637543483635 
1854	-188.493795736123 
1855	-6.10742989869892 
1856	-3.7351287799539 
1857	-1.82782195422577 
1858	-1.51309772483844 
1859	-1.68386346704508 
1860	 36.9449210728243 
1861	-7.97080335738642 
1862	-0.678157681268549 
1863	 5.97393379146608E-02 
1864	 2.30539916702565 
1865	 1.40325296744906 
1866	 0.549495140557386 
1867	 0.492386887977055 
1868	 0.196859131642005 
1869	 0.11887156150004 
1870	 0.171430135935663 
1871	 0.166340431253415 
1872	 0.524546256606422 
1873	 0.64368690010702 
1874	 0.500762834242615 
1875	 0.68856344401048 
1876	 2.1134540733381 
1877	-0.655352589817152 
1878	-0.525128329964998 
1879	-2.04558952878618 
1880	-1.97192469507348 
1881	-0.846793123832669 
1882	-0.212279340205048 
1883	 1.08767712090928 
1884	-0.642142109749207 
1885	 0.709668532113094 
1886	 0.741224229726068 
1887	 0.907168243981173 
1888	 0.876055395255637 
1889	 0.808195783308194 
1890	 0.181405804941086 
1891	 0.290732479767362 
1892	 0.779380073618912 
1893	 1.63968688881034 
1894	 3.31589363273674 
1895	-8.40674536605645 
1896	-5.02554398577768 
1897	-8.25645188591964 
1898	-2.9686307081649 
1899	 17.5512413994719 
1900	 2.86703929713887 
1901	 0.553536312764898 
1902	 0.38099909584821 
1903	 1.01430896407595 
1904	 1.27404442030447 
1905	 2.84601105741605 
1906	 1.11310445347102 
1907	 0.688412398244205 
1908	 0.927359692645135 
1909	 6.99574351332398 
1910	-0.883148921624829 
1911	-0.360612143164239 
1912	-0.868205024145094 
1913	 2.18450607050338 
1914	 0.519031792918516 
1915	 0.595893551183105 
1916	 0.993631703322879 
1917	 1.34576992025545 
1918	 1.64402243606498 
1919	 1.59202624382095 
1920	 0.57716783358065 
1921	 0.366704483158564 
1922	 0.182308163391163 
1923	 18.751465412317 
1924	-4.23647680317147 
1925	-2.01413689148318 
1926	-2.0412153805563 
1927	-4.6853191735391 
1928	 35.5733901925182 
1929	-6.03444473118245 
1930	 9.66386383142209 
1931	-73.5967266513872 
1932	-1.64493095157564 
1933	-0.99470341885609 
1934	-0.910289017161611 
1935	-0.723118248981194 
1936	-0.647174670178109 
1937	-0.874767351374452 
1938	-0.612973534866917 
1939	-0.299619523819164 
1940	 0.037664247575724 
1941	 1.97785632031529E-02 
1942	-2.76237391049449E-02 
1943	-1.09186984663106E-02 
1944	-3.26856647409579E-02 
1945	-7.78414133061981E-02 
1946	-5.74244472533216E-02 
1947	-0.012666682218776 
1948	-3.91421580754109E-02 
1949	-7.39654680323445E-02 
1950	-4.56103389437988E-02 
1951	-3.96245065824722E-02 
1952	-4.34956162488017E-02 
1953	-5.29034640186384E-02 
1954	-2.90623664034962E-02 
1955	-1.33405302015625E-02 
1956	-1.25140908216166E-02 
1957	-2.06620135450941E-02 
1958	-1.98880606530945E-02 
1959	-8.77781908079582E-03 
1960	-3.71965968652838E-03 
1961	 1.2612380512042E-04 
1962	 4.78458915035578E-03 
1963	 7.60591997447434E-03 
1964	 6.98493200444532E-03 
1965	 6.60501166477792E-03 
1966	 5.86429513519937E-03 
1967	 6.59858374222175E-03 
1968	 2.20862900160381E-03 
1969	-7.76356299096191E-04 
1970	 3.32616086586447E-04 
1971	 2.84904543367036E-03 
1972	 4.36662352224713E-03 
1973	 3.57948932843635E-03 
1974	 3.27777582757018E-03 
1975	 2.55925008761504E-03 
1976	 7.15542334175292E-04 
1977	-1.99365638834616E-04 
1978	-4.25509820606043E-04 
1979	-4.49370473974903E-04 
1980	-9.86817923501164E-04 
1981	-6.14502859024953E-04 
1982	 3.32956849355731E-04 
1983	 1.35724770030781E-04 
1984	-6.00643253602159E-04 
1985	-7.68983405557867E-04 
1986	-1.1649945470638E-03 
1987	-1.5812155243299E-03 
1988	-1.98564767108103E-03 
1989	-1.91608948742611E-03 
1990	-1.5515334891346E-03 
1991	-1.80491300434788E-03 
1992	-1.92266954429154E-03 
1993	-1.42560892139169E-03 
1994	-1.03817869811249E-03 
1995	-4.38961463842237E-04 
1996	 7.32200741837614E-04 
1997	 1.40546055649159E-03 
1998	-2.68707516473579E-05 
1999	-7.13313411638732E-04 
2000	-3.81934546362372E-04 
2001	-1.83386580306658E-03 
2002	-2.96861857177535E-03 
2003	-4.92283430355922E-03 
2004	-7.44776874701625E-03 
2005	-6.38181961577767E-03 
2006	-7.34731378770612E-03 
2007	-1.27881038991397E-02 
2008	-0.015498619159599 
2009	-1.53316760415237E-02 
2010	-1.39998173717673E-02 
2011	-0.011860309735166 
2012	-5.90869622048684E-03 
2013	-7.78289461270165E-04 
2014	-5.83665309178596E-04 
2015	-1.36473501530743E-03 
2016	-1.40396258164268E-03 
2017	-3.41749879874622E-03 
2018	-4.83239864232496E-03 
2019	-3.42741282826825E-03 
2020	-1.34872582709924E-03 
2021	 4.93881845876099E-04 
2022	 8.85245415970119E-04 
2023	 1.04978384273386E-03 
2024	 1.05965164220102E-03 
2025	 1.52264316955278E-04 
2026	-5.89951654078119E-04 
2027	-1.25945400699338E-03 
2028	-1.5402960449698E-03 
2029	-1.82916577476167E-03 
2030	-5.99028344259399E-04 
2031	 4.44899112937304E-04 
2032	 1.53498392238688E-03 
2033	 2.46444204383763E-03 
2034	 1.72880994802821E-03 
2035	 1.64581310735228E-03 
2036	 1.67475940159635E-03 
2037	 7.05766998690105E-04 
2038	 5.07500802173682E-04 
2039	 3.67518722880765E-04 
2040	 2.27105498744807E-04 
2041	-5.20686660083702E-05 
2042	 4.06281845833845E-05 
2043	-4.07182427503315E-04 
2044	-1.52116386783903E-03 
2045	-2.12026815040828E-03 
2046	-2.2169360532943E-03 
2047	-1.61979374050149E-03 
2048	-1.27109027263145E-03 
2049	-1.58878089156017E-03 
2050	-1.24282155124151E-03 
2051	-7.93562770150441E-04 
2052	-1.01524872077012E-03 
2053	 4.12985552353417E-04 
2054	 2.20540746541295E-03 
2055	 1.05783199994397E-03 
2056	 8.40023178396965E-04 
2057	 1.52299796069789E-03 
2058	 1.57205209197226E-03 
2059	 9.7836460420228E-04 
2060	 8.16404782238423E-04 
2061	 1.29750259706378E-03 
2062	 3.37390330208625E-04 
2063	-1.10512782070838E-03 
2064	-0.002359750890125 
2065	-2.20801940865944E-03 
2066	-1.47123090671106E-03 
2067	-7.1298523508262E-04 
2068	-9.36461266373097E-05 
2069	-8.19251742571643E-04 
2070	-1.97629443953514E-03 
2071	-1.51575460083031E-03 
2072	-5.12687636291274E-04 
2073	-3.82501529205554E-04 
2074	 1.74306845121693E-04 
2075	 1.69494187653771E-04 
2076	-1.40934656872143E-03 
2077	-1.51415064971184E-03 
2078	-5.29060834552603E-04 
2079	-3.1480190763043E-04 
2080	-9.86050405096118E-05 
2081	 3.3910143831737E-04 
2082	 2.42727281560867E-04 
2083	 1.03069449136426E-04 
2084	-3.62852042893451E-04 
2085	-9.35442961955686E-04 
2086	-1.2749695059673E-03 
2087	-1.41948407984462E-03 
2088	-1.06311455206716E-03 
2089	-1.43337990102699E-04 
2090	 1.13368903507691E-03 
2091	 9.40837502611247E-04 
2092	 6.54810368159966E-04 
2093	-2.23462354902971E-04 
2094	-3.81866804707628E-04 
2095	-1.11461284839978E-03 
2096	-7.73106605259543E-04 
2097	 1.45091887616808E-03 
2098	 1.87190587337091E-03 
2099	 1.4338002010979E-03 
2100	 1.62825809021434E-03 
2101	 1.27813222913288E-03 
2102	 2.01160938389184E-04 
2103	 7.49089210725166E-04 
2104	 7.64159804311819E-04 
2105	-9.92825778647087E-06 
2106	-2.07942813083091E-04 
2107	-7.08362131073842E-04 
2108	-8.59649332693334E-04 
2109	-9.78051737389573E-05 
2110	 3.76026059519329E-04 
2111	 1.90888642547387E-04 
2112	-4.73780018775626E-04 
2113	-4.26119812590387E-04 
2114	-8.59957020478812E-05 
2115	-3.27949973806808E-04 
2116	-5.40351479523893E-04 
2117	 9.68623848099955E-05 
2118	 9.0366517523822E-04 
2119	 8.06774477617055E-04 
2120	 1.2658947047361E-03 
2121	 9.46823007959162E-04 
2122	-2.51300570227808E-04 
2123	-8.94276961731989E-04 
2124	-1.25786334676121E-03 
2125	-1.15980931457529E-03 
2126	-1.44679295233398E-03 
2127	-1.34981780953782E-03 
2128	-3.89010542290691E-04 
2129	-3.52586675555156E-04 
2130	-5.8218669510931E-04 
2131	-6.26747621159268E-04 
2132	-3.96420918621305E-04 
2133	 9.70238668822658E-04 
2134	 1.20191916387013E-03 
2135	 8.48141244501804E-04 
2136	 1.00065517791518E-03 
2137	 9.23057697695063E-04 
2138	 7.20107263051192E-04 
2139	 1.04084017040832E-03 
2140	 1.18719313956969E-03 
2141	 6.6598946682891E-04 
2142	 3.96956020660532E-04 
2143	 1.02634226650119E-04 
2144	 8.61194751241504E-04 
2145	 9.55069043533034E-04 
2146	 6.25869921990749E-04 
2147	 1.66527341328858E-03 
2148	 2.13931435639192E-03 
2149	 1.82921937488205E-03 
2150	 1.83955964801514E-03 
2151	 8.89778120464318E-04 
2152	-2.93447293732701E-04 
2153	-6.74459366669824E-04 
2154	-1.14412896546632E-03 
2155	-1.32792062402229E-03 
2156	-4.17187408811896E-04 
2157	-2.35676502180625E-04 
2158	-2.02094176535706E-04 
2159	 1.17341224672237E-04 
2160	 3.77890387126555E-04 
2161	 8.26718925187749E-05 
2162	-1.76121154987826E-04 
2163	-6.87249581291381E-05 
2164	-6.45593917752312E-04 
2165	-3.89292606000241E-04 
2166	 1.08541056215664E-03 
2167	 1.58963035189148E-03 
2168	 2.41009692559582E-03 
2169	 2.27955967368417E-03 
2170	 1.11048051225686E-03 
2171	-7.13682168297674E-05 
2172	-3.82050122282048E-04 
2173	-8.43394173717175E-04 
2174	-8.53458156753464E-04 
2175	 7.78378217727465E-05 
2176	 4.2995485446511E-04 
2177	 6.17054687044574E-04 
2178	 1.38222965499149E-03 
2179	 8.14728535505411E-04 
2180	 5.69283653893488E-05 
2181	-1.85279714656577E-04 
2182	-5.1455677968878E-04 
2183	 2.59089035451922E-04 
2184	 7.30138408694307E-04 
2185	 3.20216671102918E-05 
2186	-4.3123747422672E-04 
2187	-1.81907251460884E-03 
2188	-2.19463761867018E-03 
2189	-1.66328378579984E-03 
2190	-1.4135188232665E-03 
2191	-7.3816069599786E-04 
2192	-5.79688322420265E-04 
2193	-1.45945256512608E-03 
2194	-1.3504399068329E-03 
2195	-5.4780264804019E-07 
2196	-1.05637712419819E-04 
2197	-6.65466916308946E-04 
2198	-1.0355478511867E-03 
2199	-2.96608982344781E-03 
2200	-3.85653740924155E-03 
2201	-1.05969095728493E-03 
2202	 2.94411067850643E-04 
2203	-6.47694835874593E-04 
2204	 4.34867123005131E-04 
2205	 1.6712051893178E-04 
2206	 1.21768805933248E-05 
2207	 1.76753788893292E-03 
2208	 1.50392603800346E-03 
2209	-1.79547463722504E-04 
2210	-2.0937170736751E-03 
2211	-2.17386125239201E-03 
2212	-1.73087076769463E-03 
2213	-1.21466902007136E-03 
2214	 1.22557919457161E-04 
2215	 3.57778366617819E-04 
2216	 5.34080535603338E-04 
2217	 8.21141096624593E-04 
2218	 1.15161975946118E-03 
2219	 1.26410790545082E-03 
2220	 1.74529696956705E-03 
2221	 1.14693499560121E-03 
2222	-1.07980231324892E-03 
2223	-1.28123964906202E-03 
2224	-9.49231212331519E-04 
2225	-8.61098230544842E-04 
2226	 5.55103512332583E-04 
2227	 9.03271217080766E-04 
2228	-2.06245114174222E-04 
2229	-2.31244127921855E-04 
2230	 1.14052603240565E-03 
2231	 1.59379661346539E-03 
2232	 1.41010933002507E-03 
2233	 1.8557292367519E-03 
2234	 2.43484612906725E-03 
2235	 1.73626451953592E-03 
2236	 3.78935273602597E-03 
2237	 5.07554145038341E-03 
2238	 3.49577271110493E-03 
2239	 2.41769559103053E-03 
2240	 1.17256962240776E-03 
2241	-4.73569872841779E-04 
2242	-9.2984216233308E-04 
2243	-2.5199099800532E-04 
2244	-2.77783097799746E-03 
2245	-5.95836296513462E-03 
2246	-3.72812977574827E-03 
2247	-3.63511122438647E-03 
2248	-4.32213782847588E-03 
2249	-1.82280335148277E-03 
2250	-2.01668300767731E-03 
2251	-2.32844270819947E-03 
2252	 2.06671276070029E-04 
2253	 2.83459590357838E-03 
2254	 2.52283353687622E-03 
2255	 7.36676011872837E-04 
2256	 4.05715194578314E-04 
2257	-3.0545479245697E-05 
2258	-1.55126632265774E-03 
2259	-3.81994285878607E-04 
2260	-2.53890107195355E-04 
2261	-2.73040027104311E-03 
2262	-2.62380661709415E-03 
2263	 2.98132100695049E-04 
2264	 8.53101109407576E-04 
2265	 1.4909136571484E-03 
2266	 1.13797350321798E-03 
2267	-1.48160335167426E-03 
2268	-2.03441509092258E-03 
2269	-2.31544285049225E-03 
2270	-7.66196879001389E-04 
2271	 3.81287002482248E-03 
2272	 4.33837916426151E-03 
2273	 3.71421946364524E-03 
2274	 2.95676089605527E-03 
2275	-1.23743471692417E-03 
2276	-1.76497124461145E-03 
2277	 8.91410210767407E-04 
2278	 1.11221491380474E-03 
2279	 2.21406604402432E-03 
2280	 1.84893636066691E-03 
2281	-5.43344053536092E-04 
2282	-3.27064863325031E-03 
2283	-3.17126331064336E-03 
2284	-3.32005482382766E-03 
2285	-5.13326659235783E-03 
2286	-5.20126740083264E-03 
2287	-2.16548561739499E-03 
2288	-2.45391130132227E-03 
2289	-1.9886341774965E-03 
2290	 6.42727341815707E-05 
2291	-2.8006391193075E-03 
2292	-5.51261715023119E-03 
2293	-6.31128381933212E-03 
2294	-3.71794643388937E-03 
2295	-3.39705221356891E-03 
2296	-4.75283246707023E-03 
2297	 5.12490927614991E-04 
2298	 1.83830047872308E-04 
2299	-4.49111291090481E-03 
2300	-4.6541717428798E-03 
2301	-7.73033272178564E-03 
2302	-1.03777371698361E-02 
2303	-3.91966920185828E-03 
2304	 8.2165082102527E-04 
2305	 1.76884140479082E-03 
2306	 4.96453747051606E-03 
2307	 5.53810523493135E-03 
2308	 5.35032902814977E-03 
2309	 4.61086145472225E-03 
2310	 4.55707476664879E-03 
2311	 5.55174940049138E-03 
2312	 4.40855807099984E-03 
2313	 4.5395232023745E-03 
2314	 8.34405928765292E-03 
2315	 1.11354489557441E-02 
2316	 1.01956254464085E-02 
2317	 0.011679317496993 
2318	 1.05162448663433E-02 
2319	 5.21207254091635E-03 
2320	 0.010517870885507 
2321	 1.43173465543998E-02 
2322	 9.55344741991006E-03 
2323	 8.78599431015174E-03 
2324	 4.6738505164661E-03 
2325	 2.65146136484301E-03 
2326	 5.59282768093338E-03 
2327	 3.35789174460561E-03 
2328	-9.56621660082831E-04 
2329	-3.98942088235523E-03 
2330	-6.69682629520153E-03 
2331	-1.10834054247866E-02 
2332	-9.60137412939807E-03 
2333	-5.17474847598684E-03 
2334	-7.71487558006716E-03 
2335	-6.13207704618202E-03 
2336	-1.45536253771454E-03 
2337	-3.03319421262911E-03 
2338	-4.74687191486457E-03 
2339	-1.7360721530353E-03 
2340	 2.98757126747046E-03 
2341	 5.09285155315053E-03 
2342	 7.78418292017809E-03 
2343	 8.33694845348576E-03 
2344	 6.72384061972529E-03 
2345	 0.010656254793612 
2346	 0.016890140148054 
2347	 1.56880524739575E-02 
2348	 5.50388801138704E-03 
2349	-6.94659401735423E-03 
2350	-1.37148793965212E-02 
2351	-1.35744596581262E-02 
2352	-7.18451009741564E-03 
2353	-1.01067189558767E-03 
2354	-1.16340994221208E-02 
2355	-2.63247748136424E-02 
2356	-2.36969678690299E-02 
2357	-8.95310932233348E-03 
2358	 1.62724870963175E-03 
2359	 2.43316166854603E-03 
2360	-3.80004535115729E-03 
2361	-1.92590153588964E-02 
2362	-2.67375634580494E-02 
2363	-2.41362808773814E-02 
2364	-2.62583378013135E-02 
2365	-2.50889147153905E-02 
2366	-0.018996001258574 
2367	-6.62311382413012E-03 
2368	 5.73754701820146E-03 
2369	 6.28177913273779E-04 
2370	-8.88991334442786E-03 
2371	-1.76723358872066E-02 
2372	-2.03036556733345E-02 
2373	 4.8746263777154E-03 
2374	 2.17374860743219E-02 
2375	 5.72195353461732E-03 
2376	 2.54677432510401E-03 
2377	 6.03661690646038E-03 
2378	-2.23808777468725E-03 
2379	-3.20781342040018E-03 
2380	 5.61775725263029E-03 
2381	 8.88629969654983E-03 
2382	 9.01127697272716E-03 
2383	 0.048130697791386 
2384	 5.97653705079551E-02 
2385	 1.83901890089804E-02 
2386	 8.8512643935277E-03 
2387	-0.023414108499723 
2388	-5.81495770546026E-02 
2389	-1.65073932734059E-02 
2390	-7.18943340665115E-03 
2391	-2.53714366293153E-02 
2392	-2.00881096194948E-02 
2393	-4.50636543826247E-02 
2394	-6.52112705778336E-02 
2395	-4.19616479781713E-02 
2396	-2.55156103120485E-02 
2397	-2.73503242375086E-02 
2398	-1.26676478039206E-02 
2399	 5.33811349244408E-03 
2400	 7.35167133554249E-03 
2401	 1.37931335994117E-02 
2402	 1.11320827761025E-02 
2403	-5.23703016743819E-02 
2404	-8.20342437279099E-02 
2405	-7.51042395810664E-02 
2406	-0.101699897377127 
2407	-6.66717651224901E-02 
2408	-0.021990630598773 
2409	-6.58698751401854E-02 
2410	-6.31866372809587E-02 
2411	-5.73212394033723E-02 
2412	-8.72961234797018E-02 
2413	 1.65759819740557E-02 
2414	 2.78039541135341E-02 
2415	-6.03045552104886E-02 
2416	-9.60062574067113E-02 
2417	-0.207277161004386 
2418	-0.239879053578303 
2419	-0.20138499025667 
2420	-0.203238136546227 
2421	-0.111794089671498 
2422	-9.40886049866283E-02 
2423	-0.133953197743586 
2424	-7.23567266217015E-02 
2425	-7.32355355953891E-02 
2426	-0.110702752813049 
2427	-8.48176201534463E-02 
2428	-0.144903712332115 
2429	-0.169244200071868 
2430	-0.121608799609736 
2431	-0.1138046706692 
2432	-0.039434095496879 
2433	-2.74699797408759E-02 
2434	-0.127315249646427 
2435	-4.21105447602315E-02 
2436	 5.36501498192457E-02 
2437	 0.052213145104459 
2438	 7.67477833599349E-02 
2439	 0.118276022975544 
2440	 3.86146203593881E-02 
2441	-0.144832422343736 
2442	-0.170796681196415 
2443	-0.18700535707117 
2444	-9.79439221237278E-02 
2445	 0.192627593208684 
2446	 6.27239574805295E-02 
2447	-0.394004741569421 
2448	-0.674744657404532 
2449	-0.789842953810391 
2450	-0.524105371359057 
2451	 0.175040227701971 
2452	-0.754117707784267 
2453	-1.52426469003427 
2454	-1.01010751542284 
2455	-1.84369269215659 
2456	-0.672490717659429 
2457	 1.45869397604716E-02 
2458	 1.50311729694718E-02 
2459	-0.204414137960535 
2460	-0.22427727520272 
2461	-0.260332852641152 
2462	-0.234824024582322 
2463	-4.22648280847728E-02 
2464	 7.36984893999915E-02 
2465	 0.353159692869537 
2466	 2.48277264987079E-02 
2467	-0.327401196634245 
2468	-0.341230437714895 
2469	-0.742200192734521 
2470	-0.600497822622676 
2471	-0.282638460354415 
2472	-0.77517097662345 
2473	-1.2812876863324 
2474	-2.46185535323485 
2475	-3.72194094119137 
2476	 16.1924485175378 
2477	 3.39871496123388 
2478	-8.10352608375339 
2479	-6.15000146018699 
2480	 1.77968694658479 
2481	 0.512312239314222 
2482	 0.188502539720931 
2483	 0.119856579622907 
2484	 0.461969341373935 
2485	 1.54228846736221 
2486	 2.15837811463253 
2487	 1.77269529794096 
2488	-27.6880518186894 
2489	-4.0829080889508 
2490	-3.9206281118152 
2491	-0.480635976523895 
2492	-0.171299577864907 
2493	-1.52738477854212 
2494	-0.754168363623036 
2495	-0.478387566452258 
2496	 0.327218711250724 
2497	-31.6883657526896 
2498	-2.08069780440636 
2499	-5.58725177746223 
2500	 1.48236740021033 
