Wavelength	rt0716a00004.asd
350	 0.103618804462923 
351	 0.103614346147235 
352	 0.103324490914352 
353	 0.103018727902955 
354	 0.102828427858411 
355	 0.102693420469387 
356	 0.103066111258984 
357	 0.10362838961593 
358	 0.103907810267618 
359	 0.103872630993081 
360	 0.103867951828582 
361	 0.104098176112983 
362	 0.104559482882078 
363	 0.104382384838634 
364	 0.104116125740536 
365	 0.10406285924394 
366	 0.103873496558569 
367	 0.104164715627681 
368	 0.104475493551277 
369	 0.104340419754437 
370	 0.104269594657821 
371	 0.104352005470441 
372	 0.104571379935137 
373	 0.104802178846398 
374	 0.104650942202557 
375	 0.104658775380127 
376	 0.104898911214019 
377	 0.104705472375687 
378	 0.104845139801116 
379	 0.104998842954178 
380	 0.104843980685571 
381	 0.104785006689277 
382	 0.105316258345066 
383	 0.105751973701961 
384	 0.105171112867903 
385	 0.105219241190369 
386	 0.105283477539102 
387	 0.10518179157171 
388	 0.105384437778765 
389	 0.105499276277999 
390	 0.105325627848577 
391	 0.105055124693699 
392	 0.105761783044384 
393	 0.105981318200773 
394	 0.105613311157208 
395	 0.105165359613955 
396	 0.105165488909747 
397	 0.105402702775777 
398	 0.105613508064272 
399	 0.105563254356437 
400	 0.105254248130552 
401	 0.105031922091403 
402	 0.10507739705729 
403	 0.105159435374878 
404	 0.105065436488143 
405	 0.104903333899922 
406	 0.10486222834928 
407	 0.104800959213066 
408	 0.104677328607801 
409	 0.104545237927196 
410	 0.104530341442207 
411	 0.1043785937118 
412	 0.104299962437073 
413	 0.10439274338479 
414	 0.104297251113772 
415	 0.104195167739687 
416	 0.104197864681226 
417	 0.104334783267625 
418	 0.104306530732085 
419	 0.104412868295731 
420	 0.104643324220224 
421	 0.104633485373215 
422	 0.104781262622189 
423	 0.10504905984411 
424	 0.10532490716858 
425	 0.105555896516602 
426	 0.105783344094374 
427	 0.106073993322732 
428	 0.10647204048221 
429	 0.106798384459807 
430	 0.107095455612425 
431	 0.107426012904597 
432	 0.107849425838544 
433	 0.108215320501854 
434	 0.108510787641671 
435	 0.108768229673027 
436	 0.109040356201776 
437	 0.109336194320891 
438	 0.109649980137241 
439	 0.109947896108625 
440	 0.110044104044739 
441	 0.110206736181844 
442	 0.110496152967872 
443	 0.110603727059178 
444	 0.110643423879482 
445	 0.110718130967045 
446	 0.110863632417316 
447	 0.110864393550561 
448	 0.110830391973015 
449	 0.110835968414961 
450	 0.110910653691813 
451	 0.110948859670702 
452	 0.110893277476845 
453	 0.110753133739009 
454	 0.110643711718171 
455	 0.110583543340804 
456	 0.110527310719365 
457	 0.110411747899394 
458	 0.110243427797035 
459	 0.110053764910584 
460	 0.109900146124621 
461	 0.109854664842927 
462	 0.109767185090953 
463	 0.109613594714151 
464	 0.109422272043117 
465	 0.109283462781596 
466	 0.10913928304717 
467	 0.109028468947557 
468	 0.109002596839125 
469	 0.108866138805689 
470	 0.108712083503858 
471	 0.108573414594467 
472	 0.108366958216129 
473	 0.10828164211856 
474	 0.108243362932449 
475	 0.10816796959616 
476	 0.108217875542738 
477	 0.108158725114847 
478	 0.10803827175968 
479	 0.108078242651645 
480	 0.108110103236737 
481	 0.108133937681119 
482	 0.108177533523396 
483	 0.108281289122345 
484	 0.108375184650866 
485	 0.108503655168732 
486	 0.10870625469478 
487	 0.108771983946376 
488	 0.108814640207851 
489	 0.108929172048532 
490	 0.109163702590019 
491	 0.109338263371738 
492	 0.109583741744623 
493	 0.109959815060136 
494	 0.110172022093727 
495	 0.110353649860538 
496	 0.110592222052513 
497	 0.110927473544995 
498	 0.111169425703031 
499	 0.111449296199322 
500	 0.111790976274539 
501	 0.112002292401961 
502	 0.112306679034933 
503	 0.112575711233307 
504	 0.112706363326769 
505	 0.11311296021117 
506	 0.113452671420094 
507	 0.113720179050228 
508	 0.114168908365271 
509	 0.11454407582327 
510	 0.11483702998357 
511	 0.115114015218998 
512	 0.115514752295111 
513	 0.115989528246542 
514	 0.116501915061608 
515	 0.117015244989006 
516	 0.117531217644145 
517	 0.118050642096576 
518	 0.118560955027314 
519	 0.11903466501552 
520	 0.11963199737382 
521	 0.120321427679646 
522	 0.121023879581775 
523	 0.121646466537793 
524	 0.122330950559304 
525	 0.123135591701144 
526	 0.124041514149336 
527	 0.124869686112263 
528	 0.125733412048176 
529	 0.126687991960139 
530	 0.127599832124033 
531	 0.128459092155019 
532	 0.129425164611958 
533	 0.130630543313341 
534	 0.131647273738873 
535	 0.132717304649453 
536	 0.133901716974143 
537	 0.135004987423684 
538	 0.136228501780107 
539	 0.137426243156405 
540	 0.138494684659943 
541	 0.139747308023581 
542	 0.140926820528017 
543	 0.142026218902516 
544	 0.143194421399002 
545	 0.144391568299718 
546	 0.145545160030448 
547	 0.146647455330664 
548	 0.147836219407324 
549	 0.148911228392119 
550	 0.149945235378539 
551	 0.151063371761561 
552	 0.152082247834482 
553	 0.153089004173754 
554	 0.154105763762612 
555	 0.155063073699802 
556	 0.15610953820255 
557	 0.157158633923174 
558	 0.158120690795947 
559	 0.159127940049114 
560	 0.160137500970243 
561	 0.161119613287868 
562	 0.162060558568268 
563	 0.1629668474723 
564	 0.16387527883312 
565	 0.164787747325282 
566	 0.165636589493568 
567	 0.166435241924922 
568	 0.167243282026443 
569	 0.168104014351944 
570	 0.168879520180204 
571	 0.1695976424966 
572	 0.170297192693306 
573	 0.17101370437287 
574	 0.171694317826715 
575	 0.172371296959227 
576	 0.173061591652085 
577	 0.173681547683353 
578	 0.17432795032508 
579	 0.17497749425713 
580	 0.175549292066075 
581	 0.176180214400098 
582	 0.176737956371793 
583	 0.177190555661792 
584	 0.177751084753994 
585	 0.178193597323187 
586	 0.1785284474371 
587	 0.178857808984274 
588	 0.179249251195983 
589	 0.179692217155427 
590	 0.180119188060685 
591	 0.180458528693465 
592	 0.180859169893704 
593	 0.181267019524715 
594	 0.181615615842134 
595	 0.181965519830127 
596	 0.182302668838068 
597	 0.182627706459931 
598	 0.182946037743923 
599	 0.183256547034979 
600	 0.183562607523633 
601	 0.183870779641493 
602	 0.184202214286827 
603	 0.18439410822687 
604	 0.184555642184174 
605	 0.184835208912672 
606	 0.185090804837998 
607	 0.185332229132499 
608	 0.185559892323247 
609	 0.185759305652077 
610	 0.185980626444537 
611	 0.186205629178989 
612	 0.186411896307054 
613	 0.186611015389548 
614	 0.186791033196443 
615	 0.186932874664122 
616	 0.187037882853238 
617	 0.18733250896068 
618	 0.187577069410963 
619	 0.187670532701212 
620	 0.187804320970698 
621	 0.18792874638685 
622	 0.188082550504259 
623	 0.188305796437686 
624	 0.188554974102735 
625	 0.188636467782428 
626	 0.188629380063609 
627	 0.1888560874833 
628	 0.18904403169926 
629	 0.189262921256581 
630	 0.189543247261509 
631	 0.189632331982342 
632	 0.189707433995446 
633	 0.189860935053057 
634	 0.190117010700358 
635	 0.190303336271993 
636	 0.190470558997449 
637	 0.190681488669985 
638	 0.190992382036543 
639	 0.191074190307818 
640	 0.191097510312969 
641	 0.191292158555047 
642	 0.191479075059849 
643	 0.191582710964644 
644	 0.191659064491918 
645	 0.191851918540777 
646	 0.191891315577916 
647	 0.191906906037687 
648	 0.192022500377381 
649	 0.192178698662181 
650	 0.192294233804528 
651	 0.192394119978607 
652	 0.192530901569401 
653	 0.192654613675747 
654	 0.192747049056451 
655	 0.192796797503985 
656	 0.192802152794069 
657	 0.192953852898454 
658	 0.193133303399641 
659	 0.193228115760936 
660	 0.193315955493646 
661	 0.193384236309483 
662	 0.193387721661147 
663	 0.193291890254871 
664	 0.193396785583806 
665	 0.193502596306542 
666	 0.193500481252868 
667	 0.193550773903924 
668	 0.193712079947158 
669	 0.193852085125656 
670	 0.193855424861406 
671	 0.194059498618722 
672	 0.194203943742854 
673	 0.194263841896648 
674	 0.19445117776639 
675	 0.19473266193123 
676	 0.194940029220422 
677	 0.195013552154443 
678	 0.195225246741996 
679	 0.195461106667737 
680	 0.195671575981393 
681	 0.19585934647673 
682	 0.196201824461899 
683	 0.196570227300279 
684	 0.196853514866398 
685	 0.19701761208043 
686	 0.197146799682961 
687	 0.197430110309515 
688	 0.197917741763387 
689	 0.198266114840726 
690	 0.198464879502113 
691	 0.198639536809355 
692	 0.198972597684591 
693	 0.199170736834454 
694	 0.19939795939494 
695	 0.199740096803993 
696	 0.200102860607527 
697	 0.200281134300077 
698	 0.200330783772808 
699	 0.200387765286374 
700	 0.200542745152324 
701	 0.200831290354079 
702	 0.201112534013299 
703	 0.20115728218494 
704	 0.201165334626801 
705	 0.201264343169993 
706	 0.201490337821032 
707	 0.201745972635893 
708	 0.201844145302406 
709	 0.20184559481828 
710	 0.201892961841263 
711	 0.201969882525675 
712	 0.201957577129575 
713	 0.201828658927821 
714	 0.201653703054833 
715	 0.201429714095278 
716	 0.201231287627059 
717	 0.201125732697889 
718	 0.2008684137118 
719	 0.20088645951864 
720	 0.200957535547307 
721	 0.200766615056932 
722	 0.2006615419653 
723	 0.200468961164934 
724	 0.200180979706076 
725	 0.200026971586505 
726	 0.199864195028475 
727	 0.199614808142383 
728	 0.199272668684015 
729	 0.199006465406297 
730	 0.19851911983649 
731	 0.198009028891917 
732	 0.197758331703728 
733	 0.197397209210244 
734	 0.19705817170909 
735	 0.196818651341151 
736	 0.196639597954353 
737	 0.196486035043016 
738	 0.196359806538483 
739	 0.196296880248006 
740	 0.196405043825183 
741	 0.196489447933115 
742	 0.196544721395042 
743	 0.19666584763373 
744	 0.196855141016081 
745	 0.196992243092667 
746	 0.197042397931693 
747	 0.197102170392574 
748	 0.197138438056631 
749	 0.197225065598186 
750	 0.197395320099019 
751	 0.197469911910196 
752	 0.197616248536379 
753	 0.197774377125425 
754	 0.197792638957097 
755	 0.197874616088549 
756	 0.197934464736414 
757	 0.197899290358977 
758	 0.197695217978819 
759	 0.197479057251627 
760	 0.19739621501165 
761	 0.197506646583998 
762	 0.197625503432255 
763	 0.197866929287322 
764	 0.198242996664424 
765	 0.198687385423116 
766	 0.198971279299879 
767	 0.199101288491808 
768	 0.199198714106853 
769	 0.199476814238324 
770	 0.199572812912965 
771	 0.199658260558795 
772	 0.199864299070138 
773	 0.199914267153572 
774	 0.199925332987487 
775	 0.200061623707419 
776	 0.200418350532568 
777	 0.200553424864941 
778	 0.200688690747108 
779	 0.200862998991831 
780	 0.200902822785659 
781	 0.201081878851263 
782	 0.201322158984052 
783	 0.201491792543115 
784	 0.20146361641807 
785	 0.201700304070531 
786	 0.201968975023126 
787	 0.201928541728842 
788	 0.202157096682938 
789	 0.202303968418369 
790	 0.202348717782414 
791	 0.202549736507203 
792	 0.202734894222058 
793	 0.20282682320289 
794	 0.202852889239129 
795	 0.202981808885997 
796	 0.203111250846973 
797	 0.203238672786813 
798	 0.203372042240684 
799	 0.203439919608954 
800	 0.203532661926296 
801	 0.203641660942777 
802	 0.203713576911734 
803	 0.203817350056065 
804	 0.203944270963324 
805	 0.203999955338295 
806	 0.203825302610349 
807	 0.203758685152565 
808	 0.203771166163187 
809	 0.203756146292586 
810	 0.203606134320598 
811	 0.203447725138226 
812	 0.203363023426433 
813	 0.203364494397745 
814	 0.203149785920626 
815	 0.202868114306253 
816	 0.202672083504293 
817	 0.202630059753653 
818	 0.20259305466626 
819	 0.20232436090227 
820	 0.201852289225297 
821	 0.201523421519713 
822	 0.201140239706744 
823	 0.200766065693185 
824	 0.200373619855476 
825	 0.199502498844946 
826	 0.198888551509719 
827	 0.198406176037189 
828	 0.197684383132636 
829	 0.19688921595869 
830	 0.196116604646334 
831	 0.195470598186259 
832	 0.195027621833937 
833	 0.194386431194834 
834	 0.193920086150846 
835	 0.19368785337545 
836	 0.193255824769972 
837	 0.193121999234302 
838	 0.192900627751111 
839	 0.192394974057207 
840	 0.192390575716311 
841	 0.192196903696244 
842	 0.191837057525446 
843	 0.191559446393347 
844	 0.191303483872392 
845	 0.191254298014745 
846	 0.191275815650697 
847	 0.19105229564935 
848	 0.190820327924419 
849	 0.190533109306064 
850	 0.190264767164744 
851	 0.190242778494183 
852	 0.189907355352916 
853	 0.189763763339446 
854	 0.189962907033342 
855	 0.18945619921091 
856	 0.188970568527725 
857	 0.188806994960765 
858	 0.188916884679396 
859	 0.188491627423475 
860	 0.188330955569579 
861	 0.188354075833316 
862	 0.188098933538566 
863	 0.187832383575774 
864	 0.187621784768695 
865	 0.187488361052297 
866	 0.18739906240218 
867	 0.187203785106602 
868	 0.186966975980549 
869	 0.186770559553793 
870	 0.186666279679125 
871	 0.186319062165534 
872	 0.186014224068742 
873	 0.18593432273681 
874	 0.185730061354615 
875	 0.185431387911505 
876	 0.185185862448781 
877	 0.185028831279085 
878	 0.184420382544019 
879	 0.18405635034147 
880	 0.183929584097946 
881	 0.183690994535256 
882	 0.183275033554122 
883	 0.182865803736283 
884	 0.182510431148317 
885	 0.182169069529191 
886	 0.182145202736158 
887	 0.181870463521776 
888	 0.18137957722914 
889	 0.181418302939543 
890	 0.181172689991678 
891	 0.180783697987893 
892	 0.180433145251648 
893	 0.180054778204317 
894	 0.179556924196596 
895	 0.17919678511237 
896	 0.179146102545649 
897	 0.178930934797469 
898	 0.178845066559298 
899	 0.178754821131236 
900	 0.178430309155343 
901	 0.177846591634207 
902	 0.177197197076379 
903	 0.176715561367677 
904	 0.176556919951772 
905	 0.176558844549326 
906	 0.176116700228452 
907	 0.175362964790496 
908	 0.174952577265562 
909	 0.174557143721086 
910	 0.174305835172066 
911	 0.17409309455612 
912	 0.173647912780037 
913	 0.173511379708175 
914	 0.172737266412186 
915	 0.171502547702521 
916	 0.171219752767634 
917	 0.170523754549426 
918	 0.169301142087404 
919	 0.168042439787189 
920	 0.167660875199389 
921	 0.166721928008744 
922	 0.16574153856842 
923	 0.164983782045638 
924	 0.16338259390438 
925	 0.162095113678444 
926	 0.16153291910737 
927	 0.161259840058247 
928	 0.158478130308986 
929	 0.155916720804486 
930	 0.154320377807934 
931	 0.153255962337409 
932	 0.152545965288552 
933	 0.152029578729442 
934	 0.149536333424017 
935	 0.144024834810915 
936	 0.139439468035809 
937	 0.139968468743945 
938	 0.138866861351049 
939	 0.131908508024198 
940	 0.135437800265621 
941	 0.134584463092772 
942	 0.131402688191177 
943	 0.133837779061403 
944	 0.128678019481635 
945	 0.125810439437324 
946	 0.124930167439059 
947	 0.119853971564901 
948	 0.114531958642949 
949	 0.116207974393029 
950	 0.11861563972133 
951	 0.111211788702936 
952	 0.108588119047743 
953	 0.10852312973846 
954	 0.10804137639298 
955	 0.105085463430444 
956	 9.96996184788135E-02 
957	 9.83095752235437E-02 
958	 9.98183441141684E-02 
959	 9.87419990152346E-02 
960	 9.81756073232515E-02 
961	 9.89126404814821E-02 
962	 9.89704923725112E-02 
963	 9.59492558362904E-02 
964	 9.54781644297288E-02 
965	 9.50294664148344E-02 
966	 9.42903543972442E-02 
967	 9.46019336907868E-02 
968	 9.34674373310723E-02 
969	 9.38046144807008E-02 
970	 0.094741964934169 
971	 9.27648900139432E-02 
972	 9.35716681279386E-02 
973	 9.37819820017846E-02 
974	 9.27804070990297E-02 
975	 9.33208061509229E-02 
976	 9.42059863072528E-02 
977	 9.34698115208579E-02 
978	 0.092446755955939 
979	 9.42943542584793E-02 
980	 9.38081999946583E-02 
981	 9.42819074472925E-02 
982	 9.55382765748808E-02 
983	 0.094630138479604 
984	 9.43508432966799E-02 
985	 9.48296602632909E-02 
986	 9.55534293109989E-02 
987	 9.58549462186629E-02 
988	 9.62967342886257E-02 
989	 9.65121322777549E-02 
990	 9.65570663716201E-02 
991	 0.096803817182887 
992	 9.69949057745762E-02 
993	 9.80228588163367E-02 
994	 9.89884555128876E-02 
995	 9.83920398659836E-02 
996	 9.90350689576916E-02 
997	 9.99631209858753E-02 
998	 0.100371389481961 
999	 0.100042088550601 
1000	 0.100041559075821 
1001	 0.102684901773945 
1002	 0.102393301835088 
1003	 0.102774397305361 
1004	 0.10427689613777 
1005	 0.105398456239685 
1006	 0.106488645404213 
1007	 0.108010307924582 
1008	 0.109141610971918 
1009	 0.10978631034341 
1010	 0.110419218441946 
1011	 0.110559611838925 
1012	 0.110786828318691 
1013	 0.111173296581951 
1014	 0.111969284330191 
1015	 0.11329025960938 
1016	 0.114385559235472 
1017	 0.115800824604563 
1018	 0.116778122821793 
1019	 0.117275869613079 
1020	 0.11810582959141 
1021	 0.118729689807059 
1022	 0.120027431697485 
1023	 0.121136516405779 
1024	 0.122227716294129 
1025	 0.123593975344296 
1026	 0.124513267903136 
1027	 0.125368058677735 
1028	 0.126022004686344 
1029	 0.127065516690626 
1030	 0.128071249193449 
1031	 0.12913853230295 
1032	 0.130740254600891 
1033	 0.131831840022769 
1034	 0.132434309880158 
1035	 0.13331375085571 
1036	 0.134172599533841 
1037	 0.135092332182776 
1038	 0.136223977960127 
1039	 0.137074283714693 
1040	 0.138059861949872 
1041	 0.139474730719675 
1042	 0.140660308181789 
1043	 0.142106309401641 
1044	 0.143069617549528 
1045	 0.143689906292192 
1046	 0.144501007552678 
1047	 0.145104991491634 
1048	 0.14590499261764 
1049	 0.147046238502928 
1050	 0.147802023885799 
1051	 0.148346373114977 
1052	 0.148971602104624 
1053	 0.149257963034864 
1054	 0.14991615124806 
1055	 0.150865801584434 
1056	 0.151764568027219 
1057	 0.152737885476246 
1058	 0.154019299678202 
1059	 0.154810421123586 
1060	 0.15521105512815 
1061	 0.156168822032044 
1062	 0.157254290375989 
1063	 0.158156952933418 
1064	 0.159697782723705 
1065	 0.160323051087158 
1066	 0.160095456147612 
1067	 0.16024000566073 
1068	 0.159936644244782 
1069	 0.160088968750834 
1070	 0.160941934561111 
1071	 0.161205070055063 
1072	 0.161596347133607 
1073	 0.161475763832907 
1074	 0.161108144332496 
1075	 0.160260506356152 
1076	 0.159291710851518 
1077	 0.1580525574772 
1078	 0.156831239286282 
1079	 0.155075758410053 
1080	 0.153938500641161 
1081	 0.15301388348536 
1082	 0.152156293559216 
1083	 0.151422558749502 
1084	 0.150990983918404 
1085	 0.151090794659506 
1086	 0.150677302465615 
1087	 0.15035044453591 
1088	 0.149860770672667 
1089	 0.148697702166931 
1090	 0.147867843132679 
1091	 0.147233896080024 
1092	 0.146760927102408 
1093	 0.146374033141777 
1094	 0.146510303128781 
1095	 0.145754196084769 
1096	 0.144477180774509 
1097	 0.143679286507896 
1098	 0.142509194600162 
1099	 0.141487511284657 
1100	 0.140986156040135 
1101	 0.14021461434904 
1102	 0.139076256804903 
1103	 0.138081078991833 
1104	 0.136925432463982 
1105	 0.13626178313816 
1106	 0.136344579201422 
1107	 0.135518420359869 
1108	 0.135291892042915 
1109	 0.135599729906937 
1110	 0.13519569450514 
1111	 0.134143473087047 
1112	 0.133208574663299 
1113	 0.131467000066919 
1114	 0.130633707116989 
1115	 0.130416726108595 
1116	 0.129756299805256 
1117	 0.130403770859541 
1118	 0.130211874437138 
1119	 0.127811166030636 
1120	 0.126122753072281 
1121	 0.125068376960435 
1122	 0.124179866372243 
1123	 0.123181221801919 
1124	 0.122705487504562 
1125	 0.119676578080248 
1126	 0.115132932656238 
1127	 0.111177479649301 
1128	 0.110318207894395 
1129	 0.106877700193263 
1130	 0.10400684283143 
1131	 0.100165695007774 
1132	 9.48793418713051E-02 
1133	 9.20837278008588E-02 
1134	 9.12054793111602E-02 
1135	 8.98925997427423E-02 
1136	 8.89576487448946E-02 
1137	 8.63108926990156E-02 
1138	 8.25242237346576E-02 
1139	 8.02521036331816E-02 
1140	 0.075967258792794 
1141	 7.26713455220614E-02 
1142	 0.072408556083988 
1143	 7.10037726099049E-02 
1144	 6.93189941898778E-02 
1145	 6.95850663005689E-02 
1146	 6.80938171483364E-02 
1147	 6.45991395601342E-02 
1148	 6.14980280377164E-02 
1149	 5.95237913112039E-02 
1150	 5.75230850630522E-02 
1151	 5.56562489813206E-02 
1152	 5.44690142327715E-02 
1153	 0.05337567829962 
1154	 5.31102146392689E-02 
1155	 5.33511274665905E-02 
1156	 5.35368306249097E-02 
1157	 5.39183941412113E-02 
1158	 5.38624403478458E-02 
1159	 5.28476346619516E-02 
1160	 5.22287440419111E-02 
1161	 5.21666041288623E-02 
1162	 5.21641965695545E-02 
1163	 5.24271064540339E-02 
1164	 5.23067874681857E-02 
1165	 5.19611298918997E-02 
1166	 0.051828943866509 
1167	 5.18790632292426E-02 
1168	 5.17464148798427E-02 
1169	 5.16683540253201E-02 
1170	 5.15634077457168E-02 
1171	 5.13004064125215E-02 
1172	 5.07882734993693E-02 
1173	 5.07803018993993E-02 
1174	 5.09444270623351E-02 
1175	 5.08285029317952E-02 
1176	 5.13036299463815E-02 
1177	 5.13815284546951E-02 
1178	 5.09339827695366E-02 
1179	 5.05355722712136E-02 
1180	 5.00885993761449E-02 
1181	 5.02869617055948E-02 
1182	 5.03850319852075E-02 
1183	 5.02986727472301E-02 
1184	 5.03133504567276E-02 
1185	 5.00737602932009E-02 
1186	 5.02674437707525E-02 
1187	 5.06072673349819E-02 
1188	 5.06899397504394E-02 
1189	 5.03511903592161E-02 
1190	 4.97506097627823E-02 
1191	 4.96373495285922E-02 
1192	 4.95467693526706E-02 
1193	 4.95974579905148E-02 
1194	 4.97061186758334E-02 
1195	 4.98274090219007E-02 
1196	 4.99986732757885E-02 
1197	 5.02763060597282E-02 
1198	 5.03971186564855E-02 
1199	 5.06789101614617E-02 
1200	 5.09223032605337E-02 
1201	 5.11588256446469E-02 
1202	 5.18245421689251E-02 
1203	 5.26753394479881E-02 
1204	 5.27264440213565E-02 
1205	 5.22730360945657E-02 
1206	 0.051920788781792 
1207	 5.14633989030843E-02 
1208	 5.12064898388368E-02 
1209	 0.05119545916895 
1210	 5.10914419200343E-02 
1211	 5.08279606008014E-02 
1212	 5.11221499996503E-02 
1213	 0.051466985789598 
1214	 5.15405022530339E-02 
1215	 5.15107776723004E-02 
1216	 0.05177066864758 
1217	 5.17189888326882E-02 
1218	 0.051633154245955 
1219	 5.17671302896043E-02 
1220	 5.17053396825655E-02 
1221	 0.051817527326628 
1222	 5.20421259375351E-02 
1223	 5.20496297002407E-02 
1224	 5.21681797843868E-02 
1225	 5.22663953857646E-02 
1226	 5.21415467678916E-02 
1227	 5.21460580910639E-02 
1228	 5.22224579006114E-02 
1229	 5.20401743368829E-02 
1230	 5.17345536649838E-02 
1231	 5.17331523993345E-02 
1232	 5.19314288376711E-02 
1233	 5.20416889115166E-02 
1234	 5.19245616116766E-02 
1235	 5.18899723155896E-02 
1236	 5.18808519887764E-02 
1237	 5.18790619618294E-02 
1238	 5.18270433139433E-02 
1239	 5.17737784245005E-02 
1240	 0.052155548852992 
1241	 5.22008727141384E-02 
1242	 5.21197238130202E-02 
1243	 5.25395902747567E-02 
1244	 5.27283610374554E-02 
1245	 5.27110271356269E-02 
1246	 5.28579693292517E-02 
1247	 0.05302078880816 
1248	 5.29224420742897E-02 
1249	 5.26660485067013E-02 
1250	 5.26337762675955E-02 
1251	 0.052668798520835 
1252	 5.27771541742868E-02 
1253	 0.052893758709482 
1254	 0.052911164620051 
1255	 0.053048968257433 
1256	 5.31591881032219E-02 
1257	 5.33011089967276E-02 
1258	 5.34171074210526E-02 
1259	 0.053451174695426 
1260	 0.053652407128453 
1261	 5.39526321226952E-02 
1262	 0.054316826094455 
1263	 5.49765200681872E-02 
1264	 5.51583358433312E-02 
1265	 5.52977868662547E-02 
1266	 5.56952064490544E-02 
1267	 5.64475020793362E-02 
1268	 5.66035377684868E-02 
1269	 5.57768770627338E-02 
1270	 5.57921978328252E-02 
1271	 5.64135752310925E-02 
1272	 0.056125663542183 
1273	 5.63185602764462E-02 
1274	 5.60482806056931E-02 
1275	 0.054056202289646 
1276	 5.30348457875976E-02 
1277	 5.27622161404933E-02 
1278	 5.25688865027736E-02 
1279	 0.052367179655035 
1280	 5.19329941281383E-02 
1281	 5.18000584047641E-02 
1282	 5.19673931362427E-02 
1283	 0.05171624160871 
1284	 5.12118717668857E-02 
1285	 5.11038069872685E-02 
1286	 5.11157636612224E-02 
1287	 5.08415373908543E-02 
1288	 5.08404140718877E-02 
1289	 5.06082428847615E-02 
1290	 5.01082923519693E-02 
1291	 4.90155143479859E-02 
1292	 4.85719769083074E-02 
1293	 4.84885965254001E-02 
1294	 4.82224995045042E-02 
1295	 4.80532125200114E-02 
1296	 4.79130795561909E-02 
1297	 4.74863973722318E-02 
1298	 4.67614346768468E-02 
1299	 4.61954837884726E-02 
1300	 4.57737760874482E-02 
1301	 4.54772821906335E-02 
1302	 4.54071061143684E-02 
1303	 0.045072467868188 
1304	 4.44550623829591E-02 
1305	 4.39590301406217E-02 
1306	 4.34087165487109E-02 
1307	 4.27313665579713E-02 
1308	 4.24301370318064E-02 
1309	 0.042524666373903 
1310	 0.042179613650353 
1311	 4.18934485379147E-02 
1312	 4.17019022826711E-02 
1313	 0.041192247105882 
1314	 4.06035687519028E-02 
1315	 4.02969656863296E-02 
1316	 3.98297562945883E-02 
1317	 3.89201232664318E-02 
1318	 3.82522771999338E-02 
1319	 3.76167714435958E-02 
1320	 0.037127303448428 
1321	 3.67564010024486E-02 
1322	 3.65703340534978E-02 
1323	 3.60777706891449E-02 
1324	 3.57655630287153E-02 
1325	 3.50783298102757E-02 
1326	 3.48178423273402E-02 
1327	 0.035096056294002 
1328	 3.49676529651334E-02 
1329	 3.54979959427015E-02 
1330	 3.52650591423015E-02 
1331	 3.37380761374167E-02 
1332	 3.29906934639297E-02 
1333	 3.22750617629418E-02 
1334	 3.11041329190349E-02 
1335	 3.05521840594522E-02 
1336	 3.07484509889493E-02 
1337	 3.06042200998267E-02 
1338	 3.04116989236566E-02 
1339	 3.04658113845028E-02 
1340	 3.14944702511671E-02 
1341	 3.11769614663015E-02 
1342	 2.89027432950332E-02 
1343	 2.88339780688836E-02 
1344	 2.96886204287357E-02 
1345	 2.99498617224245E-02 
1346	 3.38654164618601E-02 
1347	 3.53682007418676E-02 
1348	 2.95128531993503E-02 
1349	 2.79998005600809E-02 
1350	 3.39600656070137E-02 
1351	 0.034398170151618 
1352	 2.74378000047274E-02 
1353	 3.17888092504895E-02 
1354	 3.66049688087546E-02 
1355	 4.92009168916782E-02 
1356	 0.128204975851197 
1357	 0.185107370916515 
1358	 6.87844749034559E-02 
1359	 4.90580403622043E-02 
1360	 8.33048720139342E-02 
1361	-2.49052839994344E-02 
1362	-0.121274185400652 
1363	-0.125244788306891 
1364	 0.020529039941585 
1365	 7.37736393690262E-02 
1366	-0.102694231703179 
1367	-0.068179736312867 
1368	 8.94816178180518E-02 
1369	 0.242272699575012 
1370	 0.103503744721564 
1371	-0.1399648298462 
1372	-9.93175619345035E-02 
1373	-0.25752834045755 
1374	-0.420170211141206 
1375	-8.08422829659667E-02 
1376	 0.113462074059763 
1377	-6.06161157668757E-02 
1378	-7.89927550760424E-02 
1379	 0.462563543832072 
1380	 0.597625920678396 
1381	 0.46196493390655 
1382	 0.317282370804027 
1383	 0.179812261162751 
1384	 0.237444427483993 
1385	 0.397670996622946 
1386	 0.396876161870842 
1387	 0.422578160132604 
1388	 0.453589460280281 
1389	 0.278029350910657 
1390	 0.281314563052536 
1391	 0.499655739242255 
1392	 0.733465434012327 
1393	 0.622064715037186 
1394	 0.431854748555492 
1395	 0.334409117143955 
1396	 0.207954502965557 
1397	 8.43917155101676E-02 
1398	 0.250697145106087 
1399	 0.597807596940261 
1400	 0.318938370037982 
1401	 7.95895032326276E-02 
1402	 0.277495254795159 
1403	 0.267058703622925 
1404	 0.263429988970977 
1405	 0.171628374279027 
1406	 0.115901563140675 
1407	 7.71405304613736E-02 
1408	-8.49015698088858E-02 
1409	-2.85989489224857E-02 
1410	 0.238291434330477 
1411	 0.210904746993899 
1412	 7.98255982881353E-02 
1413	 6.27593663042328E-02 
1414	 8.90615347936567E-03 
1415	 1.86781989168305E-02 
1416	 0.140959713469659 
1417	 0.094499423239963 
1418	-5.92076586462591E-02 
1419	-0.032435120790954 
1420	 2.23658963524856E-02 
1421	 1.02025900633352E-02 
1422	 3.05145226505871E-02 
1423	 4.60861085692595E-02 
1424	 2.81537211451816E-02 
1425	 0.019204908000457 
1426	 3.89681931216118E-02 
1427	 3.58980244374151E-02 
1428	-3.67096576043648E-03 
1429	-6.05368080060678E-03 
1430	 2.52435743297914E-02 
1431	 2.32133980622215E-02 
1432	-1.06352567067138E-03 
1433	 2.81938860355194E-03 
1434	 1.91683648072283E-02 
1435	 1.68023118748025E-02 
1436	 2.20278858377389E-02 
1437	 2.19285105981277E-02 
1438	 2.76313763668839E-02 
1439	 1.85405457829828E-02 
1440	 2.2611950554514E-03 
1441	 2.05707213993169E-02 
1442	 3.32385626162712E-02 
1443	 1.87490685449548E-02 
1444	 1.42953641981908E-02 
1445	 2.13442316174028E-02 
1446	 1.80511048525536E-02 
1447	 1.11209487846279E-02 
1448	 1.55473341355759E-02 
1449	 1.77145183672731E-02 
1450	 1.25934852793183E-02 
1451	 1.05140605906882E-02 
1452	 9.67386940726482E-03 
1453	 8.1369321765834E-03 
1454	 7.07438735122007E-03 
1455	 7.52830681549067E-03 
1456	 6.48990417452356E-03 
1457	 3.2570915151267E-03 
1458	 4.0765706037849E-03 
1459	 7.63752973777984E-03 
1460	 7.7638406666598E-03 
1461	 7.35012881736933E-03 
1462	 7.64048905008764E-03 
1463	 6.50984438831579E-03 
1464	 5.77663322593684E-03 
1465	 7.25043122732531E-03 
1466	 7.31659873599043E-03 
1467	 3.89536740233241E-03 
1468	 4.56346978300909E-03 
1469	 9.10986608139428E-03 
1470	 9.49054120040769E-03 
1471	 9.04586658784094E-03 
1472	 9.17430230365245E-03 
1473	 7.80310799617823E-03 
1474	 6.81764363925232E-03 
1475	 6.95034044861572E-03 
1476	 6.60421548004858E-03 
1477	 4.54624343514916E-03 
1478	 4.19542240959774E-03 
1479	 5.60472407618246E-03 
1480	 5.79326863607189E-03 
1481	 0.005299567080686 
1482	 5.56727026834189E-03 
1483	 5.92367655535343E-03 
1484	 6.25722678240048E-03 
1485	 7.15824404764509E-03 
1486	 7.3299710164076E-03 
1487	 6.85981690841817E-03 
1488	 6.99255823803658E-03 
1489	 7.57198190265114E-03 
1490	 7.39190166343394E-03 
1491	 6.61703535630619E-03 
1492	 6.72426023913813E-03 
1493	 7.18693552576167E-03 
1494	 7.08132374584836E-03 
1495	 6.97501350340371E-03 
1496	 7.17737478437926E-03 
1497	 7.25032574908574E-03 
1498	 7.16068299967866E-03 
1499	 7.27886568551783E-03 
1500	 7.53012397600686E-03 
1501	 7.51189521972247E-03 
1502	 7.47301648602999E-03 
1503	 7.79951785595226E-03 
1504	 7.95057271476361E-03 
1505	 7.74700879587663E-03 
1506	 7.79453269801101E-03 
1507	 8.18493529117204E-03 
1508	 8.30390688097623E-03 
1509	 8.5955302612761E-03 
1510	 9.0878362270361E-03 
1511	 9.50345663364119E-03 
1512	 9.86225083139473E-03 
1513	 9.90160449647966E-03 
1514	 9.87305154143517E-03 
1515	 1.00305411152826E-02 
1516	 1.06389870071109E-02 
1517	 1.09611022417393E-02 
1518	 1.06692157326083E-02 
1519	 0.010210043051358 
1520	 9.73932490389993E-03 
1521	 0.009730289132892 
1522	 9.98214876762212E-03 
1523	 1.01108948800036E-02 
1524	 9.95354055725899E-03 
1525	 9.81736807034168E-03 
1526	 9.80165150716075E-03 
1527	 9.93747473413385E-03 
1528	 1.00726997779365E-02 
1529	 1.00022217912257E-02 
1530	 1.01675874536099E-02 
1531	 1.04926432901422E-02 
1532	 1.06984513477938E-02 
1533	 1.10099389928502E-02 
1534	 1.13283715945371E-02 
1535	 1.10581727126599E-02 
1536	 1.04629303602784E-02 
1537	 1.00667780072739E-02 
1538	 9.70162019868091E-03 
1539	 9.37405660726289E-03 
1540	 9.48543869591274E-03 
1541	 9.72554237776952E-03 
1542	 9.48200393717684E-03 
1543	 9.52092253591032E-03 
1544	 9.93763581820425E-03 
1545	 1.00993452722906E-02 
1546	 1.02489152478281E-02 
1547	 1.03419699513399E-02 
1548	 1.03819032049223E-02 
1549	 1.03226748527858E-02 
1550	 1.01585992605027E-02 
1551	 1.01201229875442E-02 
1552	 1.01159307235688E-02 
1553	 1.01646424840152E-02 
1554	 0.010210207493408 
1555	 1.02494582076179E-02 
1556	 1.02948004435179E-02 
1557	 1.02933003805025E-02 
1558	 1.02792133038159E-02 
1559	 1.02260409278886E-02 
1560	 1.03764570385674E-02 
1561	 0.010580078471633 
1562	 1.05552895628199E-02 
1563	 1.07043697467765E-02 
1564	 1.09454034819831E-02 
1565	 1.09722502302333E-02 
1566	 1.11414996955871E-02 
1567	 1.13054491434122E-02 
1568	 1.11983107390908E-02 
1569	 1.12065577916305E-02 
1570	 1.15680931258039E-02 
1571	 1.19377417756059E-02 
1572	 1.19242020392805E-02 
1573	 1.17219941690812E-02 
1574	 1.14962184066584E-02 
1575	 1.14823022652346E-02 
1576	 1.17326511212724E-02 
1577	 1.18975235326259E-02 
1578	 1.20545575740206E-02 
1579	 1.21464443596874E-02 
1580	 1.21722216827871E-02 
1581	 1.23416383424665E-02 
1582	 1.24122889053803E-02 
1583	 1.21937212807454E-02 
1584	 1.19941983447003E-02 
1585	 0.012069694374819 
1586	 1.20619948692861E-02 
1587	 1.21212927102846E-02 
1588	 1.23676125151626E-02 
1589	 1.23722942846161E-02 
1590	 1.22788219151943E-02 
1591	 1.21073362803874E-02 
1592	 1.22007407896522E-02 
1593	 1.24659299721445E-02 
1594	 1.24782367431153E-02 
1595	 1.29673356470559E-02 
1596	 1.32952413310458E-02 
1597	 1.27924783165839E-02 
1598	 1.26486668469534E-02 
1599	 1.28833218587841E-02 
1600	 1.27564851592464E-02 
1601	 1.26063841067032E-02 
1602	 0.012824895220083 
1603	 1.30352204998048E-02 
1604	 1.28846253668218E-02 
1605	 1.27781859573792E-02 
1606	 1.31188901455743E-02 
1607	 1.31303315950871E-02 
1608	 1.26750395084027E-02 
1609	 1.28959632472893E-02 
1610	 1.33732506022382E-02 
1611	 1.33047620670611E-02 
1612	 1.33126672299242E-02 
1613	 1.35258269955335E-02 
1614	 1.34650382282957E-02 
1615	 1.33144714994281E-02 
1616	 1.34542010546113E-02 
1617	 1.35409126784543E-02 
1618	 1.32599470503657E-02 
1619	 1.32070629329466E-02 
1620	 1.34691031999562E-02 
1621	 1.35991085943307E-02 
1622	 1.36846563805728E-02 
1623	 1.39371998149737E-02 
1624	 1.40217098401097E-02 
1625	 1.37510561887531E-02 
1626	 1.34910362994102E-02 
1627	 1.31345061103547E-02 
1628	 1.30563627567586E-02 
1629	 1.32812634073225E-02 
1630	 1.33959218116494E-02 
1631	 1.35392465885789E-02 
1632	 1.35443593149347E-02 
1633	 1.35973069234305E-02 
1634	 1.38253768046715E-02 
1635	 0.014150568937856 
1636	 1.42137595698309E-02 
1637	 1.39372656984852E-02 
1638	 1.42666040796791E-02 
1639	 1.47386010835346E-02 
1640	 0.014432764079833 
1641	 1.44224096885296E-02 
1642	 1.44889695135552E-02 
1643	 1.41023515065968E-02 
1644	 1.41076862804309E-02 
1645	 1.40402202739788E-02 
1646	 0.013784643749677 
1647	 1.38508493652538E-02 
1648	 1.40076478296539E-02 
1649	 1.40629998649215E-02 
1650	 1.40758715206197E-02 
1651	 1.37757862770586E-02 
1652	 1.37589802744897E-02 
1653	 1.45342141723318E-02 
1654	 1.47507393205045E-02 
1655	 1.48947816756804E-02 
1656	 1.48823947121128E-02 
1657	 1.45079067309251E-02 
1658	 1.44542449357676E-02 
1659	 0.014403330244713 
1660	 0.014399790219277 
1661	 1.47683403628609E-02 
1662	 1.46523603188647E-02 
1663	 1.41345850449086E-02 
1664	 1.39775185857789E-02 
1665	 1.37228657349152E-02 
1666	 1.35536304623963E-02 
1667	 1.37076690577097E-02 
1668	 1.39162123894074E-02 
1669	 1.37972004826327E-02 
1670	 1.38231222724207E-02 
1671	 1.43168953294338E-02 
1672	 1.44105240500845E-02 
1673	 0.014034828289519 
1674	 1.40770129656924E-02 
1675	 1.40163734195292E-02 
1676	 1.35742650016191E-02 
1677	 1.38092156238306E-02 
1678	 0.01419518590427 
1679	 1.37549832192935E-02 
1680	 1.37831371308413E-02 
1681	 1.42533163790659E-02 
1682	 1.42533107592658E-02 
1683	 1.42404526463793E-02 
1684	 1.42321261333022E-02 
1685	 1.43290200579134E-02 
1686	 1.42563795701034E-02 
1687	 1.40515858847716E-02 
1688	 0.014223642791075 
1689	 1.41335600385034E-02 
1690	 0.013966880993735 
1691	 1.42028001972516E-02 
1692	 1.40888314550314E-02 
1693	 1.39408883167024E-02 
1694	 1.43198435877787E-02 
1695	 1.43821512340836E-02 
1696	 1.43536722527421E-02 
1697	 1.45331513124188E-02 
1698	 1.42799660191148E-02 
1699	 1.41613697012291E-02 
1700	 0.014403030913695 
1701	 1.43162647266521E-02 
1702	 0.014331144749111 
1703	 1.43275598111714E-02 
1704	 0.014313147829061 
1705	 1.47432943196204E-02 
1706	 0.0145196706756 
1707	 1.43906450165962E-02 
1708	 1.47333994199576E-02 
1709	 1.43009398710913E-02 
1710	 1.39211520442494E-02 
1711	 1.40133336837006E-02 
1712	 1.39499515680806E-02 
1713	 1.35592836944402E-02 
1714	 1.36286771883324E-02 
1715	 0.013888742160464 
1716	 1.43114370734915E-02 
1717	 1.45135057276335E-02 
1718	 1.46572730076798E-02 
1719	 1.38449551003758E-02 
1720	 1.29592327380098E-02 
1721	 1.37082680164748E-02 
1722	 1.46483327792468E-02 
1723	 1.48994246921393E-02 
1724	 1.54983044355249E-02 
1725	 1.56601391194897E-02 
1726	 1.50839316934671E-02 
1727	 1.49228268650536E-02 
1728	 1.48262494819271E-02 
1729	 1.44177465453425E-02 
1730	 1.50411413264902E-02 
1731	 0.016532950391748 
1732	 1.72655023477915E-02 
1733	 1.64954594260631E-02 
1734	 1.49880576167124E-02 
1735	 1.35423238110262E-02 
1736	 1.29602852516753E-02 
1737	 1.38580250457085E-02 
1738	 1.44390829479438E-02 
1739	 1.42412322991009E-02 
1740	 1.35445973929155E-02 
1741	 1.26604417950984E-02 
1742	 1.26537194177031E-02 
1743	 1.27479885930343E-02 
1744	 1.24790849742817E-02 
1745	 1.28193319668743E-02 
1746	 1.32329695266758E-02 
1747	 1.33021465918149E-02 
1748	 1.38675861759955E-02 
1749	 1.36494239164973E-02 
1750	 0.012044126649559 
1751	 1.20264580330853E-02 
1752	 0.012954438883024 
1753	 1.29291144630477E-02 
1754	 1.34334710348305E-02 
1755	 1.34437134640974E-02 
1756	 1.21206522061236E-02 
1757	 1.20161235057146E-02 
1758	 1.19742369142141E-02 
1759	 1.18548910411407E-02 
1760	 0.012246008706108 
1761	 1.26514993129728E-02 
1762	 1.26035013478103E-02 
1763	 1.23435946249771E-02 
1764	 1.17577421976088E-02 
1765	 1.15911881761454E-02 
1766	 1.23229509625263E-02 
1767	 1.24157650743295E-02 
1768	 1.23648750467881E-02 
1769	 1.22055145180227E-02 
1770	 1.09829211427735E-02 
1771	 1.12811853393091E-02 
1772	 1.12505969572134E-02 
1773	 9.36118969822023E-03 
1774	 9.77018382088342E-03 
1775	 8.84930248933741E-03 
1776	 9.24538963554806E-03 
1777	 1.29549202912331E-02 
1778	 1.35111489022429E-02 
1779	 1.28436492859664E-02 
1780	 1.25463271019871E-02 
1781	 9.23719712248341E-03 
1782	 8.59121069784444E-03 
1783	 1.05242709248038E-02 
1784	 1.11382307435362E-02 
1785	 0.013083411448235 
1786	 1.29519316389598E-02 
1787	 9.76641937247294E-03 
1788	 8.82302880245768E-03 
1789	 7.60829945830385E-03 
1790	 9.75783527049453E-03 
1791	 1.39893955846923E-02 
1792	 1.48225235810141E-02 
1793	 1.22717213213325E-02 
1794	 7.88249808313649E-03 
1795	 7.41336022936043E-03 
1796	 1.38880084120808E-02 
1797	 1.77915896573849E-02 
1798	 2.13572886406131E-02 
1799	 1.97868254090697E-02 
1800	 4.26107139911268E-03 
1801	 1.5857143926159E-03 
1802	 1.35149640265424E-02 
1803	 1.47425589639164E-02 
1804	 3.16536315079788E-02 
1805	 3.48748888081417E-02 
1806	-1.53704564386053E-02 
1807	-2.75527629796976E-02 
1808	-1.52816119812927E-02 
1809	 2.41548259478154E-03 
1810	 0.140600169129145 
1811	 0.203838017338992 
1812	 0.150323691249867 
1813	 0.107319641308736 
1814	-0.116276059100262 
1815	-0.153337735343828 
1816	-0.132509542458888 
1817	 3.59833718424655E-02 
1818	 0.243456679466768 
1819	 0.180963052908943 
1820	 0.144775470673262 
1821	-0.404683572418052 
1822	-0.49762905416221 
1823	 9.65006813380977E-03 
1824	 0.160071873866952 
1825	 0.563056369686214 
1826	 0.706824141096492 
1827	 1.52272996931054 
1828	 1.86002727819244 
1829	-3.91903072122638 
1830	-1.93731962107949 
1831	 2.1717554999724 
1832	 1.04192189179748 
1833	-7.49983981040837E-02 
1834	-0.201845047421269 
1835	-0.482011789576166 
1836	-0.616365670016336 
1837	-0.384221380521424 
1838	-0.265487588762886 
1839	-0.582119580383062 
1840	-2.35694271916229E-02 
1841	 4.29255927562811 
1842	-0.597244387325481 
1843	-0.286643276234463 
1844	 1.40872460627031 
1845	 1.47998022080033 
1846	 6.60559237888019E-02 
1847	 4.45088052905599E-02 
1848	 0.34136012058205 
1849	 2.30509075276576 
1850	-0.604959940295006 
1851	 0.155857819086148 
1852	 5.05948426534764 
1853	-17.6351884388318 
1854	 79.022679450029 
1855	 0.018211641942279 
1856	-1.91848926263224 
1857	-3.02829727316011 
1858	-2.91345662243243 
1859	-1.40932426883123 
1860	-9.60971298377055 
1861	-16.088954370065 
1862	-3.01150495222661 
1863	-1.93587370925669 
1864	-3.98301024354573 
1865	-1.48680095863916 
1866	-0.522449796550802 
1867	-0.456665767248348 
1868	-0.200189023834814 
1869	-0.119431936107267 
1870	-0.31541920097833 
1871	-1.50457964967766 
1872	-0.699399647865602 
1873	-0.70166056282881 
1874	-0.53906554794966 
1875	-0.134714597867891 
1876	 0.466422423260069 
1877	-0.700078074615706 
1878	-0.706449334368981 
1879	-0.900111341583951 
1880	-0.534105536759252 
1881	 3.58241065499012E-02 
1882	 0.529621371486498 
1883	 1.34233956400737 
1884	-2.1173024885709 
1885	-0.711055672570671 
1886	-3.91606895414267E-02 
1887	 0.010172913407621 
1888	-0.66797268588277 
1889	-0.706083142570735 
1890	-0.191600365107212 
1891	-0.214833786787926 
1892	-0.356493729438298 
1893	 9.18334802843749E-02 
1894	-0.642552895649661 
1895	 1.95927146290549 
1896	-0.266316144977612 
1897	 0.423909781674336 
1898	 0.498927373745667 
1899	-4.80001104017256 
1900	-1.3327860670256 
1901	-1.30997526769241 
1902	-1.38799654061087 
1903	-0.898912013462 
1904	-1.43305239549031 
1905	-3.96910145810161 
1906	-0.424537531213038 
1907	-8.01557337903694E-02 
1908	 0.148762319162819 
1909	 3.74810106564164 
1910	-0.493930204973431 
1911	-7.99043420644886E-02 
1912	-1.56857558858835 
1913	 3.10836458755862 
1914	-1.10532489614117E-02 
1915	-7.84617298360992E-02 
1916	-0.175047122244732 
1917	-0.379691920083833 
1918	-0.68063638032237 
1919	-0.796900473749298 
1920	-0.728031244340373 
1921	 0.603454688312248 
1922	 0.707319686994238 
1923	-12.220942349352 
1924	 2.61924335439779 
1925	 3.88120796136894 
1926	 4.42481533418871 
1927	 7.60391112814246 
1928	-60.7578515149911 
1929	 15.3597758450469 
1930	 14.235308860411 
1931	-39.6157116735298 
1932	-0.117597409756913 
1933	-0.239499510483213 
1934	-3.80784197675069E-02 
1935	-7.44519952574761E-03 
1936	-0.639838967735848 
1937	-0.540899606786221 
1938	-7.92813623567905E-02 
1939	 6.10332478468977E-02 
1940	 0.114656391821527 
1941	 0.179791679122561 
1942	 0.190964348700374 
1943	 0.166889067676287 
1944	 0.13690473848509 
1945	 0.099250593948701 
1946	 2.80040380907691E-02 
1947	-5.97066603458161E-02 
1948	-9.40495006378436E-02 
1949	-5.30640127432924E-02 
1950	-1.32076625315507E-02 
1951	 2.94579583740119E-03 
1952	 2.10102053035216E-02 
1953	 3.32556290399181E-02 
1954	 2.70572832342272E-02 
1955	 2.07801942957934E-02 
1956	 0.019901348146519 
1957	 2.05896370109231E-02 
1958	 7.89724603179647E-03 
1959	 2.77126659181472E-03 
1960	 1.15470382955028E-02 
1961	 9.77796312455733E-03 
1962	 1.48890793527254E-03 
1963	-1.11325871125196E-03 
1964	 2.36416390513736E-03 
1965	 1.67610061798932E-03 
1966	 2.97132753680362E-03 
1967	 7.04771120852184E-03 
1968	 1.17038128280854E-02 
1969	 8.82666995335973E-03 
1970	 8.77973788367452E-03 
1971	 8.4123963018154E-03 
1972	 0.004463177590622 
1973	 3.8885079385409E-03 
1974	 3.76677494024582E-03 
1975	 4.65111905812075E-03 
1976	 5.62049013210308E-03 
1977	 4.00895893827495E-03 
1978	 3.92855274206463E-03 
1979	 3.2884418563092E-03 
1980	 1.52500775999497E-03 
1981	 4.38680554666404E-04 
1982	 1.88245781916884E-03 
1983	 1.79743918765624E-03 
1984	 2.34784484066037E-03 
1985	 3.84620079442849E-03 
1986	 4.01238454061022E-03 
1987	 4.09813893445874E-03 
1988	 3.78393724940581E-03 
1989	 2.46705007780957E-03 
1990	 2.71801231763255E-03 
1991	 4.19153340676086E-03 
1992	 5.70933557989484E-03 
1993	 7.23971597659144E-03 
1994	 8.36922017481559E-03 
1995	 8.91962198750519E-03 
1996	 9.37818831223933E-03 
1997	 9.74572681736499E-03 
1998	 9.66481339774485E-03 
1999	 1.06428302484728E-02 
2000	 8.99723667651236E-03 
2001	 5.85700987356234E-03 
2002	 6.46564506401503E-03 
2003	 8.08671925349676E-03 
2004	 1.24054758583271E-02 
2005	 1.49054982756428E-02 
2006	 1.26810555218388E-02 
2007	 1.24579686286549E-02 
2008	 0.013325794497155 
2009	 1.19938425019443E-02 
2010	 9.87392338383966E-03 
2011	 1.07306543869023E-02 
2012	 1.26887828973585E-02 
2013	 1.17711991578246E-02 
2014	 9.13249234424647E-03 
2015	 9.37442350081914E-03 
2016	 8.37922336238014E-03 
2017	 5.25198957302542E-03 
2018	 3.83718142682406E-03 
2019	 5.28511606639491E-03 
2020	 5.87831614702595E-03 
2021	 4.58251035319093E-03 
2022	 4.78875950974483E-03 
2023	 4.73743182992489E-03 
2024	 4.31105424376359E-03 
2025	 2.92466595956472E-03 
2026	 3.21365105997733E-03 
2027	 4.2212584774954E-03 
2028	 4.36406819362081E-03 
2029	 5.11297996777282E-03 
2030	 4.8780253227079E-03 
2031	 3.33581934662144E-03 
2032	 2.80704532355838E-03 
2033	 2.67357289429266E-03 
2034	 3.02948225789567E-03 
2035	 3.62825924768646E-03 
2036	 3.8204260533288E-03 
2037	 3.87357546235456E-03 
2038	 3.64077204536817E-03 
2039	 3.58293397953291E-03 
2040	 3.58147276252972E-03 
2041	 3.69766729595012E-03 
2042	 4.00663981545683E-03 
2043	 4.04716179991912E-03 
2044	 4.01120563569851E-03 
2045	 3.94609973085633E-03 
2046	 3.85868332281016E-03 
2047	 3.35820814370542E-03 
2048	 3.39637754837484E-03 
2049	 3.83036019460856E-03 
2050	 3.66021731468785E-03 
2051	 4.21800609050494E-03 
2052	 4.32441857282737E-03 
2053	 4.16892687445344E-03 
2054	 5.56703870138136E-03 
2055	 7.31348419567422E-03 
2056	 7.88588046930655E-03 
2057	 8.38063443315595E-03 
2058	 8.40328049953135E-03 
2059	 6.28872327485371E-03 
2060	 5.71193095965265E-03 
2061	 5.99727062034514E-03 
2062	 6.37402890178416E-03 
2063	 5.7881228245674E-03 
2064	 5.29046426793317E-03 
2065	 3.96555140093282E-03 
2066	 3.40120780177033E-03 
2067	 4.95673538750525E-03 
2068	 6.45521429453582E-03 
2069	 6.55692505656151E-03 
2070	 6.62459160312785E-03 
2071	 6.15368834610841E-03 
2072	 4.86614576760547E-03 
2073	 4.68253250734047E-03 
2074	 0.00577810345838 
2075	 6.21881360466468E-03 
2076	 6.75204458988664E-03 
2077	 7.26285927564513E-03 
2078	 7.71793857082029E-03 
2079	 7.6192038840418E-03 
2080	 7.13255018265032E-03 
2081	 7.04739097175391E-03 
2082	 6.16539145884008E-03 
2083	 5.51821805180164E-03 
2084	 5.72731140416842E-03 
2085	 4.96993190419498E-03 
2086	 4.13439699792204E-03 
2087	 4.66878136188498E-03 
2088	 4.33355304092039E-03 
2089	 3.46115172918934E-03 
2090	 4.38807753834741E-03 
2091	 5.58439515392823E-03 
2092	 6.14794932689129E-03 
2093	 7.19813753733716E-03 
2094	 7.92557106338907E-03 
2095	 8.01053235001194E-03 
2096	 7.6804781717596E-03 
2097	 7.20362692973149E-03 
2098	 7.16054255347859E-03 
2099	 6.5772213057562E-03 
2100	 6.29443002366007E-03 
2101	 7.11769589687985E-03 
2102	 7.04555487827082E-03 
2103	 6.48950478196824E-03 
2104	 6.04546833299101E-03 
2105	 5.93657220661505E-03 
2106	 6.34059298015586E-03 
2107	 6.42364538243998E-03 
2108	 6.35871658017718E-03 
2109	 6.30155103190682E-03 
2110	 5.91591471702679E-03 
2111	 6.49243106150326E-03 
2112	 7.81829006205723E-03 
2113	 8.44545462194553E-03 
2114	 9.18550944298321E-03 
2115	 9.73296584343832E-03 
2116	 9.6863316437597E-03 
2117	 9.70295182333667E-03 
2118	 9.65708761568171E-03 
2119	 9.90419540292453E-03 
2120	 0.01013563603352 
2121	 1.05836648180241E-02 
2122	 1.08171903656744E-02 
2123	 1.03512480677535E-02 
2124	 9.20159397663142E-03 
2125	 8.57671467873399E-03 
2126	 8.67478794299711E-03 
2127	 8.71640217148004E-03 
2128	 9.04340352332775E-03 
2129	 8.6288045071965E-03 
2130	 7.77015823521223E-03 
2131	 6.94684497513363E-03 
2132	 6.53408465454593E-03 
2133	 7.57808436347493E-03 
2134	 7.78344955144376E-03 
2135	 8.10002743804456E-03 
2136	 8.19614025806635E-03 
2137	 7.86640390988684E-03 
2138	 7.25528535644814E-03 
2139	 6.50939350961144E-03 
2140	 6.29624816492556E-03 
2141	 5.89171004520627E-03 
2142	 5.85992370824789E-03 
2143	 6.29415594415262E-03 
2144	 6.78580270282085E-03 
2145	 7.57259173969956E-03 
2146	 7.48827418752358E-03 
2147	 7.22456974991344E-03 
2148	 7.60666770439132E-03 
2149	 7.8259089485328E-03 
2150	 8.2679345725373E-03 
2151	 9.12329061409534E-03 
2152	 9.1665259775228E-03 
2153	 8.13982988592148E-03 
2154	 7.3152447456917E-03 
2155	 7.64584200111358E-03 
2156	 7.78590240930713E-03 
2157	 7.68601014739531E-03 
2158	 7.80852174199719E-03 
2159	 8.42402868791454E-03 
2160	 9.20686398552936E-03 
2161	 9.08903031440904E-03 
2162	 9.77388700327841E-03 
2163	 9.32031410227052E-03 
2164	 6.01982126785673E-03 
2165	 5.55910506192901E-03 
2166	 6.61006781950954E-03 
2167	 6.67486623935112E-03 
2168	 7.94686662925644E-03 
2169	 8.65140333215318E-03 
2170	 8.82399925413711E-03 
2171	 8.30963871549545E-03 
2172	 7.90840855042758E-03 
2173	 7.38562030829093E-03 
2174	 7.74716892088712E-03 
2175	 8.53476717103362E-03 
2176	 8.46664840171214E-03 
2177	 8.56521004870569E-03 
2178	 7.95563035619077E-03 
2179	 6.69520269400251E-03 
2180	 7.72229285295775E-03 
2181	 7.68019408185826E-03 
2182	 6.4836283702843E-03 
2183	 6.45850847869397E-03 
2184	 5.02072479243114E-03 
2185	 3.75959050521163E-03 
2186	 3.90447499725667E-03 
2187	 5.44510161023683E-03 
2188	 5.70659556366312E-03 
2189	 6.45418323458879E-03 
2190	 6.83971765876162E-03 
2191	 6.01993265495644E-03 
2192	 5.79887463424917E-03 
2193	 6.26005585688099E-03 
2194	 6.65437787814088E-03 
2195	 7.07984583636796E-03 
2196	 6.62759080864483E-03 
2197	 5.97725195216942E-03 
2198	 5.67131949234263E-03 
2199	 4.88626582178057E-03 
2200	 3.92353704886957E-03 
2201	 3.64331966365986E-03 
2202	 4.16410332319622E-03 
2203	 5.76552796239739E-03 
2204	 6.42251968081725E-03 
2205	 6.20285930158954E-03 
2206	 7.00489182535337E-03 
2207	 7.32638367894572E-03 
2208	 7.54505151832103E-03 
2209	 8.98071724883291E-03 
2210	 9.60979477173456E-03 
2211	 8.13376682989438E-03 
2212	 6.49326817287785E-03 
2213	 7.01547821515618E-03 
2214	 7.13921776898928E-03 
2215	 7.68547235829305E-03 
2216	 9.3756771974757E-03 
2217	 9.56804951869211E-03 
2218	 8.26418763859153E-03 
2219	 8.03327357388443E-03 
2220	 8.03473446447183E-03 
2221	 7.73969727254742E-03 
2222	 7.08185985180651E-03 
2223	 6.96953798730621E-03 
2224	 7.11828158999799E-03 
2225	 6.65883623595971E-03 
2226	 6.46303071343415E-03 
2227	 6.72582102877591E-03 
2228	 6.41829929468649E-03 
2229	 6.47753240615124E-03 
2230	 7.28014488062145E-03 
2231	 7.59717911115059E-03 
2232	 8.42113301543038E-03 
2233	 8.03564761190638E-03 
2234	 6.47066442023659E-03 
2235	 6.17640917482879E-03 
2236	 5.08599282057347E-03 
2237	 3.01626310249719E-03 
2238	 2.97627884144345E-03 
2239	 2.28003375033906E-03 
2240	 1.74138829913897E-03 
2241	 3.18022556201981E-03 
2242	 4.68901825635202E-03 
2243	 5.85167966856555E-03 
2244	 7.09621573703721E-03 
2245	 8.10843150413538E-03 
2246	 9.41241372904518E-03 
2247	 1.02468647129981E-02 
2248	 8.77971575864768E-03 
2249	 7.20309226552394E-03 
2250	 4.68054467618994E-03 
2251	 2.45642110499322E-03 
2252	 3.58620705939683E-03 
2253	 4.58025033564875E-03 
2254	 5.60494872450538E-03 
2255	 6.21102897668541E-03 
2256	 0.0045677484835 
2257	 2.93027581578183E-03 
2258	 4.49305009959048E-03 
2259	 7.66883237127546E-03 
2260	 8.38752420050196E-03 
2261	 1.11248902430057E-02 
2262	 1.03560134008959E-02 
2263	 2.92508383270338E-03 
2264	 1.44558150089723E-03 
2265	 2.35565450316897E-03 
2266	 2.65253438741902E-03 
2267	 6.51730245475213E-03 
2268	 7.7774430084682E-03 
2269	 6.82120919877655E-03 
2270	 5.74011176433682E-03 
2271	 3.66311879092613E-03 
2272	 2.48741923668947E-03 
2273	 4.08049854232915E-04 
2274	 1.19817303448345E-03 
2275	 4.9939520778496E-03 
2276	 5.94501986181713E-03 
2277	 6.94622192549983E-03 
2278	 7.34595779575599E-03 
2279	 5.80463647149091E-03 
2280	 4.94702740232522E-03 
2281	 3.75081623711538E-03 
2282	 4.1131479632624E-03 
2283	 7.08280775667859E-03 
2284	 9.09385996888385E-03 
2285	 9.18784983159858E-03 
2286	 1.13206052766722E-02 
2287	 8.69079005760262E-03 
2288	 2.51336481202922E-03 
2289	 1.52539520664514E-03 
2290	 2.8795684278712E-03 
2291	 5.2242445144739E-03 
2292	 1.00664437413551E-02 
2293	 1.49498242271807E-02 
2294	 1.63866320250003E-02 
2295	 1.51499693369644E-02 
2296	 1.21754226379407E-02 
2297	 7.65354650626878E-03 
2298	 4.73804402113072E-03 
2299	 5.50592100010215E-03 
2300	 8.33351618219718E-03 
2301	 9.33517146813779E-03 
2302	 8.7087718809161E-03 
2303	 6.50059863956593E-03 
2304	 3.76741065531776E-03 
2305	 5.34746706892978E-03 
2306	 7.10883664813305E-03 
2307	 6.17890813583134E-03 
2308	 8.30549425915162E-03 
2309	 1.19035806781306E-02 
2310	 0.012866943868315 
2311	 1.16658789120062E-02 
2312	 8.07045833693138E-03 
2313	 4.85953542358424E-03 
2314	 5.25134309496735E-03 
2315	 7.12469567440821E-03 
2316	 8.93392370812723E-03 
2317	 1.08206718103288E-02 
2318	 8.51889995176823E-03 
2319	 7.96245086642091E-03 
2320	 1.32815500015656E-02 
2321	 9.03552397306781E-03 
2322	 1.31120734416139E-04 
2323	-0.002478050435164 
2324	-6.51721813727063E-03 
2325	-8.71464898870044E-03 
2326	-1.87966086297996E-03 
2327	 4.52439737614875E-03 
2328	 4.06245401933511E-03 
2329	 3.54294396799799E-03 
2330	 2.83075043313877E-03 
2331	-3.01379718001991E-04 
2332	-3.77270577531929E-03 
2333	-4.27901527927118E-03 
2334	-2.37151814725625E-03 
2335	-3.59571411856737E-03 
2336	-5.30361339312597E-03 
2337	-8.24455240712154E-03 
2338	-1.29873778257254E-02 
2339	-1.73727036109912E-02 
2340	-1.32318201231827E-02 
2341	 1.25950668530862E-03 
2342	 2.98451270953316E-03 
2343	-4.57032552035381E-03 
2344	-7.60624669664539E-03 
2345	-1.20195059362699E-02 
2346	-8.6031311061886E-03 
2347	 4.88666222085321E-03 
2348	 1.13476745078507E-02 
2349	 1.03551160418212E-02 
2350	 0.010621003451182 
2351	 8.19759645090909E-03 
2352	 9.48881481513175E-05 
2353	-4.03971837388307E-03 
2354	-3.39651079698108E-03 
2355	-2.21948284971099E-03 
2356	 4.65653461314275E-03 
2357	 9.20551460228045E-03 
2358	 3.79620587799421E-03 
2359	 1.92627060388774E-03 
2360	 3.39419735649597E-03 
2361	 3.11011596569385E-03 
2362	 1.33922016323933E-03 
2363	-1.06832025286875E-03 
2364	 5.10082045478754E-03 
2365	 1.29886155089127E-02 
2366	 1.52205062869165E-02 
2367	 1.74473691387824E-02 
2368	 1.00988965260122E-02 
2369	 1.99421187691728E-04 
2370	 8.02024664007989E-03 
2371	 6.43549705036709E-03 
2372	-5.63229684252653E-03 
2373	 1.74027850879617E-03 
2374	 7.59010726574056E-03 
2375	-6.76743833988835E-03 
2376	-0.011915685977269 
2377	-4.4286914509915E-03 
2378	-1.90977252791298E-02 
2379	-1.91323662517376E-02 
2380	 7.5538169614095E-03 
2381	 7.86084883608743E-04 
2382	-2.20516668590107E-02 
2383	-2.45781815374473E-02 
2384	-1.84873841453946E-02 
2385	-2.87437857832618E-02 
2386	-3.86017849298157E-02 
2387	-0.016364299403832 
2388	-1.62328593841596E-02 
2389	-3.17679546834198E-02 
2390	-3.07602669082463E-03 
2391	 2.66531138998645E-02 
2392	 3.32788584529864E-02 
2393	 3.42246464656012E-02 
2394	 3.15021023602177E-02 
2395	 2.01454048756297E-02 
2396	-3.58492653732215E-03 
2397	-2.66900634835982E-02 
2398	-2.43235752149705E-02 
2399	-3.54652607029738E-03 
2400	-1.07298703114956E-02 
2401	-5.55463959852808E-03 
2402	 1.09121003962135E-02 
2403	-3.01057980537002E-02 
2404	-1.93100680125306E-02 
2405	 4.47505327842284E-02 
2406	 4.34624953505354E-02 
2407	 6.06498269143927E-02 
2408	 9.52010840208053E-02 
2409	 7.85242912459448E-02 
2410	 0.138242555458521 
2411	 0.158956268812991 
2412	 9.20002447816285E-02 
2413	 9.42627359697629E-02 
2414	 8.98352659271928E-02 
2415	 0.106217986837064 
2416	 0.150048444989865 
2417	 0.116650530738559 
2418	 7.44049887142975E-05 
2419	-0.149666824313472 
2420	-0.214060617287648 
2421	-0.115849986274984 
2422	 7.9020863785499E-04 
2423	 7.40353369782007E-02 
2424	 8.02764362164458E-02 
2425	 4.82980123996857E-02 
2426	 1.01230733896638E-02 
2427	 6.15279107061601E-02 
2428	 0.150229620285658 
2429	 0.11185993176222 
2430	 7.94023154239103E-02 
2431	 5.57590735100236E-02 
2432	-3.29188830663377E-02 
2433	-3.05158478423353E-03 
2434	 0.243013755219283 
2435	 0.266907397021442 
2436	 0.214068049869465 
2437	 0.275691061098934 
2438	 9.93811037458985E-02 
2439	-0.048179831280409 
2440	 0.103172910908996 
2441	-1.06629960078408E-02 
2442	-0.364126239608263 
2443	-0.351009696661819 
2444	-0.390124028344403 
2445	-0.328542627456792 
2446	-2.47681174618638E-02 
2447	 0.180118535739875 
2448	 0.225510560826955 
2449	 0.2542420906131 
2450	 0.296232398065504 
2451	 0.230447691670192 
2452	 1.03528140595841 
2453	 0.461024383511313 
2454	 0.276771839721289 
2455	 0.410323685548339 
2456	-0.101553690908534 
2457	-0.249479985964274 
2458	-0.27726878015708 
2459	-0.142726483908527 
2460	-5.19940150115441E-02 
2461	-4.24245671576739E-02 
2462	 0.100370171673436 
2463	-5.05524504778697E-03 
2464	-0.250129116850441 
2465	-0.409192617793648 
2466	-0.569857071181819 
2467	-0.603377163821132 
2468	-0.442840318450702 
2469	-0.144698543349639 
2470	-8.33971452243213E-02 
2471	-0.155140812068568 
2472	-1.41952692786932E-02 
2473	 0.251718610704124 
2474	 1.01659630750944 
2475	 0.598273709229758 
2476	 4.65316152671533 
2477	 1.05553596434951 
2478	-0.326690119811957 
2479	 1.05211028014004 
2480	-1.17536788390238 
2481	-1.02853403737535 
2482	-1.12411858445722 
2483	-0.810384800597538 
2484	-1.04391779998518 
2485	-1.34843591547779 
2486	-0.483686221375525 
2487	 0.049855015018117 
2488	-20.2412786248446 
2489	 0.202795004112548 
2490	 5.14871180955687 
2491	 0.559871339305469 
2492	 0.351383827472163 
2493	-0.792711160171015 
2494	 0.721628853827489 
2495	 1.21337555626795 
2496	 1.98640682147209 
2497	-39.3340605064015 
2498	-0.307958307658058 
2499	 2.00732080703532 
2500	-0.348160736500251 
