Wavelength	rt0716clean00005.asd
350	 2.60064246926225E-02 
351	 0.023939274405575 
352	 2.42614916848005E-02 
353	 2.48493186344661E-02 
354	 2.43345657774064E-02 
355	 2.51242990713098E-02 
356	 2.53987311854285E-02 
357	 2.48071191459302E-02 
358	 2.38682233042973E-02 
359	 2.46038953954179E-02 
360	 0.024932640236202 
361	 2.47362830936438E-02 
362	 2.51503965487537E-02 
363	 2.47708354620918E-02 
364	 0.024451284506057 
365	 2.45865304420851E-02 
366	 0.024485192582292 
367	 2.46803152402802E-02 
368	 2.50780592511061E-02 
369	 2.53597064390898E-02 
370	 2.49647819392752E-02 
371	 2.50116446435426E-02 
372	 2.54089443877272E-02 
373	 2.53893942800163E-02 
374	 2.50709530389499E-02 
375	 2.52374522424243E-02 
376	 2.58682228726274E-02 
377	 2.58102466715244E-02 
378	 2.56602601632593E-02 
379	 2.58048087749671E-02 
380	 2.62587910085737E-02 
381	 2.59805901974175E-02 
382	 2.66637023431497E-02 
383	 2.74217281937826E-02 
384	 2.66434536603596E-02 
385	 0.026893492942195 
386	 2.70927053017395E-02 
387	 2.69298300465918E-02 
388	 2.72299416283509E-02 
389	 0.027651161076754 
390	 0.027842761989782 
391	 2.78258909770876E-02 
392	 2.85752888993183E-02 
393	 2.85560246222001E-02 
394	 2.83130705920509E-02 
395	 2.88134333857732E-02 
396	 0.028884131248808 
397	 2.90651770789557E-02 
398	 2.93850280553732E-02 
399	 0.029388752873991 
400	 2.92968731568177E-02 
401	 2.93983997486948E-02 
402	 2.97267832204639E-02 
403	 2.97315216375299E-02 
404	 3.00288149619765E-02 
405	 3.02987014313029E-02 
406	 3.00889762851795E-02 
407	 3.02538489495038E-02 
408	 3.04672531371134E-02 
409	 3.05880761353358E-02 
410	 3.07266210060701E-02 
411	 3.08499073442736E-02 
412	 3.10049429452423E-02 
413	 3.12059915050312E-02 
414	 3.13660295196894E-02 
415	 3.14981507469393E-02 
416	 3.16185764162997E-02 
417	 3.17609975964023E-02 
418	 3.20346423135237E-02 
419	 0.032329167186526 
420	 3.25905725142266E-02 
421	 0.032841189389011 
422	 3.29276145430411E-02 
423	 3.31068012352504E-02 
424	 3.35204064004759E-02 
425	 3.37799821399675E-02 
426	 3.39307975509535E-02 
427	 3.41516746159162E-02 
428	 3.46050849571207E-02 
429	 3.48077298643202E-02 
430	 3.51181850428525E-02 
431	 3.56015329750193E-02 
432	 3.59025033433751E-02 
433	 3.62365315747252E-02 
434	 3.65366829463678E-02 
435	 3.67604732171126E-02 
436	 3.71132427592243E-02 
437	 0.037455405351687 
438	 3.77572330532993E-02 
439	 3.80605410431522E-02 
440	 3.84830955561229E-02 
441	 3.88108215866226E-02 
442	 3.90045578582676E-02 
443	 0.039328659935609 
444	 3.95963301852405E-02 
445	 3.98485011453964E-02 
446	 4.01602031207628E-02 
447	 4.05124362578253E-02 
448	 4.07923777545049E-02 
449	 4.10188223497708E-02 
450	 4.12966561648058E-02 
451	 4.14825202491642E-02 
452	 4.16563645024725E-02 
453	 4.18478400840884E-02 
454	 4.19047128709298E-02 
455	 4.20859040479818E-02 
456	 4.23206640402674E-02 
457	 4.24507499432643E-02 
458	 4.25494160675682E-02 
459	 4.26983706679295E-02 
460	 4.28765380558604E-02 
461	 4.29658896746265E-02 
462	 0.043072409830605 
463	 4.32158493495127E-02 
464	 4.33682363010452E-02 
465	 4.34086950348764E-02 
466	 0.043533539991567 
467	 4.37072723883677E-02 
468	 4.38070090849136E-02 
469	 4.39952243067537E-02 
470	 4.41749928671342E-02 
471	 4.43109911290735E-02 
472	 4.44788563468217E-02 
473	 0.044619781726148 
474	 4.48132236548325E-02 
475	 4.50945473651148E-02 
476	 4.52162475029507E-02 
477	 4.53804675040853E-02 
478	 4.56056852925364E-02 
479	 4.57876940820185E-02 
480	 4.59664969885126E-02 
481	 4.62259892824773E-02 
482	 4.65491039356918E-02 
483	 4.66879495450139E-02 
484	 4.70030734212332E-02 
485	 4.73782860903005E-02 
486	 0.047591648533938 
487	 4.78798075699249E-02 
488	 4.81739880246104E-02 
489	 4.84347909360693E-02 
490	 4.86732021507037E-02 
491	 4.90296907051941E-02 
492	 4.94422431312966E-02 
493	 0.049841717466198 
494	 5.02746096271771E-02 
495	 5.06378519049324E-02 
496	 5.09450098514136E-02 
497	 5.12798445597004E-02 
498	 5.17393813151722E-02 
499	 5.21909529945412E-02 
500	 5.26016961747076E-02 
501	 5.31330941399985E-02 
502	 5.35239051483549E-02 
503	 5.38874589539286E-02 
504	 5.43731306202709E-02 
505	 5.48012257746866E-02 
506	 5.52626305024442E-02 
507	 5.57709075294221E-02 
508	 5.62720280103137E-02 
509	 5.67401588449189E-02 
510	 5.71611771970272E-02 
511	 5.75623636848556E-02 
512	 5.80597018200904E-02 
513	 5.85863950738954E-02 
514	 0.059148305896187 
515	 5.97580962571566E-02 
516	 6.02993491842925E-02 
517	 6.08815127600585E-02 
518	 6.15177399773822E-02 
519	 6.20830638319729E-02 
520	 6.26500480380376E-02 
521	 6.32708277337066E-02 
522	 0.063942978914861 
523	 6.44764981555488E-02 
524	 0.065059225350512 
525	 6.57461139741494E-02 
526	 6.64829046602654E-02 
527	 6.71166840460631E-02 
528	 6.77782262190965E-02 
529	 6.85167151972979E-02 
530	 6.91402958198037E-02 
531	 6.97537605071176E-02 
532	 7.04305756970103E-02 
533	 7.11990034303521E-02 
534	 7.18851003717394E-02 
535	 7.26202795505085E-02 
536	 7.33995841500946E-02 
537	 7.40420983573364E-02 
538	 7.48481476715014E-02 
539	 7.56510219300827E-02 
540	 7.62937685027521E-02 
541	 0.077025210363918 
542	 7.77881861646171E-02 
543	 0.078541171239461 
544	 7.92639874479445E-02 
545	 8.00274215048672E-02 
546	 0.080775175670454 
547	 8.14906027934299E-02 
548	 8.22715269214585E-02 
549	 8.30106286776948E-02 
550	 8.37030521549256E-02 
551	 0.084393658173134 
552	 8.51737477003765E-02 
553	 0.085952479896672 
554	 8.66515388917162E-02 
555	 0.087223090423302 
556	 8.80224968522118E-02 
557	 8.88349883180418E-02 
558	 8.94414914410292E-02 
559	 0.090117023098431 
560	 9.08024733890569E-02 
561	 0.091479668577893 
562	 9.21500404996159E-02 
563	 9.27313440929073E-02 
564	 9.32697885633036E-02 
565	 9.38064525775498E-02 
566	 9.43415336762735E-02 
567	 9.48478956283088E-02 
568	 9.53389484742524E-02 
569	 0.095833088416172 
570	 9.62945978005063E-02 
571	 9.67325888259906E-02 
572	 9.71490359028903E-02 
573	 9.75334862431414E-02 
574	 9.78206322134676E-02 
575	 9.81464869679276E-02 
576	 9.85827284066905E-02 
577	 9.88542427462529E-02 
578	 9.91135557297673E-02 
579	 9.93609960894047E-02 
580	 9.95176290143168E-02 
581	 9.96936581730138E-02 
582	 0.099808663349767 
583	 9.98468220548704E-02 
584	 9.99588424163703E-02 
585	 9.99577094663341E-02 
586	 9.98604448808746E-02 
587	 9.97504566227704E-02 
588	 9.96270675461974E-02 
589	 9.95514427731905E-02 
590	 9.95148804231506E-02 
591	 9.94289779082999E-02 
592	 9.92803216648526E-02 
593	 9.90760885099357E-02 
594	 9.88231245188556E-02 
595	 9.85006613979046E-02 
596	 9.80882365369786E-02 
597	 9.75958926884347E-02 
598	 9.70604198213968E-02 
599	 9.65351129399596E-02 
600	 9.60767913090574E-02 
601	 9.57348702506655E-02 
602	 9.55562611035189E-02 
603	 9.53594111810067E-02 
604	 9.51899981503372E-02 
605	 9.51496983928993E-02 
606	 9.51998375078819E-02 
607	 9.52655901060338E-02 
608	 9.53006702766792E-02 
609	 0.095294328444446 
610	 9.52939531155546E-02 
611	 9.53552268387994E-02 
612	 9.54560717014609E-02 
613	 9.53238956669008E-02 
614	 9.53847156355516E-02 
615	 9.55420983492115E-02 
616	 9.54493772827006E-02 
617	 9.54300939045976E-02 
618	 9.54376845169609E-02 
619	 9.54296660378751E-02 
620	 9.54356788533371E-02 
621	 9.54549932219902E-02 
622	 9.54317067085128E-02 
623	 9.53483586640829E-02 
624	 0.095471181302955 
625	 0.095466101989558 
626	 9.53340148080556E-02 
627	 9.53991306257759E-02 
628	 9.54181560524662E-02 
629	 9.54049050563144E-02 
630	 9.54100550146704E-02 
631	 9.54623619345056E-02 
632	 9.54151822237828E-02 
633	 9.53229427685974E-02 
634	 9.53209429544218E-02 
635	 9.53227658395189E-02 
636	 9.53931606020308E-02 
637	 9.54984610229414E-02 
638	 0.095449338822894 
639	 9.53891773280524E-02 
640	 9.53176726607818E-02 
641	 0.095218184293618 
642	 9.51675171112466E-02 
643	 9.51274710274162E-02 
644	 9.50754566397473E-02 
645	 9.50033726073984E-02 
646	 9.48970319701273E-02 
647	 9.47767468981107E-02 
648	 0.094675167689496 
649	 9.46412943509419E-02 
650	 9.45215278396287E-02 
651	 9.43228363705129E-02 
652	 9.41115764783754E-02 
653	 9.38338552095042E-02 
654	 9.35132304758056E-02 
655	 9.30979661983672E-02 
656	 9.24985391528587E-02 
657	 9.21411207498173E-02 
658	 9.18885688547398E-02 
659	 9.15589953045329E-02 
660	 9.12277343192282E-02 
661	 0.090917027229909 
662	 9.06661422447981E-02 
663	 9.05097973574808E-02 
664	 9.02735552271542E-02 
665	 9.01163887311807E-02 
666	 0.090067844406254 
667	 0.089852133690634 
668	 8.96955748078233E-02 
669	 8.95955457562287E-02 
670	 8.95052496297055E-02 
671	 8.95587155388751E-02 
672	 8.94931140044799E-02 
673	 8.93842445736473E-02 
674	 8.96040889745539E-02 
675	 8.96454296847654E-02 
676	 8.96126558468793E-02 
677	 8.96624460675795E-02 
678	 8.97805412705217E-02 
679	 8.99262183795865E-02 
680	 9.00427846437855E-02 
681	 9.01014064148317E-02 
682	 9.03006719947518E-02 
683	 9.05161326382197E-02 
684	 9.06559398714493E-02 
685	 9.07158217065492E-02 
686	 9.08362856551529E-02 
687	 9.09691118827909E-02 
688	 9.10162350577207E-02 
689	 9.09901856363021E-02 
690	 9.08817807072317E-02 
691	 0.09070320929029 
692	 9.04844610751563E-02 
693	 9.03619691930046E-02 
694	 9.00823351379119E-02 
695	 8.96249875854077E-02 
696	 8.93636283870489E-02 
697	 8.89614109335155E-02 
698	 8.83656762876163E-02 
699	 8.76735575265261E-02 
700	 8.70692301280338E-02 
701	 8.65034915969265E-02 
702	 8.58513584350113E-02 
703	 8.49590745775998E-02 
704	 8.42500896724754E-02 
705	 8.34403229748193E-02 
706	 8.24068236583146E-02 
707	 8.15574264256654E-02 
708	 8.05450940892983E-02 
709	 7.93465194316055E-02 
710	 7.80613019150249E-02 
711	 7.67555220413659E-02 
712	 7.53774220188446E-02 
713	 7.38918230740532E-02 
714	 7.22491802444592E-02 
715	 7.05897002180533E-02 
716	 6.88999818398564E-02 
717	 6.72190039964658E-02 
718	 6.51169135123956E-02 
719	 6.30668189758175E-02 
720	 6.14293816731576E-02 
721	 5.99348579558468E-02 
722	 5.83755965253605E-02 
723	 5.64576985238467E-02 
724	 5.43934344067465E-02 
725	 5.24866540776822E-02 
726	 5.05864153162393E-02 
727	 4.84127836903904E-02 
728	 4.59015897637015E-02 
729	 4.36067626627178E-02 
730	 4.10954532700688E-02 
731	 3.86327023502977E-02 
732	 3.65640443643276E-02 
733	 3.49082032104533E-02 
734	 3.33982525561232E-02 
735	 3.20273502755996E-02 
736	 0.031101133562254 
737	 3.02983922738326E-02 
738	 2.96344817975928E-02 
739	 2.91770319645563E-02 
740	 2.88550715610033E-02 
741	 0.028637313168657 
742	 2.85218193004547E-02 
743	 2.85021889617638E-02 
744	 2.84275437296143E-02 
745	 2.83990196302183E-02 
746	 2.83997585473882E-02 
747	 2.82223287989637E-02 
748	 2.81500909925153E-02 
749	 2.81766178001935E-02 
750	 2.82164354229891E-02 
751	 2.81914985910222E-02 
752	 0.028199900709078 
753	 0.028249572147044 
754	 2.82862513249387E-02 
755	 2.82009869760851E-02 
756	 2.81697105883732E-02 
757	 2.82346432861651E-02 
758	 2.82022211439036E-02 
759	 0.028200512362843 
760	 2.82956104519956E-02 
761	 0.028408712984206 
762	 2.84985452729219E-02 
763	 2.85297974028829E-02 
764	 2.86523738318727E-02 
765	 2.89469215111012E-02 
766	 2.90814126832502E-02 
767	 2.91090984401175E-02 
768	 2.91669812375333E-02 
769	 2.94578282962676E-02 
770	 0.029592596013498 
771	 2.96859847254537E-02 
772	 0.029886732582522 
773	 3.01582718889975E-02 
774	 0.030364283497473 
775	 3.05447937254412E-02 
776	 3.08071932327858E-02 
777	 3.11089941878635E-02 
778	 3.14135193746813E-02 
779	 3.17131100647797E-02 
780	 3.20303717704259E-02 
781	 3.23064952982916E-02 
782	 3.26951312922299E-02 
783	 3.32004407679068E-02 
784	 3.33867789245932E-02 
785	 3.38084479675711E-02 
786	 0.034366218774743 
787	 3.47603566597771E-02 
788	 0.035017274712155 
789	 3.54046405633567E-02 
790	 3.58826131990087E-02 
791	 3.61908447734569E-02 
792	 3.66184863459795E-02 
793	 3.71050250601881E-02 
794	 3.75672443568495E-02 
795	 3.79446647749104E-02 
796	 3.82813246325808E-02 
797	 3.87044469469015E-02 
798	 3.92396532597658E-02 
799	 3.94434609261218E-02 
800	 3.96248227595784E-02 
801	 3.99485514059727E-02 
802	 4.04184466986545E-02 
803	 4.06094498041581E-02 
804	 4.07447691964989E-02 
805	 4.08744071072068E-02 
806	 4.08070867008961E-02 
807	 4.08266606694331E-02 
808	 4.08095267912206E-02 
809	 0.04066796335818 
810	 4.06417353147696E-02 
811	 4.04044736528512E-02 
812	 4.00302802419459E-02 
813	 3.97501166446874E-02 
814	 3.95260693225864E-02 
815	 3.90977825139053E-02 
816	 3.84521765059121E-02 
817	 3.78122514513046E-02 
818	 3.73111780842998E-02 
819	 3.67484827448099E-02 
820	 3.60212334996217E-02 
821	 3.52164458353604E-02 
822	 3.38491300113895E-02 
823	 3.24515607214967E-02 
824	 3.13716354584951E-02 
825	 2.97463755022082E-02 
826	 2.83002939444421E-02 
827	 2.67525499955955E-02 
828	 2.47669407588383E-02 
829	 2.33368696207661E-02 
830	 2.19984772141962E-02 
831	 2.06744210387383E-02 
832	 1.96559236582633E-02 
833	 1.89493251473598E-02 
834	 1.81924673556403E-02 
835	 1.74267349252531E-02 
836	 0.017243970900468 
837	 1.69868209544104E-02 
838	 1.66056414261807E-02 
839	 1.62159518678268E-02 
840	 1.59926258349396E-02 
841	 1.57560522249095E-02 
842	 0.015439505368073 
843	 1.50525438251707E-02 
844	 1.46996503671069E-02 
845	 1.45395253509031E-02 
846	 1.45028915813856E-02 
847	 1.43734901851019E-02 
848	 1.41734323311468E-02 
849	 1.38782833105694E-02 
850	 1.36335346807166E-02 
851	 1.37456058743033E-02 
852	 1.33197899645051E-02 
853	 1.29788896237387E-02 
854	 1.31178048069452E-02 
855	 1.29608504276876E-02 
856	 1.26441825266507E-02 
857	 1.23481870363693E-02 
858	 1.21836527951443E-02 
859	 1.19374604161541E-02 
860	 1.17697397079003E-02 
861	 1.17224971699767E-02 
862	 1.17223866377062E-02 
863	 1.14393739844676E-02 
864	 1.12862205872005E-02 
865	 1.12471711180873E-02 
866	 1.09363205926296E-02 
867	 1.08994184289948E-02 
868	 1.08203081956956E-02 
869	 1.05679037664042E-02 
870	 1.03961440800023E-02 
871	 1.02153085291685E-02 
872	 9.98357766860615E-03 
873	 9.7075822117927E-03 
874	 9.47062286404329E-03 
875	 9.43659846968931E-03 
876	 9.39347265112754E-03 
877	 9.06972905915577E-03 
878	 8.37767295131138E-03 
879	 8.31237511312666E-03 
880	 8.43496443490396E-03 
881	 7.9148847216861E-03 
882	 8.05914416189864E-03 
883	 7.78538496235195E-03 
884	 7.24969707259604E-03 
885	 7.43111583528088E-03 
886	 7.1047316999206E-03 
887	 6.94807210276875E-03 
888	 7.11530834976804E-03 
889	 6.96473379908232E-03 
890	 6.62070344950766E-03 
891	 6.33489052016026E-03 
892	 6.27777670883846E-03 
893	 6.39339262911215E-03 
894	 6.18188095420472E-03 
895	 5.72834746848797E-03 
896	 5.36494140544829E-03 
897	 5.48783555577978E-03 
898	 5.34126195158913E-03 
899	 5.31322930819563E-03 
900	 5.67023522437394E-03 
901	 4.80309551232925E-03 
902	 4.69243213705919E-03 
903	 5.04299748883513E-03 
904	 4.95179692609279E-03 
905	 5.31272015548765E-03 
906	 4.83610200469508E-03 
907	 4.00177405978685E-03 
908	 4.29775635670154E-03 
909	 3.35145643613551E-03 
910	 3.50993928717866E-03 
911	 4.37566743050447E-03 
912	 3.24726686206542E-03 
913	 3.80517406886033E-03 
914	 3.99464189533871E-03 
915	 3.13026562297559E-03 
916	 2.85507170666939E-03 
917	 3.27329613685252E-03 
918	 3.1781753216121E-03 
919	 2.45858802158378E-03 
920	 2.54150147062135E-03 
921	 2.15440356026591E-03 
922	 1.93871199503624E-03 
923	 2.29018375158379E-03 
924	 2.33015688004766E-03 
925	 2.01030851036077E-03 
926	 2.27293571474537E-03 
927	 3.33244076701507E-03 
928	 1.01099978991024E-03 
929	 1.26347386220823E-03 
930	 2.83633191304879E-03 
931	 5.29732723225483E-04 
932	-4.13154408155191E-04 
933	-1.24204303221888E-03 
934	-1.35200642529752E-03 
935	 1.65838672541609E-04 
936	 2.38265303438094E-03 
937	 3.1889822872148E-03 
938	 2.4586694897118E-03 
939	 1.11354263835091E-03 
940	 1.23225653471092E-03 
941	 8.53138148555019E-04 
942	 6.94894811395569E-04 
943	 2.11661574677664E-03 
944	 1.22795572675338E-03 
945	 3.40395953892974E-03 
946	 4.56302232781921E-03 
947	-1.67424378668703E-03 
948	-2.00451336799583E-03 
949	-4.10091171321303E-04 
950	 1.27247554596955E-03 
951	 2.94788659625971E-03 
952	 1.37453904356575E-03 
953	 1.86891610298839E-03 
954	 3.96443788144747E-03 
955	 3.63475812485723E-03 
956	 3.40367159958238E-03 
957	 1.78749809305029E-03 
958	-4.67960214425986E-04 
959	-1.10058907716226E-03 
960	 7.56546069402463E-04 
961	 3.39784496844768E-03 
962	 4.22313676947473E-03 
963	 1.62516382839438E-03 
964	 1.24458544864817E-03 
965	 1.46253447890472E-03 
966	 2.05868833425868E-03 
967	 3.62459776918657E-03 
968	 1.46423735833271E-03 
969	 2.2579160412627E-04 
970	 1.17087769594789E-03 
971	 1.95950372195269E-03 
972	 1.67756635366253E-03 
973	 1.75554099456086E-03 
974	 1.99008766872849E-03 
975	 8.10992860126659E-04 
976	 1.43469344074934E-03 
977	 1.96045489298104E-03 
978	 1.82412964787091E-03 
979	 1.92523830249814E-03 
980	 4.75611625307779E-04 
981	 7.73334798243183E-04 
982	 2.32855315659228E-03 
983	 1.7914978712033E-03 
984	 8.05005658822936E-04 
985	 3.963823660443E-04 
986	 7.93030005287148E-04 
987	 1.50858604796479E-03 
988	 1.91270229867917E-03 
989	 1.06479342753687E-03 
990	 3.51075644517435E-04 
991	 1.98361404518168E-03 
992	 2.04229785509724E-03 
993	 1.51978745215121E-03 
994	 1.08004975459715E-03 
995	 9.10322896809185E-04 
996	 1.76802234133539E-03 
997	 1.26729703001337E-03 
998	 4.41348982335983E-04 
999	 1.59523562079629E-03 
1000	 7.63615891997926E-04 
1001	-2.23370992272354E-04 
1002	-3.05501652307234E-04 
1003	-2.36645382320633E-04 
1004	 2.21154265863428E-04 
1005	 4.67235057523641E-04 
1006	 7.31749148006508E-04 
1007	 7.87385795007052E-04 
1008	 8.25493468734393E-04 
1009	 7.13192833920909E-04 
1010	 4.64529050110955E-04 
1011	 1.66315142703836E-04 
1012	 2.46137883586928E-05 
1013	 6.21680460477198E-05 
1014	 1.36626722589593E-04 
1015	 4.33629640404314E-04 
1016	 5.87993614639986E-04 
1017	 6.83607558058522E-04 
1018	 8.69558963719743E-04 
1019	 1.10110746834915E-03 
1020	 1.25669560130633E-03 
1021	 1.50575302513229E-03 
1022	 1.6642190586648E-03 
1023	 1.51717788601172E-03 
1024	 1.25137297068087E-03 
1025	 8.4083982122504E-04 
1026	 4.64810861325479E-04 
1027	 1.68899712386937E-04 
1028	-2.54183175922123E-04 
1029	-2.47284596628338E-04 
1030	 8.56359868018493E-06 
1031	 1.75023212814447E-04 
1032	 7.93602553204641E-04 
1033	 9.67234825741302E-04 
1034	 8.97487421741122E-04 
1035	 8.27079330557523E-04 
1036	 3.06071344686526E-04 
1037	 2.60885976040255E-04 
1038	 4.600746830799E-04 
1039	 6.07191883707298E-04 
1040	 1.05348390494435E-03 
1041	 1.5558337204523E-03 
1042	 1.75481434932151E-03 
1043	 1.88775830624642E-03 
1044	 1.73039339753151E-03 
1045	 1.16533727936734E-03 
1046	 9.80618083875974E-04 
1047	 6.60810932870422E-04 
1048	 5.25060955881192E-04 
1049	 6.52935050856959E-04 
1050	 7.82779737161387E-04 
1051	 1.03290472947433E-03 
1052	 1.12936344915561E-03 
1053	 1.31318292231144E-03 
1054	 1.38585487808627E-03 
1055	 1.17529591127178E-03 
1056	 1.10390462698069E-03 
1057	 1.07472541793867E-03 
1058	 1.15353215489768E-03 
1059	 1.07416167829276E-03 
1060	 9.4184744135886E-04 
1061	 8.68095863053633E-04 
1062	 6.03367569269287E-04 
1063	 6.83598575132203E-04 
1064	 1.21340615888225E-03 
1065	 1.2409767735864E-03 
1066	 1.13429751420472E-03 
1067	 1.10453238328367E-03 
1068	 6.64050720463514E-04 
1069	 5.60949671486252E-04 
1070	 9.80066426142837E-04 
1071	 1.03829027902485E-03 
1072	 1.02394270563312E-03 
1073	 8.15467105022211E-04 
1074	 8.16994815396279E-04 
1075	 7.08227299945276E-04 
1076	 7.11455668256118E-04 
1077	 8.83952251748482E-04 
1078	 1.03764365443329E-03 
1079	 1.16238930677842E-03 
1080	 1.30423142768334E-03 
1081	 1.75143729672281E-03 
1082	 1.76134769673167E-03 
1083	 1.32544673165574E-03 
1084	 1.20457438633377E-03 
1085	 9.30044994584098E-04 
1086	 8.55490045167667E-04 
1087	 1.41112201325073E-03 
1088	 1.45059279903755E-03 
1089	 1.23768899436737E-03 
1090	 7.72181422977338E-04 
1091	 6.86465187103448E-04 
1092	 3.99116954646422E-04 
1093	 4.4188851528801E-04 
1094	 0.001214230359145 
1095	 1.19807582667277E-03 
1096	 5.48324818473644E-04 
1097	 5.74556822656079E-04 
1098	 7.53691959899517E-04 
1099	 6.51902789210259E-04 
1100	 9.58996148342443E-04 
1101	 1.02115221133131E-03 
1102	 3.11955322494228E-04 
1103	 1.15781299664016E-04 
1104	 5.35307352070585E-04 
1105	 4.36821666910706E-04 
1106	 2.2530901030555E-04 
1107	 6.96518154050584E-04 
1108	 6.8230768003223E-04 
1109	 2.27086553464225E-04 
1110	 1.6292803159768E-04 
1111	 4.13978716625162E-05 
1112	 2.85657230251342E-05 
1113	 7.13035116687618E-04 
1114	 6.96562286681687E-04 
1115	-5.17434215300566E-04 
1116	-4.66411511203957E-04 
1117	 1.57605929563883E-03 
1118	 1.09856147691078E-03 
1119	-1.47075104241485E-03 
1120	-2.50076004191415E-03 
1121	-6.0132008073673E-03 
1122	-1.17442166603287E-02 
1123	-6.88921053767975E-03 
1124	 3.5070299518404E-03 
1125	 3.72312415507158E-03 
1126	 1.17805745601129E-03 
1127	 1.7894522261858E-03 
1128	-2.36706429885049E-03 
1129	-4.35867216474756E-03 
1130	-1.44773222458249E-03 
1131	-2.11559576576393E-03 
1132	-7.95207834532172E-03 
1133	-7.28276414998355E-03 
1134	-2.69399739924102E-03 
1135	-1.28632853834548E-03 
1136	 9.50301887656239E-04 
1137	 1.19643391171747E-03 
1138	-6.70664338997225E-04 
1139	-1.44923530935348E-03 
1140	-1.92132495197335E-03 
1141	-1.1163340934184E-03 
1142	-4.53307304300251E-04 
1143	-1.25021380335143E-03 
1144	-1.06990895172576E-03 
1145	-8.17582233451735E-04 
1146	-1.99210973074795E-03 
1147	-1.04660311400762E-03 
1148	 7.50698859570267E-05 
1149	-1.22812298624748E-03 
1150	-6.64792219711634E-04 
1151	 2.44682524786046E-03 
1152	 2.00036590626835E-03 
1153	 3.44214708130501E-04 
1154	 2.17691086931779E-04 
1155	-1.19078225053107E-04 
1156	-1.21212928554962E-03 
1157	 2.6206386150278E-04 
1158	 1.37014890346169E-03 
1159	 1.22348339910652E-03 
1160	 9.28833623578681E-04 
1161	 3.41153246624523E-04 
1162	 3.91602702327727E-05 
1163	 3.40964068603231E-04 
1164	 8.07476342205994E-04 
1165	 9.07027807589849E-04 
1166	 4.37345410757132E-04 
1167	-1.12073833421695E-05 
1168	 2.14388564984897E-04 
1169	 5.49085740308836E-04 
1170	 5.02891390701313E-04 
1171	 6.00470610201677E-04 
1172	 7.90004639428073E-04 
1173	 6.76604997885314E-04 
1174	 3.45864729101869E-04 
1175	 3.76692618762662E-04 
1176	 3.59965867143193E-04 
1177	 1.72203660070387E-04 
1178	 3.5240354444927E-04 
1179	 6.40769274581854E-04 
1180	 5.55414444985001E-04 
1181	 4.23001741309543E-04 
1182	 5.67775842028232E-04 
1183	 5.33694777342356E-04 
1184	 4.85607748826923E-04 
1185	 6.58264678903359E-04 
1186	 3.95109951179923E-04 
1187	 9.92999938748912E-05 
1188	 2.4854338579052E-04 
1189	 3.27860321832633E-04 
1190	 3.77663920707503E-04 
1191	 4.48991813610647E-04 
1192	 5.25489115114313E-04 
1193	 5.01464218200792E-04 
1194	 5.13890244191347E-04 
1195	 4.67374450556486E-04 
1196	 5.09179970029788E-04 
1197	 5.60277743480867E-04 
1198	 4.69710659533097E-04 
1199	 4.69736593039988E-04 
1200	 5.37104726347997E-04 
1201	 6.94567053921007E-04 
1202	 7.5419002520422E-04 
1203	 6.0675674594694E-04 
1204	 4.66259937613338E-04 
1205	 3.26400961563861E-04 
1206	 2.94165771542684E-04 
1207	 3.96733445525496E-04 
1208	 5.03450025573616E-04 
1209	 5.3474323579399E-04 
1210	 4.98469172900023E-04 
1211	 5.48859368592014E-04 
1212	 7.51244624436376E-04 
1213	 8.88131490524679E-04 
1214	 9.0228526028268E-04 
1215	 7.47860009819132E-04 
1216	 7.23310612793947E-04 
1217	 8.23627452483087E-04 
1218	 7.3314006844514E-04 
1219	 5.91910837373386E-04 
1220	 5.68569095877023E-04 
1221	 5.68022434328466E-04 
1222	 5.79878943914245E-04 
1223	 6.85641970754316E-04 
1224	 6.855655576639E-04 
1225	 5.88566706231876E-04 
1226	 6.56735947036976E-04 
1227	 7.99833451995094E-04 
1228	 8.74928877282604E-04 
1229	 6.87431058832527E-04 
1230	 3.63941511390851E-04 
1231	 3.7253442581907E-04 
1232	 6.82196460312307E-04 
1233	 7.79493754980301E-04 
1234	 6.39578548652039E-04 
1235	 6.66733083695599E-04 
1236	 5.97708478873943E-04 
1237	 4.68941841058246E-04 
1238	 3.51366419025356E-04 
1239	 4.59239004249608E-04 
1240	 5.02794723519404E-04 
1241	 4.08596718126032E-04 
1242	 4.61924095119366E-04 
1243	 7.24109773120248E-04 
1244	 7.08829677357081E-04 
1245	 5.22870175629143E-04 
1246	 6.74735233283833E-04 
1247	 8.36595860378238E-04 
1248	 6.8355285195961E-04 
1249	 6.3009829085768E-04 
1250	 6.72903047948269E-04 
1251	 5.2729373684367E-04 
1252	 5.23418859341234E-04 
1253	 6.52430442216753E-04 
1254	 6.17510120855251E-04 
1255	 5.59751474983741E-04 
1256	 4.93170471228817E-04 
1257	 4.33423805761982E-04 
1258	 4.47964785892463E-04 
1259	 5.02999375661507E-04 
1260	 5.18378080928962E-04 
1261	 6.27923895106943E-04 
1262	 6.44457482140267E-04 
1263	 5.90230005628452E-04 
1264	 3.44764432648407E-04 
1265	 3.8829630973562E-04 
1266	 7.35435376963061E-04 
1267	 5.86864912764881E-04 
1268	 2.74385061130935E-04 
1269	 2.99659913075488E-04 
1270	 3.4653236471946E-04 
1271	 3.17585826413886E-04 
1272	 4.09078987901723E-04 
1273	 5.16025239751381E-04 
1274	 3.73087672741144E-04 
1275	 2.29176160926302E-04 
1276	 3.21002696756917E-04 
1277	 4.54309718761941E-04 
1278	 4.16018744379163E-04 
1279	 4.18775588318981E-04 
1280	 7.27225806009872E-04 
1281	 8.68787004885417E-04 
1282	 8.10475022575134E-04 
1283	 7.26782878740197E-04 
1284	 5.92606030384932E-04 
1285	 6.2307569294887E-04 
1286	 7.02581970960306E-04 
1287	 6.33513194753731E-04 
1288	 6.08821433568672E-04 
1289	 6.09786415429476E-04 
1290	 4.93532824441658E-04 
1291	 3.20378734231869E-04 
1292	 1.83072578403958E-04 
1293	 4.80679157631397E-04 
1294	 6.68348776495131E-04 
1295	 4.95460271008863E-04 
1296	 6.71645244143508E-04 
1297	 8.25946292236434E-04 
1298	 5.60901822205852E-04 
1299	 5.69446546204261E-04 
1300	 7.37026040166991E-04 
1301	 4.80258177628899E-04 
1302	 4.43662483654879E-04 
1303	 7.26109071997074E-04 
1304	 7.85015089254072E-04 
1305	 8.72916723705536E-04 
1306	 9.04792659690013E-04 
1307	 8.44625214695059E-04 
1308	 7.81913367011134E-04 
1309	 6.9493305969953E-04 
1310	 5.33202227038159E-04 
1311	 2.26365105998698E-04 
1312	 1.68536306639285E-04 
1313	 2.38205462181597E-04 
1314	 2.76012492428813E-04 
1315	 6.39056864653867E-04 
1316	 5.22326555244404E-04 
1317	-3.0291749337818E-04 
1318	-3.39306323554822E-04 
1319	 5.55509154770127E-05 
1320	 2.75535297329259E-05 
1321	 1.20721883659544E-04 
1322	 5.60175521816685E-04 
1323	 4.29739015132388E-04 
1324	-2.81288803775621E-05 
1325	 3.07555562434248E-05 
1326	 2.97131342296824E-04 
1327	-1.09307107830497E-06 
1328	-1.49026947634524E-04 
1329	 5.91321392745464E-04 
1330	 1.07806534801636E-03 
1331	 1.03132686556784E-03 
1332	 1.0610441314362E-03 
1333	 6.18782095580619E-04 
1334	-2.06162415078738E-04 
1335	-3.52617027080821E-04 
1336	-2.54297507348035E-05 
1337	 4.86249987389442E-04 
1338	 2.15439878135883E-03 
1339	 1.86947738338133E-03 
1340	 4.47934863887406E-05 
1341	-2.0008391066424E-04 
1342	-1.12051992002062E-03 
1343	-1.51229797475733E-03 
1344	 4.37522999307195E-04 
1345	 1.53461398828558E-03 
1346	 2.09997653560706E-03 
1347	 2.22335138998184E-03 
1348	 2.01176243246868E-03 
1349	 2.40195646599635E-03 
1350	 3.59385095361798E-04 
1351	-1.36098509486296E-03 
1352	 1.74308130657838E-03 
1353	 2.19287984508966E-03 
1354	-2.32266687754603E-03 
1355	-1.79603857874464E-02 
1356	-3.81446336624141E-02 
1357	-1.70537416844273E-02 
1358	-2.47269171505953E-02 
1359	-9.80889482645632E-02 
1360	 3.95875589843816E-03 
1361	 4.69316632815356E-02 
1362	-4.92852204331992E-02 
1363	 0.077083459579393 
1364	 0.193402501298366 
1365	 8.13410357391213E-02 
1366	-6.84817271474682E-03 
1367	 0.218675208093947 
1368	 0.185439611283648 
1369	-0.083999946622084 
1370	-9.08628309853483E-02 
1371	 9.06637934173499E-02 
1372	 4.31916372253576E-02 
1373	-3.29007699193228E-02 
1374	-3.52945667858409E-05 
1375	-9.35355471429684E-02 
1376	-0.122272157129477 
1377	 2.11207110544973E-02 
1378	 0.123372753797009 
1379	 0.112450101391475 
1380	 7.34496555297766E-02 
1381	 6.21475728987872E-02 
1382	 1.20974094283406E-02 
1383	-0.235633221521708 
1384	-0.220642324664213 
1385	 0.160909613498418 
1386	 0.170765658687291 
1387	-0.102295883868561 
1388	-6.51812800492408E-02 
1389	 0.117251147811573 
1390	 2.62123135845262E-03 
1391	-0.172490300263105 
1392	-0.135204410508104 
1393	 0.176372840224924 
1394	 2.97409206376164E-02 
1395	-0.581876116585259 
1396	-0.549787411454181 
1397	-0.102361028021822 
1398	-0.483301123120673 
1399	-0.698517245328239 
1400	-0.14509396135893 
1401	 8.61202269993177E-02 
1402	-8.60619895339705E-02 
1403	-5.27643633073125E-02 
1404	 0.100833855166424 
1405	 0.112829293582503 
1406	-0.286823901418624 
1407	-0.374452664351932 
1408	-0.16091287668383 
1409	-0.124599606448419 
1410	-0.236634992511376 
1411	-0.248143088657847 
1412	-0.188156563913231 
1413	-0.153620260771013 
1414	-0.129977693462364 
1415	-0.130819392264978 
1416	-0.133430834750075 
1417	-9.63513427423895E-02 
1418	-0.062663539849239 
1419	-7.14677972448298E-02 
1420	-6.26028280625112E-02 
1421	-5.12756122879147E-02 
1422	-8.30035683208759E-02 
1423	-8.01979826572864E-02 
1424	-3.73285377348202E-02 
1425	-3.32579985932878E-02 
1426	-4.74725071553283E-02 
1427	-4.80679112428229E-02 
1428	-6.09629249827484E-02 
1429	-5.30895075471642E-02 
1430	-1.32737637555387E-02 
1431	-1.15250082418404E-02 
1432	-3.29021577673884E-02 
1433	-2.77036596290382E-02 
1434	-0.024397440839416 
1435	-0.028942869814575 
1436	-1.76140366332147E-02 
1437	-4.1727704495843E-03 
1438	-0.020812019570567 
1439	-4.11050363910796E-02 
1440	-3.40884526360389E-02 
1441	-3.15394465371275E-02 
1442	-3.66481017693417E-02 
1443	-2.61443664440891E-02 
1444	-1.67774688148341E-02 
1445	-1.34071671574626E-02 
1446	-4.93700943629659E-03 
1447	-3.79434414152111E-04 
1448	-3.0031380398517E-03 
1449	-4.36613851947838E-03 
1450	-4.81273882136892E-03 
1451	-5.54469048511886E-03 
1452	-4.48599582537014E-03 
1453	-1.29131922233323E-03 
1454	-8.19578104996114E-04 
1455	-1.40628367599077E-03 
1456	-1.25377737228607E-03 
1457	-8.79633670943307E-04 
1458	-1.36774223559455E-03 
1459	-2.48931497014117E-03 
1460	-1.66752979378438E-03 
1461	-2.8568649418906E-04 
1462	-2.6213056521273E-04 
1463	 1.19602935035374E-03 
1464	 8.4164694009386E-04 
1465	-3.33895209110853E-03 
1466	-3.65584477475932E-03 
1467	-7.80010305410209E-04 
1468	-1.08480224423313E-03 
1469	-2.5505111460109E-03 
1470	-2.25163974904608E-03 
1471	-1.87284269607958E-03 
1472	-3.45018759504654E-03 
1473	-5.39922426837059E-03 
1474	-3.94015033576321E-03 
1475	-2.25367310545636E-03 
1476	-2.5726447711803E-03 
1477	-1.53278236207317E-03 
1478	-2.47430001937957E-04 
1479	-7.35501158303228E-04 
1480	-9.83124054558112E-04 
1481	 7.27509201806233E-04 
1482	 1.11438144910159E-03 
1483	-6.62631235552754E-04 
1484	-1.03607861806227E-03 
1485	-1.0925984700408E-04 
1486	 3.44646365980655E-05 
1487	-3.57364367880348E-04 
1488	-2.53081150281217E-04 
1489	 4.45411477726187E-05 
1490	-8.49810439828884E-05 
1491	-3.07549278192155E-04 
1492	-2.63076086201405E-04 
1493	-3.49584842611557E-04 
1494	-2.51994611278445E-04 
1495	 4.53725816785301E-04 
1496	 3.96708169978367E-04 
1497	-4.74825476807008E-04 
1498	-5.02761717608543E-04 
1499	-1.26824196406052E-04 
1500	-2.00525542681921E-04 
1501	-2.76280793490222E-04 
1502	-8.51439504811888E-05 
1503	 9.40878342538006E-05 
1504	 6.90801597503402E-06 
1505	-1.42812271352733E-04 
1506	 9.12663041648977E-05 
1507	 3.63282500742292E-04 
1508	 2.28807743133885E-04 
1509	 1.71261123903041E-04 
1510	 2.957940879812E-04 
1511	 8.58839157775171E-05 
1512	-9.52988350014974E-05 
1513	 6.32889945434588E-05 
1514	 2.33997798046242E-04 
1515	 2.75009797998174E-04 
1516	 2.36597969376641E-04 
1517	 2.21224000986198E-04 
1518	 1.50723817599838E-04 
1519	 9.83113903891464E-05 
1520	 7.53632589374769E-05 
1521	-1.03037399863973E-04 
1522	-1.60999186027355E-05 
1523	 2.17823213542241E-04 
1524	 1.33885635828357E-04 
1525	-4.97850443265891E-05 
1526	-2.3511581139256E-04 
1527	-8.08539549979579E-05 
1528	 2.60619255872337E-04 
1529	 2.51389221118942E-04 
1530	 2.65204408984464E-04 
1531	 2.1410188221777E-04 
1532	-3.64241564635789E-05 
1533	-9.39996992748525E-06 
1534	 1.92430828665911E-04 
1535	 2.35406206079153E-04 
1536	 2.0288320645444E-04 
1537	 2.45369583946358E-04 
1538	 2.56076160611675E-04 
1539	 1.29611424010554E-04 
1540	-4.57567868433818E-05 
1541	 1.34209329381082E-04 
1542	 4.95169086079923E-04 
1543	 4.21403227792568E-04 
1544	 3.47216268991106E-04 
1545	 3.10296268865976E-04 
1546	 9.51477485270857E-05 
1547	 2.16954725851464E-04 
1548	 3.91239239968021E-04 
1549	 2.76556838999748E-04 
1550	 1.54794818285551E-04 
1551	 1.98716724705106E-04 
1552	 3.19205480071394E-04 
1553	 2.75890493945532E-04 
1554	 1.42863824509195E-04 
1555	 1.10507902681145E-04 
1556	 1.66519675101234E-04 
1557	 3.30314165608898E-04 
1558	 4.73136340262242E-04 
1559	 5.06640232369161E-04 
1560	 4.5445524674596E-04 
1561	 2.26505626175999E-04 
1562	 1.34679862437803E-04 
1563	 2.53916635378905E-04 
1564	 2.0803757103413E-04 
1565	 3.0597236813632E-04 
1566	 4.9646936456186E-04 
1567	 2.33720260274137E-04 
1568	 1.31637854651442E-04 
1569	 3.75309311452787E-04 
1570	 4.18474298602472E-04 
1571	 4.1776198455086E-04 
1572	 3.6373609120476E-04 
1573	 2.35594669216212E-04 
1574	 2.37487205213903E-04 
1575	 2.36246002573374E-04 
1576	 4.55116061057217E-05 
1577	-9.58920362964587E-05 
1578	-5.5995166751543E-05 
1579	 7.8821385999685E-05 
1580	 4.47120908056287E-04 
1581	 5.859892620491E-04 
1582	 3.78928029475538E-04 
1583	 5.36375254400512E-04 
1584	 7.29195056824585E-04 
1585	 4.83629514228966E-04 
1586	 2.0425075462626E-04 
1587	 9.61372659052481E-05 
1588	 9.29949735971398E-05 
1589	 3.23723471805117E-04 
1590	 5.92789048116544E-04 
1591	 4.72775816374833E-04 
1592	 1.8864840272019E-04 
1593	-8.64474402340419E-05 
1594	-7.74825794976105E-05 
1595	 2.67683015341955E-04 
1596	 2.99709747785206E-04 
1597	 4.11956724798067E-04 
1598	 5.49491933026847E-04 
1599	 7.62877214130867E-05 
1600	-1.54141213374086E-04 
1601	 1.0749928207594E-04 
1602	 3.19240468820373E-04 
1603	 4.20030417393336E-04 
1604	 3.64872796407957E-04 
1605	 3.01082316428571E-04 
1606	 1.14400588381495E-04 
1607	 5.59438909642613E-05 
1608	 5.43730245741667E-04 
1609	 6.11541468473979E-04 
1610	-7.64302700895346E-06 
1611	-1.06502909105104E-04 
1612	 1.3653934999664E-04 
1613	-1.07714512023474E-04 
1614	 3.7171406800909E-05 
1615	 4.89633099957687E-04 
1616	 2.48074338414682E-04 
1617	 1.4946590369391E-04 
1618	 3.88400598181386E-04 
1619	 5.06524528909001E-04 
1620	 5.08579900874255E-04 
1621	 2.840009530412E-04 
1622	 3.02731662198976E-04 
1623	 3.7002302959276E-04 
1624	 1.23307223945963E-04 
1625	 1.20925502659103E-04 
1626	 2.76725203154166E-04 
1627	 1.80797318327658E-04 
1628	 2.20095662947118E-04 
1629	 5.07725823977515E-04 
1630	 5.41335900478579E-04 
1631	 4.07933201391785E-04 
1632	 2.94384505517175E-04 
1633	 1.43853477825876E-04 
1634	 2.00421356310002E-04 
1635	 2.24940439445167E-04 
1636	 9.00908583677096E-05 
1637	 2.2665847939929E-04 
1638	 4.37221147780832E-04 
1639	 4.65299015169843E-04 
1640	 4.94024488667614E-04 
1641	 3.48878636288999E-04 
1642	 1.77217361826711E-05 
1643	-4.95587823010191E-05 
1644	 1.00946700123462E-04 
1645	 2.03532512806479E-04 
1646	 2.54621250894114E-04 
1647	 1.73182019766373E-04 
1648	 2.3917514277269E-05 
1649	 6.19254733987237E-06 
1650	-3.48417531861644E-05 
1651	-1.27539992500954E-04 
1652	-1.11188560403902E-04 
1653	-1.73097839087226E-04 
1654	-1.55256567812753E-04 
1655	 6.56286771158399E-05 
1656	 2.12604544562799E-04 
1657	 4.76975198680345E-04 
1658	 4.60489517596789E-04 
1659	 1.31194626702122E-04 
1660	 4.73933205310494E-05 
1661	-1.40204705760937E-04 
1662	-1.89464437423626E-04 
1663	 1.63014778269161E-04 
1664	 1.87899875551419E-04 
1665	-4.78793226401456E-05 
1666	-7.54240964262401E-05 
1667	-1.53333085824097E-04 
1668	 3.51784693662293E-05 
1669	 9.14197162939073E-05 
1670	-1.49464928762075E-04 
1671	-3.75629664475944E-05 
1672	 7.97492840916878E-05 
1673	 1.31910927660785E-04 
1674	 9.03349525630576E-05 
1675	-4.39523243333792E-05 
1676	 1.34265673539765E-04 
1677	 4.23834645495052E-05 
1678	-9.34210812688117E-05 
1679	 1.49367494829902E-04 
1680	 1.69110024873539E-04 
1681	 2.96985638968953E-04 
1682	 6.15912539917271E-04 
1683	 3.61407247381624E-04 
1684	 9.21140795608083E-05 
1685	 1.72134257956393E-04 
1686	 7.03459867281759E-05 
1687	 1.8559036769618E-04 
1688	 2.10657968651559E-04 
1689	-1.36833799095771E-04 
1690	-1.1733795503285E-04 
1691	 3.05737336358247E-04 
1692	 8.00040869541046E-04 
1693	 6.1933519984467E-04 
1694	 3.32778357786077E-04 
1695	 4.50729874713406E-04 
1696	 8.74294445106605E-07 
1697	 7.13085100417232E-05 
1698	 3.84435007758231E-04 
1699	-4.84782932250016E-05 
1700	 1.26429505980371E-04 
1701	 4.32152982334221E-04 
1702	 1.55652519949059E-04 
1703	-4.18041678055012E-05 
1704	-1.13586090814483E-04 
1705	-1.32941214270348E-05 
1706	 2.47123257032689E-04 
1707	 2.0402999207639E-04 
1708	 1.52637254512695E-04 
1709	 4.01295633132133E-05 
1710	-8.69308046966052E-05 
1711	 4.32162770791367E-04 
1712	 5.71125059422994E-04 
1713	 1.95968188254978E-04 
1714	 2.37550608384758E-04 
1715	 4.03535341333238E-04 
1716	 1.80931932461076E-04 
1717	 8.30642125711337E-05 
1718	-1.37095367763595E-04 
1719	-1.18286538809113E-04 
1720	 2.76668699011902E-04 
1721	 3.45948974717213E-04 
1722	 2.79103601540677E-04 
1723	 4.05548501379718E-04 
1724	 6.78805000082432E-04 
1725	 7.15734376603322E-04 
1726	 3.76864760920831E-04 
1727	 2.12265168587212E-04 
1728	 4.54771748762895E-05 
1729	-1.12150703084334E-04 
1730	 4.00996273177868E-04 
1731	 4.6533111560076E-04 
1732	-3.2682727419713E-04 
1733	-4.68068230379467E-04 
1734	-7.65973365763155E-04 
1735	-9.7621184785802E-04 
1736	 1.75909656084119E-04 
1737	 8.65157044684731E-04 
1738	 6.9947027473065E-04 
1739	 4.2933328799545E-04 
1740	-5.84998999891221E-04 
1741	-1.39740675281438E-03 
1742	-9.32839904784025E-04 
1743	-2.92935190530795E-04 
1744	-3.1611271348177E-05 
1745	 1.06551812103561E-04 
1746	-6.61624126615688E-04 
1747	-6.23064253621947E-04 
1748	-2.50017894590357E-05 
1749	 3.00664843614716E-05 
1750	 2.26385264944445E-04 
1751	 4.84053721394431E-04 
1752	 4.18608139126272E-04 
1753	 2.59735878401254E-04 
1754	 2.58411596715668E-04 
1755	 3.87317337665387E-04 
1756	 5.2049421222684E-04 
1757	 8.88058924688902E-04 
1758	 5.16780549639854E-05 
1759	-5.16806366432713E-04 
1760	-8.72683560207397E-04 
1761	-8.70533224709278E-04 
1762	 9.61904970366759E-04 
1763	 1.73419489402065E-03 
1764	 9.27999619871877E-04 
1765	 4.50907050488714E-04 
1766	-9.95034000918032E-04 
1767	-1.50832452386919E-03 
1768	-7.13499502686366E-04 
1769	-6.09292325140739E-04 
1770	 2.33488474963059E-04 
1771	 7.56091532197352E-04 
1772	 3.23653816507911E-04 
1773	 1.05141255559798E-05 
1774	-1.11284015134294E-03 
1775	-2.88972738036341E-04 
1776	 4.15934505619255E-05 
1777	 1.19671887525847E-03 
1778	 1.74941475805309E-03 
1779	 8.86888213407818E-04 
1780	 2.13628907734496E-04 
1781	-2.41585824410178E-04 
1782	-3.78967602005533E-04 
1783	-8.8376125565674E-04 
1784	-1.06099853024889E-03 
1785	-5.20658873475832E-04 
1786	-6.10311120817408E-04 
1787	-4.27935250238106E-04 
1788	-1.21885966843983E-03 
1789	-3.94932602660249E-03 
1790	-1.59627272175545E-03 
1791	-8.69281284894709E-04 
1792	-1.92593794699989E-03 
1793	-1.78042719776622E-03 
1794	-6.38872654503931E-03 
1795	-1.35952155518896E-02 
1796	-1.19137970270342E-02 
1797	-5.90980239655473E-03 
1798	-5.46534670147963E-04 
1799	 9.24119705959724E-03 
1800	-1.77161751941249E-03 
1801	-6.10276241778095E-03 
1802	-1.12364774783302E-02 
1803	-2.12741391583879E-02 
1804	-3.00641984061336E-02 
1805	-2.83667540586081E-02 
1806	-1.29239039836113E-02 
1807	-2.40628957974419E-02 
1808	-4.98347873346057E-02 
1809	-6.22573649957221E-02 
1810	-0.168722774140669 
1811	-0.179621748180048 
1812	 8.79049309869552E-02 
1813	 0.160831988940656 
1814	 0.169201732130817 
1815	 9.37870710941879E-02 
1816	-0.299505347234984 
1817	-0.265943516464805 
1818	-0.417583877985474 
1819	-0.415316036405673 
1820	-3.78831262432686E-02 
1821	-0.48473512571049 
1822	-0.467487434057134 
1823	-0.144447483386275 
1824	-0.171091208171517 
1825	-6.16979983270762E-02 
1826	-0.116912164731897 
1827	-1.56983762846963 
1828	-4.1999839265051 
1829	-4.79126978099032 
1830	-2.31553047806423 
1831	 1.6956536644801 
1832	 1.12046281351132 
1833	 0.45266150626622 
1834	 0.39927478854275 
1835	 0.240430946732767 
1836	 0.109171137955045 
1837	-7.08339064716054E-02 
1838	 8.94578227911804E-02 
1839	 1.25026513989664 
1840	 0.73027925870521 
1841	 9.47290661160432 
1842	-2.40174603461458 
1843	-2.16766171500395 
1844	-0.482763595955255 
1845	 0.435372978272406 
1846	-0.984469503568062 
1847	-1.01964210951365 
1848	-1.25049250346633 
1849	-3.15951162244748 
1850	 1.85496174521094 
1851	 0.324110949698613 
1852	 1.16111100570169 
1853	-3.65256933838889 
1854	 28.8428930830507 
1855	-0.688253682195924 
1856	 1.04539416950899 
1857	 2.4647709830365 
1858	 2.76906446781959 
1859	 5.0004043667243 
1860	-180.078460441521 
1861	-15.3953259470931 
1862	 1.23583065580498 
1863	 1.21722266570907 
1864	 1.4067644454437 
1865	 0.936142693368628 
1866	 0.54008148703109 
1867	 0.303530360276369 
1868	-0.111999172571398 
1869	-0.1539316144296 
1870	-0.855119577243942 
1871	-3.6032929015733 
1872	-0.242055654820738 
1873	 0.18371916587181 
1874	-1.30187882107075E-03 
1875	-0.235055263459012 
1876	-0.62372599323029 
1877	 6.79567220904589E-02 
1878	 0.31666262542831 
1879	 1.37160799856446 
1880	 1.36033579312781 
1881	 1.31972075616698 
1882	 1.38676926389896 
1883	-4.03795451846146E-02 
1884	 2.11729795413325 
1885	 0.731470330582929 
1886	 0.538491152723712 
1887	-0.148415746973123 
1888	-0.967516232782565 
1889	-1.26873190508407 
1890	-0.915163520051385 
1891	-1.17626625143181 
1892	-1.36384726918687 
1893	-1.18545860697551 
1894	-2.52710464837243 
1895	 7.83577787237275 
1896	 2.48791133162599 
1897	 2.73514801077628 
1898	 0.479070948617126 
1899	 2.63978148783272 
1900	 0.861783894667087 
1901	 0.308904903810253 
1902	 0.371269779116957 
1903	 0.758679810426302 
1904	 0.315408283475456 
1905	-2.17074415758749 
1906	-0.401066644877675 
1907	-0.154335142367019 
1908	-0.187027884659509 
1909	-2.29182079285153 
1910	 0.645209502952959 
1911	 0.669021626589705 
1912	 4.50941284290748 
1913	-14.1176943106661 
1914	-1.14731562973115 
1915	-0.584532925714915 
1916	-0.48592587110741 
1917	-0.334140281328366 
1918	-0.307819535111185 
1919	-1.18550435409378 
1920	-2.79136245101362 
1921	 2.76134825835121 
1922	 3.73646654648676 
1923	-144.59723315737 
1924	 6.38150908457557 
1925	 0.543601406086019 
1926	-0.419518557806738 
1927	-1.87608348327709 
1928	 25.8592113572625 
1929	-7.54241745933366 
1930	-4.23625487656639 
1931	 13.7883240265146 
1932	-0.544198858518671 
1933	-0.443147822753457 
1934	-6.14653308498234E-02 
1935	-0.230921139570831 
1936	-0.302401740323249 
1937	-0.116633385877883 
1938	-0.330497406891224 
1939	-0.328290412076378 
1940	-0.296613580550944 
1941	-0.197755347602697 
1942	-9.85499077379508E-02 
1943	-3.60032854170711E-03 
1944	 2.00577498374581E-02 
1945	 2.27139023148064E-02 
1946	 2.54088675021801E-02 
1947	-2.35643794054487E-02 
1948	-0.03033429435048 
1949	 0.010148579976851 
1950	-3.71582108019143E-02 
1951	-0.027668045733323 
1952	-1.12423166283312E-02 
1953	 2.51047928392358E-02 
1954	-1.9827034301829E-04 
1955	 2.51326910759337E-02 
1956	 3.99742838092243E-02 
1957	 1.70790274811069E-02 
1958	 2.43981808258657E-02 
1959	 2.13240979983343E-02 
1960	 1.10446081322742E-02 
1961	 8.12327987916227E-03 
1962	 2.92415745204035E-03 
1963	-4.01144844882125E-04 
1964	-1.37779046200378E-03 
1965	-2.93659043332754E-03 
1966	-2.52675261762321E-03 
1967	-7.5786490459252E-04 
1968	 2.31713566307389E-03 
1969	 3.90371021450762E-03 
1970	 4.66876947581192E-03 
1971	 3.40582552057483E-03 
1972	 1.27036560909278E-03 
1973	 9.86576745433039E-04 
1974	 2.72146959514026E-04 
1975	-8.17895303343258E-04 
1976	-2.97063196011409E-05 
1977	 1.23701421795332E-04 
1978	-7.15885804692358E-04 
1979	-6.66282972725712E-04 
1980	 6.97022867540826E-04 
1981	 1.29567471699715E-03 
1982	 6.08945909674642E-05 
1983	-9.19512816878758E-04 
1984	-2.02912150956507E-03 
1985	-3.86230308778237E-03 
1986	-4.04930769170931E-03 
1987	-2.33504846403055E-03 
1988	-5.44883751414736E-04 
1989	 9.90408135865152E-04 
1990	 1.90783159833406E-03 
1991	 1.90975536514687E-03 
1992	 2.58342457227529E-03 
1993	 3.2053873642203E-03 
1994	 2.75517366415408E-03 
1995	 1.56377079834864E-03 
1996	 1.90624912555942E-04 
1997	-2.18416312016528E-03 
1998	-2.6415319674179E-03 
1999	-1.17727847449465E-03 
2000	-1.80746553580063E-03 
2001	-1.80656672255039E-03 
2002	-2.98695415401102E-03 
2003	-5.01018007601173E-03 
2004	-1.71545519670949E-03 
2005	-3.04393012095683E-04 
2006	-3.36035322556685E-03 
2007	-3.16011735297083E-03 
2008	-1.47970324784609E-03 
2009	-3.31356147862832E-04 
2010	 3.80904308069614E-03 
2011	 4.10364275315015E-03 
2012	 2.37568680195229E-03 
2013	 3.73991610206674E-05 
2014	-2.0536530273532E-03 
2015	-6.02125936317916E-04 
2016	 1.93456887949892E-03 
2017	 3.72139634498262E-03 
2018	 4.16524977501579E-03 
2019	 3.09732969049789E-03 
2020	 2.91659566703842E-03 
2021	 2.12532676800182E-03 
2022	 9.44364871915626E-04 
2023	 1.78405104110104E-03 
2024	 2.01002158145667E-03 
2025	 2.29376242418587E-03 
2026	 2.03980883853307E-03 
2027	 2.08599754194471E-03 
2028	 9.76704020624292E-04 
2029	-3.72318354106781E-04 
2030	-5.40459153413788E-04 
2031	-1.98323087657209E-04 
2032	 6.09095815945556E-05 
2033	 3.7174569250051E-04 
2034	 9.69949810594676E-04 
2035	 1.91998978063174E-03 
2036	 2.58473953842722E-03 
2037	 2.7079582137911E-03 
2038	 3.29946206993057E-03 
2039	 0.003102177899969 
2040	 1.27208083636969E-03 
2041	 6.78644535645706E-04 
2042	 8.60161603032131E-04 
2043	 1.3528147469016E-04 
2044	-1.35109568043101E-03 
2045	-1.19763418547091E-03 
2046	-1.0216854987085E-03 
2047	-1.5159102743751E-03 
2048	-8.47927533353073E-04 
2049	 5.94324514224453E-04 
2050	 1.36367510801713E-03 
2051	 1.21159726359147E-03 
2052	 1.14728212929871E-03 
2053	 6.13575887004987E-04 
2054	 4.25575744852093E-04 
2055	 9.26606073848145E-04 
2056	 7.6379930671398E-04 
2057	 1.03503645458627E-03 
2058	 4.7208207424147E-04 
2059	-1.89408436266884E-03 
2060	-2.33396804549535E-03 
2061	-2.3061252123559E-03 
2062	-1.22849200551032E-03 
2063	 1.71801122406773E-06 
2064	 3.37577444304318E-04 
2065	 1.42657402143039E-03 
2066	 1.15245495479502E-03 
2067	 3.45945083620742E-04 
2068	 6.87058684598966E-04 
2069	-1.9073538942055E-05 
2070	-2.20196145235695E-04 
2071	 1.15355778082915E-03 
2072	 1.50840410491853E-03 
2073	 1.38047204223672E-03 
2074	 1.13986660077886E-03 
2075	 8.47643102652929E-04 
2076	-6.01727447800612E-04 
2077	-7.27686492230877E-04 
2078	-2.01616118955347E-05 
2079	 1.47957670514858E-04 
2080	 2.07705943271745E-04 
2081	 9.62868149343533E-04 
2082	 1.51480495445182E-03 
2083	 1.61101287604648E-03 
2084	 1.91539762865651E-03 
2085	 1.74772527119001E-03 
2086	 1.1332668764331E-03 
2087	 1.2769076624946E-03 
2088	 1.5460500666719E-03 
2089	 1.71872110071647E-03 
2090	 2.24579614349222E-03 
2091	 1.89695468726441E-03 
2092	 1.81696472590129E-03 
2093	 1.74281140881619E-03 
2094	 1.87277199666039E-03 
2095	 2.06865357987869E-03 
2096	 2.11068250809123E-03 
2097	 2.58685089957067E-03 
2098	 1.90183463059784E-03 
2099	-6.35710917460138E-05 
2100	-5.8741386918953E-04 
2101	-7.37821505646033E-04 
2102	-1.66920287939773E-03 
2103	-7.23898234054319E-04 
2104	-3.38960844773463E-05 
2105	-4.90244121474873E-04 
2106	 2.98515806944717E-04 
2107	 9.3741302811489E-04 
2108	 1.06660360389017E-03 
2109	 1.2771828263726E-03 
2110	 9.02836080649169E-04 
2111	 8.89424096337622E-04 
2112	 1.10568167389993E-03 
2113	 1.06103649734205E-03 
2114	 1.37139956167338E-03 
2115	 1.20636973420834E-03 
2116	 2.73727370702511E-04 
2117	-3.36237137874938E-05 
2118	-3.65110044557449E-04 
2119	-2.42213313572299E-04 
2120	 1.69548817861889E-04 
2121	 9.60621797541732E-04 
2122	 2.33069939518557E-03 
2123	 3.2725470205489E-03 
2124	 2.78986492657303E-03 
2125	 2.24717056439054E-03 
2126	 1.60106909866692E-03 
2127	 4.32811124422699E-04 
2128	 1.74111622114458E-04 
2129	 3.0973302467914E-04 
2130	 1.22008582375624E-04 
2131	 7.57263161685364E-04 
2132	 1.42308992663958E-03 
2133	 8.84617569475221E-04 
2134	 9.53667484332128E-04 
2135	 1.13659620577989E-03 
2136	 8.05020172029974E-04 
2137	 3.29734375655243E-04 
2138	 1.32911336175604E-04 
2139	-9.43090751968556E-04 
2140	-1.16944993539821E-03 
2141	-3.62113189107233E-04 
2142	 1.09378890575644E-04 
2143	 6.58170059883707E-04 
2144	 1.37365384893855E-03 
2145	 2.21472342888426E-03 
2146	 2.97119560299156E-03 
2147	 2.94415113358087E-03 
2148	 2.97850423280477E-03 
2149	 2.64702210980311E-03 
2150	 2.03646536291047E-03 
2151	 2.40323649236794E-03 
2152	 1.85706627823857E-03 
2153	 1.31686473891335E-03 
2154	 1.31928938032197E-03 
2155	 1.36281910883638E-03 
2156	 2.08497149642721E-03 
2157	 1.70551926327321E-03 
2158	 3.65151674110411E-04 
2159	 3.20361912530943E-06 
2160	-4.11947250633655E-04 
2161	-8.76885747959647E-04 
2162	-9.0078156741882E-04 
2163	-1.08694909673149E-03 
2164	-1.91007576684929E-03 
2165	-1.83248672116986E-03 
2166	-5.81167450923758E-04 
2167	 9.32099995480208E-05 
2168	-7.42131842270224E-05 
2169	 7.17528304474897E-04 
2170	 2.10910791767831E-03 
2171	 3.66432641157196E-03 
2172	 3.79717348701864E-03 
2173	 4.30819881601494E-03 
2174	 3.61840254336686E-03 
2175	 2.36470337100927E-03 
2176	 2.53092628206033E-03 
2177	 2.77257494690257E-03 
2178	 2.65344220513804E-03 
2179	 2.26051604508595E-03 
2180	 1.40569672884014E-03 
2181	 9.5427597348386E-04 
2182	 7.55279084064838E-04 
2183	 1.49904001754975E-03 
2184	 2.33968102600388E-03 
2185	 2.60874683989781E-03 
2186	 2.72253397121113E-03 
2187	 1.81172547134494E-03 
2188	 1.90637662362012E-03 
2189	 2.64001451083773E-03 
2190	 2.5661467086868E-03 
2191	 2.56485607661364E-03 
2192	 2.98561865764157E-03 
2193	 3.68581032830717E-03 
2194	 2.83836422702905E-03 
2195	 8.44803292747329E-04 
2196	 2.5479052179406E-04 
2197	-1.41453397817205E-03 
2198	-2.09112042811145E-03 
2199	-6.394775693849E-04 
2200	 8.54285470435326E-04 
2201	 1.04329001543461E-04 
2202	 6.64482558926483E-04 
2203	 3.59470678431393E-03 
2204	 4.13301616442831E-03 
2205	 1.59826609944217E-03 
2206	 4.61671638570622E-04 
2207	-3.04497821487651E-04 
2208	-1.1961571092715E-03 
2209	 2.05570083077582E-03 
2210	 5.2166667007756E-03 
2211	 3.62496844661196E-03 
2212	 1.82495834418366E-03 
2213	 1.92648965884327E-03 
2214	 1.65269113541846E-03 
2215	 1.58444531052546E-04 
2216	-9.77640137693651E-04 
2217	-1.0753100176298E-03 
2218	-2.55674512226288E-03 
2219	-3.45885399466257E-03 
2220	-2.31302713146676E-03 
2221	-1.32357401438572E-03 
2222	-1.57010011408285E-03 
2223	-8.35373805001171E-04 
2224	 3.37934177149443E-03 
2225	 3.44699664261015E-03 
2226	-3.25872669665817E-04 
2227	-9.69636427399581E-04 
2228	-1.8140406339027E-03 
2229	-2.2706231430649E-03 
2230	-8.30328470704998E-04 
2231	-4.7243012333072E-04 
2232	-1.09591562028754E-03 
2233	-1.33512908576899E-03 
2234	-1.61286299350016E-03 
2235	-5.45505599200317E-04 
2236	 5.10793123056257E-04 
2237	 1.48264780528221E-03 
2238	 1.30312483250737E-03 
2239	 4.71179368905655E-04 
2240	-3.37798399030505E-04 
2241	-0.002211432639308 
2242	-2.30061109599743E-03 
2243	 2.8832741441955E-04 
2244	 2.0645090992408E-03 
2245	 2.51854802773146E-03 
2246	 2.8110230806818E-03 
2247	 4.15107296399067E-03 
2248	 2.75122836480997E-03 
2249	-9.54451746122644E-04 
2250	-1.07281997862545E-03 
2251	-2.6917870950827E-03 
2252	-3.75003439051422E-03 
2253	-2.97511350520718E-04 
2254	 9.08821907436919E-04 
2255	 1.00643984034077E-03 
2256	 2.85804228952281E-04 
2257	-1.95645130893002E-03 
2258	-1.66880233752997E-03 
2259	-3.01771451824646E-04 
2260	-1.42793524701908E-04 
2261	 2.15738309856504E-03 
2262	 2.17969020347549E-03 
2263	-1.63184036346771E-03 
2264	-2.83692747692755E-03 
2265	-3.37606471454442E-03 
2266	-2.98526562139704E-03 
2267	-4.47447493210438E-04 
2268	 2.02206996645291E-04 
2269	 8.76742404398078E-04 
2270	 9.15764509600724E-04 
2271	-1.21862894595372E-03 
2272	-1.53625237409132E-03 
2273	-1.26120733162056E-03 
2274	-5.05929781921189E-04 
2275	 2.42841227919292E-03 
2276	 2.57415576145286E-03 
2277	 8.15390720369342E-04 
2278	 9.54290837815437E-04 
2279	 1.40419534786057E-03 
2280	 5.37054271692963E-04 
2281	 3.6213187802947E-04 
2282	-1.23187625353916E-03 
2283	-3.21459838569195E-03 
2284	-2.23750618992608E-03 
2285	 1.03728749057778E-03 
2286	 3.84189871657679E-03 
2287	 5.05285813294577E-03 
2288	 3.50681069840866E-03 
2289	 2.24715538364409E-03 
2290	 4.28642144982772E-03 
2291	 4.30145029852516E-03 
2292	 2.0374806947692E-03 
2293	 3.99618940177018E-03 
2294	 3.89474996155174E-03 
2295	 2.37816536151901E-03 
2296	 4.18343586811656E-03 
2297	 3.58240794486937E-03 
2298	 8.42475291697229E-04 
2299	-1.53142467492728E-03 
2300	-1.99709159491184E-03 
2301	-3.25163147099055E-03 
2302	-6.04950815565516E-03 
2303	-4.82585262143933E-03 
2304	-2.52180898026671E-03 
2305	-3.89102332677359E-03 
2306	-3.35701639650346E-03 
2307	 6.73747655143827E-04 
2308	 9.54001231087381E-04 
2309	-1.60656524640593E-03 
2310	-2.92705356513209E-03 
2311	-5.5082588373394E-03 
2312	-5.82766833570324E-03 
2313	 1.81357256037226E-04 
2314	 4.58657266130223E-03 
2315	 6.06577328296266E-03 
2316	 6.20696876342164E-03 
2317	 2.10486264912385E-03 
2318	 5.24420639008832E-04 
2319	 5.20708695686946E-04 
2320	-4.32456093556415E-04 
2321	-2.55815695068422E-03 
2322	-9.81354967871394E-03 
2323	-1.35367348379411E-02 
2324	-1.24172784320364E-02 
2325	-8.6671530011338E-03 
2326	-1.9089582534476E-03 
2327	 1.29508265754104E-03 
2328	 1.05020953810229E-03 
2329	-2.1955067933546E-03 
2330	-3.21309665616958E-03 
2331	-1.34334054589465E-04 
2332	-7.07672007479719E-04 
2333	-2.97704812708758E-03 
2334	-1.04956147032035E-03 
2335	 2.73969608987261E-03 
2336	 5.24390216469309E-03 
2337	 9.57734120760323E-03 
2338	 1.01921022567023E-02 
2339	 2.71417525329096E-03 
2340	-2.25699821499793E-03 
2341	 1.31557285771102E-03 
2342	 3.07717799259107E-03 
2343	 2.1805075113146E-03 
2344	 2.46623490587331E-03 
2345	 9.31323615970677E-04 
2346	 5.49403476813113E-03 
2347	 6.60600669855412E-03 
2348	 2.82978378973125E-03 
2349	 8.81561175608329E-03 
2350	 1.06748477623819E-02 
2351	 4.59798605079475E-03 
2352	 5.73958898101789E-03 
2353	 8.80222396832785E-04 
2354	-1.04692794120064E-02 
2355	-3.48001927389074E-03 
2356	 5.52089937057453E-03 
2357	-3.93675823490104E-04 
2358	-5.14975462116519E-03 
2359	-6.74970062806965E-03 
2360	-9.54202226956142E-03 
2361	-5.25490285283471E-03 
2362	-3.00090266432648E-03 
2363	-1.03083829542934E-02 
2364	-1.17821117433222E-02 
2365	-1.70013822391627E-02 
2366	-3.05708973130747E-02 
2367	-2.02963614351083E-02 
2368	-4.48985954232474E-03 
2369	-1.69024268980975E-03 
2370	 2.11159590603205E-03 
2371	-4.7645596245213E-04 
2372	-1.35747843900561E-03 
2373	-7.9800587179147E-03 
2374	-3.81463362177397E-03 
2375	 1.11640326432563E-02 
2376	-8.9825099270406E-03 
2377	-9.83302986620947E-03 
2378	 1.22845823161609E-02 
2379	 1.24052744620899E-03 
2380	-1.27181995456181E-02 
2381	-1.25798571785652E-02 
2382	-1.63287845642599E-02 
2383	-2.18531775793319E-02 
2384	-2.06716599035404E-02 
2385	-3.46019458899378E-02 
2386	-5.01495726057904E-02 
2387	-4.16362004226808E-02 
2388	-5.23630017543549E-02 
2389	-0.07201941903594 
2390	-8.38582062926975E-02 
2391	-9.08377315514319E-02 
2392	-5.26456575907842E-02 
2393	-3.24896035471283E-04 
2394	 2.12763325298675E-02 
2395	 1.66211616294883E-02 
2396	 7.67187026373806E-03 
2397	 1.58622624172431E-02 
2398	 2.03884206708078E-02 
2399	 0.012786108383504 
2400	 0.002814555529653 
2401	-6.17571573958079E-04 
2402	 8.57739559697582E-03 
2403	 2.97795039098239E-02 
2404	 1.99982981759752E-02 
2405	-1.53603846312208E-02 
2406	-2.85179023536079E-02 
2407	-6.89830248120658E-02 
2408	-8.34527669336522E-02 
2409	-5.14319863424511E-02 
2410	-0.103462123142956 
2411	-0.126734807599686 
2412	-0.108366198398929 
2413	-0.221567222132007 
2414	-0.295797497701554 
2415	-0.188743056398915 
2416	-0.115362246637143 
2417	-1.74553656843058E-03 
2418	 2.34308997788748E-02 
2419	-0.184250816628083 
2420	-0.216230265248555 
2421	-0.205152084639962 
2422	-0.163801265354571 
2423	-1.28570337749621E-03 
2424	 2.12689574492007E-02 
2425	 1.51868526984224E-02 
2426	 9.64424270918324E-02 
2427	 0.139015563093918 
2428	 8.55866095569707E-02 
2429	-0.015710359603548 
2430	-0.101650750804443 
2431	-0.190230695856895 
2432	-0.283708044080996 
2433	-0.259059163381651 
2434	-0.13816720396016 
2435	-6.28229365928066E-02 
2436	 2.41254224495243E-02 
2437	 4.88950330575954E-02 
2438	-3.10375809303398E-02 
2439	-5.92355937850561E-02 
2440	 5.21757931071013E-02 
2441	 0.243870403910552 
2442	 0.392068705544044 
2443	 0.392960246103448 
2444	 0.276812784649167 
2445	 7.65034237204837E-02 
2446	-0.079040228508877 
2447	-0.36032712443392 
2448	-0.297009638766365 
2449	 0.323398856603269 
2450	 0.485635283230877 
2451	 0.44372482443314 
2452	-2.70647786807929E-02 
2453	-1.18594313866511 
2454	-0.702259184073491 
2455	-0.823103964535306 
2456	-0.396545590836685 
2457	 5.15888123372643E-02 
2458	 0.051974602378827 
2459	-0.281508601451068 
2460	-0.130589389026618 
2461	-0.276985842125564 
2462	-0.787317584358552 
2463	-0.320277688814813 
2464	-5.40163510314312E-03 
2465	 6.39835391310678E-02 
2466	 0.174775619008903 
2467	 0.05244732444702 
2468	 3.65123869541977E-02 
2469	 0.267698746461728 
2470	 0.964391793661853 
2471	 0.971161169848157 
2472	 0.387991263082446 
2473	 0.555546446781874 
2474	 0.267890830681389 
2475	-0.309122847015167 
2476	-3.79692710784643 
2477	-1.1219288691811 
2478	 1.19081571706912 
2479	 1.62534580579766 
2480	-1.4612357331714 
2481	-0.734430486684821 
2482	-0.840293018302661 
2483	-0.661820291697397 
2484	-0.101116719558263 
2485	 0.454041007749525 
2486	 0.720256011006427 
2487	 1.42456569691079 
2488	-20.7983990274757 
2489	-2.53657431436936 
2490	-1.9620922751848 
2491	 0.145782217236325 
2492	 0.151774777102986 
2493	-2.43191374577073 
2494	-0.332548318761188 
2495	 0.13542833118118 
2496	 0.482308122487257 
2497	-7.19799282740945 
2498	-0.663648934373271 
2499	-0.137786918667888 
2500	-2.77164871546811 
