Wavelength	rt0716a00007.asd
350	 6.22877448764644E-02 
351	 6.23099871233795E-02 
352	 6.14892075631828E-02 
353	 6.07984275468625E-02 
354	 6.07920211006918E-02 
355	 6.10069962177363E-02 
356	 6.12300362950271E-02 
357	 6.10940382666559E-02 
358	 6.05537289251155E-02 
359	 6.08967113257932E-02 
360	 6.12137922052289E-02 
361	 6.13449198361149E-02 
362	 6.16338286961735E-02 
363	 6.15836244358243E-02 
364	 6.13841556885595E-02 
365	 6.11311550130024E-02 
366	 6.06273348784615E-02 
367	 6.07078908560619E-02 
368	 6.10889163557997E-02 
369	 0.061224422928294 
370	 6.07430012731588E-02 
371	 6.07885669361963E-02 
372	 6.09860027489368E-02 
373	 6.03295039316582E-02 
374	 0.060687065523649 
375	 6.08998559691871E-02 
376	 6.06516412801214E-02 
377	 6.11454485542207E-02 
378	 6.06312346804887E-02 
379	 0.060347339997449 
380	 6.12179755022158E-02 
381	 6.10372952386706E-02 
382	 6.10193646526877E-02 
383	 6.11451860238463E-02 
384	 6.09715242408306E-02 
385	 6.14317494583133E-02 
386	 6.16483426134972E-02 
387	 6.13727509778144E-02 
388	 6.12023714762159E-02 
389	 6.13598164199105E-02 
390	 0.061492088588859 
391	 0.06150440739217 
392	 6.23215015563413E-02 
393	 6.23214556235107E-02 
394	 6.18883573833669E-02 
395	 0.061936101100539 
396	 6.18270949983475E-02 
397	 6.17099272337942E-02 
398	 6.17686514966539E-02 
399	 6.21336915950491E-02 
400	 6.19513917187715E-02 
401	 6.18143304996663E-02 
402	 6.21142682824997E-02 
403	 6.23720958840568E-02 
404	 6.22477911064225E-02 
405	 6.20423699174224E-02 
406	 6.21749268695536E-02 
407	 0.062159955670995 
408	 0.062209596088615 
409	 6.23511713625822E-02 
410	 6.23981301865677E-02 
411	 6.22882496940656E-02 
412	 6.22320241539989E-02 
413	 6.23715707704793E-02 
414	 0.062602716575726 
415	 6.27305952447033E-02 
416	 6.27194579043169E-02 
417	 6.26630042968232E-02 
418	 6.29288957845661E-02 
419	 6.31591842713437E-02 
420	 6.32346099461968E-02 
421	 6.33449394008191E-02 
422	 6.35481898757732E-02 
423	 0.063778057414845 
424	 6.39671094571349E-02 
425	 6.41241537897034E-02 
426	 6.43247454289217E-02 
427	 6.45863419804039E-02 
428	 6.48905733555579E-02 
429	 6.52232916299421E-02 
430	 6.55194162637516E-02 
431	 6.58219994525304E-02 
432	 6.62997328847187E-02 
433	 6.66833289868232E-02 
434	 6.69615936691157E-02 
435	 6.71924406005803E-02 
436	 6.74231394520276E-02 
437	 6.77913613124642E-02 
438	 6.82133837392066E-02 
439	 6.84953070857895E-02 
440	 6.86543367960454E-02 
441	 6.88682816615087E-02 
442	 6.91718432237701E-02 
443	 6.93682938376111E-02 
444	 6.95629925931761E-02 
445	 6.97526540409794E-02 
446	 6.99224765704028E-02 
447	 7.01274553244128E-02 
448	 0.070307786727756 
449	 7.04424325605044E-02 
450	 7.05479467544278E-02 
451	 7.07061313763013E-02 
452	 7.08079883295395E-02 
453	 7.08114913139745E-02 
454	 7.08679179319487E-02 
455	 7.08435394080934E-02 
456	 7.08353496597935E-02 
457	 7.09507946817772E-02 
458	 7.08999555358395E-02 
459	 7.08794077822358E-02 
460	 0.070952176190929 
461	 7.10221076144422E-02 
462	 7.10445322341547E-02 
463	 7.10569139154956E-02 
464	 7.10785034197503E-02 
465	 0.071009438410005 
466	 7.10551934016531E-02 
467	 7.11390900740365E-02 
468	 7.10797015914603E-02 
469	 7.10533925905202E-02 
470	 7.10796833304774E-02 
471	 7.11376822442779E-02 
472	 7.11738589482119E-02 
473	 7.12097856128111E-02 
474	 7.12611501516526E-02 
475	 7.13381043550545E-02 
476	 7.14484341035536E-02 
477	 7.14447327355661E-02 
478	 7.14382196872427E-02 
479	 7.16729660754878E-02 
480	 7.17559323467086E-02 
481	 0.071867462837403 
482	 7.21232276740257E-02 
483	 0.072360354320075 
484	 0.072512699269619 
485	 7.26929639567963E-02 
486	 7.30076992436886E-02 
487	 7.31114087182049E-02 
488	 7.32957319862691E-02 
489	 7.35993513923559E-02 
490	 7.37992640110025E-02 
491	 7.40916031343381E-02 
492	 7.44079057702099E-02 
493	 7.47101134768051E-02 
494	 7.52139150801691E-02 
495	 7.55512807030498E-02 
496	 7.57854188298213E-02 
497	 7.61727114163353E-02 
498	 7.65534422591521E-02 
499	 7.68841248733867E-02 
500	 7.71936612070667E-02 
501	 7.76032336996813E-02 
502	 7.80083764771789E-02 
503	 7.83720708996299E-02 
504	 7.87120034205271E-02 
505	 7.91771260609428E-02 
506	 7.95788899005082E-02 
507	 7.99267253687409E-02 
508	 8.03825286969913E-02 
509	 8.08444738414771E-02 
510	 8.13052597466534E-02 
511	 8.17729179013209E-02 
512	 8.22532896914279E-02 
513	 8.28062606149163E-02 
514	 8.33815180198312E-02 
515	 8.38892367716689E-02 
516	 8.43903256515662E-02 
517	 8.48959079381537E-02 
518	 8.54308928635722E-02 
519	 8.60401640605208E-02 
520	 8.66959400315455E-02 
521	 8.73824376376078E-02 
522	 8.80778902649464E-02 
523	 8.87072726297012E-02 
524	 8.93708277107721E-02 
525	 9.01112246648573E-02 
526	 9.09202953277627E-02 
527	 9.16919490545126E-02 
528	 9.24925884618223E-02 
529	 9.33364084716032E-02 
530	 9.40840381740245E-02 
531	 9.48350024883885E-02 
532	 9.56976983541126E-02 
533	 9.67196780816609E-02 
534	 9.75810151464379E-02 
535	 9.85349121996908E-02 
536	 9.95943749464882E-02 
537	 0.100460768995597 
538	 0.101453853383244 
539	 0.102505494695221 
540	 0.103494442526367 
541	 0.104436808284181 
542	 0.105425236500374 
543	 0.106431901903319 
544	 0.107370994465593 
545	 0.108363474961853 
546	 0.109367617816815 
547	 0.110348664103695 
548	 0.111329625875783 
549	 0.112309029670938 
550	 0.113252777078342 
551	 0.114135737413477 
552	 0.115039647323479 
553	 0.115963123966235 
554	 0.116879427444303 
555	 0.117739216331592 
556	 0.118723747779869 
557	 0.119680513829785 
558	 0.120481370004161 
559	 0.1213825631867 
560	 0.122291313281173 
561	 0.123165079183328 
562	 0.123999497473496 
563	 0.124797342275276 
564	 0.12559938253709 
565	 0.126412743478578 
566	 0.127173411341789 
567	 0.12792660084562 
568	 0.128676578550791 
569	 0.129406693695163 
570	 0.130088384187309 
571	 0.130737381203527 
572	 0.131363952385497 
573	 0.131967426585804 
574	 0.132510095828441 
575	 0.13315529594131 
576	 0.133948148579918 
577	 0.134420213833375 
578	 0.134957643674616 
579	 0.135598823757985 
580	 0.136168239520021 
581	 0.136676606868517 
582	 0.137131266829749 
583	 0.13757088484557 
584	 0.13809351187126 
585	 0.13851570208416 
586	 0.138840125109703 
587	 0.139147641034627 
588	 0.13950220001291 
589	 0.139917418975975 
590	 0.140333275944489 
591	 0.140660908532636 
592	 0.140944482216059 
593	 0.141282305652583 
594	 0.141702002069279 
595	 0.142016413732378 
596	 0.142325070191169 
597	 0.142614990928408 
598	 0.142824135580529 
599	 0.143067427479998 
600	 0.143365008820721 
601	 0.143697291054168 
602	 0.144011170632525 
603	 0.144157868669364 
604	 0.14430326744571 
605	 0.144624600328186 
606	 0.144783958307877 
607	 0.144940542711216 
608	 0.14516924646403 
609	 0.145427681691003 
610	 0.14556751367186 
611	 0.145709158331869 
612	 0.145948526242969 
613	 0.146132062229456 
614	 0.146316608150303 
615	 0.146467416110589 
616	 0.146535431545662 
617	 0.146817358207315 
618	 0.147064546735436 
619	 0.147153551329272 
620	 0.147243485988293 
621	 0.147376213923052 
622	 0.147543691118021 
623	 0.147723266932918 
624	 0.147961248361874 
625	 0.148102627628388 
626	 0.148145102230661 
627	 0.148237361485764 
628	 0.148426814163368 
629	 0.148646069064176 
630	 0.148826715064768 
631	 0.148958569104611 
632	 0.149097800056551 
633	 0.149230896599503 
634	 0.149333388211104 
635	 0.149567465702777 
636	 0.149819865938199 
637	 0.150014535652227 
638	 0.150167996897336 
639	 0.150337920271849 
640	 0.150452691799694 
641	 0.150474942211888 
642	 0.150670721087335 
643	 0.150809670410535 
644	 0.150873806510345 
645	 0.151018092509233 
646	 0.151148850211972 
647	 0.151238111612628 
648	 0.151313364670459 
649	 0.151523304206922 
650	 0.151605929455955 
651	 0.151663552372782 
652	 0.151877528720865 
653	 0.151976356888005 
654	 0.152065990674824 
655	 0.152183616424918 
656	 0.152229934612013 
657	 0.152375761033769 
658	 0.152526762572461 
659	 0.152590000809571 
660	 0.152611878530146 
661	 0.152661459227333 
662	 0.152760155144997 
663	 0.15288804882473 
664	 0.152969237565127 
665	 0.153052568266207 
666	 0.153164872326087 
667	 0.153268223283349 
668	 0.153235603154092 
669	 0.153286060193128 
670	 0.153626292159268 
671	 0.153800822599939 
672	 0.153914469912815 
673	 0.154033697637678 
674	 0.154165577404754 
675	 0.154357350392485 
676	 0.154539704328391 
677	 0.154684928956654 
678	 0.154932267907126 
679	 0.155138415294061 
680	 0.155324281199917 
681	 0.155577324155268 
682	 0.155879270038813 
683	 0.156182431874663 
684	 0.15645560131833 
685	 0.156717753375372 
686	 0.15692441557002 
687	 0.157177245501123 
688	 0.157542768537078 
689	 0.157891923970016 
690	 0.158099439756209 
691	 0.158235087439943 
692	 0.158488215627853 
693	 0.158914083691943 
694	 0.159187870154438 
695	 0.159285219270331 
696	 0.159750591487171 
697	 0.160053020300703 
698	 0.160126026801254 
699	 0.160087220503715 
700	 0.160326411076752 
701	 0.160617629311319 
702	 0.160824903469372 
703	 0.160942104397668 
704	 0.161136155569994 
705	 0.16127162719097 
706	 0.161314208813176 
707	 0.161574670833539 
708	 0.161760056142196 
709	 0.161821001250036 
710	 0.161825639597064 
711	 0.161953952643247 
712	 0.16203056079074 
713	 0.16197010104645 
714	 0.16180539552476 
715	 0.161701735345403 
716	 0.161655748384438 
717	 0.161615915973063 
718	 0.161482977779921 
719	 0.161468374543398 
720	 0.161469102514576 
721	 0.161334287574702 
722	 0.161276568118026 
723	 0.161149032618865 
724	 0.160943603661434 
725	 0.160856020874177 
726	 0.160746322939215 
727	 0.160555024643416 
728	 0.160269172975781 
729	 0.159954311206777 
730	 0.159535955465308 
731	 0.15916301481707 
732	 0.158974090513178 
733	 0.158674298186013 
734	 0.158416251809982 
735	 0.15824169022155 
736	 0.158010924413375 
737	 0.157984572232997 
738	 0.157971219410944 
739	 0.157851376242446 
740	 0.15806039114207 
741	 0.158218227074149 
742	 0.158265325488039 
743	 0.158332077415344 
744	 0.158552203575917 
745	 0.158731308470197 
746	 0.158790700567087 
747	 0.15885345716491 
748	 0.158919562680297 
749	 0.159050476918225 
750	 0.159267391894949 
751	 0.159445317807378 
752	 0.159535062607774 
753	 0.159596914781452 
754	 0.159742430492034 
755	 0.159952182192264 
756	 0.160055673896854 
757	 0.160002613214908 
758	 0.159894131558094 
759	 0.159638670153681 
760	 0.159459536698437 
761	 0.159714168797173 
762	 0.159975101571423 
763	 0.160136959486935 
764	 0.160363480082737 
765	 0.160788286735281 
766	 0.161098153527791 
767	 0.161275893249921 
768	 0.161392161270254 
769	 0.161576918184829 
770	 0.16164436192069 
771	 0.161768712184965 
772	 0.162024667769714 
773	 0.162012563581759 
774	 0.162101067146916 
775	 0.162299634626028 
776	 0.16247469209849 
777	 0.162663486278733 
778	 0.162848486119603 
779	 0.163013325875116 
780	 0.163150360844251 
781	 0.163303888155769 
782	 0.163458143724992 
783	 0.163591347780908 
784	 0.163693102924143 
785	 0.16380105096979 
786	 0.163944887035962 
787	 0.164132974057693 
788	 0.164303783210913 
789	 0.164398730866854 
790	 0.164429203260714 
791	 0.164481932037797 
792	 0.164788903424113 
793	 0.164985406504213 
794	 0.164934591692764 
795	 0.164988749217071 
796	 0.165131194979612 
797	 0.165312639811658 
798	 0.165455088966272 
799	 0.165418279103716 
800	 0.165458207121411 
801	 0.165613754098487 
802	 0.165775010962169 
803	 0.165827891240491 
804	 0.165844010194283 
805	 0.165857703579428 
806	 0.165841071474514 
807	 0.165809624100043 
808	 0.165744712808763 
809	 0.165648035807304 
810	 0.165598189441419 
811	 0.165430948676634 
812	 0.165221547115313 
813	 0.16515244766431 
814	 0.165290242630386 
815	 0.165201195741713 
816	 0.16488518182036 
817	 0.164712702815117 
818	 0.164517035104665 
819	 0.164311904533472 
820	 0.164059296604357 
821	 0.163647945831314 
822	 0.163220620780197 
823	 0.162924064951089 
824	 0.162665650995676 
825	 0.161777354152287 
826	 0.161270894202696 
827	 0.160804017198563 
828	 0.15977607037605 
829	 0.159211135156102 
830	 0.158472738887744 
831	 0.157690041150387 
832	 0.157496254620413 
833	 0.156950154523511 
834	 0.156471504935712 
835	 0.156283498603709 
836	 0.156153266878314 
837	 0.155806924963449 
838	 0.155458065821117 
839	 0.155279760250324 
840	 0.15505688217521 
841	 0.154750867928186 
842	 0.154469415034425 
843	 0.154317735318965 
844	 0.154072606255657 
845	 0.153976194508081 
846	 0.153965604943299 
847	 0.1537722898718 
848	 0.153390739238385 
849	 0.153086247665572 
850	 0.152995461362988 
851	 0.153024824264869 
852	 0.152770873482435 
853	 0.152560386514749 
854	 0.152550239295145 
855	 0.152189695884641 
856	 0.151950617732996 
857	 0.151834563694243 
858	 0.151685705604312 
859	 0.15125892387404 
860	 0.151177401760756 
861	 0.151306430917574 
862	 0.151161172309412 
863	 0.150783075112116 
864	 0.150572698552885 
865	 0.15057543193257 
866	 0.150481226635916 
867	 0.150232534759672 
868	 0.149999103537527 
869	 0.14982005975469 
870	 0.149530162105199 
871	 0.149367556418787 
872	 0.14927601048543 
873	 0.149117906241939 
874	 0.148719016160384 
875	 0.148420411716445 
876	 0.148348212228835 
877	 0.148380075268624 
878	 0.147823333435746 
879	 0.147425428673855 
880	 0.147265363083673 
881	 0.14707578115076 
882	 0.146763456368333 
883	 0.146326287780762 
884	 0.145999632708425 
885	 0.146070664157377 
886	 0.145820606592876 
887	 0.145372605938907 
888	 0.145072998882928 
889	 0.14530121788252 
890	 0.144719299654003 
891	 0.144161361400103 
892	 0.14421953741568 
893	 0.144242676823942 
894	 0.143841285068813 
895	 0.143289480655901 
896	 0.142965914606835 
897	 0.142716564213484 
898	 0.142691719408863 
899	 0.142581699731731 
900	 0.142164522199995 
901	 0.142061087607968 
902	 0.141384815492752 
903	 0.140875013414525 
904	 0.141387114422487 
905	 0.14125060207217 
906	 0.140526525296904 
907	 0.139834190533522 
908	 0.139980062718802 
909	 0.139684190730159 
910	 0.139513277158716 
911	 0.13929669728739 
912	 0.138265844948809 
913	 0.137919967181523 
914	 0.137565786107552 
915	 0.136855455428501 
916	 0.136181776939094 
917	 0.135911696726541 
918	 0.135088978635254 
919	 0.133875584704384 
920	 0.133945424250896 
921	 0.132772235786327 
922	 0.131519225382529 
923	 0.131083663918777 
924	 0.130299309448531 
925	 0.12927389759465 
926	 0.128907368668883 
927	 0.129276923815334 
928	 0.125966652279052 
929	 0.124350607241734 
930	 0.124035628660573 
931	 0.12143913954492 
932	 0.120023600343262 
933	 0.11671823758137 
934	 0.1134293357932 
935	 0.113123046596606 
936	 0.110671605094203 
937	 0.110553983027671 
938	 0.110651575765273 
939	 0.108418953630754 
940	 0.106948711364601 
941	 0.107194358623879 
942	 0.107478523163513 
943	 0.105109027476872 
944	 0.100558705811586 
945	 9.87292702273131E-02 
946	 9.88194814575588E-02 
947	 9.66350581743042E-02 
948	 0.091875415351639 
949	 9.25194202323955E-02 
950	 9.39399304947646E-02 
951	 8.70466167102163E-02 
952	 8.55718535644473E-02 
953	 8.44191222384214E-02 
954	 0.081951295492328 
955	 7.99648686053621E-02 
956	 7.96945951333387E-02 
957	 7.87583676090462E-02 
958	 7.70696575043392E-02 
959	 7.62062324025283E-02 
960	 7.63725231070752E-02 
961	 7.62981714260887E-02 
962	 7.57639799626535E-02 
963	 7.53028198322925E-02 
964	 7.44718220853955E-02 
965	 7.33045135038941E-02 
966	 7.26096724050488E-02 
967	 7.32488512387518E-02 
968	 7.25260606574951E-02 
969	 7.30695561333447E-02 
970	 7.42370095685061E-02 
971	 7.29211515237104E-02 
972	 7.28139665636505E-02 
973	 7.24531028664033E-02 
974	 7.21431834672941E-02 
975	 7.37912078380785E-02 
976	 7.36271885312881E-02 
977	 0.072438539821401 
978	 7.16679362529186E-02 
979	 7.23787742566392E-02 
980	 7.30312758477169E-02 
981	 7.42003524170252E-02 
982	 7.51471297098562E-02 
983	 7.44861725215985E-02 
984	 7.47433802583937E-02 
985	 7.52251583881448E-02 
986	 7.53230005330227E-02 
987	 7.49739222197445E-02 
988	 7.55242378014507E-02 
989	 7.54654914752698E-02 
990	 7.53132654043463E-02 
991	 7.67232789780815E-02 
992	 7.71335543567935E-02 
993	 7.76117859163462E-02 
994	 7.81691283064839E-02 
995	 7.81716473142662E-02 
996	 7.90068391655911E-02 
997	 7.94107296924535E-02 
998	 7.95488529017049E-02 
999	 8.03017652264476E-02 
1000	 8.05458547917305E-02 
1001	 8.22422919660125E-02 
1002	 8.27000421860087E-02 
1003	 8.31977794053156E-02 
1004	 8.39902879909411E-02 
1005	 8.46295659440028E-02 
1006	 8.52008235745281E-02 
1007	 8.58075959252522E-02 
1008	 8.65738455507949E-02 
1009	 8.72803175254321E-02 
1010	 8.82302228288181E-02 
1011	 8.93547159418369E-02 
1012	 9.01629255198391E-02 
1013	 9.11063836644379E-02 
1014	 9.19485020398626E-02 
1015	 9.26595789450838E-02 
1016	 9.34445787236607E-02 
1017	 9.42885409662265E-02 
1018	 9.50633477066051E-02 
1019	 9.57237909610506E-02 
1020	 9.64918263251512E-02 
1021	 9.72242045894066E-02 
1022	 9.81495357411151E-02 
1023	 9.89359129104691E-02 
1024	 9.99363294527823E-02 
1025	 0.10105513291264 
1026	 0.101967784817591 
1027	 0.102819947988951 
1028	 0.103660104302546 
1029	 0.104543225390788 
1030	 0.105140952208151 
1031	 0.106173863080467 
1032	 0.10779118047995 
1033	 0.10871615515515 
1034	 0.109469841323928 
1035	 0.110200249604738 
1036	 0.110382869316748 
1037	 0.110958795866874 
1038	 0.11177137987044 
1039	 0.112546879352264 
1040	 0.113727567576911 
1041	 0.114808301125798 
1042	 0.115819029179171 
1043	 0.117079576448098 
1044	 0.117900561440598 
1045	 0.118347899856467 
1046	 0.119006102640081 
1047	 0.11957763344723 
1048	 0.120206600422825 
1049	 0.120947921981958 
1050	 0.121548097140359 
1051	 0.122134837942886 
1052	 0.122612987633066 
1053	 0.122856011733129 
1054	 0.123301798837605 
1055	 0.123705408402559 
1056	 0.124216868745597 
1057	 0.124833774459258 
1058	 0.125756025328223 
1059	 0.126265848322662 
1060	 0.126771471635997 
1061	 0.127012211026103 
1062	 0.126754624564181 
1063	 0.126999837891619 
1064	 0.127361963446294 
1065	 0.127672051598907 
1066	 0.128386416513333 
1067	 0.128670554637554 
1068	 0.128556160107686 
1069	 0.128611859987721 
1070	 0.128571447716929 
1071	 0.128567018318551 
1072	 0.128518463001892 
1073	 0.128826283076773 
1074	 0.128639720241488 
1075	 0.128117143532488 
1076	 0.128059628849754 
1077	 0.127992852202981 
1078	 0.127948528468079 
1079	 0.128287022728288 
1080	 0.128376846329966 
1081	 0.128283835421404 
1082	 0.128164357519293 
1083	 0.128172967064642 
1084	 0.127851491732271 
1085	 0.127150440644358 
1086	 0.1266103549055 
1087	 0.125896078081449 
1088	 0.125355127321383 
1089	 0.125028382853546 
1090	 0.124550688288784 
1091	 0.124086943677063 
1092	 0.12356586514896 
1093	 0.123153732872113 
1094	 0.122813066726967 
1095	 0.122352343434739 
1096	 0.121964927024291 
1097	 0.121506699357166 
1098	 0.120753207461882 
1099	 0.120171627481406 
1100	 0.119928519541727 
1101	 0.119228401300162 
1102	 0.118012678642977 
1103	 0.117380085562773 
1104	 0.11691558404914 
1105	 0.11615203135174 
1106	 0.116043445429658 
1107	 0.11580236361264 
1108	 0.115227918506038 
1109	 0.114253792864023 
1110	 0.113620865179309 
1111	 0.113061034093293 
1112	 0.112736248168981 
1113	 0.113062850547013 
1114	 0.112596412473392 
1115	 0.111500969020553 
1116	 0.110720624579486 
1117	 0.108873157852013 
1118	 0.108277701178475 
1119	 0.11121576791257 
1120	 0.110855851591156 
1121	 0.108544357158866 
1122	 0.105679072017952 
1123	 9.84405888468087E-02 
1124	 9.68971228996299E-02 
1125	 9.95578493210696E-02 
1126	 0.095233202798575 
1127	 9.60993920809075E-02 
1128	 9.82038966454295E-02 
1129	 9.33176598791081E-02 
1130	 0.085463668038031 
1131	 8.33806787148016E-02 
1132	 7.87456622532041E-02 
1133	 7.70240294000072E-02 
1134	 8.28726233074582E-02 
1135	 8.13810842186674E-02 
1136	 7.29876488037103E-02 
1137	 7.15805154760745E-02 
1138	 0.072241535328163 
1139	 7.19365237544374E-02 
1140	 7.10330673048599E-02 
1141	 6.95910487796178E-02 
1142	 6.51107224190686E-02 
1143	 5.97468274757076E-02 
1144	 5.74084618023366E-02 
1145	 5.80181451114989E-02 
1146	 0.057703455266991 
1147	 5.49010538572865E-02 
1148	 5.18625767204315E-02 
1149	 5.02035882579774E-02 
1150	 4.85115686712616E-02 
1151	 4.64639804538575E-02 
1152	 4.58415740744371E-02 
1153	 0.046723786006133 
1154	 4.59433359898259E-02 
1155	 4.46571973689573E-02 
1156	 4.46941896442521E-02 
1157	 0.044071899949833 
1158	 0.042727319038836 
1159	 4.32173034638519E-02 
1160	 4.37687402083039E-02 
1161	 4.33167776994313E-02 
1162	 4.35581102324752E-02 
1163	 0.04396033550786 
1164	 4.36647196306618E-02 
1165	 4.34243549513414E-02 
1166	 4.34016281421962E-02 
1167	 4.29163081188388E-02 
1168	 4.23936084657541E-02 
1169	 4.27542005129892E-02 
1170	 4.32279643648533E-02 
1171	 4.31712104892727E-02 
1172	 4.29015961494287E-02 
1173	 4.26524410077338E-02 
1174	 4.19313015161713E-02 
1175	 4.16877457147533E-02 
1176	 4.21520058976852E-02 
1177	 4.23726236895041E-02 
1178	 4.22518596845024E-02 
1179	 0.042138454872866 
1180	 0.041682164354057 
1181	 4.13492237617272E-02 
1182	 4.17010753508686E-02 
1183	 4.19375162743673E-02 
1184	 4.18397665053835E-02 
1185	 4.16268658099813E-02 
1186	 4.15418540234257E-02 
1187	 4.16442747895891E-02 
1188	 4.15234932942716E-02 
1189	 4.14870837087158E-02 
1190	 4.15736547331125E-02 
1191	 4.14243565679116E-02 
1192	 4.12674038226888E-02 
1193	 4.10449011476957E-02 
1194	 4.10244629224744E-02 
1195	 4.10901523977374E-02 
1196	 4.12727116005378E-02 
1197	 4.15270114691582E-02 
1198	 4.15363181579863E-02 
1199	 0.041385002828766 
1200	 4.14240712395162E-02 
1201	 0.041467601619159 
1202	 4.16849943909401E-02 
1203	 4.20917108086539E-02 
1204	 4.19167396299574E-02 
1205	 4.16594503265688E-02 
1206	 4.19723329045901E-02 
1207	 0.042120048381093 
1208	 4.20860905782833E-02 
1209	 4.22842519973873E-02 
1210	 4.25042916260619E-02 
1211	 4.27460890483465E-02 
1212	 4.29418416753595E-02 
1213	 4.30978149179108E-02 
1214	 4.32791616850524E-02 
1215	 4.33092735190905E-02 
1216	 4.32612660938585E-02 
1217	 4.35398251122361E-02 
1218	 4.37620545526031E-02 
1219	 4.35730934209415E-02 
1220	 4.37008423358913E-02 
1221	 4.40506723627672E-02 
1222	 4.40269679735497E-02 
1223	 4.38685881699173E-02 
1224	 4.39571174963848E-02 
1225	 4.39963087599769E-02 
1226	 0.043870519298885 
1227	 4.41719986509314E-02 
1228	 4.44535521188622E-02 
1229	 4.43657123711903E-02 
1230	 4.46392087837927E-02 
1231	 4.50187408039995E-02 
1232	 4.50502001666643E-02 
1233	 4.51480271518842E-02 
1234	 4.54809466767609E-02 
1235	 0.045679796367181 
1236	 4.58865467874734E-02 
1237	 4.60066606650373E-02 
1238	 4.61176312112976E-02 
1239	 4.59889359848686E-02 
1240	 4.59827680660639E-02 
1241	 4.61899877646862E-02 
1242	 4.62005197425717E-02 
1243	 4.64195580899072E-02 
1244	 4.66777085019759E-02 
1245	 4.66225988983737E-02 
1246	 4.67527891084384E-02 
1247	 4.68899039534012E-02 
1248	 4.69234241661693E-02 
1249	 4.71948175357631E-02 
1250	 4.73038560554486E-02 
1251	 4.71727716554899E-02 
1252	 4.71879056965758E-02 
1253	 4.72765490333019E-02 
1254	 4.75191054002481E-02 
1255	 4.77676048524312E-02 
1256	 4.78881455737495E-02 
1257	 0.047791869335127 
1258	 4.78823972611492E-02 
1259	 4.79525383062321E-02 
1260	 4.80367346890896E-02 
1261	 4.83157541186228E-02 
1262	 4.84255782679984E-02 
1263	 4.84058971863364E-02 
1264	 4.84209553618645E-02 
1265	 4.83818174624193E-02 
1266	 4.82912035640633E-02 
1267	 4.82480627886961E-02 
1268	 4.81877246098968E-02 
1269	 4.84063255386258E-02 
1270	 4.84187034452202E-02 
1271	 4.80877004349188E-02 
1272	 4.80419756991501E-02 
1273	 4.79259017460298E-02 
1274	 4.76879508876388E-02 
1275	 4.77622735308577E-02 
1276	 4.79157071418922E-02 
1277	 4.77516509196952E-02 
1278	 4.74979882499649E-02 
1279	 4.74790723098264E-02 
1280	 4.74070519607874E-02 
1281	 4.71643704947813E-02 
1282	 4.70617963452698E-02 
1283	 4.68747049041407E-02 
1284	 4.62068178573729E-02 
1285	 4.59602689560432E-02 
1286	 0.046334050810816 
1287	 4.60894243459327E-02 
1288	 4.53549727562652E-02 
1289	 4.50833502826799E-02 
1290	 4.49098845857009E-02 
1291	 4.44572595582171E-02 
1292	 4.41082142232604E-02 
1293	 0.043939691414599 
1294	 4.34642775075695E-02 
1295	 4.29775740339269E-02 
1296	 4.27930312808095E-02 
1297	 4.26330120504778E-02 
1298	 4.22277510649254E-02 
1299	 0.041742880916168 
1300	 4.14966169353874E-02 
1301	 4.10681200344248E-02 
1302	 0.04044772350712 
1303	 4.01045044345853E-02 
1304	 3.95863680269547E-02 
1305	 3.88639631690926E-02 
1306	 3.83202901251083E-02 
1307	 3.77948529452594E-02 
1308	 3.73005467050829E-02 
1309	 0.03700396923225 
1310	 3.66363341232921E-02 
1311	 3.63515856102378E-02 
1312	 3.58068728363424E-02 
1313	 3.49581947677003E-02 
1314	 3.43031043311179E-02 
1315	 3.35651335811344E-02 
1316	 3.30080816291386E-02 
1317	 3.27843431916972E-02 
1318	 3.23232076117893E-02 
1319	 3.19254874246336E-02 
1320	 3.13785880391729E-02 
1321	 3.05778542915398E-02 
1322	 2.98136642025826E-02 
1323	 2.91858582438655E-02 
1324	 2.80715453198164E-02 
1325	 2.76031647209039E-02 
1326	 2.76390346884838E-02 
1327	 2.75207494289092E-02 
1328	 0.02733317085139 
1329	 2.70411890340462E-02 
1330	 2.64365785419084E-02 
1331	 2.52073038179959E-02 
1332	 2.46071736848629E-02 
1333	 2.47067084504641E-02 
1334	 0.023614968514516 
1335	 2.29936672676984E-02 
1336	 0.023271513665882 
1337	 2.32340999874493E-02 
1338	 0.022587694486095 
1339	 0.022169214889828 
1340	 2.21717311465083E-02 
1341	 2.18794284781211E-02 
1342	 2.10127181540708E-02 
1343	 2.05990180544793E-02 
1344	 2.10372583441025E-02 
1345	 0.020281904111436 
1346	 1.80337939683276E-02 
1347	 1.62615801753811E-02 
1348	 1.30286470418249E-02 
1349	 1.10440508330914E-02 
1350	 1.18368303838503E-02 
1351	 9.72289208016921E-03 
1352	 8.01165705415115E-03 
1353	 7.13191055872486E-03 
1354	-1.71416626336694E-03 
1355	 1.08924967941314E-02 
1356	 1.70048409387516E-02 
1357	-2.10580475747233E-02 
1358	-5.24072174533299E-02 
1359	-0.117176897599585 
1360	-6.61121767966993E-02 
1361	 2.78156638072394E-02 
1362	-0.138298803103229 
1363	-0.238565320450745 
1364	-0.200888143267265 
1365	-0.27151294951385 
1366	-0.209807115321526 
1367	-2.96563075018839E-02 
1368	 7.74606515260626E-03 
1369	-0.159924228024904 
1370	-0.167026222794115 
1371	-6.81057816666863E-02 
1372	-9.44119114786261E-02 
1373	-0.177468794594576 
1374	-0.245336244665423 
1375	-0.454478497118997 
1376	-0.412333400327348 
1377	-9.92646963085023E-02 
1378	-2.90847249275888E-02 
1379	-6.30052681082837E-04 
1380	 4.02489700710099E-02 
1381	-0.112466884828198 
1382	-0.236272666668778 
1383	-0.229057523139749 
1384	-0.234093945105866 
1385	-0.260275791225687 
1386	-0.281552993030183 
1387	-0.331688975849416 
1388	-0.281403130943712 
1389	-6.51673920660617E-02 
1390	-1.61874672550542E-02 
1391	-4.84816995778933E-02 
1392	 9.48281534603955E-02 
1393	 0.332200057357054 
1394	-8.25237221662207E-03 
1395	-0.289518190914142 
1396	-5.64368759439779E-02 
1397	-0.124000255494231 
1398	-0.357169656255801 
1399	-0.226610752076695 
1400	-0.03864528186708 
1401	-6.78603440237945E-02 
1402	 4.57924518733206E-02 
1403	-6.76860247603432E-02 
1404	-0.297379405826939 
1405	-0.344949730690363 
1406	-0.400757334840406 
1407	-0.332041552805017 
1408	-0.120271263260379 
1409	-9.61705470905598E-02 
1410	-0.095308091745443 
1411	-7.79683471189121E-02 
1412	-0.129723034650111 
1413	-8.04796981949962E-02 
1414	 0.100907375744651 
1415	 4.78858819674184E-02 
1416	-0.112075356775737 
1417	-0.110079403549248 
1418	-0.157918989068905 
1419	-0.13299335999637 
1420	 2.46516120887079E-02 
1421	 3.01547291736051E-02 
1422	-5.13818646537963E-02 
1423	-4.65573681071015E-02 
1424	-2.27320086834846E-02 
1425	-2.49116505197548E-02 
1426	-2.27900743192695E-02 
1427	-0.01406942990678 
1428	-1.38225863046259E-02 
1429	-1.04615024327461E-02 
1430	 1.16345111230566E-02 
1431	 1.56956400861022E-02 
1432	-4.47072089438594E-03 
1433	-4.96074051024691E-03 
1434	 1.19346378890523E-02 
1435	 9.72402626049901E-03 
1436	 4.25138285436147E-03 
1437	-2.13342167892414E-03 
1438	-1.51784805489393E-03 
1439	 1.01915837502845E-02 
1440	 1.25771159968648E-02 
1441	 1.00791441778124E-02 
1442	-3.94271091336468E-03 
1443	-0.016414051322518 
1444	-8.22345720240851E-03 
1445	-8.98056639150489E-04 
1446	 4.63870867922343E-03 
1447	 8.57017089115905E-03 
1448	 4.00546986353062E-03 
1449	 1.60042733856214E-03 
1450	 5.00745184879282E-03 
1451	 4.37214617544445E-03 
1452	 3.27547837789922E-03 
1453	 5.91553914411866E-03 
1454	 6.01639159382729E-03 
1455	 2.05892205829192E-03 
1456	 1.34722347331456E-03 
1457	 2.95892141718512E-03 
1458	 3.64354074519955E-03 
1459	 3.47914145138616E-03 
1460	 4.25484300553225E-03 
1461	 6.85012336280477E-03 
1462	 6.68369226714397E-03 
1463	 4.96850917879215E-03 
1464	 4.10066991237341E-03 
1465	 1.72714232605363E-03 
1466	 1.24995655232483E-03 
1467	 1.7641992181748E-03 
1468	 2.85581697730136E-03 
1469	 6.68171183376092E-03 
1470	 6.61628887438592E-03 
1471	 4.13956537743429E-03 
1472	 4.43809637569704E-03 
1473	 4.85482225631754E-03 
1474	 3.9828663413863E-03 
1475	 3.46175191835882E-03 
1476	 3.84255053116521E-03 
1477	 3.05601138500625E-03 
1478	 2.8799520083226E-03 
1479	 5.11149750524433E-03 
1480	 5.46065789584059E-03 
1481	 3.41038680461362E-03 
1482	 3.47716063037893E-03 
1483	 4.69267530111322E-03 
1484	 5.16255537776241E-03 
1485	 6.24152965165966E-03 
1486	 5.93276427094976E-03 
1487	 4.5793517059203E-03 
1488	 4.30926314999557E-03 
1489	 3.77188614664796E-03 
1490	 4.05567862791394E-03 
1491	 5.18113260207352E-03 
1492	 5.44399312066116E-03 
1493	 5.70797324503173E-03 
1494	 5.77942499881942E-03 
1495	 5.46326456366325E-03 
1496	 5.35448150679993E-03 
1497	 5.07994284713889E-03 
1498	 5.16043331175576E-03 
1499	 5.68026566056457E-03 
1500	 5.80847232083727E-03 
1501	 5.88915984881319E-03 
1502	 5.99809467829204E-03 
1503	 5.85332990258266E-03 
1504	 5.7735714474285E-03 
1505	 5.7608314056639E-03 
1506	 5.88099594601077E-03 
1507	 6.06715174878278E-03 
1508	 6.03672358708921E-03 
1509	 5.69139599838052E-03 
1510	 5.65486958937688E-03 
1511	 5.83272803876397E-03 
1512	 5.76315026538682E-03 
1513	 5.59901149000566E-03 
1514	 5.74718541680769E-03 
1515	 5.82384516691492E-03 
1516	 5.67204793760775E-03 
1517	 5.86370305918691E-03 
1518	 6.08067825813634E-03 
1519	 6.12797235345994E-03 
1520	 6.03139284494486E-03 
1521	 5.90762256586665E-03 
1522	 6.02293905605341E-03 
1523	 6.12447273838605E-03 
1524	 6.14540221839699E-03 
1525	 6.13207775047137E-03 
1526	 6.25840224685406E-03 
1527	 6.26336089309819E-03 
1528	 6.00956247756565E-03 
1529	 5.87816737405259E-03 
1530	 5.82142045729918E-03 
1531	 5.91738122093174E-03 
1532	 6.11972739832185E-03 
1533	 6.20903968889509E-03 
1534	 6.24454657279788E-03 
1535	 6.31084770747334E-03 
1536	 6.45854116631306E-03 
1537	 6.58413955132907E-03 
1538	 6.72161627356522E-03 
1539	 6.86326218972587E-03 
1540	 6.8041690337437E-03 
1541	 6.85806750509054E-03 
1542	 7.12639702576299E-03 
1543	 7.29135642089147E-03 
1544	 7.17194193987276E-03 
1545	 7.13978541377434E-03 
1546	 7.38476419860187E-03 
1547	 7.38162068135753E-03 
1548	 7.41698415173787E-03 
1549	 7.47654157396403E-03 
1550	 7.32590916866223E-03 
1551	 7.30721894074117E-03 
1552	 7.35752137844946E-03 
1553	 7.34870104071642E-03 
1554	 7.40377612513666E-03 
1555	 7.64180723194323E-03 
1556	 7.59153076580423E-03 
1557	 7.50893003019938E-03 
1558	 7.69236831469099E-03 
1559	 7.47991926783232E-03 
1560	 7.35315201869895E-03 
1561	 7.70344065623187E-03 
1562	 7.90519357463131E-03 
1563	 7.84624836641774E-03 
1564	 7.8739212499244E-03 
1565	 8.16409817725388E-03 
1566	 8.33979218166716E-03 
1567	 8.27527409014042E-03 
1568	 8.2004311941358E-03 
1569	 7.79326438195857E-03 
1570	 7.46651992247846E-03 
1571	 7.49138677400092E-03 
1572	 7.45653366271439E-03 
1573	 7.68854687443362E-03 
1574	 7.91703091016242E-03 
1575	 7.71881856543799E-03 
1576	 7.73350932108948E-03 
1577	 7.76859974890083E-03 
1578	 7.39688544942787E-03 
1579	 7.50935148605171E-03 
1580	 8.01197734287273E-03 
1581	 8.10074618424291E-03 
1582	 7.97551168607213E-03 
1583	 8.02347296118896E-03 
1584	 8.29358330527341E-03 
1585	 8.62000420225896E-03 
1586	 8.84302561265543E-03 
1587	 9.05643805746616E-03 
1588	 8.86659201970246E-03 
1589	 8.31024990482777E-03 
1590	 8.33086703774958E-03 
1591	 8.47828820888287E-03 
1592	 8.26488878686655E-03 
1593	 8.21576156124504E-03 
1594	 8.25731064047377E-03 
1595	 8.33242643110863E-03 
1596	 8.54907917714438E-03 
1597	 8.69237710795942E-03 
1598	 8.73829059459562E-03 
1599	 8.60223855771063E-03 
1600	 8.47217145106633E-03 
1601	 8.75382634825331E-03 
1602	 8.89903511369573E-03 
1603	 8.7498355255538E-03 
1604	 8.80292458367381E-03 
1605	 8.90016392706829E-03 
1606	 8.77937425955331E-03 
1607	 8.61670281010967E-03 
1608	 8.78078436156934E-03 
1609	 8.8788398599407E-03 
1610	 8.78066471197978E-03 
1611	 8.84850215029325E-03 
1612	 8.73222983126014E-03 
1613	 8.74828151927199E-03 
1614	 9.0540779655822E-03 
1615	 9.05232795309112E-03 
1616	 9.01194532697791E-03 
1617	 9.07186403099355E-03 
1618	 9.04470095099594E-03 
1619	 9.27262519309097E-03 
1620	 9.4674167888153E-03 
1621	 9.13563855824745E-03 
1622	 9.11690872308521E-03 
1623	 9.69711890005048E-03 
1624	 9.91105855505128E-03 
1625	 9.91148060523575E-03 
1626	 9.98267614252317E-03 
1627	 9.51543210283366E-03 
1628	 9.17699536720403E-03 
1629	 9.72203390624866E-03 
1630	 1.00428250313644E-02 
1631	 9.71840788081575E-03 
1632	 9.77429292520618E-03 
1633	 9.99637611100086E-03 
1634	 9.87189355456438E-03 
1635	 1.01007651887622E-02 
1636	 1.04476473575765E-02 
1637	 1.01976315799477E-02 
1638	 9.67803747435604E-03 
1639	 9.56664564385118E-03 
1640	 9.89005147677621E-03 
1641	 9.99444253170158E-03 
1642	 9.77910258326024E-03 
1643	 9.8303064911647E-03 
1644	 9.88812130243876E-03 
1645	 9.55194349180689E-03 
1646	 9.57449982848045E-03 
1647	 9.74246954785723E-03 
1648	 9.53259941235134E-03 
1649	 9.49116205358869E-03 
1650	 9.87757612633759E-03 
1651	 1.02135611897942E-02 
1652	 1.02972514328006E-02 
1653	 1.04930905559545E-02 
1654	 1.06916697572815E-02 
1655	 1.08919005463729E-02 
1656	 1.08464806941045E-02 
1657	 1.06205171132772E-02 
1658	 1.06311372483177E-02 
1659	 1.06307124388844E-02 
1660	 1.05865276376322E-02 
1661	 1.06708623075475E-02 
1662	 1.07611156028092E-02 
1663	 1.06386995310986E-02 
1664	 0.010508042920768 
1665	 1.06597061504451E-02 
1666	 1.07267568708509E-02 
1667	 1.05840581258798E-02 
1668	 1.00164193730679E-02 
1669	 1.00976907714637E-02 
1670	 1.02776381858037E-02 
1671	 9.94101712451128E-03 
1672	 1.01477642266492E-02 
1673	 1.05054615308652E-02 
1674	 1.01492400236583E-02 
1675	 9.82781661559083E-03 
1676	 1.00670034209804E-02 
1677	 1.01809340308394E-02 
1678	 1.00573339228262E-02 
1679	 1.02638921523413E-02 
1680	 1.02525849348084E-02 
1681	 9.96777441064505E-03 
1682	 1.02151204617324E-02 
1683	 0.010699119335567 
1684	 1.06777578841374E-02 
1685	 0.010532124699744 
1686	 1.06588442239133E-02 
1687	 1.03808638475763E-02 
1688	 1.01806220863868E-02 
1689	 1.03871279470127E-02 
1690	 0.010138155540236 
1691	 1.01326995854732E-02 
1692	 1.06907272291021E-02 
1693	 0.010761362345757 
1694	 1.02250369399819E-02 
1695	 9.97962343653285E-03 
1696	 1.02160804348252E-02 
1697	 1.02607546120924E-02 
1698	 1.04731781821254E-02 
1699	 1.06178937028553E-02 
1700	 1.00574401449593E-02 
1701	 1.00689183653312E-02 
1702	 1.05286993208467E-02 
1703	 1.04804320235325E-02 
1704	 1.03070045663521E-02 
1705	 9.84008025721657E-03 
1706	 9.35073708136589E-03 
1707	 9.58168689658799E-03 
1708	 1.02214354411326E-02 
1709	 0.010788481380686 
1710	 1.10159390544839E-02 
1711	 1.06983114089704E-02 
1712	 0.01023540863527 
1713	 1.03587207063842E-02 
1714	 1.04250791599921E-02 
1715	 1.08130988456868E-02 
1716	 1.04364677922577E-02 
1717	 9.87655011908727E-03 
1718	 9.91547717335865E-03 
1719	 9.74195554486635E-03 
1720	 9.50300982414356E-03 
1721	 9.76896613663725E-03 
1722	 1.00705826357112E-02 
1723	 1.04351591089156E-02 
1724	 1.03981495262236E-02 
1725	 1.04265431427853E-02 
1726	 1.04383732068031E-02 
1727	 9.70916537559094E-03 
1728	 9.54326506623849E-03 
1729	 9.74966570916165E-03 
1730	 9.25790178516903E-03 
1731	 8.75267796202746E-03 
1732	 9.09135436672272E-03 
1733	 9.32301006201614E-03 
1734	 8.76652419410254E-03 
1735	 8.71538304742562E-03 
1736	 8.6858313527328E-03 
1737	 7.96367489785193E-03 
1738	 8.41074664395072E-03 
1739	 9.35329849423807E-03 
1740	 9.07714020108582E-03 
1741	 9.05837939811526E-03 
1742	 9.02925384079141E-03 
1743	 7.82442735239793E-03 
1744	 7.59673905773486E-03 
1745	 8.52117963367442E-03 
1746	 0.008906778077493 
1747	 8.82568307793383E-03 
1748	 7.89069131601534E-03 
1749	 7.57168117110372E-03 
1750	 7.37971723474558E-03 
1751	 7.54535826546181E-03 
1752	 8.90394271424691E-03 
1753	 8.98504900946986E-03 
1754	 7.96374062040087E-03 
1755	 7.64781945503822E-03 
1756	 6.95847547529699E-03 
1757	 7.75759621987505E-03 
1758	 8.66366374488487E-03 
1759	 8.14789864663106E-03 
1760	 7.64505180634469E-03 
1761	 7.43382479056094E-03 
1762	 6.83121979477847E-03 
1763	 7.05574792011869E-03 
1764	 7.46003196769544E-03 
1765	 6.90370431388926E-03 
1766	 6.66405625120132E-03 
1767	 7.30476258246564E-03 
1768	 7.59129997669501E-03 
1769	 7.73351446152654E-03 
1770	 8.64181751752603E-03 
1771	 8.79725480717569E-03 
1772	 8.52475562704389E-03 
1773	 8.75786789555777E-03 
1774	 7.60959823463438E-03 
1775	 6.43350185422723E-03 
1776	 6.49593347761212E-03 
1777	 7.92594461159783E-03 
1778	 7.53036279144834E-03 
1779	 6.00432698817038E-03 
1780	 5.77083403924595E-03 
1781	 5.35185178924508E-03 
1782	 5.27291893166767E-03 
1783	 7.35564455765109E-03 
1784	 7.34323006885285E-03 
1785	 4.23135909771176E-03 
1786	 4.06592509569486E-03 
1787	 6.02493193204414E-03 
1788	 6.34353093787739E-03 
1789	 7.05923782154164E-03 
1790	 3.7927058034037E-03 
1791	 3.10386188641937E-03 
1792	 5.19590261756575E-03 
1793	 9.28363416662673E-03 
1794	 1.18234460612484E-02 
1795	 9.25112704813957E-03 
1796	 2.85546828535921E-03 
1797	-3.83302656801281E-03 
1798	-2.25734221016731E-03 
1799	 3.73182373496963E-03 
1800	 1.20819508762289E-02 
1801	 1.47138373876048E-02 
1802	 3.35533244823364E-03 
1803	-5.26796150712478E-03 
1804	-2.63416552144674E-02 
1805	-4.43286524283767E-02 
1806	-5.55850635694885E-02 
1807	-5.58850999909329E-02 
1808	-1.26088856446081E-02 
1809	 3.94037727450436E-03 
1810	 4.22258252928018E-02 
1811	 9.9897612114574E-03 
1812	-0.233667121730693 
1813	-0.276592549777209 
1814	-0.160772590180122 
1815	-0.113661473509568 
1816	 0.122946966020972 
1817	 7.25955853435394E-02 
1818	 8.74774244175761E-02 
1819	 0.208256863116544 
1820	 0.262439717946611 
1821	-0.736514179042089 
1822	-1.00267796855184 
1823	-0.409208987963838 
1824	-0.442070146049657 
1825	-0.266464274828758 
1826	-0.177758481032669 
1827	-1.17790323863568 
1828	-2.4456288788596 
1829	 0.37348955155933 
1830	 0.385797079620097 
1831	 1.16177050871965 
1832	 1.02930639278328 
1833	 0.317483289613435 
1834	 0.266974155084281 
1835	 0.469219083503786 
1836	 0.42947835681844 
1837	-0.121867987407003 
1838	-0.457306821960311 
1839	-1.50226536474928 
1840	-0.737390683970477 
1841	 1.06481205192868 
1842	-0.834791652648999 
1843	-1.15481170972206 
1844	-1.8169437421413 
1845	-2.54544794773158 
1846	 0.845692673925156 
1847	 0.497211401086626 
1848	 0.770092493572143 
1849	 0.737724401826172 
1850	 1.03464792459999 
1851	-2.26183969145606 
1852	-2.94696901443033 
1853	 6.56182849414638 
1854	-46.0699505882763 
1855	-5.87077030374025 
1856	-3.20066218360511 
1857	 0.304206464473949 
1858	 0.784179340896742 
1859	 2.79388151848885 
1860	-160.96198604084 
1861	-21.2811258524136 
1862	-0.450156507097732 
1863	-0.272895652333086 
1864	-1.02026081184886 
1865	-0.398082687079015 
1866	-0.341953102050579 
1867	-0.300536690611118 
1868	 2.69768407396623E-02 
1869	 0.137391379756553 
1870	 0.070002733097501 
1871	 1.46025936498631 
1872	 0.149180707414854 
1873	-2.42231041884787E-02 
1874	 2.31375717115601E-02 
1875	-0.674189745129298 
1876	-2.05073149149009 
1877	 0.307972694118136 
1878	 0.170734187993743 
1879	 0.208972089724327 
1880	 0.218516074800328 
1881	 0.543009121090597 
1882	 0.617444841134715 
1883	 3.92129349322658E-02 
1884	 0.90532886278105 
1885	 0.221637016123888 
1886	 0.195263020635936 
1887	 0.27533253816794 
1888	-0.301899991761558 
1889	-0.598953558600715 
1890	-0.401423203920224 
1891	-0.465851964154441 
1892	-1.0554653451012 
1893	-0.743524243100887 
1894	-0.163801820005216 
1895	 0.606805756523259 
1896	-0.495137049741006 
1897	-2.03638535528429 
1898	-0.698317099993606 
1899	 0.768001107503548 
1900	-0.057366686826933 
1901	-0.569625407093858 
1902	-0.527202877637167 
1903	 0.135279124848533 
1904	 1.73866685578273 
1905	 5.16434054998642 
1906	 0.880507795673957 
1907	 0.38055538954498 
1908	 3.66709647016171E-02 
1909	-2.66635972866783 
1910	 0.427934826616194 
1911	 0.348176019020651 
1912	 2.16913088116813 
1913	-6.4910847241646 
1914	-0.711956791679471 
1915	-0.346316557810909 
1916	-0.24458027842 
1917	 5.24671022448233E-02 
1918	 0.403540813894989 
1919	 1.46777123495403 
1920	 2.47499673849749 
1921	-1.73985832941562 
1922	-1.97138173114685 
1923	 83.5215769691148 
1924	-4.8552067276526 
1925	-8.82055176454891E-02 
1926	 1.82805499748953 
1927	 8.05773370235582 
1928	-117.953112558488 
1929	 122.593787982242 
1930	-43.663533827212 
1931	 182.513607168979 
1932	 3.34129961108791 
1933	 1.89512708895438 
1934	 1.78551800951071 
1935	 1.0192532766332 
1936	 0.706667197798564 
1937	 0.790336701446141 
1938	 0.614819460127937 
1939	 0.356463615350443 
1940	 0.255773717536828 
1941	 0.178056714233035 
1942	 1.48316984511539E-02 
1943	-0.146781774091086 
1944	-0.142092632204233 
1945	-7.09782597327599E-02 
1946	-1.59828174613707E-02 
1947	 2.97370872972987E-02 
1948	 2.63239438611606E-02 
1949	-1.48741691502108E-02 
1950	-3.21387927176355E-02 
1951	-6.38027673980553E-03 
1952	 1.34040987212385E-03 
1953	 7.92765378318905E-03 
1954	 9.83667743205252E-03 
1955	 4.11411869580918E-02 
1956	 3.02253685373778E-02 
1957	-3.09201114827664E-03 
1958	 4.63868750311142E-03 
1959	 6.43994256892562E-03 
1960	-3.1061665132529E-03 
1961	-2.11794760547426E-03 
1962	 3.18040349613854E-03 
1963	 1.86267000785163E-03 
1964	-1.52543469985802E-03 
1965	 3.55547354104864E-03 
1966	 5.48769938253857E-03 
1967	 6.13771637858368E-03 
1968	 2.82721357122869E-03 
1969	 5.32360424529511E-03 
1970	 0.00507218003518 
1971	 1.9141292334414E-03 
1972	 2.84142565959134E-03 
1973	 3.03065770506655E-03 
1974	 1.66086381995571E-03 
1975	 1.76775778897785E-03 
1976	 2.56686193186996E-03 
1977	 2.77360915043879E-03 
1978	 4.48813488297661E-03 
1979	 4.87408176710062E-03 
1980	 5.55225246694093E-03 
1981	 3.96812759979714E-03 
1982	 2.73725906949784E-03 
1983	 1.98228820261896E-03 
1984	 2.99677296955815E-03 
1985	 4.7101018758708E-03 
1986	 5.01702824968641E-03 
1987	 5.03906846046046E-03 
1988	 4.0337230425381E-03 
1989	 3.23882679541872E-03 
1990	 3.34923502721985E-03 
1991	 0.003372259229901 
1992	 3.97652799183882E-03 
1993	 3.81181683995283E-03 
1994	 3.36575416911212E-03 
1995	 2.8504310962078E-03 
1996	 2.18438461138607E-03 
1997	 3.47315022243096E-04 
1998	-2.49116147129775E-04 
1999	 9.15967621506901E-05 
2000	 4.66610698584106E-04 
2001	 1.26632365971313E-03 
2002	 1.71241045369368E-03 
2003	 1.24540271062336E-03 
2004	 2.504339998452E-04 
2005	-1.04981965273699E-03 
2006	-4.12715295106091E-03 
2007	-6.27709262933303E-03 
2008	-4.55532350901232E-03 
2009	-3.57754540136728E-03 
2010	-1.89747345901376E-03 
2011	-5.83779138390305E-04 
2012	 9.27610043743894E-04 
2013	 2.24919096058508E-03 
2014	 4.17620297268501E-03 
2015	 5.33028545082414E-03 
2016	 4.24063415460759E-03 
2017	 3.3409509111312E-03 
2018	 2.26737607840409E-03 
2019	 2.50785675937041E-03 
2020	 4.41363132333344E-03 
2021	 3.03457242908572E-03 
2022	 1.88534852931734E-03 
2023	 3.55304015400194E-03 
2024	 4.16528675308979E-03 
2025	 5.82946399627619E-03 
2026	 5.94329752553229E-03 
2027	 5.69915338797071E-03 
2028	 4.00999812776967E-03 
2029	 3.70566342855693E-03 
2030	 3.87395267770249E-03 
2031	 4.30519537836472E-03 
2032	 4.75636071868001E-03 
2033	 4.64388846788124E-03 
2034	 4.48421612384701E-03 
2035	 3.97123820705629E-03 
2036	 3.61602632516393E-03 
2037	 3.66825416414441E-03 
2038	 3.43210290132067E-03 
2039	 3.2424427755611E-03 
2040	 3.6687552135662E-03 
2041	 3.70582744727473E-03 
2042	 3.17229657977663E-03 
2043	 2.7104687328487E-03 
2044	 2.09330923131706E-03 
2045	 2.16005565564101E-03 
2046	 2.10658247100472E-03 
2047	 2.70835408053717E-03 
2048	 0.003686095497586 
2049	 4.01361335056269E-03 
2050	 4.09510836801328E-03 
2051	 3.21431795930772E-03 
2052	 1.49192694022346E-03 
2053	 5.30451766949761E-04 
2054	 2.05292928843667E-03 
2055	 4.42941791971305E-03 
2056	 4.54627384807866E-03 
2057	 4.61232079354461E-03 
2058	 4.65421722098045E-03 
2059	 1.45926179449295E-03 
2060	 3.7873839166309E-04 
2061	 5.83998656281762E-04 
2062	 3.07696443806067E-03 
2063	 2.88061329073033E-03 
2064	 2.94637426824896E-03 
2065	 4.60431727317576E-03 
2066	 4.60468169615229E-03 
2067	 5.08473228296222E-03 
2068	 5.39976135831382E-03 
2069	 5.13740501378121E-03 
2070	 4.7068209593044E-03 
2071	 4.55602456636856E-03 
2072	 5.04396273399626E-03 
2073	 5.00952991141999E-03 
2074	 5.10838996771902E-03 
2075	 5.14808582046863E-03 
2076	 4.85693470325888E-03 
2077	 4.46335018065423E-03 
2078	 3.77416879944423E-03 
2079	 3.54252030414838E-03 
2080	 3.3473606572079E-03 
2081	 3.23835171509802E-03 
2082	 3.37304541592145E-03 
2083	 4.07739942132717E-03 
2084	 3.73555336192032E-03 
2085	 3.49196778365222E-03 
2086	 4.30870542065909E-03 
2087	 4.38892885826636E-03 
2088	 4.25083265058599E-03 
2089	 4.62886434319779E-03 
2090	 4.63848360988901E-03 
2091	 4.68320640671529E-03 
2092	 4.49677101292314E-03 
2093	 4.00921685028893E-03 
2094	 4.03531624934549E-03 
2095	 4.26375033089633E-03 
2096	 4.02914253823545E-03 
2097	 4.07706949398139E-03 
2098	 4.32504300904801E-03 
2099	 4.22542557073307E-03 
2100	 4.05264849188697E-03 
2101	 4.52887491778048E-03 
2102	 5.14036219046817E-03 
2103	 5.26779526057599E-03 
2104	 4.62682814159798E-03 
2105	 4.1845646918957E-03 
2106	 3.89514985338195E-03 
2107	 4.12895043331916E-03 
2108	 5.17773330153885E-03 
2109	 5.7238882752635E-03 
2110	 5.17681739874575E-03 
2111	 4.18777217756665E-03 
2112	 3.55936810246847E-03 
2113	 3.37024818350573E-03 
2114	 3.98367492135748E-03 
2115	 4.27111260644675E-03 
2116	 4.56438450247822E-03 
2117	 4.93182524277588E-03 
2118	 5.58928727807207E-03 
2119	 5.59511183218867E-03 
2120	 5.52434337062584E-03 
2121	 5.16198201443675E-03 
2122	 4.46435235496077E-03 
2123	 4.60848621786297E-03 
2124	 4.49567384659909E-03 
2125	 4.81882984035389E-03 
2126	 5.63726803708915E-03 
2127	 5.50365413242727E-03 
2128	 5.26214361064122E-03 
2129	 5.08626156059606E-03 
2130	 4.30772187132344E-03 
2131	 3.52013789264688E-03 
2132	 4.08859166480139E-03 
2133	 4.82371723888354E-03 
2134	 4.4447174096103E-03 
2135	 2.82119518854955E-03 
2136	 3.09717326769451E-03 
2137	 3.49091293087468E-03 
2138	 4.0633200791428E-03 
2139	 6.7916165736619E-03 
2140	 7.5466141978913E-03 
2141	 0.006550187688553 
2142	 6.51725449422857E-03 
2143	 6.67270476668273E-03 
2144	 6.39871908476963E-03 
2145	 5.41561163596774E-03 
2146	 5.23169885051406E-03 
2147	 4.89786385818463E-03 
2148	 3.73307882162852E-03 
2149	 3.34428365459191E-03 
2150	 3.0465513881747E-03 
2151	 2.79574650251401E-03 
2152	 3.28618051930165E-03 
2153	 3.89339378180062E-03 
2154	 4.63179085977798E-03 
2155	 5.1283671353024E-03 
2156	 4.39342422111204E-03 
2157	 4.43203020885275E-03 
2158	 5.40816056072083E-03 
2159	 5.28543718936924E-03 
2160	 4.48497830024758E-03 
2161	 4.69500711304967E-03 
2162	 4.70125175417878E-03 
2163	 4.61631786269168E-03 
2164	 5.34356405296608E-03 
2165	 5.45042013350671E-03 
2166	 4.50707270999455E-03 
2167	 4.82602636106872E-03 
2168	 5.84262369520963E-03 
2169	 6.2618916395643E-03 
2170	 7.2073337700839E-03 
2171	 7.80634671599897E-03 
2172	 7.2092016018197E-03 
2173	 6.84888712662026E-03 
2174	 5.28447733635729E-03 
2175	 5.4824445480908E-03 
2176	 5.70121547680177E-03 
2177	 5.33987272137239E-03 
2178	 6.86461733611364E-03 
2179	 7.23928144067545E-03 
2180	 6.88749524754861E-03 
2181	 7.48474577703752E-03 
2182	 7.18709677107882E-03 
2183	 7.10201303713669E-03 
2184	 7.23501601761083E-03 
2185	 0.006543041776763 
2186	 6.6771388181649E-03 
2187	 6.44374359873843E-03 
2188	 6.9944022422773E-03 
2189	 9.4213983454095E-03 
2190	 1.02243075205785E-02 
2191	 1.07910034014916E-02 
2192	 1.10439945937989E-02 
2193	 1.01225759322483E-02 
2194	 9.22252406904484E-03 
2195	 7.90996222170388E-03 
2196	 7.38960310115872E-03 
2197	 6.63492384645263E-03 
2198	 6.58002652159547E-03 
2199	 8.39914509333539E-03 
2200	 7.88281794353594E-03 
2201	 7.62595092288266E-03 
2202	 6.91135901014591E-03 
2203	 3.5394190760078E-03 
2204	 3.28755804232317E-03 
2205	 5.4736177287025E-03 
2206	 6.37856211883221E-03 
2207	 7.23513044951607E-03 
2208	 8.57280010916638E-03 
2209	 7.40705816671412E-03 
2210	 5.26585713221542E-03 
2211	 5.57779622769794E-03 
2212	 5.68113658305877E-03 
2213	 5.43096730123398E-03 
2214	 5.61117855318932E-03 
2215	 5.50049553020721E-03 
2216	 5.22659699572578E-03 
2217	 5.01182573374359E-03 
2218	 5.05290134956206E-03 
2219	 4.33355090038301E-03 
2220	 2.67297743398293E-03 
2221	 2.34814637057192E-03 
2222	 2.26540781093504E-03 
2223	 1.77849647159547E-03 
2224	 1.78749990083234E-03 
2225	 2.54203924108412E-03 
2226	 3.85270207539982E-03 
2227	 3.71198882953356E-03 
2228	 3.3870245119934E-03 
2229	 3.23324216097069E-03 
2230	 1.55435420166426E-03 
2231	 1.08114420214486E-03 
2232	 1.59782435585711E-03 
2233	 2.50565954061661E-03 
2234	 4.53884993837796E-03 
2235	 4.64274869447972E-03 
2236	 3.53692636421909E-03 
2237	 5.2214679658224E-03 
2238	 5.97867298421651E-03 
2239	 5.48195621720135E-03 
2240	 6.99769415470253E-03 
2241	 8.17319375176343E-03 
2242	 8.0862829364408E-03 
2243	 8.78491490069904E-03 
2244	 8.34406002818885E-03 
2245	 7.37290853365484E-03 
2246	 7.29003716922601E-03 
2247	 5.82689009346022E-03 
2248	 3.33307435904966E-03 
2249	 1.62475636435413E-03 
2250	 1.41691902112514E-03 
2251	 1.09468401045996E-03 
2252	 8.73542491241042E-04 
2253	 2.1721804781599E-03 
2254	 4.14127283185555E-03 
2255	 5.33608684703544E-03 
2256	 5.45966172964742E-03 
2257	 7.00487606048478E-03 
2258	 8.85278347736716E-03 
2259	 6.82095898642768E-03 
2260	 0.00529528508317 
2261	 4.62337549933938E-03 
2262	 4.83055810018437E-03 
2263	 0.003590995613851 
2264	 3.18315151324068E-03 
2265	 4.04378746948498E-03 
2266	 5.68160586090812E-03 
2267	 8.08729362691731E-03 
2268	 8.48736027053305E-03 
2269	 1.05139914228395E-02 
2270	 1.06432897627005E-02 
2271	 5.64301798016554E-03 
2272	 4.7958650816178E-03 
2273	 7.80129311683918E-03 
2274	 7.87517996349161E-03 
2275	 6.62726325742245E-03 
2276	 7.59993913378884E-03 
2277	 8.1219296522304E-03 
2278	 7.2353852350871E-03 
2279	 8.15708821353027E-03 
2280	 8.00575013568589E-03 
2281	 4.37569926164797E-03 
2282	 5.71468661602008E-03 
2283	 6.69087588030577E-03 
2284	 6.51439532579858E-03 
2285	 6.84843217975899E-03 
2286	 4.38783067084534E-03 
2287	 4.66782341264963E-03 
2288	 4.57156142850895E-03 
2289	 4.95369469913763E-03 
2290	 7.85063975384583E-03 
2291	 5.70404697905574E-03 
2292	 3.82189740937503E-03 
2293	 2.64612039729516E-03 
2294	 2.64660668512427E-04 
2295	 2.30845045900151E-03 
2296	 4.84950921490556E-03 
2297	 5.41027938114023E-03 
2298	 3.16108039378404E-03 
2299	 2.16873834532934E-03 
2300	 2.84613045303706E-03 
2301	-8.9809401514375E-04 
2302	-1.7238596569221E-03 
2303	-1.17299487038389E-03 
2304	-3.28701142315232E-03 
2305	-3.85652532839532E-03 
2306	-2.35009351516813E-03 
2307	 1.69323630241428E-03 
2308	 4.08847112880918E-03 
2309	 2.60838881283487E-03 
2310	 1.42899120691629E-03 
2311	-9.96323475936675E-04 
2312	-4.21880946648785E-03 
2313	-2.12492025790589E-03 
2314	 2.13699837420206E-03 
2315	 4.88757703661006E-03 
2316	 3.92746021511832E-03 
2317	 8.24768450169426E-04 
2318	 2.87232763601123E-03 
2319	 7.96924729124754E-03 
2320	 1.24250048741447E-02 
2321	 1.83589502199688E-02 
2322	 1.95959346804813E-02 
2323	 9.64537055791629E-03 
2324	 2.60692942311044E-03 
2325	 1.75567978387133E-03 
2326	 6.20075523030784E-04 
2327	 6.8147387182512E-03 
2328	 1.12842881455186E-02 
2329	 5.60817503050461E-03 
2330	 7.4021371927021E-03 
2331	 1.08574158117221E-02 
2332	 7.38823498398481E-03 
2333	 1.23412841174276E-02 
2334	 1.60966208988501E-02 
2335	 1.19891185309805E-02 
2336	 1.04755024170109E-02 
2337	 7.93216729801641E-03 
2338	 5.13455112943965E-03 
2339	 7.87313213900655E-03 
2340	 7.30838302177436E-03 
2341	 1.6325006109173E-03 
2342	-2.03222675755322E-03 
2343	-6.00689601414906E-03 
2344	-5.53071711048276E-03 
2345	-2.50545296817318E-03 
2346	-2.55273162403833E-03 
2347	-8.31080185428576E-03 
2348	-1.49897662513563E-02 
2349	-6.39215170085534E-03 
2350	 8.88067860725502E-03 
2351	 1.62236014826158E-02 
2352	 1.85154073733708E-02 
2353	 1.69346772585928E-02 
2354	 6.63338081781347E-03 
2355	 1.02063814805978E-03 
2356	 6.76166212777204E-03 
2357	 3.78718550815998E-03 
2358	 2.55219193223868E-03 
2359	 4.97491579334326E-03 
2360	 2.62016221468564E-03 
2361	 7.92784972145382E-03 
2362	 8.53473295294727E-03 
2363	 8.21176020303434E-03 
2364	 8.40612558124946E-03 
2365	 2.20593091265752E-03 
2366	 1.21738165413016E-03 
2367	-6.59039236997515E-03 
2368	-1.23378204190957E-02 
2369	-1.45285356593852E-02 
2370	-2.42931871263704E-02 
2371	-2.94434557188104E-02 
2372	-3.68343880529773E-02 
2373	-0.039282827970834 
2374	-4.07887949601367E-02 
2375	-3.14686594501149E-02 
2376	 1.23042657045225E-02 
2377	 4.29589439350871E-02 
2378	 0.059289445014014 
2379	 8.39047973978793E-02 
2380	 5.64252964699913E-02 
2381	 3.12089650844256E-02 
2382	 5.27066590158766E-02 
2383	 0.050458796420161 
2384	 5.48306739589637E-02 
2385	 5.03923527825391E-02 
2386	 2.77620236981819E-02 
2387	 1.11111906931374E-02 
2388	-1.02310475289965E-02 
2389	-1.07203021032477E-02 
2390	-1.49201689032886E-02 
2391	-0.022617930162991 
2392	-6.85753195914938E-03 
2393	-2.78564296034008E-03 
2394	-0.011598746335397 
2395	 6.17114580265314E-03 
2396	 1.05856449692007E-02 
2397	-8.76760277017239E-03 
2398	-1.06008385949283E-02 
2399	-1.79068288469967E-02 
2400	-9.18865928786151E-03 
2401	 5.09856968281765E-02 
2402	 8.47738400306112E-02 
2403	 7.92586167439576E-02 
2404	 5.88981541941756E-02 
2405	 2.60719376740039E-02 
2406	 3.49725686623326E-02 
2407	 6.25236809294993E-02 
2408	 4.07886497715387E-02 
2409	-3.02376738440587E-02 
2410	-0.135291830291433 
2411	-0.216578519112004 
2412	-0.156101260883795 
2413	-3.32503429899603E-02 
2414	 3.50322549038406E-02 
2415	 6.22382381402508E-02 
2416	-2.81319976412482E-02 
2417	-0.158264546820767 
2418	-0.1922914670411 
2419	-0.134792231356782 
2420	-5.16220238167164E-02 
2421	-2.32062059500035E-03 
2422	-7.19271056827778E-02 
2423	-0.146427685079604 
2424	-0.151377570162671 
2425	-0.116477714776609 
2426	-4.02686331598516E-02 
2427	 1.28028722879599E-02 
2428	-5.66244156885869E-02 
2429	-0.127485465169668 
2430	-0.098711536234579 
2431	-6.63280401795499E-02 
2432	-0.047129447577907 
2433	 1.60597545408538E-02 
2434	 2.73181421379609E-02 
2435	 1.26026961458202E-04 
2436	-4.15592406806457E-04 
2437	 3.86115000256879E-02 
2438	-1.49791363253268E-02 
2439	-0.139692825211593 
2440	-0.112884852386838 
2441	-0.204858538256576 
2442	-0.1979324956258 
2443	 2.28628077025287E-02 
2444	-5.01150658752053E-02 
2445	-1.29723898024042E-02 
2446	-0.118459718671985 
2447	-0.675061478234002 
2448	-0.849735018716823 
2449	-0.740901392349315 
2450	-0.512354783089087 
2451	 0.087671584668486 
2452	 0.193607722729578 
2453	-0.342014326719585 
2454	-0.524314480207843 
2455	-1.64881815895728 
2456	-1.02538206211519 
2457	-0.241354715427177 
2458	-0.335753347332526 
2459	-0.406720558582694 
2460	-0.052056346095494 
2461	-3.75011626413608E-02 
2462	-0.012770970415166 
2463	 0.191072791345406 
2464	 0.15874019768011 
2465	-1.53760463830816E-02 
2466	-3.59553755190271E-02 
2467	 2.8156228435985E-03 
2468	-0.460360130953053 
2469	-0.564442920970512 
2470	-0.223259682211258 
2471	 8.78400538474023E-02 
2472	 0.215725173837292 
2473	 0.651682654812094 
2474	 1.12424970821059 
2475	 0.537690386097475 
2476	-3.45880912019695 
2477	 0.10313626268163 
2478	-2.51521701333944 
2479	-2.48620073746927 
2480	 1.1389098842446 
2481	 0.593031626299424 
2482	 4.12559668083809E-02 
2483	-7.10388780436706E-02 
2484	 6.70520905422917E-02 
2485	-2.59893148032125E-02 
2486	-0.340589964881224 
2487	-2.06199710132631E-02 
2488	-1.42916644026164 
2489	-1.30395374010424 
2490	-1.46641675856289 
2491	-0.205112694497114 
2492	-0.530154626686664 
2493	 2.49134088029516 
2494	 0.583170738440955 
2495	 0.564315214405303 
2496	-0.116967081402643 
2497	 6.50291895243393 
2498	 0.168729546380647 
2499	 2.41028701127216 
2500	-0.377538239540619 
