Wavelength	rt0716a200001.asd
350	 4.85873180103874E-02 
351	 4.89189463094448E-02 
352	 4.81220180297021E-02 
353	 4.75939216647927E-02 
354	 4.80799314206172E-02 
355	 4.84741325706972E-02 
356	 4.85149866378655E-02 
357	 4.84388727034967E-02 
358	 4.85669541624546E-02 
359	 4.87367497459139E-02 
360	 4.86803187207385E-02 
361	 4.88032102399844E-02 
362	 4.97453121743533E-02 
363	 4.98602864014032E-02 
364	 4.94321829080432E-02 
365	 4.89565598917896E-02 
366	 4.88257513859653E-02 
367	 4.91831492721209E-02 
368	 4.96526588269282E-02 
369	 4.98005595867056E-02 
370	 4.94614900607945E-02 
371	 4.97011371201066E-02 
372	 4.99646106567917E-02 
373	 4.90959511541937E-02 
374	 4.95146254856877E-02 
375	 4.99628505226553E-02 
376	 4.98724138067697E-02 
377	 5.01152704998645E-02 
378	 5.01949369715844E-02 
379	 0.049987069453441 
380	 4.97069388439997E-02 
381	 5.03175781905675E-02 
382	 5.09676052404593E-02 
383	 0.051079989073979 
384	 5.05110645399179E-02 
385	 5.08168159237608E-02 
386	 5.09765636863642E-02 
387	 5.07702812693093E-02 
388	 5.10530713150282E-02 
389	 5.12320305042115E-02 
390	 5.11872864442088E-02 
391	 5.10500845752864E-02 
392	 5.13399218383401E-02 
393	 5.12993710950816E-02 
394	 5.12328202020792E-02 
395	 5.16144265324351E-02 
396	 5.16588130826212E-02 
397	 5.15968748047184E-02 
398	 5.14983947735611E-02 
399	 5.12584521045398E-02 
400	 5.12099785887475E-02 
401	 5.11840624436203E-02 
402	 5.10823365622463E-02 
403	 5.11568478721924E-02 
404	 5.10872286357726E-02 
405	 5.10912221935591E-02 
406	 5.13890662180995E-02 
407	 5.10061805160042E-02 
408	 0.050872880936957 
409	 5.11647523667097E-02 
410	 5.12305524318424E-02 
411	 5.10095156206748E-02 
412	 5.09338570802741E-02 
413	 5.11858281497868E-02 
414	 5.11534531242227E-02 
415	 5.10861268510269E-02 
416	 5.10214037776946E-02 
417	 5.09534278544257E-02 
418	 5.10925505549594E-02 
419	 5.12930668426857E-02 
420	 5.13988331676588E-02 
421	 5.12860174256676E-02 
422	 5.12605972148677E-02 
423	 5.14162533509396E-02 
424	 5.17015420578465E-02 
425	 5.18186488545935E-02 
426	 5.19613311382478E-02 
427	 5.21707848217036E-02 
428	 5.24131367143589E-02 
429	 5.26769317700828E-02 
430	 0.053002627002504 
431	 5.33520259082106E-02 
432	 5.35982654126404E-02 
433	 5.39138569574669E-02 
434	 5.42289143223793E-02 
435	 5.44738317382356E-02 
436	 5.47489932471777E-02 
437	 5.49296346922254E-02 
438	 5.51205149478991E-02 
439	 5.54881415575565E-02 
440	 5.55759794739964E-02 
441	 5.57180973847673E-02 
442	 5.60036745531768E-02 
443	 5.60398776162367E-02 
444	 0.056135557269779 
445	 0.05631094331832 
446	 5.64877896177461E-02 
447	 0.056534809570279 
448	 5.65552569588224E-02 
449	 5.65853639126362E-02 
450	 5.66130607599302E-02 
451	 5.67325771388238E-02 
452	 5.67629988544095E-02 
453	 5.66574298779252E-02 
454	 5.67248654021363E-02 
455	 5.66681422643089E-02 
456	 5.66021461096168E-02 
457	 5.67035637607849E-02 
458	 5.66660457096277E-02 
459	 5.65603415304305E-02 
460	 5.64786464904306E-02 
461	 5.65052497648747E-02 
462	 5.64766026765868E-02 
463	 5.64262375022103E-02 
464	 5.63985991988483E-02 
465	 5.63531823636721E-02 
466	 5.63103894421267E-02 
467	 5.62719118642332E-02 
468	 5.62311975016276E-02 
469	 5.61877270013719E-02 
470	 5.61740292829413E-02 
471	 5.61743456874537E-02 
472	 5.61067163365565E-02 
473	 5.60927926077251E-02 
474	 5.61065157746638E-02 
475	 5.60973521530834E-02 
476	 5.60673443561022E-02 
477	 5.61001375717533E-02 
478	 5.61771197042284E-02 
479	 5.62214709186058E-02 
480	 5.63671995841247E-02 
481	 5.64642701882051E-02 
482	 5.64865642573784E-02 
483	 5.67354251213748E-02 
484	 5.69821449983856E-02 
485	 5.71737238792826E-02 
486	 5.73168509135988E-02 
487	 5.73626192485711E-02 
488	 5.75146728928593E-02 
489	 5.77907025957334E-02 
490	 5.80245727824578E-02 
491	 5.82492682411837E-02 
492	 0.058506951379622 
493	 5.88065779688368E-02 
494	 5.90509884228451E-02 
495	 5.93899252335622E-02 
496	 5.97502997317655E-02 
497	 5.99811668521807E-02 
498	 6.03102710770646E-02 
499	 0.06063645939948 
500	 6.08987600852722E-02 
501	 6.11465934713905E-02 
502	 6.14761609256558E-02 
503	 6.18644963838171E-02 
504	 6.22366340768737E-02 
505	 6.24618368132622E-02 
506	 6.27744294849767E-02 
507	 0.063210140946461 
508	 6.36375769253401E-02 
509	 6.40291387798799E-02 
510	 6.43411532490528E-02 
511	 6.46129263321318E-02 
512	 6.50761763141235E-02 
513	 6.55790533385041E-02 
514	 6.60552670075436E-02 
515	 6.64836229305173E-02 
516	 6.69322259931604E-02 
517	 6.74966713782332E-02 
518	 6.81272712167929E-02 
519	 6.86051253877646E-02 
520	 6.91679063609845E-02 
521	 6.97993500911071E-02 
522	 0.070438595652966 
523	 7.10702449140167E-02 
524	 7.17420381538301E-02 
525	 7.24823325336027E-02 
526	 7.32968691213771E-02 
527	 7.40686052636644E-02 
528	 7.49376403308992E-02 
529	 0.075911255523927 
530	 7.66638706114845E-02 
531	 7.74131595917795E-02 
532	 7.83291447637466E-02 
533	 7.94815094605133E-02 
534	 8.04700323040046E-02 
535	 8.14621388225467E-02 
536	 8.25211025377616E-02 
537	 8.35437283208929E-02 
538	 8.46092995596139E-02 
539	 8.57110915838931E-02 
540	 8.68171564293408E-02 
541	 8.78781122192426E-02 
542	 8.89873212598785E-02 
543	 9.00811286000181E-02 
544	 9.10290563178836E-02 
545	 0.092044235328908 
546	 9.31006069535338E-02 
547	 9.41434788739117E-02 
548	 9.51286698368416E-02 
549	 9.61176186871367E-02 
550	 9.70899168127092E-02 
551	 9.80097236134375E-02 
552	 9.89188030109651E-02 
553	 9.98372033961669E-02 
554	 0.100728654450541 
555	 0.101497152188734 
556	 0.102397794093723 
557	 0.103338470898873 
558	 0.104192970483157 
559	 0.105050999956583 
560	 0.105934529961941 
561	 0.106799812040188 
562	 0.107580774854446 
563	 0.1083971110687 
564	 0.109208094874825 
565	 0.109980744309439 
566	 0.110739598061464 
567	 0.111506603887825 
568	 0.112265072573329 
569	 0.112974590629418 
570	 0.113578887884319 
571	 0.11416643092225 
572	 0.114776762990676 
573	 0.115383684452228 
574	 0.115890484352738 
575	 0.116452681767641 
576	 0.117140355593904 
577	 0.117561953112053 
578	 0.118054189505803 
579	 0.118621097300278 
580	 0.119074195136551 
581	 0.119507929466162 
582	 0.11994621403519 
583	 0.12038261886807 
584	 0.120770076087257 
585	 0.121082028016716 
586	 0.121335745027371 
587	 0.121576997568015 
588	 0.121875522973783 
589	 0.122152644686631 
590	 0.122398908222985 
591	 0.122706478063974 
592	 0.12298867482409 
593	 0.123229435205886 
594	 0.123426710323309 
595	 0.12358855591958 
596	 0.123788606829979 
597	 0.123989121799402 
598	 0.124098185208965 
599	 0.124183280536771 
600	 0.1243019196011 
601	 0.12448413820401 
602	 0.124729884715244 
603	 0.124794123482747 
604	 0.12486914239405 
605	 0.125179348559291 
606	 0.125319431727502 
607	 0.125467413970946 
608	 0.125678788681774 
609	 0.125856906221708 
610	 0.126059389566046 
611	 0.126242848376155 
612	 0.126373697036869 
613	 0.126495473636056 
614	 0.126664634772291 
615	 0.126866458425361 
616	 0.127041148446875 
617	 0.127180433507253 
618	 0.127298898944509 
619	 0.127412197427759 
620	 0.127527985397179 
621	 0.127652116698356 
622	 0.127781392671568 
623	 0.127928205945772 
624	 0.128216832102705 
625	 0.128358818400284 
626	 0.128361262422867 
627	 0.128516215997621 
628	 0.12872397878246 
629	 0.128915319139405 
630	 0.129063005591321 
631	 0.129242476933004 
632	 0.12932579202204 
633	 0.129402860187421 
634	 0.129622324353891 
635	 0.129690752289201 
636	 0.129873477833436 
637	 0.130205507177863 
638	 0.13032902811351 
639	 0.130372782302008 
640	 0.13043750130288 
641	 0.130580806707872 
642	 0.130701683749052 
643	 0.130748428249271 
644	 0.130787391763681 
645	 0.130958593979609 
646	 0.130939740365466 
647	 0.130860868767161 
648	 0.130894236758515 
649	 0.131125727891205 
650	 0.131167767091784 
651	 0.131124834072651 
652	 0.131242227079305 
653	 0.131295514279161 
654	 0.131321623684707 
655	 0.131306535607982 
656	 0.131160668214452 
657	 0.131221607028794 
658	 0.131277118983502 
659	 0.131143667559052 
660	 0.131048441481972 
661	 0.130980293733571 
662	 0.130930824023494 
663	 0.130890688809819 
664	 0.130846435086891 
665	 0.130804124891619 
666	 0.130788288432913 
667	 0.130856242212056 
668	 0.130909622554652 
669	 0.130910894884376 
670	 0.130894113227824 
671	 0.131139346525452 
672	 0.131239854715454 
673	 0.131191507296485 
674	 0.13137730993419 
675	 0.131644834760747 
676	 0.131826895469081 
677	 0.131882700366473 
678	 0.132085829624881 
679	 0.13237680707188 
680	 0.132693866809888 
681	 0.132976425178919 
682	 0.133234682898641 
683	 0.133575846310398 
684	 0.133960715673401 
685	 0.134169909925547 
686	 0.134477937325711 
687	 0.134891983376162 
688	 0.135295812432955 
689	 0.135630550428268 
690	 0.135965189971555 
691	 0.136307725356824 
692	 0.136625251679058 
693	 0.13685109833391 
694	 0.137047797471703 
695	 0.137259683834699 
696	 0.137488477697413 
697	 0.137683447321193 
698	 0.137770987823273 
699	 0.137708441447179 
700	 0.137703515157107 
701	 0.137810989351745 
702	 0.137909941895144 
703	 0.137784651820394 
704	 0.13768435401551 
705	 0.137592157889592 
706	 0.137499098434095 
707	 0.137524535009217 
708	 0.137335213342272 
709	 0.137019656880298 
710	 0.136793669749297 
711	 0.136611882610978 
712	 0.136265136359863 
713	 0.135713584859604 
714	 0.135089543770561 
715	 0.134440039655301 
716	 0.133832742930284 
717	 0.133307772980594 
718	 0.132400063350672 
719	 0.131713601434784 
720	 0.131278788779122 
721	 0.130751604172053 
722	 0.130016892356613 
723	 0.129119374683497 
724	 0.128238658632762 
725	 0.127421780434036 
726	 0.126581772480908 
727	 0.125576972570827 
728	 0.124338646023145 
729	 0.122995158770056 
730	 0.121509245884499 
731	 0.12010545265997 
732	 0.118954839662724 
733	 0.117960522618901 
734	 0.116927311877166 
735	 0.115939047399607 
736	 0.115427294593292 
737	 0.1149483026739 
738	 0.114509211239449 
739	 0.114213461450303 
740	 0.114089577477997 
741	 0.11403422584538 
742	 0.114020991504726 
743	 0.114065238910298 
744	 0.114161120048864 
745	 0.114240843195097 
746	 0.11429352944584 
747	 0.114391928937387 
748	 0.114393912907604 
749	 0.114452095830385 
750	 0.114678273375035 
751	 0.11482175350759 
752	 0.1148465457398 
753	 0.114835769443958 
754	 0.114926069837336 
755	 0.115065069857084 
756	 0.11521889835133 
757	 0.115332827276729 
758	 0.11528997331046 
759	 0.114772959075467 
760	 0.11435534807004 
761	 0.114986817417845 
762	 0.115139612279537 
763	 0.11531690352109 
764	 0.115644865502057 
765	 0.116074722709032 
766	 0.116430372240508 
767	 0.116720904300534 
768	 0.116951601922178 
769	 0.117105122230744 
770	 0.117332670342405 
771	 0.117634604806148 
772	 0.11793569247887 
773	 0.118043409492211 
774	 0.118209350047157 
775	 0.118502530877052 
776	 0.118882263944457 
777	 0.119199720855379 
778	 0.119505036402089 
779	 0.11982247415075 
780	 0.120136526712123 
781	 0.120419782179593 
782	 0.12073570152392 
783	 0.121106402641934 
784	 0.121421431508517 
785	 0.121803127151697 
786	 0.122211440252876 
787	 0.122556546407386 
788	 0.122840375869806 
789	 0.123098061143084 
790	 0.123396890343345 
791	 0.12381807595715 
792	 0.124353556735047 
793	 0.124723326299789 
794	 0.12489848735653 
795	 0.125294697908118 
796	 0.1255455583616 
797	 0.125783477236238 
798	 0.126174404772138 
799	 0.126478879864823 
800	 0.126795231890267 
801	 0.127051698964516 
802	 0.127135689303192 
803	 0.127307715551119 
804	 0.127522912743942 
805	 0.127676224337848 
806	 0.127646599114556 
807	 0.127690258019705 
808	 0.127758624772545 
809	 0.127747880431676 
810	 0.12757594366467 
811	 0.127347318881797 
812	 0.127193524805943 
813	 0.127173361053785 
814	 0.126801736538498 
815	 0.126337630781551 
816	 0.125952440220855 
817	 0.125641436179823 
818	 0.125208206231918 
819	 0.124834448933583 
820	 0.124421484008324 
821	 0.123501405384501 
822	 0.122301093033708 
823	 0.121406568446631 
824	 0.120878674837194 
825	 0.119397062660379 
826	 0.118024185338844 
827	 0.116596731730708 
828	 0.114764999140585 
829	 0.113265140987259 
830	 0.111877522989369 
831	 0.110614270320013 
832	 0.109670510297308 
833	 0.108536272667126 
834	 0.107638513845976 
835	 0.10710012901989 
836	 0.106539668320663 
837	 0.106126361971636 
838	 0.105808592784399 
839	 0.105484767908137 
840	 0.105027415620806 
841	 0.104648625874596 
842	 0.104324682073968 
843	 0.103966858853144 
844	 0.103612257758539 
845	 0.103392006290641 
846	 0.103279876966805 
847	 0.103121410003527 
848	 0.102727415402754 
849	 0.102204359574619 
850	 0.101787309085437 
851	 0.101763007011747 
852	 0.10128625112617 
853	 0.100949480369167 
854	 0.1010497784195 
855	 0.100608281126405 
856	 0.100287244575455 
857	 0.100091447531066 
858	 9.98382839787591E-02 
859	 9.93210064393533E-02 
860	 9.92125114579666E-02 
861	 9.92915999698776E-02 
862	 9.89726749440527E-02 
863	 9.85785693303743E-02 
864	 9.82058375790962E-02 
865	 0.09789375385025 
866	 9.76402287773418E-02 
867	 9.75873226020081E-02 
868	 9.73478681707711E-02 
869	 9.68961133965541E-02 
870	 9.67312072537422E-02 
871	 9.62211546578924E-02 
872	 9.57714103773965E-02 
873	 9.56174731312399E-02 
874	 9.51127887889874E-02 
875	 9.46838386279446E-02 
876	 9.44381877123791E-02 
877	 9.42172404909406E-02 
878	 9.32815481277947E-02 
879	 9.26739017121254E-02 
880	 9.24512331586234E-02 
881	 9.21511434112376E-02 
882	 9.15361932889791E-02 
883	 0.090877508034409 
884	 9.04141589717368E-02 
885	 0.090264119607348 
886	 9.00786349115645E-02 
887	 8.96381228119449E-02 
888	 8.91280114084891E-02 
889	 8.90776856727919E-02 
890	 0.088362609244623 
891	 8.77231006944795E-02 
892	 8.76527450647565E-02 
893	 0.087513478502767 
894	 8.69141350424996E-02 
895	 8.63475282382596E-02 
896	 8.62009715411512E-02 
897	 8.55115439305052E-02 
898	 8.46637362416581E-02 
899	 8.41611615049982E-02 
900	 8.41799678673568E-02 
901	 8.38305940095253E-02 
902	 8.33948224773132E-02 
903	 8.31064263744862E-02 
904	 8.30528450424751E-02 
905	 8.28018196267362E-02 
906	 8.18737396396247E-02 
907	 8.08407294213396E-02 
908	 8.07548189802831E-02 
909	 7.94895480236705E-02 
910	 7.91545884791889E-02 
911	 7.94896857086213E-02 
912	 7.81088547524913E-02 
913	 7.70634417502685E-02 
914	 7.61917251524721E-02 
915	 7.51355879401306E-02 
916	 7.37457643915222E-02 
917	 7.32580136164751E-02 
918	 7.27385673590479E-02 
919	 7.18172470706438E-02 
920	 7.12068738126707E-02 
921	 6.96159107485158E-02 
922	 6.84032995647272E-02 
923	 0.068156809518831 
924	 6.67879137697198E-02 
925	 6.50639177198446E-02 
926	 6.40914320822379E-02 
927	 6.42639677654261E-02 
928	 6.24113009563642E-02 
929	 6.08145644385051E-02 
930	 5.89411911259837E-02 
931	 5.52349047954179E-02 
932	 5.35867497237104E-02 
933	 5.45921434232666E-02 
934	 5.51615873053476E-02 
935	 5.18443987226234E-02 
936	 4.74648965844294E-02 
937	 4.62828628993354E-02 
938	 4.70472409582424E-02 
939	 4.74365453942262E-02 
940	 4.81784599669751E-02 
941	 4.65450983808762E-02 
942	 4.42678017571243E-02 
943	 4.39521524490679E-02 
944	 3.77049810387029E-02 
945	 4.05847603902572E-02 
946	 0.046391722036016 
947	 4.00714103703905E-02 
948	 3.52699817604198E-02 
949	 3.61247397418412E-02 
950	 3.85627596887319E-02 
951	 3.57494088206968E-02 
952	 0.032785659424382 
953	 3.50416052237743E-02 
954	 3.80729263222595E-02 
955	 3.36194065338091E-02 
956	 3.11297994710018E-02 
957	 3.20383587069368E-02 
958	 3.28783922473276E-02 
959	 2.95179082052374E-02 
960	 3.19759217124082E-02 
961	 0.033665395348387 
962	 3.28918931772216E-02 
963	 3.22856355229351E-02 
964	 3.11754643619111E-02 
965	 3.15375505408696E-02 
966	 3.24587817049469E-02 
967	 3.14989701695058E-02 
968	 3.09261037382212E-02 
969	 0.031383866304072 
970	 3.23794981596065E-02 
971	 3.26778586938344E-02 
972	 3.18542811935473E-02 
973	 3.21276016211003E-02 
974	 3.29423431394902E-02 
975	 3.14578612658116E-02 
976	 3.17246346462719E-02 
977	 0.032334401571062 
978	 3.23129337389608E-02 
979	 3.17264662645626E-02 
980	 3.02280182311709E-02 
981	 3.15636874579723E-02 
982	 3.34956412085708E-02 
983	 3.05178109217336E-02 
984	 3.09635993525789E-02 
985	 3.14584263876391E-02 
986	 3.14178208830373E-02 
987	 3.26912139660278E-02 
988	 3.16032989937759E-02 
989	 3.12015262457594E-02 
990	 3.18585733344103E-02 
991	 3.18753284921123E-02 
992	 3.35401462923966E-02 
993	 3.34297300560759E-02 
994	 3.25739736691655E-02 
995	 3.41757587549638E-02 
996	 3.29052569182108E-02 
997	 3.16008170381684E-02 
998	 3.12313139862467E-02 
999	 3.12742435458026E-02 
1000	 3.22839579821441E-02 
1001	 3.87182003541539E-02 
1002	 3.91186177206363E-02 
1003	 3.93134819840244E-02 
1004	 3.93861269034926E-02 
1005	 3.94501388379337E-02 
1006	 3.94402488978631E-02 
1007	 3.94637359572313E-02 
1008	 3.96060467323997E-02 
1009	 3.98755102876606E-02 
1010	 4.04041287194963E-02 
1011	 0.041097772547798 
1012	 4.17236045407494E-02 
1013	 0.041978429633463 
1014	 4.22658487526764E-02 
1015	 4.23907993188899E-02 
1016	 4.26538353592529E-02 
1017	 4.28515246099767E-02 
1018	 4.31789872304539E-02 
1019	 4.37690678272971E-02 
1020	 4.40406571290658E-02 
1021	 4.39853320722859E-02 
1022	 4.44003220450967E-02 
1023	 4.46081368399763E-02 
1024	 4.48945117255549E-02 
1025	 4.52647767934372E-02 
1026	 4.54325608719836E-02 
1027	 4.58581179428387E-02 
1028	 4.62639052572303E-02 
1029	 4.66832797690532E-02 
1030	 4.73668070955993E-02 
1031	 4.78496957958006E-02 
1032	 4.81161535119949E-02 
1033	 4.85702793695102E-02 
1034	 4.90919652871339E-02 
1035	 4.96153674497007E-02 
1036	 5.01834797694654E-02 
1037	 5.07738829796013E-02 
1038	 5.15761820815015E-02 
1039	 5.21020572756283E-02 
1040	 5.24192996998088E-02 
1041	 5.24366920380155E-02 
1042	 5.26974326256514E-02 
1043	 5.26078175976133E-02 
1044	 5.31425818080143E-02 
1045	 5.43273732988537E-02 
1046	 5.48699815802437E-02 
1047	 5.52252344242928E-02 
1048	 5.57965855485766E-02 
1049	 5.60979507439078E-02 
1050	 5.66661228436757E-02 
1051	 5.79688520587673E-02 
1052	 5.85350203430591E-02 
1053	 5.86242438470525E-02 
1054	 5.88733724795934E-02 
1055	 5.86404881932527E-02 
1056	 5.87579405596217E-02 
1057	 5.90539788363419E-02 
1058	 5.97348191931669E-02 
1059	 6.00034352210348E-02 
1060	 0.060198514514461 
1061	 6.05240001276064E-02 
1062	 6.06585716531085E-02 
1063	 6.10358098075847E-02 
1064	 6.19819543142556E-02 
1065	 6.22251630875684E-02 
1066	 6.20847952034027E-02 
1067	 6.20948599491058E-02 
1068	 6.17622052733053E-02 
1069	 6.15786418667619E-02 
1070	 6.15567268305827E-02 
1071	 0.061537047964728 
1072	 6.15000726403495E-02 
1073	 0.061382387806183 
1074	 6.14785608114364E-02 
1075	 6.18354453801675E-02 
1076	 6.18565708033574E-02 
1077	 6.19312626826891E-02 
1078	 6.17193221529002E-02 
1079	 6.11715220163767E-02 
1080	 6.07402585658474E-02 
1081	 6.00078162453493E-02 
1082	 5.97110059024875E-02 
1083	 5.98237908683522E-02 
1084	 0.059558293021616 
1085	 5.93429161490767E-02 
1086	 5.90559673687245E-02 
1087	 5.83031086424052E-02 
1088	 5.78556478928908E-02 
1089	 5.77209966295143E-02 
1090	 5.75602897103407E-02 
1091	 5.70850288489146E-02 
1092	 5.64737218483709E-02 
1093	 5.59104500969175E-02 
1094	 5.49896123635208E-02 
1095	 0.054433760451229 
1096	 5.41590252268079E-02 
1097	 5.37456739815335E-02 
1098	 5.34617571063887E-02 
1099	 5.29517712679486E-02 
1100	 5.20860912250117E-02 
1101	 5.16079429761345E-02 
1102	 5.13172044689189E-02 
1103	 5.09022668852228E-02 
1104	 5.06869199819999E-02 
1105	 5.05114621901198E-02 
1106	 4.98924047785783E-02 
1107	 4.89064341067366E-02 
1108	 4.85805322045504E-02 
1109	 4.87808313081652E-02 
1110	 4.87087808929576E-02 
1111	 4.93279882091629E-02 
1112	 4.90351984152875E-02 
1113	 4.73525335338379E-02 
1114	 4.70411583677412E-02 
1115	 4.73123896739126E-02 
1116	 4.72307508298073E-02 
1117	 4.89415006241828E-02 
1118	 4.89860145487217E-02 
1119	 0.046060473831275 
1120	 0.044772843044522 
1121	 4.38225993291545E-02 
1122	 4.17217662514217E-02 
1123	 4.44302995129716E-02 
1124	 4.78002824613619E-02 
1125	 4.55354216868408E-02 
1126	 4.52865890936617E-02 
1127	 4.53046911176695E-02 
1128	 4.14105026847939E-02 
1129	 4.05444086317479E-02 
1130	 0.043004223616168 
1131	 0.042790833716302 
1132	 4.13922944784606E-02 
1133	 4.03425803526235E-02 
1134	 3.94238748754159E-02 
1135	 3.84948589372756E-02 
1136	 3.76781576263813E-02 
1137	 3.66049338997087E-02 
1138	 3.54892615780035E-02 
1139	 3.34865312640805E-02 
1140	 0.032104755445785 
1141	 3.27487162870931E-02 
1142	 0.033705196566332 
1143	 3.36221154430203E-02 
1144	 3.35156451342949E-02 
1145	 3.25361095786028E-02 
1146	 3.15950204537773E-02 
1147	 0.032047787878233 
1148	 3.21880148935312E-02 
1149	 3.05773615709134E-02 
1150	 2.96847047217704E-02 
1151	 2.85794169216027E-02 
1152	 2.83767665999493E-02 
1153	 2.84071221633719E-02 
1154	 2.86428726310962E-02 
1155	 0.029760286544228 
1156	 2.91116947029767E-02 
1157	 2.78679003185749E-02 
1158	 2.76570037542123E-02 
1159	 2.74085319599072E-02 
1160	 2.71274048104195E-02 
1161	 2.72940717731269E-02 
1162	 2.77296430261996E-02 
1163	 0.027561141628865 
1164	 2.71215311625623E-02 
1165	 2.75445488954609E-02 
1166	 2.79067320256495E-02 
1167	 2.72313395391914E-02 
1168	 2.68719155750011E-02 
1169	 2.72003250676495E-02 
1170	 2.70923619828153E-02 
1171	 2.69671322371295E-02 
1172	 2.75352499904931E-02 
1173	 2.75764242701096E-02 
1174	 0.026967710555332 
1175	 2.66204144448322E-02 
1176	 2.69447867684937E-02 
1177	 2.70907149261771E-02 
1178	 2.70737866591108E-02 
1179	 2.69644765258434E-02 
1180	 2.66316769051257E-02 
1181	 2.64279211746426E-02 
1182	 0.026652636832973 
1183	 2.66694946455572E-02 
1184	 2.64368896665164E-02 
1185	 2.64062051412988E-02 
1186	 2.63079374918292E-02 
1187	 2.62830087119654E-02 
1188	 2.66366975863947E-02 
1189	 2.68442029451153E-02 
1190	 2.66112186320636E-02 
1191	 2.64631578985567E-02 
1192	 2.63765741668545E-02 
1193	 2.61794755284499E-02 
1194	 2.59979729060238E-02 
1195	 2.63493623030434E-02 
1196	 2.66869027458657E-02 
1197	 2.66326452410692E-02 
1198	 2.64817828920868E-02 
1199	 2.63308721789809E-02 
1200	 0.026413986810107 
1201	 2.65236288374915E-02 
1202	 2.63777825011272E-02 
1203	 2.63984263516966E-02 
1204	 2.64445934708793E-02 
1205	 2.64158461163677E-02 
1206	 2.66053932232752E-02 
1207	 2.68167955696859E-02 
1208	 2.67156640506349E-02 
1209	 2.63033055120835E-02 
1210	 2.61234593754634E-02 
1211	 2.62374601708087E-02 
1212	 2.64058368901182E-02 
1213	 2.66813211516372E-02 
1214	 2.66917791342522E-02 
1215	 2.67039267790004E-02 
1216	 2.64749503802771E-02 
1217	 0.026407326859036 
1218	 2.63663839879837E-02 
1219	 2.63806441555926E-02 
1220	 2.67129757424456E-02 
1221	 2.67907609311987E-02 
1222	 2.64570774658071E-02 
1223	 2.65111916247764E-02 
1224	 2.67960940992218E-02 
1225	 0.026849392657071 
1226	 2.69154733367633E-02 
1227	 2.70062043202005E-02 
1228	 2.69676026518559E-02 
1229	 2.68679627859492E-02 
1230	 2.69233205176653E-02 
1231	 2.71122721169917E-02 
1232	 2.71301482476486E-02 
1233	 2.70720685878098E-02 
1234	 2.72106225926873E-02 
1235	 2.72412268160213E-02 
1236	 2.72137035493848E-02 
1237	 0.027162346660075 
1238	 2.70895349487725E-02 
1239	 2.69941427548101E-02 
1240	 2.68652050597717E-02 
1241	 2.69701043982841E-02 
1242	 2.71057960110488E-02 
1243	 2.71290112789435E-02 
1244	 2.72808295795438E-02 
1245	 0.027287568198572 
1246	 2.71638556771092E-02 
1247	 2.72777075491387E-02 
1248	 2.73525726558189E-02 
1249	 2.73181561141799E-02 
1250	 2.73594604004416E-02 
1251	 0.027367459193224 
1252	 2.73457086048202E-02 
1253	 2.74653762118955E-02 
1254	 2.77532590293833E-02 
1255	 2.78486352118457E-02 
1256	 2.78074190592874E-02 
1257	 2.75053474334623E-02 
1258	 2.74862150121724E-02 
1259	 2.74406520654597E-02 
1260	 2.73988540483835E-02 
1261	 0.027618124897606 
1262	 2.75629886541191E-02 
1263	 2.71360143282772E-02 
1264	 2.72147573950654E-02 
1265	 0.027613545819172 
1266	 2.77170836777359E-02 
1267	 2.76673234594369E-02 
1268	 2.73972563119541E-02 
1269	 2.72160351542421E-02 
1270	 0.027288944672986 
1271	 2.74791520969627E-02 
1272	 2.77533966383183E-02 
1273	 2.75954307978478E-02 
1274	 2.73173010356909E-02 
1275	 2.74137346526695E-02 
1276	 2.74728205729488E-02 
1277	 2.74172806346958E-02 
1278	 2.72257592338857E-02 
1279	 2.71500840237906E-02 
1280	 2.74210165706974E-02 
1281	 2.74009547962812E-02 
1282	 2.73236475654688E-02 
1283	 2.72884829492742E-02 
1284	 2.70692688152237E-02 
1285	 2.69729344043387E-02 
1286	 2.72438470391041E-02 
1287	 2.72217093966094E-02 
1288	 2.67588255271766E-02 
1289	 2.66533710421673E-02 
1290	 0.026660724155769 
1291	 2.67451016237876E-02 
1292	 2.65038080122731E-02 
1293	 2.63966532391411E-02 
1294	 2.64063245552021E-02 
1295	 2.59953280677131E-02 
1296	 2.59139617863141E-02 
1297	 2.63227973136162E-02 
1298	 2.62188317254902E-02 
1299	 2.58063943139813E-02 
1300	 2.57390350345254E-02 
1301	 2.56108972830942E-02 
1302	 0.025286709170215 
1303	 2.52124927536436E-02 
1304	 2.51116181509933E-02 
1305	 2.48717774966387E-02 
1306	 2.48012876654311E-02 
1307	 0.024959757781992 
1308	 2.48298181314007E-02 
1309	 2.45826238640905E-02 
1310	 2.43969335280173E-02 
1311	 2.42143121734222E-02 
1312	 2.38172428617401E-02 
1313	 2.29863235660192E-02 
1314	 2.28823343860302E-02 
1315	 2.33179426739684E-02 
1316	 2.30446282816411E-02 
1317	 2.27273317992698E-02 
1318	 2.27971370435981E-02 
1319	 2.25682937569486E-02 
1320	 2.21940939178319E-02 
1321	 2.21881871693816E-02 
1322	 2.23860232641788E-02 
1323	 2.19700107767168E-02 
1324	 2.14560920948172E-02 
1325	 2.12938425668923E-02 
1326	 2.14594251067019E-02 
1327	 2.11498674863007E-02 
1328	 2.05843689264752E-02 
1329	 2.00114601926061E-02 
1330	 0.019662574608026 
1331	 2.00604927366437E-02 
1332	 1.96644125045177E-02 
1333	 0.019004689587032 
1334	 1.91754656125779E-02 
1335	 0.019425375946443 
1336	 1.98526768653214E-02 
1337	 1.96960826513994E-02 
1338	 1.95342261787441E-02 
1339	 1.98444005593954E-02 
1340	 2.00345501038266E-02 
1341	 1.95964328887087E-02 
1342	 0.01951372722654 
1343	 1.91993163605572E-02 
1344	 1.62102285699716E-02 
1345	 0.015625884916269 
1346	 1.97225026559965E-02 
1347	 2.02824921341609E-02 
1348	 1.81849719282508E-02 
1349	 1.85919214737365E-02 
1350	 1.63795882456013E-02 
1351	 1.47839966387726E-02 
1352	 2.16072247439838E-02 
1353	 2.76370290165244E-02 
1354	 2.73164737834057E-02 
1355	 3.10671645740965E-02 
1356	 4.29194011301404E-02 
1357	 7.41372304941343E-02 
1358	 5.86189230305266E-02 
1359	-4.15243931694361E-02 
1360	-8.01325382296847E-02 
1361	 1.66910178182547E-02 
1362	 8.51604156438239E-02 
1363	 4.29824898494402E-02 
1364	 3.11873979727577E-02 
1365	-2.17479218712477E-02 
1366	-9.03321101167546E-02 
1367	 6.93427572863069E-02 
1368	 9.18121880298172E-02 
1369	 7.18315069430861E-02 
1370	 2.61600704950096E-02 
1371	-0.10309491545805 
1372	-0.107366794826037 
1373	-0.130439518715338 
1374	-0.117858568638588 
1375	 5.82245666064436E-02 
1376	 0.159950275859044 
1377	 0.384467438535358 
1378	 0.434568771773731 
1379	 0.180458702336649 
1380	 0.119361002897694 
1381	-0.084690452244566 
1382	-7.37722971129447E-02 
1383	 0.25975512816332 
1384	 0.231091086660206 
1385	-2.54654629395522E-02 
1386	-2.47059673774718E-02 
1387	-1.54027857862878E-02 
1388	-7.25652742819066E-02 
1389	-1.60083517426847E-02 
1390	 0.132464595705158 
1391	 0.221253742505358 
1392	 0.31979217599252 
1393	 0.305610225348644 
1394	 0.276705172382213 
1395	 0.331897118484547 
1396	 0.459191935444051 
1397	 0.645918978570363 
1398	 0.546666140004107 
1399	 0.149062568880731 
1400	-0.137735527721762 
1401	 0.230081822830439 
1402	 0.412968093771345 
1403	 0.377526940474737 
1404	 0.549058846446079 
1405	 0.496594240545874 
1406	 0.178727275626355 
1407	 2.49216069512447E-02 
1408	-0.110992709529637 
1409	-5.14308163358214E-02 
1410	 0.125867019604918 
1411	 0.122819725900586 
1412	 0.13858140186244 
1413	 0.172579760250971 
1414	 0.124219987050458 
1415	 0.1029118249229 
1416	 0.187904516048261 
1417	 0.170584249784807 
1418	 3.54707995857381E-02 
1419	 2.70188611624787E-02 
1420	 9.17934159965605E-02 
1421	 7.19039270204855E-02 
1422	 0.034104427976806 
1423	 3.22509890136877E-02 
1424	 0.025317513064758 
1425	 1.73023063445057E-02 
1426	 1.92344956129888E-02 
1427	 2.67133180530278E-02 
1428	 3.57131768623505E-02 
1429	 2.67880617570014E-02 
1430	 1.17115333074134E-02 
1431	 1.34794143146202E-02 
1432	 1.08712489366265E-02 
1433	 5.13907356628868E-03 
1434	 1.07673845900557E-02 
1435	 1.90736263295321E-02 
1436	 1.70895193214307E-02 
1437	 2.73113228353517E-02 
1438	 2.02440798400938E-02 
1439	 1.16629443921525E-02 
1440	 3.60016307746024E-02 
1441	 3.53187770775068E-02 
1442	 3.12463550010379E-02 
1443	 3.34242583642782E-02 
1444	 8.19507306634595E-03 
1445	-5.97121860382697E-03 
1446	-1.27549823570004E-03 
1447	 1.78209685264589E-03 
1448	 3.06088192390543E-03 
1449	 3.94891533812033E-03 
1450	 6.0083771620154E-03 
1451	 6.29461508284473E-03 
1452	 4.76248924624364E-03 
1453	 3.87388038436498E-03 
1454	 3.93972047104977E-03 
1455	 4.03539684317105E-03 
1456	 3.57705911380176E-03 
1457	 3.70115477221225E-03 
1458	 3.39780253954795E-03 
1459	 1.78588155874902E-03 
1460	 1.50883584256692E-03 
1461	 1.93377680161262E-03 
1462	 2.92385502117182E-03 
1463	 5.14063315425909E-03 
1464	 5.59044584529778E-03 
1465	 5.68477226009812E-03 
1466	 6.78282215742162E-03 
1467	 7.73742530562856E-03 
1468	 6.9263940178822E-03 
1469	 5.36425618775529E-03 
1470	 5.42194627632771E-03 
1471	 5.13798939106986E-03 
1472	 3.76167746102034E-03 
1473	 2.85185878459154E-03 
1474	 3.31558634120048E-03 
1475	 3.29939460332821E-03 
1476	 2.80342712955497E-03 
1477	 4.07291589001406E-03 
1478	 4.30392777432968E-03 
1479	 2.17447523805144E-03 
1480	 1.65402897935262E-03 
1481	 2.59917894667233E-03 
1482	 2.96207351435941E-03 
1483	 3.48692589195598E-03 
1484	 3.25327438244894E-03 
1485	 2.29750644136556E-03 
1486	 2.21118299064057E-03 
1487	 1.86538309278074E-03 
1488	 2.22214189251306E-03 
1489	 3.63263673959762E-03 
1490	 3.84748015627831E-03 
1491	 3.68574541458691E-03 
1492	 3.81168880362284E-03 
1493	 3.67765133446373E-03 
1494	 3.54456202450772E-03 
1495	 3.49803449785859E-03 
1496	 3.61736519761701E-03 
1497	 3.83274624105287E-03 
1498	 3.70398653434011E-03 
1499	 3.45498349019601E-03 
1500	 3.56267810949419E-03 
1501	 3.61088234831361E-03 
1502	 3.54931565563142E-03 
1503	 3.79962935351089E-03 
1504	 3.92003604545562E-03 
1505	 3.68922370966987E-03 
1506	 3.54008954159796E-03 
1507	 3.91805643113126E-03 
1508	 4.34647691811046E-03 
1509	 3.96714509494483E-03 
1510	 3.66430509341854E-03 
1511	 4.04995656985328E-03 
1512	 4.03434262815179E-03 
1513	 3.87975871955311E-03 
1514	 4.09490540531098E-03 
1515	 3.90529038383968E-03 
1516	 3.70853837365903E-03 
1517	 4.05540862023107E-03 
1518	 4.24407633605793E-03 
1519	 4.12352274745403E-03 
1520	 4.08809978063684E-03 
1521	 4.17402242010099E-03 
1522	 4.41710112503389E-03 
1523	 4.61964509745269E-03 
1524	 4.57248460608675E-03 
1525	 4.51868902259084E-03 
1526	 4.49524293895082E-03 
1527	 4.56623103641472E-03 
1528	 4.67662743025371E-03 
1529	 0.004732818737742 
1530	 4.90698508271234E-03 
1531	 5.04883460269188E-03 
1532	 5.17184954353268E-03 
1533	 5.17411889553676E-03 
1534	 4.99855949031642E-03 
1535	 5.01258885596482E-03 
1536	 5.05875450653635E-03 
1537	 5.04369183204627E-03 
1538	 5.15258232307547E-03 
1539	 5.20647425982559E-03 
1540	 5.24673597051864E-03 
1541	 5.3915479682057E-03 
1542	 5.4954675458153E-03 
1543	 5.57507344743011E-03 
1544	 5.63563003361484E-03 
1545	 5.58699219026901E-03 
1546	 5.54180601505553E-03 
1547	 5.6640514801714E-03 
1548	 5.92581607204873E-03 
1549	 6.0092575388673E-03 
1550	 5.99590729943062E-03 
1551	 6.13439833649591E-03 
1552	 6.06538562740909E-03 
1553	 5.95794593990469E-03 
1554	 6.05687800309037E-03 
1555	 6.04613069244563E-03 
1556	 6.02088722239663E-03 
1557	 6.09616065388335E-03 
1558	 6.22949790498517E-03 
1559	 6.34085725682926E-03 
1560	 6.21970224418861E-03 
1561	 6.22532536672603E-03 
1562	 6.53204174927428E-03 
1563	 6.65679003115031E-03 
1564	 6.61170296238385E-03 
1565	 6.60581152811154E-03 
1566	 6.63615029456293E-03 
1567	 6.68354767694734E-03 
1568	 6.65398707370866E-03 
1569	 6.72138349917797E-03 
1570	 6.8791630725485E-03 
1571	 6.79949109085777E-03 
1572	 6.9167741590579E-03 
1573	 7.17884870708346E-03 
1574	 7.03810649384288E-03 
1575	 7.03430150646676E-03 
1576	 7.15196053828133E-03 
1577	 7.01988710621127E-03 
1578	 7.07803230080764E-03 
1579	 7.34130635947958E-03 
1580	 7.61489029696639E-03 
1581	 7.89766168111598E-03 
1582	 7.72906009879194E-03 
1583	 7.31464321254623E-03 
1584	 7.36593535181009E-03 
1585	 7.60416109118601E-03 
1586	 7.7729256752728E-03 
1587	 7.89981910073616E-03 
1588	 7.9347300851835E-03 
1589	 8.08570162274946E-03 
1590	 8.22101748634093E-03 
1591	 8.24805561472694E-03 
1592	 8.17971833889411E-03 
1593	 7.93493045855918E-03 
1594	 8.02690051264794E-03 
1595	 8.24610869218577E-03 
1596	 8.10799373881778E-03 
1597	 8.13426186182294E-03 
1598	 8.22962514740948E-03 
1599	 8.12350564166903E-03 
1600	 8.25036524459952E-03 
1601	 8.51603301664684E-03 
1602	 8.57601170101971E-03 
1603	 8.57610252437833E-03 
1604	 8.55906195680363E-03 
1605	 8.55419306863008E-03 
1606	 8.61674154386224E-03 
1607	 8.60426428217955E-03 
1608	 8.50316193019698E-03 
1609	 8.65586040267558E-03 
1610	 9.01445649893219E-03 
1611	 9.05977821897464E-03 
1612	 9.20024182477661E-03 
1613	 9.41933893184268E-03 
1614	 9.08281299893865E-03 
1615	 8.76661648167077E-03 
1616	 9.02984663481669E-03 
1617	 9.47910703078039E-03 
1618	 9.52522318027247E-03 
1619	 9.30118665427634E-03 
1620	 9.30184408193096E-03 
1621	 9.34765695980782E-03 
1622	 9.1229304555819E-03 
1623	 9.13419855742942E-03 
1624	 9.55157462094631E-03 
1625	 9.50329921072713E-03 
1626	 9.17311944406749E-03 
1627	 9.27214658704517E-03 
1628	 9.46047215309932E-03 
1629	 9.40061275147079E-03 
1630	 9.43976293682583E-03 
1631	 9.78229849660694E-03 
1632	 9.90716922112591E-03 
1633	 9.70068632403065E-03 
1634	 9.75900768044277E-03 
1635	 1.00442927063054E-02 
1636	 9.95925209855574E-03 
1637	 9.79796635529721E-03 
1638	 9.91590691324397E-03 
1639	 9.66263336684603E-03 
1640	 9.25976783705287E-03 
1641	 9.63164330035499E-03 
1642	 9.92384982896241E-03 
1643	 9.63288756153217E-03 
1644	 9.72360790946297E-03 
1645	 9.98760316602256E-03 
1646	 9.99466652737174E-03 
1647	 9.9453729903668E-03 
1648	 9.98531813435279E-03 
1649	 9.95665792386813E-03 
1650	 9.91360845213924E-03 
1651	 1.02292394890821E-02 
1652	 1.02993131010404E-02 
1653	 9.86719537769029E-03 
1654	 9.88866501063057E-03 
1655	 1.01399033939796E-02 
1656	 1.00804726846864E-02 
1657	 1.00201745996961E-02 
1658	 1.00183667455099E-02 
1659	 9.73495219251817E-03 
1660	 9.84158272452833E-03 
1661	 1.05950346302248E-02 
1662	 1.06056657675467E-02 
1663	 9.95701918644325E-03 
1664	 9.95277127498379E-03 
1665	 1.01926331618647E-02 
1666	 1.00674249581965E-02 
1667	 1.02264358426519E-02 
1668	 1.03295301219241E-02 
1669	 9.67163816858878E-03 
1670	 9.66146580034559E-03 
1671	 1.00297269731151E-02 
1672	 1.00816657152545E-02 
1673	 1.03012864710493E-02 
1674	 1.06973612819373E-02 
1675	 1.07652569563948E-02 
1676	 1.04171744562247E-02 
1677	 1.00850823558682E-02 
1678	 9.8543658998932E-03 
1679	 9.82057574823191E-03 
1680	 1.00862146983901E-02 
1681	 1.03630110650743E-02 
1682	 1.03985393409133E-02 
1683	 1.02901413974644E-02 
1684	 1.02925106082526E-02 
1685	 1.03039790261908E-02 
1686	 1.02131041797009E-02 
1687	 1.02482404420806E-02 
1688	 1.03894708318006E-02 
1689	 1.06082727263512E-02 
1690	 1.07754320326234E-02 
1691	 1.05246243579049E-02 
1692	 1.02176230989504E-02 
1693	 9.93272425920608E-03 
1694	 9.5247391897858E-03 
1695	 9.51260232198592E-03 
1696	 9.86762446068444E-03 
1697	 0.010115076547666 
1698	 1.02626683149268E-02 
1699	 1.02231899283918E-02 
1700	 9.80564992785511E-03 
1701	 9.37597046722586E-03 
1702	 9.33051812159809E-03 
1703	 9.62136670972363E-03 
1704	 9.86859165000915E-03 
1705	 1.00719222980087E-02 
1706	 1.02121659274256E-02 
1707	 1.02679298931339E-02 
1708	 1.03475320258022E-02 
1709	 1.01564428727389E-02 
1710	 1.01918440632275E-02 
1711	 1.04747868107088E-02 
1712	 1.01660468554258E-02 
1713	 1.03102495065315E-02 
1714	 1.03254779626472E-02 
1715	 0.010127183828269 
1716	 0.010179574114322 
1717	 9.72676233607216E-03 
1718	 9.78165246983712E-03 
1719	 1.02242884419642E-02 
1720	 1.00195619394001E-02 
1721	 9.64296318651696E-03 
1722	 9.4272753531718E-03 
1723	 8.83369682561916E-03 
1724	 8.75043118064149E-03 
1725	 9.61948793560766E-03 
1726	 9.97345363136642E-03 
1727	 9.64467290503795E-03 
1728	 9.42548812579975E-03 
1729	 9.26077999640668E-03 
1730	 8.93052459193095E-03 
1731	 8.87107006285021E-03 
1732	 9.54002004554805E-03 
1733	 9.83729064807003E-03 
1734	 9.46708942196219E-03 
1735	 9.33492201842608E-03 
1736	 8.91973337731059E-03 
1737	 8.62386545974278E-03 
1738	 0.009192826284441 
1739	 9.75355561742274E-03 
1740	 9.50894599918593E-03 
1741	 8.85437372812818E-03 
1742	 8.5631849244908E-03 
1743	 8.29005291846059E-03 
1744	 8.20554176371608E-03 
1745	 8.68281474999047E-03 
1746	 8.38154552474449E-03 
1747	 8.08496668139534E-03 
1748	 8.10850125890501E-03 
1749	 8.00383965196401E-03 
1750	 7.62436394896565E-03 
1751	 7.85009237587827E-03 
1752	 8.47375585921801E-03 
1753	 8.44194867836975E-03 
1754	 8.00773354906791E-03 
1755	 7.95233198076666E-03 
1756	 8.20143530055858E-03 
1757	 8.71011319215391E-03 
1758	 8.67678445505225E-03 
1759	 7.74267396826459E-03 
1760	 6.48304218979325E-03 
1761	 7.23368855784628E-03 
1762	 8.46095366562511E-03 
1763	 8.78455248255172E-03 
1764	 9.58302944648648E-03 
1765	 8.6412282503527E-03 
1766	 7.04138687917169E-03 
1767	 7.96394101971062E-03 
1768	 8.04523191833207E-03 
1769	 6.91957824097781E-03 
1770	 7.31990134257749E-03 
1771	 8.42077189678623E-03 
1772	 8.48279385615825E-03 
1773	 8.5241578125805E-03 
1774	 9.16824974280174E-03 
1775	 6.53170312030102E-03 
1776	 6.28651166131017E-03 
1777	 8.97416200987178E-03 
1778	 8.81088539842226E-03 
1779	 7.85885304363383E-03 
1780	 8.00008026191164E-03 
1781	 6.3702122157972E-03 
1782	 6.20376499185396E-03 
1783	 8.42034316300256E-03 
1784	 8.93534379627437E-03 
1785	 9.18972557116907E-03 
1786	 9.12961313164466E-03 
1787	 8.04205641949445E-03 
1788	 8.31022094405515E-03 
1789	 7.99838818825748E-03 
1790	 7.44989859937316E-03 
1791	 1.19754951741518E-02 
1792	 1.16312339971977E-02 
1793	 8.27759151550381E-03 
1794	 7.65424410936581E-03 
1795	 3.21279584654678E-03 
1796	 5.47420496858307E-03 
1797	 0.015204285214473 
1798	 1.75802905663935E-02 
1799	 2.30071418271289E-02 
1800	 0.021025183320785 
1801	 1.75469364644196E-02 
1802	 2.82951957824448E-03 
1803	-1.57578108894088E-03 
1804	 2.04698013007472E-03 
1805	 1.54955448086843E-02 
1806	 9.33293226856951E-02 
1807	 0.126268236556408 
1808	 0.107229655402837 
1809	 8.01658057393416E-02 
1810	-0.145528927496148 
1811	-0.211431209291159 
1812	 2.25540417424377E-02 
1813	 0.100789339185031 
1814	 0.334268622851834 
1815	 0.346892887838304 
1816	 3.75023907189309E-02 
1817	-0.145716110209298 
1818	-0.367149718913265 
1819	-0.337282916448199 
1820	-0.186477673095566 
1821	 0.548616742446466 
1822	 0.89191030281238 
1823	 0.320759229420334 
1824	 0.29504551001263 
1825	 0.193619495690166 
1826	 0.186612582716458 
1827	 1.03016772111325 
1828	 2.08832831369411 
1829	 1.03665679342018 
1830	 0.412550919952971 
1831	 0.308782438830648 
1832	 0.186134769632845 
1833	 0.139663553669649 
1834	-3.78628947122583E-02 
1835	-0.842799467566738 
1836	-1.01347685890233 
1837	-0.830458847088073 
1838	-0.878739756178332 
1839	-0.597219533640702 
1840	 0.762087367095566 
1841	 1.98390822841761 
1842	 0.978010924646274 
1843	 1.21683585026824 
1844	 2.10480852673999 
1845	 2.31397366171578 
1846	 0.577653848653188 
1847	 0.585040684509318 
1848	 0.221662700593604 
1849	 0.298474316801696 
1850	-0.283387574386811 
1851	-1.14881957357916 
1852	 0.915307363452503 
1853	-2.68675832283363 
1854	-7.4536746307042 
1855	-7.05836337022638 
1856	-5.6093315003791 
1857	-1.31713372240428 
1858	-1.12638277676899 
1859	-0.879738290071877 
1860	 10.1489685669785 
1861	 3.48743753514777 
1862	 0.814215447995854 
1863	 1.24573416453223 
1864	 2.82161212309746 
1865	 0.733553446426491 
1866	-0.192013101462813 
1867	-0.235350736466221 
1868	-0.38512440615272 
1869	-0.316302235368693 
1870	 0.346970406754485 
1871	 2.37071854164271 
1872	 0.762879512788986 
1873	 0.255723792491075 
1874	 0.344541537414371 
1875	 1.50919946957421 
1876	 3.18762019287322 
1877	-0.353238520040812 
1878	-0.151261535873104 
1879	 0.996538459875879 
1880	 1.39902451327579 
1881	 0.808718070025568 
1882	 0.042937176660436 
1883	 0.743308259669438 
1884	 1.40514208555203 
1885	 0.334205898502887 
1886	-0.234269388122055 
1887	-3.62286872538394E-02 
1888	-0.3153254702759 
1889	-0.642634155783391 
1890	-0.594246193178113 
1891	-0.789834165413093 
1892	-1.68512524681613 
1893	-2.40214352639862 
1894	-1.11714534749535 
1895	-2.26420784239458 
1896	-2.69273412394983 
1897	-6.57590179552748 
1898	-2.18010058919348 
1899	 5.28059927176229 
1900	 0.259806572429131 
1901	-0.113019124637209 
1902	-0.381927079392955 
1903	-0.669711419728456 
1904	-1.71028727678072 
1905	-6.50301752289887 
1906	-0.663810213185047 
1907	-0.142353635956208 
1908	-0.229586710627069 
1909	-0.240435450177911 
1910	 0.243745599182201 
1911	 0.726454290982383 
1912	 3.63208532676645 
1913	-10.8981427121243 
1914	-1.12499445057113 
1915	-0.44562906088531 
1916	 0.165486204009089 
1917	 8.29663553391075E-02 
1918	-2.12822048886628E-02 
1919	-0.892197907519853 
1920	-2.31541480694625 
1921	 1.6743009353115 
1922	 1.50395575062377 
1923	-24.5452739865415 
1924	-0.821343762113705 
1925	-0.546929251805575 
1926	-0.168573514272521 
1927	 0.403612815778016 
1928	-12.1743859314192 
1929	 17.3838551300032 
1930	-0.12028164333343 
1931	-36.4594493158176 
1932	-0.842730219877928 
1933	-0.275826541027283 
1934	 0.113487266309515 
1935	-7.81608549613519E-02 
1936	-0.5976571460794 
1937	-0.70786872089146 
1938	-0.764844429301201 
1939	-0.605334094040928 
1940	-0.362169328878587 
1941	-0.211506697177998 
1942	-0.158430852589056 
1943	-0.12609252859733 
1944	-0.133290968973582 
1945	-6.80800768538662E-02 
1946	-4.45102474884225E-02 
1947	-1.59646106237943E-02 
1948	 6.68513988841735E-02 
1949	 7.47114215888013E-02 
1950	 7.11114799831058E-02 
1951	 5.33901215724642E-02 
1952	 2.49253554824542E-02 
1953	-0.026234908996111 
1954	-0.059799433692788 
1955	-5.10283601324041E-02 
1956	-3.90254228717183E-02 
1957	-3.41366691835812E-02 
1958	-1.19479738678281E-02 
1959	-1.62250993626821E-02 
1960	-1.55227183219343E-02 
1961	-8.04771905320923E-04 
1962	 4.65054919412779E-03 
1963	 1.08551528207317E-02 
1964	 0.013593813891903 
1965	 1.26276810686888E-02 
1966	 1.09698008911853E-02 
1967	 9.07799238553974E-03 
1968	 6.18263492947089E-03 
1969	 1.07528883343061E-03 
1970	-2.23954582492387E-03 
1971	-1.9565817055737E-03 
1972	-2.32612129387083E-03 
1973	-1.3976802086345E-03 
1974	 4.21674373342785E-04 
1975	-3.27602311365337E-04 
1976	-5.29579753651373E-04 
1977	 8.77105352882038E-04 
1978	 5.49403531124757E-05 
1979	-6.91405225661615E-05 
1980	-2.88040129056605E-04 
1981	 3.48517229215688E-04 
1982	 6.37293636353202E-04 
1983	 2.17149193383894E-03 
1984	 2.03502351432433E-03 
1985	 7.08518850072941E-04 
1986	-1.08306177176465E-04 
1987	-6.9494378147176E-04 
1988	-4.65580555049511E-04 
1989	-4.23019272163145E-04 
1990	 8.44577796163921E-04 
1991	 2.22803512048151E-03 
1992	 2.57618638278971E-03 
1993	 4.15082866651793E-03 
1994	 4.77180161987299E-03 
1995	 4.26242963222752E-03 
1996	 2.05588378093444E-03 
1997	 2.14146692094369E-03 
1998	 3.35284420785671E-03 
1999	 4.55358232842647E-03 
2000	 5.14927512557441E-03 
2001	 5.00394307203843E-03 
2002	 5.88743646282034E-03 
2003	 5.9203203121159E-03 
2004	 7.63724669303339E-03 
2005	 1.29763037441248E-02 
2006	 1.48758310748739E-02 
2007	 1.20393914079726E-02 
2008	 8.65254712895535E-03 
2009	 6.15533208681312E-03 
2010	 4.49615500476788E-04 
2011	-1.78531796993826E-03 
2012	-1.77401883156339E-03 
2013	-1.15323963124007E-03 
2014	 1.29540615167436E-03 
2015	 3.93678783693492E-03 
2016	 3.92052225333921E-03 
2017	 3.17091588794747E-03 
2018	 1.16651404030021E-03 
2019	-7.09135934905188E-04 
2020	-1.73542944814009E-05 
2021	 1.24998517695714E-03 
2022	 2.16822376038839E-03 
2023	 2.49660482033665E-03 
2024	 1.69839215703995E-03 
2025	-9.36370371245652E-04 
2026	-1.44107176797056E-03 
2027	-1.58514979388146E-03 
2028	-1.83073156247532E-03 
2029	-1.18995312266685E-03 
2030	-5.57400572913108E-04 
2031	-2.17806352853125E-04 
2032	 4.84732588928085E-04 
2033	 7.53096356083162E-04 
2034	 1.58367597806062E-04 
2035	 3.92732447991177E-04 
2036	 1.4081944951935E-03 
2037	 1.42187628079994E-03 
2038	 1.44083322745672E-03 
2039	 1.46259352548372E-03 
2040	 4.84754790541353E-04 
2041	 9.16443447172645E-05 
2042	 2.5320171720702E-04 
2043	 4.80327529332359E-04 
2044	 9.11902540891542E-04 
2045	 1.50632572916285E-03 
2046	 1.16244616833632E-03 
2047	 9.53861789391445E-04 
2048	 1.2862941902277E-03 
2049	 5.84009261123412E-04 
2050	 3.56469763561556E-04 
2051	 9.61182743658819E-04 
2052	 1.10672855966685E-03 
2053	 5.73801901605444E-04 
2054	 8.76220575108218E-04 
2055	 1.81333770016022E-03 
2056	 1.79850718191393E-03 
2057	 1.12536525826921E-03 
2058	 1.33744399939497E-03 
2059	 1.12664090435013E-03 
2060	 1.31299572321215E-03 
2061	 2.75386192811319E-03 
2062	 3.17469471949906E-03 
2063	 1.6846074629129E-03 
2064	 7.9497162746752E-04 
2065	 2.46239257112443E-04 
2066	 2.1558729904437E-04 
2067	 1.5587687433071E-03 
2068	 1.9549057030016E-03 
2069	 1.57149098241775E-03 
2070	 9.81761639239786E-04 
2071	 1.73456738791413E-04 
2072	 8.3880646459013E-04 
2073	 9.8031842612003E-04 
2074	 1.14397643226717E-03 
2075	 1.40341074698403E-03 
2076	 1.26587020435204E-03 
2077	 1.59218102520724E-03 
2078	 2.92639855237695E-03 
2079	 3.30513886315839E-03 
2080	 3.46692815480188E-03 
2081	 3.54576681803214E-03 
2082	 3.22776594105412E-03 
2083	 2.11759709058831E-03 
2084	 1.5159858106944E-03 
2085	 1.16366149635324E-03 
2086	 1.28671935197516E-03 
2087	 1.83600924861609E-03 
2088	 2.13840189855524E-03 
2089	 2.66759612411635E-03 
2090	 2.89002958454068E-03 
2091	 2.56844759500296E-03 
2092	 2.26118269452239E-03 
2093	 1.6476582696005E-03 
2094	 1.72763071930184E-03 
2095	 1.84951912634156E-03 
2096	 1.92557050614389E-03 
2097	 2.58973498270592E-03 
2098	 2.97035210688681E-03 
2099	 2.92908895882125E-03 
2100	 3.38481674514197E-03 
2101	 4.10360134718056E-03 
2102	 4.23548006299215E-03 
2103	 3.87921479005643E-03 
2104	 3.93319175561347E-03 
2105	 3.6189395082124E-03 
2106	 2.76770429382735E-03 
2107	 3.43696587103183E-03 
2108	 4.39294024058332E-03 
2109	 5.19301039346621E-03 
2110	 6.31699437747816E-03 
2111	 6.04633721719336E-03 
2112	 5.68620207909869E-03 
2113	 5.47371211272387E-03 
2114	 5.06645893951135E-03 
2115	 4.80557105163011E-03 
2116	 4.70604462810028E-03 
2117	 4.19050530035362E-03 
2118	 3.36485705910886E-03 
2119	 3.04569177331626E-03 
2120	 2.83740736315216E-03 
2121	 2.83534649250628E-03 
2122	 2.30164484003731E-03 
2123	 1.78940754910813E-03 
2124	 2.50271301123703E-03 
2125	 3.36362450804626E-03 
2126	 3.45051753557831E-03 
2127	 4.41920456188217E-03 
2128	 4.83124772652378E-03 
2129	 3.01723263019753E-03 
2130	 2.91323522278724E-03 
2131	 3.64953263472718E-03 
2132	 2.79652636404899E-03 
2133	 0.003008863364386 
2134	 3.26504047929405E-03 
2135	 3.93519989977209E-03 
2136	 3.71550366059195E-03 
2137	 3.16150435123825E-03 
2138	 3.19895348244842E-03 
2139	 2.90589369339542E-03 
2140	 2.77217474315304E-03 
2141	 3.61915311367017E-03 
2142	 3.7971171848918E-03 
2143	 3.28570457940553E-03 
2144	 3.05489114530463E-03 
2145	 3.63360612440691E-03 
2146	 3.55437493571694E-03 
2147	 3.08253196787225E-03 
2148	 3.47045004781155E-03 
2149	 4.46980112956458E-03 
2150	 3.87553104151892E-03 
2151	 3.44460382518015E-03 
2152	 3.45051599685582E-03 
2153	 1.71217026892168E-03 
2154	 0.001320902641637 
2155	 2.78754435764015E-03 
2156	 3.57227743302718E-03 
2157	 3.53393579511513E-03 
2158	 3.26100703914291E-03 
2159	 3.15802682068822E-03 
2160	 1.75037317656665E-03 
2161	 1.49965495425335E-03 
2162	 2.90019125147437E-03 
2163	 3.30231069015399E-03 
2164	 2.76804002911024E-03 
2165	 2.88918378067505E-03 
2166	 3.25569356692235E-03 
2167	 3.18605627026391E-03 
2168	 3.50523985428774E-03 
2169	 3.81650928121864E-03 
2170	 3.89209644077236E-03 
2171	 3.64589622150919E-03 
2172	 4.32543993396196E-03 
2173	 5.10231826052869E-03 
2174	 4.65601131776154E-03 
2175	 2.95348528884619E-03 
2176	 1.4645809829463E-03 
2177	 1.99651871731255E-04 
2178	-5.1031564655032E-04 
2179	 1.16275743082356E-03 
2180	 1.92588395788359E-03 
2181	 9.13106035552081E-04 
2182	 4.66358853959151E-04 
2183	-2.76744598153441E-04 
2184	 9.57707783340863E-04 
2185	 2.50015605373014E-03 
2186	 2.60013414818806E-03 
2187	 2.70041294971876E-03 
2188	 2.29877731859782E-03 
2189	-7.88789195394781E-04 
2190	-9.19787475113529E-04 
2191	 1.23028481554833E-03 
2192	 1.56287895372934E-03 
2193	 2.21080197687049E-03 
2194	 2.90198356207639E-03 
2195	 3.22788424898559E-03 
2196	 3.14935688510125E-03 
2197	 2.21902820039858E-03 
2198	 1.84698006851846E-03 
2199	 1.41853094542153E-03 
2200	 5.92906779001531E-05 
2201	 3.47303032893601E-04 
2202	 3.90438699914939E-03 
2203	 3.72587745153268E-03 
2204	 2.68889310790286E-03 
2205	 2.87890986178543E-03 
2206	 2.00918730014996E-03 
2207	 3.83464231570974E-03 
2208	 6.09376034784289E-03 
2209	 4.96119196422994E-03 
2210	 4.60123647183883E-03 
2211	 3.1152092125543E-03 
2212	 1.19581556739517E-03 
2213	 2.88551197619803E-03 
2214	 3.86630903686424E-03 
2215	 3.45003678851409E-03 
2216	 2.94822777131014E-03 
2217	 2.15171405775517E-03 
2218	-5.00813206420242E-04 
2219	-1.08834643858592E-03 
2220	-4.43658855267814E-04 
2221	-1.00904655327106E-04 
2222	 5.49165466154475E-04 
2223	 1.13269456290397E-03 
2224	 2.05550149243401E-03 
2225	 2.07875092062522E-03 
2226	 1.6789481430778E-03 
2227	 1.98975171792139E-03 
2228	 2.73847721837439E-03 
2229	 2.64690260933495E-03 
2230	 1.48453618939516E-03 
2231	 1.26637463942786E-03 
2232	 5.38105600050694E-04 
2233	 1.16820491668067E-03 
2234	 3.85535908044975E-03 
2235	 6.40077631595748E-03 
2236	 6.33929951793363E-03 
2237	 4.36793925068046E-03 
2238	 2.12336559423533E-03 
2239	 9.22899110990554E-04 
2240	 1.5351875578434E-03 
2241	 2.56778314149484E-03 
2242	 2.28989623214441E-03 
2243	 2.32979649915104E-03 
2244	 4.01193468200941E-03 
2245	 5.27015200197217E-03 
2246	 5.47390650138951E-03 
2247	 5.68581631925867E-03 
2248	 4.93705702351087E-03 
2249	 4.98986570732296E-03 
2250	 5.68123482876776E-03 
2251	 4.69372457447204E-03 
2252	 3.25935286073105E-03 
2253	 6.05269044208466E-04 
2254	 8.35228851905436E-04 
2255	 2.09314857311661E-03 
2256	-7.09776846565912E-04 
2257	-2.10650859048264E-03 
2258	-2.14122250905658E-03 
2259	-2.03564069215679E-03 
2260	-2.91785783566085E-03 
2261	-1.10683377352257E-03 
2262	-1.28955471290607E-03 
2263	-6.84924911064991E-03 
2264	-6.71166466786192E-03 
2265	-8.0491598055574E-05 
2266	 5.63240936450329E-04 
2267	-1.23976002538737E-03 
2268	-1.5905813667289E-04 
2269	-9.80082318063932E-04 
2270	-7.74049972476664E-04 
2271	 3.9734561967083E-03 
2272	 4.4187521264474E-03 
2273	 1.50052351832178E-03 
2274	 5.28270502379623E-04 
2275	-2.36620689610924E-03 
2276	-2.4709050717602E-03 
2277	 1.47881405938703E-04 
2278	 1.01803721195993E-03 
2279	 3.17074649007913E-03 
2280	 4.34330026830803E-03 
2281	 4.48572169661881E-03 
2282	 3.89180603947481E-03 
2283	 2.41275409887144E-03 
2284	 2.24925317622914E-03 
2285	 4.67579563954815E-03 
2286	 5.22727148008333E-03 
2287	 5.66087136791888E-03 
2288	 7.29275779353982E-03 
2289	 6.0638578823037E-03 
2290	 6.24162910133083E-03 
2291	 1.05712168816106E-02 
2292	 0.012079716158258 
2293	 9.49982829828648E-03 
2294	 5.78654556187814E-03 
2295	 5.48162629174784E-04 
2296	-1.78218902986526E-03 
2297	 1.27290330215266E-03 
2298	 9.9517676395159E-04 
2299	-4.67801853101375E-03 
2300	-6.79762857142319E-03 
2301	-6.93708567557742E-03 
2302	-7.49664018181942E-03 
2303	-3.01557831887124E-03 
2304	 1.01609015587529E-03 
2305	 6.2104892319179E-04 
2306	 2.45302395726836E-03 
2307	 5.60620771727239E-03 
2308	 5.93799196326007E-03 
2309	 6.39862505424311E-03 
2310	 7.73589824416288E-03 
2311	 6.82818572290037E-03 
2312	 4.28420798784245E-03 
2313	 2.40429257241921E-03 
2314	 1.65867272110777E-03 
2315	-3.34278979249827E-04 
2316	-1.89459802314312E-03 
2317	-2.34006485885691E-03 
2318	-5.47987690256912E-03 
2319	-5.70695537936174E-03 
2320	-2.3466286257532E-03 
2321	-4.64911051518148E-03 
2322	-5.40091109379019E-03 
2323	 2.15067775206218E-03 
2324	 1.7833257733734E-03 
2325	-1.15469941277605E-03 
2326	 2.93218314960732E-03 
2327	-1.05534273542117E-03 
2328	 5.13058124479886E-04 
2329	 1.07279748080508E-02 
2330	 9.19369875075732E-03 
2331	 5.61874875818271E-03 
2332	 2.54510257049276E-03 
2333	 4.86302422345778E-05 
2334	 4.22423961846663E-03 
2335	 2.69777765352279E-03 
2336	 1.10603127403965E-03 
2337	 4.8113884296995E-03 
2338	 1.65764328343853E-03 
2339	 3.09674128205569E-03 
2340	 4.2927764977741E-03 
2341	-3.97883534370922E-03 
2342	-8.26734414782478E-03 
2343	-1.51949748827465E-02 
2344	-2.30098212618589E-02 
2345	-2.25345306173725E-02 
2346	-1.06386875093365E-02 
2347	 4.05350764628899E-03 
2348	 5.52899948902943E-03 
2349	-2.73591093708002E-03 
2350	-9.02817105607089E-03 
2351	-1.45049974129299E-02 
2352	-0.011946177166693 
2353	-6.26674932937609E-04 
2354	 2.84130686266558E-03 
2355	 1.00957008847882E-03 
2356	-2.0714706070158E-03 
2357	 3.24495200333597E-03 
2358	 4.6166011049915E-03 
2359	-5.24137754821598E-03 
2360	-3.37233285422925E-03 
2361	 7.77780330642911E-04 
2362	-7.35065022240649E-04 
2363	 8.58792616872571E-03 
2364	 2.17300809069646E-02 
2365	 0.018438904865285 
2366	 1.63884856383052E-02 
2367	 1.39211951067553E-02 
2368	-1.31545097211944E-03 
2369	-9.75650021782118E-03 
2370	-9.13388901455189E-03 
2371	-8.48250018622601E-03 
2372	-1.02822832337562E-02 
2373	 1.00824600248682E-03 
2374	 1.14304396352072E-02 
2375	 1.51240206220433E-02 
2376	 1.64803586751959E-02 
2377	-0.000497638038354 
2378	-1.42096985734777E-02 
2379	-2.00820866657431E-02 
2380	-2.17411981238455E-02 
2381	-2.93768610310677E-02 
2382	-5.50753097699541E-02 
2383	-5.85659723608666E-02 
2384	-4.70478124456639E-02 
2385	-2.16990524867482E-02 
2386	 2.98713201902564E-02 
2387	 2.43308853372414E-02 
2388	-0.021240972115483 
2389	-1.14009027402967E-02 
2390	 6.08164815040649E-03 
2391	 1.27001077530824E-02 
2392	 2.29919432561355E-02 
2393	 1.26247086707777E-02 
2394	-1.53869507107663E-03 
2395	-1.52237554268724E-02 
2396	-0.013814712137143 
2397	-5.57480789383614E-03 
2398	-2.36750647801534E-02 
2399	-2.14307809514655E-02 
2400	 1.73327511326886E-02 
2401	 0.04974474297482 
2402	 6.03560151784087E-02 
2403	 6.08412008328988E-02 
2404	 6.79732640923664E-02 
2405	 4.07902323178602E-02 
2406	 4.11466386358702E-03 
2407	-0.020952218603514 
2408	-5.41904702835728E-02 
2409	-3.99372179895434E-02 
2410	-2.65818724328273E-02 
2411	-1.43081966582856E-02 
2412	-2.02367316225863E-02 
2413	-4.61218316821676E-02 
2414	-7.02155546336419E-03 
2415	 3.30249561746074E-02 
2416	 4.09894332290766E-02 
2417	 6.41083323521061E-02 
2418	 2.30917674137931E-02 
2419	-4.79886080561169E-02 
2420	-3.00218875273904E-02 
2421	-9.47965745569504E-02 
2422	-0.148005854262493 
2423	-7.03667111610403E-02 
2424	-7.21298677509674E-02 
2425	-4.87401525049703E-02 
2426	 5.25652778503402E-02 
2427	 1.78255512268316E-02 
2428	-3.61869016830345E-02 
2429	-6.66939234118244E-02 
2430	-0.135304389323914 
2431	-0.104520108790947 
2432	-0.120736637162823 
2433	-0.110057051371909 
2434	-2.74258284818853E-03 
2435	-8.10817114289995E-02 
2436	-6.69888983254981E-02 
2437	-1.64250739776343E-02 
2438	-0.132041449938168 
2439	-0.221028740915817 
2440	-0.252127303476841 
2441	-0.156443581801395 
2442	-1.81910475957233E-02 
2443	 7.42568782047393E-03 
2444	 0.27751596373166 
2445	 0.265279395744441 
2446	 0.101261043307449 
2447	 0.743276068249556 
2448	 0.904080432910572 
2449	 0.402785916207606 
2450	 0.21062799649726 
2451	 0.112671285174613 
2452	-0.185178989203901 
2453	-0.956462490033503 
2454	-0.735751649188152 
2455	-1.21499366352362 
2456	-1.00733974322603 
2457	-0.488486263767373 
2458	-0.201960522306457 
2459	-0.194543143067872 
2460	 2.88157245198585E-02 
2461	 0.217826350019942 
2462	 9.17371488844947E-02 
2463	 0.037159964141907 
2464	-3.46872862358984E-02 
2465	-0.328677614153769 
2466	-0.394449556488977 
2467	-0.588755761075749 
2468	-0.98165670058034 
2469	-0.61184890290723 
2470	-0.329476266174226 
2471	-0.229110842608996 
2472	-0.402503032865019 
2473	-1.05542051549396 
2474	-3.4857195992895 
2475	-4.34792143639754 
2476	 19.6054899562827 
2477	 3.70590003858183 
2478	-4.74382997290771 
2479	-4.26976711579633 
2480	 1.75471038486221 
2481	-1.74221529203871E-02 
2482	-0.115733097413359 
2483	-0.100060864591446 
2484	-0.335381326127553 
2485	-0.238087855524589 
2486	-0.637093212822364 
2487	-2.63578288999816 
2488	 59.1281901466934 
2489	 3.75351855054631 
2490	-0.379130602732658 
2491	-0.812578017443142 
2492	-0.562436684126712 
2493	-0.986413020457489 
2494	-0.713533541178038 
2495	-1.35975842484093 
2496	-2.163644287359 
2497	 38.2767360169984 
2498	 1.33569661202835 
2499	 1.21862265666398 
2500	-0.352612816183811 
