Wavelength	rt0716a200009.asd
350	 8.98291473880982E-02 
351	 8.96673669498053E-02 
352	 9.01290326473365E-02 
353	 9.05198934150356E-02 
354	 9.04633944432098E-02 
355	 9.09250047613946E-02 
356	 0.091706271592441 
357	 9.20171270812524E-02 
358	 9.14678969996092E-02 
359	 9.20642955172247E-02 
360	 0.09223534747493 
361	 9.24424225740453E-02 
362	 9.41605873840143E-02 
363	 0.093898409202485 
364	 9.33834907773771E-02 
365	 0.093710978019894 
366	 9.40700177486142E-02 
367	 9.42656141394374E-02 
368	 9.44866774987386E-02 
369	 9.48414646823881E-02 
370	 9.46459258941044E-02 
371	 9.50653684636079E-02 
372	 0.095618792048032 
373	 9.51214667074617E-02 
374	 9.52181993042154E-02 
375	 9.56392268491942E-02 
376	 9.60422708526547E-02 
377	 9.62788324322361E-02 
378	 0.096059521624568 
379	 9.59177829234917E-02 
380	 0.096256399040911 
381	 9.64699803247528E-02 
382	 9.67925378689719E-02 
383	 9.70155921447582E-02 
384	 9.68578128496248E-02 
385	 9.69953754206355E-02 
386	 9.68826065801273E-02 
387	 9.66259477276148E-02 
388	 9.70883038770089E-02 
389	 9.74193303809987E-02 
390	 9.73628967357459E-02 
391	 9.71092279809739E-02 
392	 0.097654999953246 
393	 0.097446434447839 
394	 9.69705338751858E-02 
395	 9.71404218605953E-02 
396	 9.67825035723981E-02 
397	 9.67106253081246E-02 
398	 9.69491524549507E-02 
399	 9.68018925696472E-02 
400	 9.64535797823101E-02 
401	 9.62211047810565E-02 
402	 9.62231190709402E-02 
403	 9.61287471503497E-02 
404	 9.60529112747283E-02 
405	 9.58910609094371E-02 
406	 9.55711285889564E-02 
407	 9.56756654289608E-02 
408	 0.095416849682486 
409	 0.094847973598349 
410	 9.48539763562773E-02 
411	 9.47183409484104E-02 
412	 9.46002706187193E-02 
413	 9.46021741211387E-02 
414	 9.42925340179859E-02 
415	 9.41686187385681E-02 
416	 0.09407702353935 
417	 9.37465807989783E-02 
418	 0.093923436760085 
419	 9.39407502686664E-02 
420	 9.36716712534758E-02 
421	 9.36507486324054E-02 
422	 9.37001280231926E-02 
423	 9.38299545439375E-02 
424	 9.40057355083087E-02 
425	 9.39569780677188E-02 
426	 0.094122896590505 
427	 9.44809254651195E-02 
428	 9.47804142965158E-02 
429	 9.49382058922038E-02 
430	 9.52186413823126E-02 
431	 9.56623661783042E-02 
432	 0.0960191495098 
433	 9.62769331878292E-02 
434	 9.64541445499611E-02 
435	 9.66314479612183E-02 
436	 9.70546753523431E-02 
437	 9.73381588903143E-02 
438	 9.74578390923833E-02 
439	 9.75896793526788E-02 
440	 9.77458940156186E-02 
441	 9.78591031642833E-02 
442	 9.79046252791801E-02 
443	 9.79382548040927E-02 
444	 9.78081276244595E-02 
445	 9.76925902822035E-02 
446	 9.77483690161087E-02 
447	 9.77015662701784E-02 
448	 9.75836520897585E-02 
449	 9.74445654705499E-02 
450	 9.73431544544415E-02 
451	 9.73240573544368E-02 
452	 9.71908994757847E-02 
453	 9.68922847456503E-02 
454	 9.67340849911665E-02 
455	 9.65739359012219E-02 
456	 0.096410450880947 
457	 9.62696014798198E-02 
458	 9.60863302212904E-02 
459	 9.58501208318199E-02 
460	 9.55774942432352E-02 
461	 9.53119546149903E-02 
462	 9.51455616259556E-02 
463	 9.49799943036435E-02 
464	 9.47394896637047E-02 
465	 9.45252219416092E-02 
466	 9.42490158873833E-02 
467	 9.39993419386847E-02 
468	 9.39022230328725E-02 
469	 9.36956754240767E-02 
470	 9.34697179597121E-02 
471	 9.32920898129053E-02 
472	 9.31579285987047E-02 
473	 9.29167533939608E-02 
474	 9.27391165057986E-02 
475	 9.27543736300313E-02 
476	 9.26533438977616E-02 
477	 9.24755762323184E-02 
478	 9.23155691600924E-02 
479	 9.22843459746596E-02 
480	 9.22388389092722E-02 
481	 9.22185657762395E-02 
482	 9.22533857220999E-02 
483	 9.23040454662107E-02 
484	 9.23795274999124E-02 
485	 0.092468497011701 
486	 9.25422351460146E-02 
487	 9.25038035443109E-02 
488	 9.26036426745841E-02 
489	 9.28141764074511E-02 
490	 9.28454855303172E-02 
491	 9.29849677751595E-02 
492	 9.32194094907698E-02 
493	 9.34894051416086E-02 
494	 0.093802148168262 
495	 9.39565543213012E-02 
496	 9.40728288825467E-02 
497	 9.43948651586264E-02 
498	 9.46756235446022E-02 
499	 9.48942051686375E-02 
500	 9.50857441619588E-02 
501	 9.53313051489629E-02 
502	 9.56320422172818E-02 
503	 9.59031486700341E-02 
504	 9.60760910052335E-02 
505	 9.62337802230553E-02 
506	 9.64637727764622E-02 
507	 9.67739794968293E-02 
508	 0.097106379196177 
509	 9.74429810053506E-02 
510	 9.76974804028778E-02 
511	 9.78893890413643E-02 
512	 9.83056335736877E-02 
513	 9.87498855485254E-02 
514	 9.91800565458518E-02 
515	 9.96182598901012E-02 
516	 0.100097322468505 
517	 0.100605335292219 
518	 0.10111801371882 
519	 0.101604476332578 
520	 0.102195445364255 
521	 0.102915807982581 
522	 0.103703125140033 
523	 0.10425922756862 
524	 0.105000929641503 
525	 0.105951702575678 
526	 0.106862404249302 
527	 0.107827383732599 
528	 0.108822364562492 
529	 0.109831860852679 
530	 0.110889540526076 
531	 0.111993681310513 
532	 0.113168217168583 
533	 0.11442559012423 
534	 0.115685879631725 
535	 0.116993839247359 
536	 0.118344160770014 
537	 0.119659324805355 
538	 0.121076593796979 
539	 0.12252887129098 
540	 0.123924651996456 
541	 0.125252053972922 
542	 0.126648224242722 
543	 0.128054766325496 
544	 0.129318856420623 
545	 0.130623059474001 
546	 0.131915294751138 
547	 0.133164102395779 
548	 0.134449050358753 
549	 0.135633712881454 
550	 0.13675099539646 
551	 0.137883646792116 
552	 0.139006528006904 
553	 0.140102067138036 
554	 0.141137995660995 
555	 0.14206640930177 
556	 0.143173621037663 
557	 0.144295396368079 
558	 0.145253662728193 
559	 0.146241371204268 
560	 0.147270023734296 
561	 0.148290442192384 
562	 0.14923294843763 
563	 0.150204843573861 
564	 0.151180498667438 
565	 0.152122545881798 
566	 0.153003630520346 
567	 0.15393366919811 
568	 0.154792025738946 
569	 0.155446006599857 
570	 0.156231038940703 
571	 0.156970249964737 
572	 0.157620669138679 
573	 0.158310510380476 
574	 0.158890028285475 
575	 0.159479756156442 
576	 0.160159246516318 
577	 0.160693258223901 
578	 0.161195572411598 
579	 0.161698989368759 
580	 0.162188209895116 
581	 0.162679968768578 
582	 0.163140539972584 
583	 0.163548804935993 
584	 0.163914611804165 
585	 0.164213275358614 
586	 0.164419459141821 
587	 0.164549563543266 
588	 0.164840867310498 
589	 0.165120552232834 
590	 0.165322889958316 
591	 0.165549925899517 
592	 0.165771449062977 
593	 0.16596564538853 
594	 0.166114578598581 
595	 0.166230661422129 
596	 0.166293541071073 
597	 0.166337372374704 
598	 0.166416870631011 
599	 0.166470456592573 
600	 0.166522019110713 
601	 0.166590250041317 
602	 0.166667436808434 
603	 0.166760158424136 
604	 0.166869765648049 
605	 0.166997384497223 
606	 0.167157666433228 
607	 0.167306356869277 
608	 0.167422504702621 
609	 0.167514437185995 
610	 0.167650059946328 
611	 0.167802513565791 
612	 0.167931313677246 
613	 0.168011645744588 
614	 0.168159640794397 
615	 0.168329931784294 
616	 0.168401139794849 
617	 0.168502553301108 
618	 0.168569851233699 
619	 0.168599319759044 
620	 0.16871463270546 
621	 0.168858593851954 
622	 0.168996282893799 
623	 0.169106843327669 
624	 0.169222356767182 
625	 0.169298259671049 
626	 0.169323020084968 
627	 0.169327703007968 
628	 0.169532099396369 
629	 0.169708256252362 
630	 0.169711016639987 
631	 0.169837329303102 
632	 0.169965602115178 
633	 0.170038242387365 
634	 0.170051677315986 
635	 0.170187371826062 
636	 0.170352445765161 
637	 0.170480844959363 
638	 0.170588501241439 
639	 0.170579908900668 
640	 0.170513403245866 
641	 0.170486392640822 
642	 0.170545305838413 
643	 0.170550792343994 
644	 0.17048975466976 
645	 0.170452851703785 
646	 0.170396367367046 
647	 0.170347917696714 
648	 0.170332501262414 
649	 0.170341839108197 
650	 0.170355624189717 
651	 0.170339257445011 
652	 0.17025952902352 
653	 0.170109184804499 
654	 0.169999310421653 
655	 0.169889920628798 
656	 0.16955250926358 
657	 0.169438063450139 
658	 0.169351449436723 
659	 0.169101514136465 
660	 0.168929635771494 
661	 0.168717675455648 
662	 0.168473762655703 
663	 0.168288960470668 
664	 0.168215525901356 
665	 0.168046963448676 
666	 0.167748880205373 
667	 0.167650947419929 
668	 0.167594687593644 
669	 0.167518461933212 
670	 0.167427213178045 
671	 0.167517847931982 
672	 0.167574387999703 
673	 0.167558586644359 
674	 0.167613544983669 
675	 0.167740048554302 
676	 0.167854086428137 
677	 0.167920392038078 
678	 0.168058741248346 
679	 0.168310399412729 
680	 0.168603959080194 
681	 0.168834870070418 
682	 0.169078973782987 
683	 0.169503290230018 
684	 0.170032509828722 
685	 0.170294101658915 
686	 0.17062624233125 
687	 0.171025595729489 
688	 0.171397085991994 
689	 0.171841653305895 
690	 0.172193426845989 
691	 0.172486754857075 
692	 0.17286187278317 
693	 0.173178098953399 
694	 0.173398510445389 
695	 0.173547547554101 
696	 0.173727784281937 
697	 0.173836920590499 
698	 0.17379632532123 
699	 0.173607180351237 
700	 0.173656255092757 
701	 0.173694381451769 
702	 0.173604976518377 
703	 0.173416759760396 
704	 0.173228390680575 
705	 0.172942831516617 
706	 0.17256367966922 
707	 0.17237374511447 
708	 0.172054110180757 
709	 0.171565669017976 
710	 0.170992667338706 
711	 0.170463817757509 
712	 0.169901659920144 
713	 0.169183719330098 
714	 0.168143920097336 
715	 0.167284370594829 
716	 0.166442521913713 
717	 0.16539311452797 
718	 0.164089257360246 
719	 0.163089728948385 
720	 0.162318148589745 
721	 0.161335202068749 
722	 0.160455409174655 
723	 0.159370904577621 
724	 0.158123739728475 
725	 0.156960757585591 
726	 0.155800843777111 
727	 0.154373290306929 
728	 0.152592024180025 
729	 0.150974064801047 
730	 0.149167876736147 
731	 0.147407657069497 
732	 0.145977749338577 
733	 0.144678556931113 
734	 0.143417806199447 
735	 0.142286174036956 
736	 0.141576159545756 
737	 0.140895895936787 
738	 0.140356818291167 
739	 0.140090562404794 
740	 0.139889896508015 
741	 0.139750352434524 
742	 0.139652571552451 
743	 0.139576683109318 
744	 0.139548330985502 
745	 0.139551057252464 
746	 0.139530155325786 
747	 0.139387109517723 
748	 0.139323909718954 
749	 0.139346078623729 
750	 0.139394552715074 
751	 0.13938673895625 
752	 0.139410827274157 
753	 0.139455482374054 
754	 0.139461303928206 
755	 0.139467111897863 
756	 0.139483081160768 
757	 0.139453389548891 
758	 0.13915307423064 
759	 0.138773252571333 
760	 0.138686899496785 
761	 0.139071157667487 
762	 0.139222330995485 
763	 0.139171894600848 
764	 0.139306486570257 
765	 0.139833114274119 
766	 0.140011574932753 
767	 0.140160088523774 
768	 0.14038225793511 
769	 0.140565056598235 
770	 0.140705457961329 
771	 0.140870436364917 
772	 0.141081160877149 
773	 0.141183184387011 
774	 0.141370630551687 
775	 0.141647414922116 
776	 0.141929666498016 
777	 0.142154277740443 
778	 0.142450873921887 
779	 0.142801168070965 
780	 0.143036496827618 
781	 0.143257207775042 
782	 0.143529482863069 
783	 0.143856104806102 
784	 0.144099302997358 
785	 0.144537708143163 
786	 0.144986410113053 
787	 0.145191340651424 
788	 0.145515806708641 
789	 0.145813100329189 
790	 0.146073048286081 
791	 0.146420102972294 
792	 0.146965584608149 
793	 0.147344492376404 
794	 0.14746677271094 
795	 0.147768665464392 
796	 0.148127926816611 
797	 0.148501031774286 
798	 0.148847281490502 
799	 0.149026838200912 
800	 0.149256440175872 
801	 0.149577552578394 
802	 0.149905362835595 
803	 0.150103112106141 
804	 0.15017489772258 
805	 0.150181947498109 
806	 0.150221455376501 
807	 0.150315679808939 
808	 0.150287804157457 
809	 0.150075006408043 
810	 0.150025645176538 
811	 0.149855887010333 
812	 0.14956197722233 
813	 0.149268286661645 
814	 0.149089216489878 
815	 0.148704265273037 
816	 0.148197248290584 
817	 0.14791486063684 
818	 0.147307557083813 
819	 0.146591402053374 
820	 0.145920342695854 
821	 0.145342084550791 
822	 0.144226636477682 
823	 0.142926986462434 
824	 0.141812264230821 
825	 0.140462891180499 
826	 0.139086727824395 
827	 0.137476369014336 
828	 0.135530681974871 
829	 0.133954971090941 
830	 0.132526816022824 
831	 0.131190620732289 
832	 0.130087798610061 
833	 0.129236249852561 
834	 0.128427855327191 
835	 0.127650080908987 
836	 0.127173697515571 
837	 0.126814184047056 
838	 0.126492258474567 
839	 0.126147431542964 
840	 0.125703763430385 
841	 0.125245436083039 
842	 0.124804501390265 
843	 0.124419249784951 
844	 0.124254657426294 
845	 0.123943994954406 
846	 0.123642220822668 
847	 0.123739448471529 
848	 0.123228509850196 
849	 0.122661959702046 
850	 0.122438079340865 
851	 0.122475027630112 
852	 0.122006684269419 
853	 0.121653758007208 
854	 0.121710389490541 
855	 0.12112583060262 
856	 0.120863092131282 
857	 0.120750727957136 
858	 0.120431815989508 
859	 0.120051516629074 
860	 0.119878932038596 
861	 0.119814252234217 
862	 0.119575773979588 
863	 0.119091037335129 
864	 0.118759609407577 
865	 0.118645247549784 
866	 0.118460585516887 
867	 0.118055555766408 
868	 0.117844081833949 
869	 0.117838949132359 
870	 0.11746358598356 
871	 0.116911615211848 
872	 0.116521703417838 
873	 0.116316144341883 
874	 0.115504975833541 
875	 0.115292827692838 
876	 0.115350177239195 
877	 0.114992979330014 
878	 0.114118447553398 
879	 0.113695771759265 
880	 0.113597069226431 
881	 0.113230479349807 
882	 0.112862548894614 
883	 0.112327193768273 
884	 0.111769972028096 
885	 0.111533826922042 
886	 0.111499142253244 
887	 0.110982241109498 
888	 0.110202942860613 
889	 0.110333482777927 
890	 0.109987093226489 
891	 0.109605123818014 
892	 0.109466296026449 
893	 0.108918045330321 
894	 0.108497626177362 
895	 0.108080918259617 
896	 0.107513764723055 
897	 0.107171358747918 
898	 0.107173321633609 
899	 0.107108945385737 
900	 0.106567734414183 
901	 0.105754671654324 
902	 0.105397482661012 
903	 0.105271479812923 
904	 0.104957034396341 
905	 0.10511828770947 
906	 0.104770409237794 
907	 0.104070064497524 
908	 0.103904546544483 
909	 0.103253052807277 
910	 0.102522768041678 
911	 0.10197524217812 
912	 0.101584867470772 
913	 0.101373830744309 
914	 0.100618459705916 
915	 9.93858877315142E-02 
916	 0.098661274068591 
917	 9.86374540299454E-02 
918	 9.78978436345938E-02 
919	 9.65292548279469E-02 
920	 9.66510829139007E-02 
921	 9.59781768653852E-02 
922	 9.52825059273856E-02 
923	 9.50343887011189E-02 
924	 9.38362490360945E-02 
925	 0.092280045979912 
926	 9.17996413165708E-02 
927	 9.29173378566831E-02 
928	 9.12579709771527E-02 
929	 8.99256425018271E-02 
930	 8.94150150670918E-02 
931	 8.88197804010104E-02 
932	 8.85871907522827E-02 
933	 8.81413098135849E-02 
934	 8.78678908634406E-02 
935	 8.74824554480045E-02 
936	 8.21249898818051E-02 
937	 8.20404879433919E-02 
938	 8.33212515100595E-02 
939	 8.06900019972102E-02 
940	 8.04343731383493E-02 
941	 8.11375146251592E-02 
942	 8.11746733001062E-02 
943	 0.079204147739206 
944	 7.60684591349342E-02 
945	 7.96550685840908E-02 
946	 8.32659514547167E-02 
947	 7.58693544595978E-02 
948	 7.12444829492372E-02 
949	 7.31900111372326E-02 
950	 7.70330205265177E-02 
951	 7.54403525466954E-02 
952	 7.38997638378414E-02 
953	 7.69099425273244E-02 
954	 7.99055347658606E-02 
955	 7.48578814463574E-02 
956	 6.94670328538533E-02 
957	 6.97532012942723E-02 
958	 7.28320634468392E-02 
959	 7.16857258153746E-02 
960	 7.22184895413356E-02 
961	 7.32354692199093E-02 
962	 7.30347037994922E-02 
963	 7.08198950765914E-02 
964	 6.99552063291926E-02 
965	 0.06947968860704 
966	 6.97184006511455E-02 
967	 7.14494661060502E-02 
968	 6.96999377352118E-02 
969	 6.84553541580439E-02 
970	 6.91987236742945E-02 
971	 7.03560421947858E-02 
972	 0.069623727495866 
973	 6.90937529535067E-02 
974	 6.95395661915125E-02 
975	 6.99324421205427E-02 
976	 7.05237508129891E-02 
977	 7.03766096550423E-02 
978	 7.00132417451747E-02 
979	 7.07503294891629E-02 
980	 6.94925388267536E-02 
981	 6.91598838761175E-02 
982	 7.01373025730123E-02 
983	 7.04060638731592E-02 
984	 0.069700084708688 
985	 6.98221892738854E-02 
986	 7.05239075184751E-02 
987	 7.01056737699288E-02 
988	 6.97230424069537E-02 
989	 7.01574223069423E-02 
990	 0.070693459431501 
991	 6.99905524456139E-02 
992	 6.99750036944754E-02 
993	 7.09541895523808E-02 
994	 7.15820477099426E-02 
995	 7.02935137478054E-02 
996	 7.04305404444237E-02 
997	 7.04948212441321E-02 
998	 7.03204487224761E-02 
999	 7.07144938825661E-02 
1000	 7.18320801121617E-02 
1001	 7.25895987482414E-02 
1002	 7.27826004696811E-02 
1003	 7.29490093413679E-02 
1004	 7.31962728794556E-02 
1005	 7.33875353077561E-02 
1006	 7.36346033046924E-02 
1007	 0.073650879605471 
1008	 7.36109998111863E-02 
1009	 7.38352344243846E-02 
1010	 7.39697116311677E-02 
1011	 7.44863018259416E-02 
1012	 7.48837501246019E-02 
1013	 7.52128349298125E-02 
1014	 7.55472374590617E-02 
1015	 7.56596202262208E-02 
1016	 7.58836484637697E-02 
1017	 7.64253402040821E-02 
1018	 7.66105875282122E-02 
1019	 7.65285772867818E-02 
1020	 7.68019795558979E-02 
1021	 7.72650664003511E-02 
1022	 7.71573786106523E-02 
1023	 7.76085233614201E-02 
1024	 7.79487929034691E-02 
1025	 7.79976942926812E-02 
1026	 0.078505529962937 
1027	 7.88603909160748E-02 
1028	 0.079336347592825 
1029	 7.95933862436476E-02 
1030	 7.96881567307637E-02 
1031	 7.99103985291267E-02 
1032	 8.01830937204748E-02 
1033	 8.03531517035931E-02 
1034	 8.05649085968935E-02 
1035	 0.080688319304474 
1036	 8.04067066045266E-02 
1037	 8.05379870855652E-02 
1038	 0.080888819664697 
1039	 8.13291848538332E-02 
1040	 8.16297463858749E-02 
1041	 8.22425914135538E-02 
1042	 8.26254418836966E-02 
1043	 8.28598225384625E-02 
1044	 8.31209182576015E-02 
1045	 8.33960870810836E-02 
1046	 8.36470083994039E-02 
1047	 8.38932455892239E-02 
1048	 8.40031459978676E-02 
1049	 0.083987842702723 
1050	 8.41377260114993E-02 
1051	 8.42181539863884E-02 
1052	 8.43329511278369E-02 
1053	 8.45555829991452E-02 
1054	 8.48533290816164E-02 
1055	 8.52655612515233E-02 
1056	 8.55302807206199E-02 
1057	 8.57648057976352E-02 
1058	 8.61603917273946E-02 
1059	 8.61878282658164E-02 
1060	 8.58896973690079E-02 
1061	 8.57552467702687E-02 
1062	 8.53717075029925E-02 
1063	 8.54228958111126E-02 
1064	 8.57641923533441E-02 
1065	 8.59361978011455E-02 
1066	 8.64106610493133E-02 
1067	 8.65637639244937E-02 
1068	 8.63672119509156E-02 
1069	 8.63435504745336E-02 
1070	 0.086338656154896 
1071	 8.62759381995578E-02 
1072	 8.62784565406432E-02 
1073	 8.62083068933959E-02 
1074	 8.60236328048788E-02 
1075	 8.56754372366958E-02 
1076	 8.54832749408376E-02 
1077	 8.52793137863775E-02 
1078	 8.50743678824864E-02 
1079	 0.084783632200494 
1080	 8.47750447978946E-02 
1081	 0.085112496327861 
1082	 8.49860927424422E-02 
1083	 8.48552626415339E-02 
1084	 8.46548362191954E-02 
1085	 8.38996876701605E-02 
1086	 8.35167886764908E-02 
1087	 8.33723418382029E-02 
1088	 8.32635943075207E-02 
1089	 0.083460697626194 
1090	 8.33129754438739E-02 
1091	 8.31621061055715E-02 
1092	 8.30561041201511E-02 
1093	 8.27994793524793E-02 
1094	 8.22085467183514E-02 
1095	 8.19266136924831E-02 
1096	 8.19017303966098E-02 
1097	 8.16040402728213E-02 
1098	 8.11263527319575E-02 
1099	 8.07953432396279E-02 
1100	 8.02396952571029E-02 
1101	 7.99008330910583E-02 
1102	 8.00338276173825E-02 
1103	 7.99797502643752E-02 
1104	 7.99440769117551E-02 
1105	 7.97178295650878E-02 
1106	 7.97796727014497E-02 
1107	 7.94903398621164E-02 
1108	 7.94298252640695E-02 
1109	 7.95719063909269E-02 
1110	 0.079160043285128 
1111	 7.79726992168698E-02 
1112	 7.76076354125087E-02 
1113	 7.68280554892862E-02 
1114	 7.69569513196334E-02 
1115	 7.97306252666433E-02 
1116	 8.04662489299368E-02 
1117	 8.00590030297953E-02 
1118	 8.02001221812621E-02 
1119	 7.82943650335988E-02 
1120	 7.67412627527018E-02 
1121	 7.54603979501144E-02 
1122	 0.076350576617932 
1123	 7.56877287150293E-02 
1124	 7.37344300977368E-02 
1125	 7.73179092890949E-02 
1126	 8.13103873613654E-02 
1127	 7.82571800369231E-02 
1128	 7.43325302369765E-02 
1129	 7.42403293831159E-02 
1130	 7.39843054186002E-02 
1131	 7.27596368619758E-02 
1132	 7.34699991422208E-02 
1133	 7.26662383328367E-02 
1134	 6.94670501967579E-02 
1135	 6.73934949512449E-02 
1136	 0.066638642079607 
1137	 6.70473772432295E-02 
1138	 6.87647306852274E-02 
1139	 6.58369571295043E-02 
1140	 6.59707564320724E-02 
1141	 6.84563568104192E-02 
1142	 6.64631952927029E-02 
1143	 6.34037467312969E-02 
1144	 0.061950217661178 
1145	 5.93729528160243E-02 
1146	 5.78956719416685E-02 
1147	 5.98842360467327E-02 
1148	 6.08925557218645E-02 
1149	 5.83371934659001E-02 
1150	 5.70034055378477E-02 
1151	 5.54636331519843E-02 
1152	 5.49445284113831E-02 
1153	 5.48729010099174E-02 
1154	 5.47845588774539E-02 
1155	 5.52229069965602E-02 
1156	 5.47886789635844E-02 
1157	 5.44020489305718E-02 
1158	 5.41481187606639E-02 
1159	 5.40788551586684E-02 
1160	 5.42371075399962E-02 
1161	 5.40274351417822E-02 
1162	 5.33022730253904E-02 
1163	 5.29850396320129E-02 
1164	 5.29766166268496E-02 
1165	 5.25742552329205E-02 
1166	 5.27157497314883E-02 
1167	 5.33396935636416E-02 
1168	 5.34502685537323E-02 
1169	 5.35424422814623E-02 
1170	 5.37322152967458E-02 
1171	 5.36240718510741E-02 
1172	 5.28597045427136E-02 
1173	 5.25829658210948E-02 
1174	 5.23722271579354E-02 
1175	 5.24912569129915E-02 
1176	 5.24658242866572E-02 
1177	 5.24527557849162E-02 
1178	 5.25400734983637E-02 
1179	 0.052515289281201 
1180	 5.24636098316308E-02 
1181	 5.22083777433342E-02 
1182	 5.19777498020671E-02 
1183	 5.20506923924987E-02 
1184	 5.20418407608312E-02 
1185	 5.22399075413535E-02 
1186	 5.23807901746246E-02 
1187	 5.17123638988782E-02 
1188	 5.12933887382874E-02 
1189	 5.16571704093855E-02 
1190	 5.16156528480497E-02 
1191	 5.12887837302539E-02 
1192	 5.13549076626448E-02 
1193	 5.16184848777283E-02 
1194	 5.14291780232321E-02 
1195	 5.09793005823853E-02 
1196	 5.10155639152753E-02 
1197	 5.11027639324109E-02 
1198	 5.10027901699993E-02 
1199	 5.11739002733782E-02 
1200	 5.14606637798315E-02 
1201	 5.12772570783109E-02 
1202	 5.07350504613426E-02 
1203	 5.07419541946622E-02 
1204	 5.10838343195795E-02 
1205	 5.09286349957153E-02 
1206	 5.07465723784703E-02 
1207	 0.050745358888457 
1208	 5.07576222262492E-02 
1209	 5.10616851933616E-02 
1210	 5.11396963689585E-02 
1211	 5.08126180007899E-02 
1212	 5.08567748960113E-02 
1213	 5.10187021810841E-02 
1214	 5.09982494549752E-02 
1215	 5.10707136671976E-02 
1216	 5.13506152498369E-02 
1217	 5.12025193508778E-02 
1218	 5.08354672182064E-02 
1219	 5.10258416378938E-02 
1220	 5.13114547577814E-02 
1221	 5.14277647021556E-02 
1222	 5.16087734361021E-02 
1223	 5.14895648232413E-02 
1224	 5.12918747201753E-02 
1225	 5.12827840072952E-02 
1226	 5.12532334559156E-02 
1227	 5.13610025281708E-02 
1228	 5.14760856640338E-02 
1229	 5.14764761212378E-02 
1230	 5.14549874525614E-02 
1231	 5.13042588510519E-02 
1232	 5.11423492307071E-02 
1233	 5.11219679496213E-02 
1234	 5.12335664723429E-02 
1235	 5.13048853945464E-02 
1236	 5.16209432558911E-02 
1237	 0.051600679608412 
1238	 5.13520876115774E-02 
1239	 5.11551938869256E-02 
1240	 5.12239130020957E-02 
1241	 5.12929308326967E-02 
1242	 0.051407512746095 
1243	 5.15283691752425E-02 
1244	 5.14683162060402E-02 
1245	 5.14386393050545E-02 
1246	 5.14258968657107E-02 
1247	 5.14277216511373E-02 
1248	 0.051625877634063 
1249	 5.17429002740967E-02 
1250	 5.16914723891931E-02 
1251	 5.16831678195489E-02 
1252	 5.15959778005294E-02 
1253	 5.14607771831681E-02 
1254	 5.16794850916525E-02 
1255	 0.051913409129137 
1256	 0.05193785750398 
1257	 5.17285041835004E-02 
1258	 5.17435319579036E-02 
1259	 5.17397489967354E-02 
1260	 5.15908576026302E-02 
1261	 5.14122462015249E-02 
1262	 5.14536635303003E-02 
1263	 0.051464558125254 
1264	 5.14797611907469E-02 
1265	 5.17340355835963E-02 
1266	 5.17448713650592E-02 
1267	 5.13640840530209E-02 
1268	 5.12439343317026E-02 
1269	 5.14402866050951E-02 
1270	 5.13207553070232E-02 
1271	 5.10396903056591E-02 
1272	 5.10530215521062E-02 
1273	 5.11931968098073E-02 
1274	 5.10851033681527E-02 
1275	 5.08801196212642E-02 
1276	 5.09289331364229E-02 
1277	 5.09424429452586E-02 
1278	 5.09499569001727E-02 
1279	 5.08209833402992E-02 
1280	 5.04785485127021E-02 
1281	 5.03764573831809E-02 
1282	 5.02396460732997E-02 
1283	 5.00703700049842E-02 
1284	 0.050119261594127 
1285	 0.050026916492646 
1286	 4.96915521912334E-02 
1287	 4.94876398535314E-02 
1288	 4.94173466850597E-02 
1289	 4.92710225288307E-02 
1290	 4.91245620503481E-02 
1291	 4.87706698297365E-02 
1292	 0.048382262268497 
1293	 4.85241357981529E-02 
1294	 4.88454064540184E-02 
1295	 4.87179054352029E-02 
1296	 4.86505868314052E-02 
1297	 4.85247998394793E-02 
1298	 4.78326770618465E-02 
1299	 4.74297561385663E-02 
1300	 4.74262093062112E-02 
1301	 4.70313127684122E-02 
1302	 4.68441150044833E-02 
1303	 0.047131108251637 
1304	 4.70838270646138E-02 
1305	 4.68019021488286E-02 
1306	 4.66273933532187E-02 
1307	 0.046355190139061 
1308	 4.61465966158081E-02 
1309	 4.60264747036986E-02 
1310	 4.57846427633194E-02 
1311	 4.55464928489678E-02 
1312	 4.52632431796572E-02 
1313	 4.47182102107583E-02 
1314	 4.44064331213164E-02 
1315	 4.44286453026819E-02 
1316	 4.40979083863616E-02 
1317	 0.043516559061637 
1318	 4.32223875711125E-02 
1319	 4.29681098107919E-02 
1320	 4.25431486744474E-02 
1321	 4.18787366437615E-02 
1322	 0.041870154494827 
1323	 4.24835085135086E-02 
1324	 4.22208801398874E-02 
1325	 0.041234602454652 
1326	 4.10098683095166E-02 
1327	 4.09604591222202E-02 
1328	 3.98410057460385E-02 
1329	 3.85599347762525E-02 
1330	 3.91413678937273E-02 
1331	 3.96434301618654E-02 
1332	 3.81434563250458E-02 
1333	 3.79966476467895E-02 
1334	 3.88928568896288E-02 
1335	 3.88985269910635E-02 
1336	 3.74772169659924E-02 
1337	 3.73127483694831E-02 
1338	 3.85081928611225E-02 
1339	 3.82337747294449E-02 
1340	 3.69070826196311E-02 
1341	 3.65065993398485E-02 
1342	 3.55283719228482E-02 
1343	 3.46989753160717E-02 
1344	 0.03493900323667 
1345	 0.035150098914682 
1346	 3.50987787782706E-02 
1347	 3.54991383929691E-02 
1348	 3.77402640550647E-02 
1349	 0.038725127584286 
1350	 3.83864857475345E-02 
1351	 3.94637267870143E-02 
1352	 3.80756653364928E-02 
1353	 3.80864433557208E-02 
1354	 0.041598025873634 
1355	 5.79180765577848E-02 
1356	 5.06237611995966E-02 
1357	 0.039196731589197 
1358	 4.32404993585452E-02 
1359	 2.14897111513525E-02 
1360	 0.131085071780789 
1361	 0.186227641419543 
1362	 5.49150889512425E-02 
1363	 0.135852108551908 
1364	 0.324477188424488 
1365	 0.315013480782797 
1366	 0.335192805069449 
1367	 0.346383741336605 
1368	 0.338319720902244 
1369	 0.177821115191323 
1370	 0.184108726802495 
1371	 0.380060973790998 
1372	 0.415753450128655 
1373	 0.396147479322268 
1374	 0.39001172355286 
1375	 0.341413773110343 
1376	 0.32969031939541 
1377	 0.323991467057407 
1378	 0.364752373170083 
1379	 0.346833675447292 
1380	 0.435655802336922 
1381	 0.896760720152465 
1382	 0.880891929624753 
1383	 0.52122303028894 
1384	 0.540786097086134 
1385	 0.625033704245076 
1386	 0.507148243573853 
1387	 0.266441870989995 
1388	 0.326476047714804 
1389	 0.581031825715283 
1390	 0.448995814582546 
1391	 0.259445539227224 
1392	 0.511448668768497 
1393	 0.494824421339949 
1394	 0.275169362750412 
1395	 0.523385277480183 
1396	 0.756161457810614 
1397	 0.507122186105295 
1398	 0.104988065373306 
1399	-4.79525519592936E-02 
1400	 4.76711432631491E-02 
1401	-9.02162530406281E-02 
1402	-9.09056558568149E-02 
1403	 0.229831006067491 
1404	 0.28464724654557 
1405	 0.274458154020424 
1406	 0.215590715889417 
1407	 0.178761343491596 
1408	 0.014538502312155 
1409	 2.79079176664217E-02 
1410	 0.188001532020704 
1411	 0.158249827618926 
1412	 0.026504540104584 
1413	 7.71634949267576E-02 
1414	 0.209551274728679 
1415	 0.168652474561694 
1416	 0.117674154523027 
1417	 0.150854718454246 
1418	 0.151162127200578 
1419	 0.111006175264311 
1420	 0.11972776239469 
1421	 0.110378182847576 
1422	 4.53884073787143E-02 
1423	 0.032976794612412 
1424	 6.73974729395774E-02 
1425	 6.52385946196609E-02 
1426	 3.35777308162835E-02 
1427	 3.63890126989553E-02 
1428	 6.73975101187118E-02 
1429	 6.03244478773755E-02 
1430	 3.68354217733652E-02 
1431	 3.16582061151048E-02 
1432	 1.05723384009962E-02 
1433	-4.30279750015114E-04 
1434	 1.66958592735521E-02 
1435	 2.31330507276836E-02 
1436	 1.63406888084424E-02 
1437	 1.41388406193656E-02 
1438	 2.66728184393152E-02 
1439	 2.48107519858651E-02 
1440	 2.01052594403141E-02 
1441	 1.62044676416697E-02 
1442	 1.99891442292166E-02 
1443	 2.64259293444823E-02 
1444	 2.03840407474307E-02 
1445	 1.45346677105915E-02 
1446	 1.21057032644277E-02 
1447	 0.011193154725001 
1448	 1.22870697947195E-02 
1449	 1.19826312103721E-02 
1450	 1.30162417113127E-02 
1451	 1.38925800330309E-02 
1452	 1.12554504802807E-02 
1453	 1.07490816137431E-02 
1454	 1.10219776922845E-02 
1455	 9.56093248365934E-03 
1456	 9.02977365634913E-03 
1457	 1.07025284664498E-02 
1458	 1.12466451615404E-02 
1459	 1.03677695549207E-02 
1460	 1.03964981259787E-02 
1461	 1.20879263289651E-02 
1462	 1.18696958894124E-02 
1463	 9.22202610042161E-03 
1464	 9.55336291258897E-03 
1465	 1.15686695561304E-02 
1466	 1.21911947296871E-02 
1467	 0.013366248024261 
1468	 1.56349316742611E-02 
1469	 1.85807294030665E-02 
1470	 1.79302399171715E-02 
1471	 1.67416447813017E-02 
1472	 1.63911237173112E-02 
1473	 1.29590038654998E-02 
1474	 1.12758412968168E-02 
1475	 1.16784369964599E-02 
1476	 1.20214940260234E-02 
1477	 1.19528191718891E-02 
1478	 1.17490095302316E-02 
1479	 1.24205353191566E-02 
1480	 1.27943879493059E-02 
1481	 1.29864132950743E-02 
1482	 1.21633428365503E-02 
1483	 1.03955406425307E-02 
1484	 1.06695282599701E-02 
1485	 1.15162835141685E-02 
1486	 1.11347070370191E-02 
1487	 1.12376932057945E-02 
1488	 1.15271126088982E-02 
1489	 1.09648052409297E-02 
1490	 1.07266528599655E-02 
1491	 1.13203904297675E-02 
1492	 1.14227558569233E-02 
1493	 1.09542386470636E-02 
1494	 1.08209821613295E-02 
1495	 1.07448421054478E-02 
1496	 1.09054067312854E-02 
1497	 1.13633061104402E-02 
1498	 0.011453595246569 
1499	 1.13648062241847E-02 
1500	 1.15422145909998E-02 
1501	 1.18520536683742E-02 
1502	 1.18450982829689E-02 
1503	 1.18241646636937E-02 
1504	 1.18924559350413E-02 
1505	 1.17031734864467E-02 
1506	 1.15740522268985E-02 
1507	 1.16541956780522E-02 
1508	 1.20242804120992E-02 
1509	 1.25090405953814E-02 
1510	 1.26980850920678E-02 
1511	 1.27465360807732E-02 
1512	 1.27369808305576E-02 
1513	 1.26941097050214E-02 
1514	 1.27296353318371E-02 
1515	 1.26980603386202E-02 
1516	 1.29615771320815E-02 
1517	 1.34755210109977E-02 
1518	 1.34790985835457E-02 
1519	 1.34514347869515E-02 
1520	 1.36727671599913E-02 
1521	 1.34983936150305E-02 
1522	 0.013378566155494 
1523	 1.38087057734246E-02 
1524	 1.42296522185568E-02 
1525	 0.014178999298659 
1526	 1.40921501953542E-02 
1527	 1.42074903227034E-02 
1528	 1.42730326889405E-02 
1529	 1.44791120949364E-02 
1530	 1.48214664067955E-02 
1531	 1.50158885469302E-02 
1532	 1.48964265252014E-02 
1533	 1.48460646881302E-02 
1534	 1.51662628612484E-02 
1535	 1.53732595939971E-02 
1536	 1.54615267015953E-02 
1537	 1.56986170370672E-02 
1538	 1.59211986294058E-02 
1539	 1.59748868592523E-02 
1540	 1.59640705822206E-02 
1541	 1.59777443569632E-02 
1542	 1.59339713039362E-02 
1543	 1.60717168302489E-02 
1544	 0.016453331914155 
1545	 1.67653722596144E-02 
1546	 1.69703084677081E-02 
1547	 1.70829321800759E-02 
1548	 1.70992134196115E-02 
1549	 1.71680131429169E-02 
1550	 1.73518192615167E-02 
1551	 1.75070523026477E-02 
1552	 1.75023251614366E-02 
1553	 1.74180352079026E-02 
1554	 1.74473986928309E-02 
1555	 1.76134406084732E-02 
1556	 1.77783251677989E-02 
1557	 1.79071951991099E-02 
1558	 1.81140154118576E-02 
1559	 1.81386024639678E-02 
1560	 1.80188992899589E-02 
1561	 1.81893414176825E-02 
1562	 1.83637719044652E-02 
1563	 1.85221914322839E-02 
1564	 1.88386984184654E-02 
1565	 1.91389209131543E-02 
1566	 1.94061330812998E-02 
1567	 1.95368803735354E-02 
1568	 1.95289949809472E-02 
1569	 1.93900936979474E-02 
1570	 1.93682652752973E-02 
1571	 1.96745699697801E-02 
1572	 1.97896010511839E-02 
1573	 1.96881612357503E-02 
1574	 1.98633392676164E-02 
1575	 2.01285067455527E-02 
1576	 2.01658318013246E-02 
1577	 2.02764376050634E-02 
1578	 2.03441821331042E-02 
1579	 2.02506893433412E-02 
1580	 2.04808846103588E-02 
1581	 2.07602481183114E-02 
1582	 0.020938855067089 
1583	 2.10351347750512E-02 
1584	 0.02093687237236 
1585	 2.10055110571546E-02 
1586	 2.12436115554923E-02 
1587	 2.13428804522823E-02 
1588	 0.02117046567888 
1589	 2.10874812354621E-02 
1590	 2.12803294510948E-02 
1591	 2.13420943160233E-02 
1592	 2.14125975544511E-02 
1593	 2.17660433057993E-02 
1594	 2.18963103699009E-02 
1595	 2.19093893565833E-02 
1596	 2.23358144280839E-02 
1597	 2.26487572152766E-02 
1598	 2.24284414598402E-02 
1599	 2.22084250607031E-02 
1600	 2.23497630116668E-02 
1601	 2.25586856149137E-02 
1602	 2.27291441384746E-02 
1603	 2.29126226818703E-02 
1604	 2.29150639602364E-02 
1605	 2.28591712172541E-02 
1606	 2.30106610224656E-02 
1607	 2.30904402739374E-02 
1608	 2.30107513743114E-02 
1609	 2.31171928110845E-02 
1610	 0.023279915716936 
1611	 2.33156629211509E-02 
1612	 2.33406690324767E-02 
1613	 2.35247653943821E-02 
1614	 2.36184872830045E-02 
1615	 2.33755517130549E-02 
1616	 2.34805732485999E-02 
1617	 2.38288480549576E-02 
1618	 2.38173846014539E-02 
1619	 2.38102106081845E-02 
1620	 2.39454209978837E-02 
1621	 2.38998726538392E-02 
1622	 2.37286392882996E-02 
1623	 2.39902291416973E-02 
1624	 2.45298695217307E-02 
1625	 2.45205554912513E-02 
1626	 2.41549472835607E-02 
1627	 2.42184923124641E-02 
1628	 2.44341408316681E-02 
1629	 0.024380419350993 
1630	 0.024293997882372 
1631	 2.41436929475363E-02 
1632	 2.40606960531322E-02 
1633	 2.42077748566085E-02 
1634	 2.45734006181749E-02 
1635	 2.48742135772343E-02 
1636	 2.47557879602692E-02 
1637	 2.47228485583284E-02 
1638	 2.47744291096033E-02 
1639	 2.47015374268258E-02 
1640	 2.48335174108877E-02 
1641	 2.49118095312583E-02 
1642	 2.49528925578462E-02 
1643	 2.49278536686569E-02 
1644	 2.46229922778012E-02 
1645	 2.45449081397171E-02 
1646	 2.47016383397275E-02 
1647	 2.51234663429389E-02 
1648	 2.56301484016432E-02 
1649	 2.54902090788523E-02 
1650	 2.53237221267163E-02 
1651	 2.53816656741929E-02 
1652	 2.53053989148635E-02 
1653	 0.025590827359453 
1654	 2.56063086381633E-02 
1655	 2.51796035522211E-02 
1656	 0.025179278121674 
1657	 2.55859044088906E-02 
1658	 2.56298812004415E-02 
1659	 2.54163880772482E-02 
1660	 2.54540553377895E-02 
1661	 2.55810233627249E-02 
1662	 0.025489986588128 
1663	 2.54804452730649E-02 
1664	 2.56988231664372E-02 
1665	 2.57950648431935E-02 
1666	 2.55730071556538E-02 
1667	 2.53650735758794E-02 
1668	 2.54733623595246E-02 
1669	 2.54557301529454E-02 
1670	 2.58057742669963E-02 
1671	 2.62949516651898E-02 
1672	 2.60331675378227E-02 
1673	 2.56392390368214E-02 
1674	 2.59366959766226E-02 
1675	 2.60838651225321E-02 
1676	 2.60307320900372E-02 
1677	 2.61525185916658E-02 
1678	 2.59987051893275E-02 
1679	 2.56928902574189E-02 
1680	 2.53794069984367E-02 
1681	 2.53254259000759E-02 
1682	 2.55038040495881E-02 
1683	 2.55482080201777E-02 
1684	 2.60155319248185E-02 
1685	 2.63965731955699E-02 
1686	 2.61169587256637E-02 
1687	 2.60331259873935E-02 
1688	 2.59037629457883E-02 
1689	 2.58371852031352E-02 
1690	 0.026196089156051 
1691	 2.60481201853877E-02 
1692	 2.59433414143089E-02 
1693	 2.60974765631456E-02 
1694	 2.56784057670215E-02 
1695	 2.55632479058782E-02 
1696	 0.02561859909517 
1697	 2.53865694768392E-02 
1698	 2.57644997010709E-02 
1699	 2.59230923995269E-02 
1700	 2.53408696493587E-02 
1701	 2.50798710433311E-02 
1702	 2.47709564810128E-02 
1703	 2.46947212532042E-02 
1704	 2.56741494972874E-02 
1705	 2.60365654480443E-02 
1706	 2.54118239300366E-02 
1707	 2.54575650878843E-02 
1708	 2.56394711870685E-02 
1709	 0.025372107105807 
1710	 2.56899825443103E-02 
1711	 2.57408169953142E-02 
1712	 2.48083702698059E-02 
1713	 2.47474676979212E-02 
1714	 2.49381987055207E-02 
1715	 2.53987983913894E-02 
1716	 2.51641018146307E-02 
1717	 2.51815825344657E-02 
1718	 2.48430241628285E-02 
1719	 2.43488464641057E-02 
1720	 2.43267791924268E-02 
1721	 2.43090361440183E-02 
1722	 2.42322752496834E-02 
1723	 2.42519694196358E-02 
1724	 2.44917464786408E-02 
1725	 2.47085961528634E-02 
1726	 2.45202982307097E-02 
1727	 2.42932597301892E-02 
1728	 2.41307772340921E-02 
1729	 2.38814277070254E-02 
1730	 2.41208403702608E-02 
1731	 2.45361857464868E-02 
1732	 2.44625597302376E-02 
1733	 2.44356606129316E-02 
1734	 2.41450834111313E-02 
1735	 2.35668201932828E-02 
1736	 2.37128441498181E-02 
1737	 2.38222113939367E-02 
1738	 2.36497229947432E-02 
1739	 2.38483807534253E-02 
1740	 2.39595989061606E-02 
1741	 2.41021150365518E-02 
1742	 2.40845759739654E-02 
1743	 2.36084979345893E-02 
1744	 2.30378287684154E-02 
1745	 2.28352250867878E-02 
1746	 2.32882405719701E-02 
1747	 2.30533921278779E-02 
1748	 2.24214619075195E-02 
1749	 2.21255464409486E-02 
1750	 2.14360532479943E-02 
1751	 2.11801720549386E-02 
1752	 2.20400326215538E-02 
1753	 2.19372726027359E-02 
1754	 2.08397814044973E-02 
1755	 2.07077615027607E-02 
1756	 2.08612827187517E-02 
1757	 2.04571492561708E-02 
1758	 2.06607302254852E-02 
1759	 2.14091903068003E-02 
1760	 2.11917719778699E-02 
1761	 2.13126028519813E-02 
1762	 2.22197877795719E-02 
1763	 2.13967540733777E-02 
1764	 2.04413741647575E-02 
1765	 2.04844122736599E-02 
1766	 0.020254952201802 
1767	 0.020760115628077 
1768	 2.14546518674058E-02 
1769	 2.09464868483078E-02 
1770	 2.07920344719746E-02 
1771	 0.021039751810533 
1772	 2.09081435986834E-02 
1773	 2.15595885817086E-02 
1774	 0.021454934298291 
1775	 0.019337510122212 
1776	 1.90804021675097E-02 
1777	 1.98444883861388E-02 
1778	 1.95037477041708E-02 
1779	 1.95843206820071E-02 
1780	 1.99840508237701E-02 
1781	 1.93340526515955E-02 
1782	 1.97901626579216E-02 
1783	 2.25527073744231E-02 
1784	 2.30310986730101E-02 
1785	 2.18163736220597E-02 
1786	 2.17434900930206E-02 
1787	 2.11020277880456E-02 
1788	 0.021645350911609 
1789	 2.40543230007472E-02 
1790	 2.29242157456303E-02 
1791	 2.30045545583843E-02 
1792	 0.022820321346255 
1793	 2.05534495057373E-02 
1794	 2.05648120049435E-02 
1795	 2.08402285674705E-02 
1796	 2.30968068167846E-02 
1797	 2.60340049330675E-02 
1798	 2.02719370481326E-02 
1799	 2.23421829000267E-02 
1800	 3.09244269080028E-02 
1801	 0.027927621081116 
1802	 1.57413181885077E-02 
1803	 2.02452392034058E-02 
1804	 2.33362922718611E-02 
1805	 3.11174987539074E-02 
1806	 0.103231694530521 
1807	 0.133938349714103 
1808	 6.39683647264819E-02 
1809	 6.73631959019972E-02 
1810	 0.16218603494653 
1811	 0.204788992593755 
1812	 0.281393131112689 
1813	 0.265354881504881 
1814	-5.03848868293846E-02 
1815	-4.40775012749509E-02 
1816	 0.113075476349372 
1817	 0.527136997118287 
1818	 0.83782563748647 
1819	 0.604778131846842 
1820	 0.649629074462759 
1821	-8.95501546123045E-02 
1822	-0.442985641227419 
1823	 9.48364044130279E-02 
1824	 0.167348258269075 
1825	 0.347204961635855 
1826	 0.431258932229339 
1827	 0.509622312032236 
1828	 1.07173784516787 
1829	 1.85399932722876 
1830	 1.22184986962483 
1831	-0.965873391973632 
1832	-1.00945426456458 
1833	-0.668328826313485 
1834	-0.649937639724447 
1835	-0.750434778246607 
1836	-0.667243236450347 
1837	-0.431702088527009 
1838	-0.125247942084151 
1839	 0.913890052612936 
1840	 1.27437159810658 
1841	 4.81857389667931 
1842	-0.829708565628018 
1843	-0.954709736831281 
1844	-1.79772064920563 
1845	-1.46492059459651 
1846	 0.149640362981946 
1847	-0.289730739838304 
1848	-1.7900366008131 
1849	-7.85649345877064 
1850	 7.42673301097961 
1851	-16.2205760793441 
1852	-2.52505248186331 
1853	 9.53955702968056 
1854	-52.6716157763595 
1855	-4.72276611908202 
1856	-2.39238069430408 
1857	-0.061633107516555 
1858	 0.131148377857009 
1859	 1.02642449154365 
1860	-22.8959264393603 
1861	 9.78469997853552 
1862	 0.34709583611467 
1863	-0.395333071408622 
1864	-3.11719435282394 
1865	-1.84118198708388 
1866	-0.801662103751173 
1867	-0.637669608791899 
1868	 6.32131363646238E-02 
1869	 0.331387619554671 
1870	 1.36633671988501 
1871	 2.18059704241048 
1872	 0.103768986602244 
1873	 9.19893922165801E-02 
1874	 0.366194640431008 
1875	 9.89689587462602E-02 
1876	 0.239112126888458 
1877	-0.322935217260211 
1878	-0.220152802770164 
1879	-0.363718848336405 
1880	-0.56249570575143 
1881	-0.799510595572776 
1882	-0.728547135246243 
1883	-1.8543291683037 
1884	 0.629646278788315 
1885	 6.33411210187537E-02 
1886	 0.168252882217048 
1887	 0.507459237107898 
1888	 1.23167569523818 
1889	 1.38706509708294 
1890	 0.963503729549862 
1891	 1.02993846889163 
1892	 0.771940168313325 
1893	 0.631522012323873 
1894	 1.70090229509149 
1895	-1.56871435661819 
1896	 1.09963786747681 
1897	 1.22704354995705 
1898	 7.14022027078583E-02 
1899	 5.63135415796655 
1900	 1.52697457078853 
1901	 1.10032970849502 
1902	 1.19986456813268 
1903	 0.99638253061729 
1904	 0.809571870625954 
1905	 3.47287042229236 
1906	 0.570106996559341 
1907	 7.72514713488543E-04 
1908	-7.99477491020058E-03 
1909	-0.387618654190323 
1910	 0.297851611032141 
1911	-0.779354699675111 
1912	-6.17224389065263 
1913	 18.4751302924274 
1914	 1.75849085607887 
1915	 1.13229383865067 
1916	 0.63624082077339 
1917	 0.161107210819552 
1918	 1.14642513025535 
1919	 1.88712432902368 
1920	 0.275112768741291 
1921	-1.11549540257265 
1922	-1.1034110255867 
1923	-30.8382019620563 
1924	 3.05851742809714 
1925	 0.298639677657852 
1926	-0.330153350350408 
1927	-1.40748433348397 
1928	 71.049404273265 
1929	-90.847243961246 
1930	 17.2633448293696 
1931	-27.3696331818041 
1932	-0.332949828462928 
1933	-0.110408022392327 
1934	-0.328415585253266 
1935	-0.425246972825121 
1936	-0.145928515420116 
1937	-0.107160902583538 
1938	-0.285145493793824 
1939	-0.206738615915468 
1940	-0.117275565522109 
1941	-0.142198667246696 
1942	-0.204346655486885 
1943	-0.166882248576377 
1944	-0.109022262535065 
1945	-7.21523731066888E-02 
1946	-0.010463629975855 
1947	 6.17153593427774E-02 
1948	 7.43212791656015E-02 
1949	-1.69915688432276E-02 
1950	-8.52187353550309E-02 
1951	-7.45219737359101E-02 
1952	-7.44502054409859E-02 
1953	-6.55190402505773E-02 
1954	-4.46623134934082E-02 
1955	-5.02357999306495E-02 
1956	-7.92031698067692E-02 
1957	-8.75327351230446E-02 
1958	-7.45245195079819E-02 
1959	-5.36285509693866E-02 
1960	-0.02982985301504 
1961	-0.014488044679718 
1962	-8.63664405253279E-03 
1963	-2.48879836554608E-03 
1964	-4.35518532099765E-03 
1965	-6.75641930830418E-03 
1966	-4.79470500856158E-03 
1967	-1.23466218630348E-03 
1968	 9.84976894118673E-04 
1969	 2.25447627037777E-03 
1970	 2.09784631519741E-03 
1971	 1.5245578068512E-03 
1972	 9.89676279783957E-04 
1973	 2.35883991040409E-04 
1974	 9.15153788229295E-04 
1975	 0.002240835403605 
1976	 2.99244970215486E-03 
1977	 4.07910705349449E-03 
1978	 5.11540698975297E-03 
1979	 5.27026655624264E-03 
1980	 4.3280837489093E-03 
1981	 3.03922821453566E-03 
1982	 1.88790878789401E-03 
1983	 1.99112827340085E-03 
1984	 2.47053786975475E-03 
1985	 1.62779098336625E-03 
1986	 1.64262107304898E-03 
1987	 2.22679458755004E-03 
1988	 1.87180384581411E-03 
1989	 1.23202297321491E-03 
1990	 1.37909775736258E-03 
1991	 1.96228530497382E-03 
1992	 1.99734601047761E-03 
1993	 1.62868322237163E-03 
1994	 1.30513319683604E-03 
1995	 7.7588139847031E-04 
1996	-2.20995700348075E-04 
1997	-7.86949716122974E-04 
1998	-4.73090958581811E-04 
1999	 1.31224844675608E-03 
2000	 2.37764129958381E-03 
2001	 1.0926861685282E-03 
2002	 1.56643457242483E-03 
2003	 2.76288653520704E-03 
2004	 2.65578290831775E-03 
2005	 2.85037544306993E-03 
2006	 1.85549414769523E-03 
2007	 1.1243098136477E-03 
2008	-1.13020015868495E-03 
2009	-1.84170669549228E-03 
2010	 3.11060285020799E-04 
2011	 1.47868285855213E-03 
2012	 2.52872428272552E-03 
2013	 2.04505332057886E-03 
2014	 3.90618955725113E-03 
2015	 3.21832494820693E-03 
2016	 1.37651153936248E-03 
2017	 8.76173170881004E-04 
2018	 1.26992625372236E-03 
2019	 1.63929731662716E-03 
2020	 1.49883225709352E-03 
2021	 1.85279345229009E-03 
2022	 1.94272941303585E-03 
2023	 6.24439725556661E-04 
2024	 4.59647196071156E-04 
2025	 1.13101939473696E-03 
2026	 2.00042830563509E-03 
2027	 3.14399235200018E-03 
2028	 3.68998731290792E-03 
2029	 4.56883884112264E-03 
2030	 4.63972163426591E-03 
2031	 3.8796565103969E-03 
2032	 3.68290171087419E-03 
2033	 3.82536937025974E-03 
2034	 4.02492926241189E-03 
2035	 3.7012601004126E-03 
2036	 3.80321270103577E-03 
2037	 4.23058145078796E-03 
2038	 3.21240392433541E-03 
2039	 2.73954823988238E-03 
2040	 2.64279977914997E-03 
2041	 2.52350378957916E-03 
2042	 1.90520875244682E-03 
2043	 2.35208663237024E-03 
2044	 4.09336188724978E-03 
2045	 4.21892924070221E-03 
2046	 4.34496621933959E-03 
2047	 4.52838237067403E-03 
2048	 3.15753983123671E-03 
2049	 2.65495674047822E-03 
2050	 3.10824451594896E-03 
2051	 3.17236072250923E-03 
2052	 4.43370776521947E-03 
2053	 5.16587688513746E-03 
2054	 3.75262684471718E-03 
2055	 3.80158659708199E-03 
2056	 3.76246425908989E-03 
2057	 2.64427372474971E-03 
2058	 2.64443436760547E-03 
2059	 4.94224992024421E-03 
2060	 4.54386085883525E-03 
2061	 2.30736078115436E-03 
2062	 1.8299165393466E-03 
2063	 2.17302994612642E-03 
2064	 1.98659631995137E-03 
2065	 4.13659242600346E-03 
2066	 5.96502789616273E-03 
2067	 4.46856386360322E-03 
2068	 3.58132700712527E-03 
2069	 2.85696351470489E-03 
2070	 2.20644078001163E-03 
2071	 4.07428427990879E-03 
2072	 5.10679114971415E-03 
2073	 5.36968411274313E-03 
2074	 5.54259815074956E-03 
2075	 5.60975779285642E-03 
2076	 4.46389280284113E-03 
2077	 4.42475581579182E-03 
2078	 5.2034659058165E-03 
2079	 5.29725246217955E-03 
2080	 5.37737684620487E-03 
2081	 5.29659798741846E-03 
2082	 4.58492694386661E-03 
2083	 4.39700081187317E-03 
2084	 4.6474595314232E-03 
2085	 4.73814687267676E-03 
2086	 6.15095643293929E-03 
2087	 7.12587276180739E-03 
2088	 6.29398565784976E-03 
2089	 6.16155067921163E-03 
2090	 5.26677329030013E-03 
2091	 4.30824185685416E-03 
2092	 0.004367641515492 
2093	 5.37354638263894E-03 
2094	 5.97536626355944E-03 
2095	 7.47929699062498E-03 
2096	 7.76179226286295E-03 
2097	 7.5472916801758E-03 
2098	 7.20671922892499E-03 
2099	 5.85275169465853E-03 
2100	 5.43555373067308E-03 
2101	 5.96423333477674E-03 
2102	 6.09287070707708E-03 
2103	 6.28509199973935E-03 
2104	 6.94653381058363E-03 
2105	 7.50941814961187E-03 
2106	 7.43963749906433E-03 
2107	 7.70426176668583E-03 
2108	 8.22613767772351E-03 
2109	 7.6011753934528E-03 
2110	 7.02202253745231E-03 
2111	 6.85218589989253E-03 
2112	 5.91477924663172E-03 
2113	 5.8892323067993E-03 
2114	 6.39274356292089E-03 
2115	 6.76891852211627E-03 
2116	 7.8339347661645E-03 
2117	 8.25283392823615E-03 
2118	 7.82205720230864E-03 
2119	 7.82250456062423E-03 
2120	 7.64374618922118E-03 
2121	 8.7740137477138E-03 
2122	 8.95772228177173E-03 
2123	 8.12829102271264E-03 
2124	 7.6787459204337E-03 
2125	 6.82868344647458E-03 
2126	 6.47403151153334E-03 
2127	 7.06603007215576E-03 
2128	 7.52840390121303E-03 
2129	 7.97048581220553E-03 
2130	 8.13177529227477E-03 
2131	 8.07216555542628E-03 
2132	 8.22609878756293E-03 
2133	 7.97068725343544E-03 
2134	 7.79155824453422E-03 
2135	 7.31260003160071E-03 
2136	 7.54120771190439E-03 
2137	 8.43649983202432E-03 
2138	 8.65772522458726E-03 
2139	 9.07952331616018E-03 
2140	 8.96051296250283E-03 
2141	 7.69522664754072E-03 
2142	 7.24921303721175E-03 
2143	 7.0408943799936E-03 
2144	 6.96850135519759E-03 
2145	 6.86711133563614E-03 
2146	 6.79173843049838E-03 
2147	 6.37438669435158E-03 
2148	 6.37708619914907E-03 
2149	 7.23255586112335E-03 
2150	 7.83234027700431E-03 
2151	 8.14878920243611E-03 
2152	 9.21610936257101E-03 
2153	 9.78310317104177E-03 
2154	 9.40124857279984E-03 
2155	 9.08197121131302E-03 
2156	 0.008894481234243 
2157	 9.01131884985793E-03 
2158	 9.5160215006774E-03 
2159	 9.32885236624997E-03 
2160	 9.0977438421981E-03 
2161	 8.93935927631946E-03 
2162	 7.78646688378191E-03 
2163	 7.88529084748805E-03 
2164	 9.55291752297973E-03 
2165	 9.69075823839036E-03 
2166	 9.47979717123035E-03 
2167	 9.54035469871818E-03 
2168	 8.47945527871279E-03 
2169	 7.95507414650991E-03 
2170	 8.06135864912984E-03 
2171	 8.22132312471891E-03 
2172	 6.90568513175251E-03 
2173	 7.38414355306723E-03 
2174	 8.34358202287129E-03 
2175	 7.96792778829316E-03 
2176	 8.27337508856702E-03 
2177	 9.04471004588695E-03 
2178	 8.85348809449641E-03 
2179	 8.36865595276915E-03 
2180	 9.14313293106406E-03 
2181	 9.16977992008738E-03 
2182	 8.15005249138464E-03 
2183	 8.07860195835462E-03 
2184	 8.6986295547133E-03 
2185	 9.79461951452026E-03 
2186	 9.83887349469926E-03 
2187	 1.03941169544808E-02 
2188	 1.03866014732666E-02 
2189	 8.10015609281013E-03 
2190	 7.50522943933271E-03 
2191	 8.74181204149947E-03 
2192	 8.74289215068013E-03 
2193	 8.39680341222304E-03 
2194	 8.71334416839213E-03 
2195	 8.94455236586185E-03 
2196	 8.54797275227208E-03 
2197	 7.85762568493883E-03 
2198	 7.52388391642634E-03 
2199	 6.14430097303251E-03 
2200	 7.15498235970793E-03 
2201	 8.56420582490469E-03 
2202	 8.97574775416263E-03 
2203	 8.83105476861796E-03 
2204	 7.23397127477194E-03 
2205	 5.64281426702868E-03 
2206	 7.03442167723814E-03 
2207	 8.7670058253983E-03 
2208	 9.89382902286388E-03 
2209	 1.09968399891014E-02 
2210	 1.00504760479244E-02 
2211	 8.7037720813606E-03 
2212	 8.20548899512881E-03 
2213	 8.88496220362559E-03 
2214	 9.29344671598621E-03 
2215	 8.49686620925899E-03 
2216	 9.19382808568442E-03 
2217	 9.2337180160444E-03 
2218	 8.34144515819043E-03 
2219	 7.79651441871044E-03 
2220	 7.59639277031948E-03 
2221	 7.13295034516881E-03 
2222	 6.32359659922503E-03 
2223	 6.25855857783685E-03 
2224	 6.94716022429439E-03 
2225	 6.42948784050245E-03 
2226	 4.79342794898806E-03 
2227	 4.85820822748061E-03 
2228	 5.21669062947112E-03 
2229	 5.89338458943552E-03 
2230	 8.3469924351963E-03 
2231	 9.5678475873903E-03 
2232	 9.91544245677748E-03 
2233	 1.04982145102918E-02 
2234	 1.12713985795665E-02 
2235	 1.22146719938744E-02 
2236	 1.01439468579745E-02 
2237	 8.34106339957885E-03 
2238	 9.35267808596617E-03 
2239	 9.05596179143273E-03 
2240	 8.42068005240928E-03 
2241	 9.19495612541674E-03 
2242	 8.75285235947341E-03 
2243	 6.51662729929919E-03 
2244	 7.39314663853396E-03 
2245	 1.03747894967696E-02 
2246	 9.46803123074942E-03 
2247	 8.70301591214578E-03 
2248	 8.83191134544634E-03 
2249	 8.64325892954154E-03 
2250	 1.03390884389372E-02 
2251	 1.00535530611761E-02 
2252	 1.02855743768189E-02 
2253	 1.24050657431048E-02 
2254	 1.14029400828812E-02 
2255	 1.17645356552775E-02 
2256	 1.37020862257247E-02 
2257	 1.03188200292316E-02 
2258	 7.33352564100461E-03 
2259	 8.57333385632109E-03 
2260	 8.34018482479946E-03 
2261	 7.11735736900648E-03 
2262	 6.93229835558843E-03 
2263	 7.94593869495345E-03 
2264	 6.85075036951182E-03 
2265	 4.07307925776896E-03 
2266	 3.81942653566798E-03 
2267	 4.43947777686692E-03 
2268	 4.37177182823458E-03 
2269	 5.76701855529488E-03 
2270	 5.39884661360311E-03 
2271	 1.71073765444462E-03 
2272	 2.6784261953336E-03 
2273	 7.57030688085225E-03 
2274	 8.50663383726877E-03 
2275	 9.9060621334026E-03 
2276	 1.02496626558209E-02 
2277	 6.56028722234011E-03 
2278	 5.00277151779702E-03 
2279	 4.35253964276048E-03 
2280	 4.62148732554712E-03 
2281	 5.50153952251206E-03 
2282	 6.88139840597226E-03 
2283	 7.82197449651523E-03 
2284	 7.8190634399676E-03 
2285	 6.04140924946959E-03 
2286	 5.21461868309541E-03 
2287	 6.32701460098924E-03 
2288	 7.95034333888152E-03 
2289	 8.84415453826181E-03 
2290	 7.38874787569241E-03 
2291	 5.89356141052959E-03 
2292	 5.89237217419911E-03 
2293	 6.93394944107369E-03 
2294	 9.7777726888475E-03 
2295	 8.60838586846105E-03 
2296	 6.66966546508774E-03 
2297	 8.86472180176326E-03 
2298	 7.48977153650949E-03 
2299	 7.84328490932672E-03 
2300	 9.61232927069488E-03 
2301	 8.3135824622335E-03 
2302	 9.59029306176033E-03 
2303	 1.08098945261731E-02 
2304	 1.18641442567158E-02 
2305	 8.70618725010255E-03 
2306	 3.12728522864237E-03 
2307	 6.86980493266972E-04 
2308	-1.37095326939149E-03 
2309	 3.29658154096992E-04 
2310	 3.94573989780302E-03 
2311	 6.63382403493953E-03 
2312	 1.10663236632589E-02 
2313	 0.014259961892231 
2314	 1.39957812903644E-02 
2315	 1.30540901096371E-02 
2316	 0.010564800318991 
2317	 6.2319205347115E-03 
2318	 2.91310163866453E-03 
2319	 3.83742771932996E-03 
2320	 5.95846930599499E-03 
2321	 7.31682705872706E-03 
2322	 8.80246727931715E-03 
2323	 7.1166479907573E-03 
2324	 5.4755505835538E-03 
2325	 5.08616428275216E-03 
2326	 5.57627379062881E-03 
2327	 6.93974987399708E-03 
2328	 3.26732761113948E-03 
2329	-3.05495142047013E-03 
2330	-1.28780013217433E-03 
2331	 3.24389279015716E-03 
2332	 5.04336895371726E-03 
2333	 6.55446868188774E-03 
2334	 2.08157508995661E-03 
2335	-5.8548238313045E-03 
2336	-9.16077907826617E-03 
2337	-4.2291636914277E-03 
2338	 4.30622045627088E-03 
2339	 6.52218803500508E-03 
2340	 3.66171417434434E-03 
2341	 9.51148341490427E-04 
2342	-5.39550663275081E-03 
2343	-9.36349884115391E-03 
2344	-1.50672415598544E-03 
2345	-2.09190148029317E-03 
2346	-9.78017746763609E-03 
2347	-7.04566782005242E-03 
2348	-7.4398824379415E-03 
2349	-4.19792579652149E-03 
2350	 1.73559203531702E-03 
2351	-8.94257630730843E-05 
2352	-4.29858040858575E-03 
2353	-1.38914791527306E-02 
2354	-1.89496151802232E-02 
2355	-2.70463781188996E-02 
2356	-2.80836186851901E-02 
2357	-5.82927356291019E-03 
2358	 2.16390090252506E-03 
2359	 6.95819707468859E-03 
2360	 1.62222779463822E-02 
2361	-2.7193957057126E-05 
2362	-9.08664132942302E-03 
2363	-4.14064349039881E-03 
2364	-1.32006285704915E-02 
2365	-2.21222913548413E-02 
2366	-2.06426733638504E-02 
2367	-1.41293541704311E-02 
2368	-6.54897355047855E-03 
2369	-7.6198526924049E-03 
2370	-1.82489848487387E-02 
2371	-2.67581449986808E-02 
2372	-0.017383207338573 
2373	-1.74835626009863E-03 
2374	-9.6578344231233E-04 
2375	-3.83656637062952E-03 
2376	-2.43919639448603E-02 
2377	-4.90072119029924E-02 
2378	-4.43525669184162E-02 
2379	-4.97610665865639E-02 
2380	-5.06992548051246E-02 
2381	-1.88265187420387E-02 
2382	-1.93082761124136E-02 
2383	-0.03779082226383 
2384	-3.88306651442945E-02 
2385	-5.96441495652418E-02 
2386	-6.64213040349718E-02 
2387	-6.36093783882243E-02 
2388	-8.12979430008954E-02 
2389	-8.78357456519474E-02 
2390	-8.80211030913672E-02 
2391	-0.079395228037364 
2392	-7.20806858158711E-02 
2393	-7.84554615859168E-02 
2394	-0.092251091677796 
2395	-9.70718099577883E-02 
2396	-5.19362692540292E-02 
2397	-1.40262208040814E-02 
2398	-2.80656240160373E-02 
2399	-1.62078728975626E-02 
2400	 5.74394971922836E-05 
2401	-2.37311525947431E-02 
2402	 1.26976724440521E-02 
2403	 3.06370451171648E-02 
2404	-2.31672441239607E-02 
2405	-2.93554851610285E-02 
2406	-3.55387583900109E-02 
2407	-5.51173770608591E-02 
2408	-5.44910761731149E-02 
2409	-6.12629448873369E-02 
2410	-2.03814201058973E-02 
2411	-6.99894942424149E-03 
2412	-2.69490078731948E-02 
2413	-3.40821236812293E-02 
2414	-6.62293004820873E-02 
2415	-6.49180188375008E-02 
2416	-5.68818157073943E-02 
2417	-9.40652239239845E-02 
2418	-0.19189961991635 
2419	-0.22504564006665 
2420	-0.167958335985901 
2421	-0.111752365437514 
2422	-0.109622140931855 
2423	-0.197239536726963 
2424	-0.223529802404586 
2425	-0.244029085247037 
2426	-0.276565927892264 
2427	-0.185941944299626 
2428	-0.123551674676084 
2429	-2.72999570578309E-02 
2430	 2.06805344718549E-02 
2431	-5.12093239978959E-02 
2432	-0.10184542894561 
2433	-0.297288701213532 
2434	-0.340542293714992 
2435	-0.151664896038661 
2436	-0.12910283770445 
2437	-8.40579769601825E-02 
2438	 1.34758015496353E-02 
2439	-5.40777631273208E-02 
2440	-0.195338093448301 
2441	-0.154270318433765 
2442	-0.267715559847131 
2443	-0.443717655641249 
2444	-0.205181472727886 
2445	-0.170686847281813 
2446	-0.4643267142017 
2447	-3.88484371269929E-02 
2448	-0.270265304648069 
2449	-1.05164503112456 
2450	-1.16189123763696 
2451	-1.17523895308925 
2452	-2.0818941472076 
2453	-0.622153035827347 
2454	 1.68774485166091E-02 
2455	 0.228551081131787 
2456	-1.18554727611568E-03 
2457	-2.30301211030359E-02 
2458	-3.01135517268719E-02 
2459	-3.16886539581639E-02 
2460	-7.68530956498268E-02 
2461	-0.27601039950628 
2462	-0.405524118130232 
2463	-0.360747172736484 
2464	-0.27882996379956 
2465	-0.1226596447832 
2466	-3.19540004986093E-02 
2467	-0.154008638140506 
2468	-0.70962449532029 
2469	-0.89834645458217 
2470	-1.00819356206291 
2471	-0.672925088403263 
2472	-0.27325493066936 
2473	-0.191410932035595 
2474	 0.403829706140992 
2475	 0.857826716712878 
2476	 0.842903118783564 
2477	 1.42960506000306 
2478	-5.05942988769997 
2479	-5.69909760076035 
2480	 1.9168408239731 
2481	 0.493380030677514 
2482	 6.06747153716906E-02 
2483	 2.16460100709375E-02 
2484	 0.346915634222353 
2485	 1.23540454277251 
2486	 2.9142932467896 
2487	 3.93832933691073 
2488	-79.6937813681512 
2489	-9.74836937456326 
2490	-6.71957061581094 
2491	-0.927072522816614 
2492	-0.722306881358481 
2493	 4.27103297343525 
2494	 0.411106424849432 
2495	-0.308510616298513 
2496	 0.141383638478098 
2497	-19.0909640668632 
2498	-0.448693545027686 
2499	-2.75919955237087 
2500	 3.57248040869984 
