Wavelength	rt0716a200003.asd
350	 0.053773048676417 
351	 0.054596804139983 
352	 5.45750342673317E-02 
353	 5.45065523328265E-02 
354	 5.49194116815498E-02 
355	 5.50273742378829E-02 
356	 5.51488742962205E-02 
357	 5.53446772473389E-02 
358	 5.55301815144534E-02 
359	 5.52730957093756E-02 
360	 5.54131019031076E-02 
361	 5.59940595721369E-02 
362	 5.64728983216342E-02 
363	 5.64840811096434E-02 
364	 5.63785500364975E-02 
365	 5.63824634008206E-02 
366	 5.63822592418605E-02 
367	 5.66227151905197E-02 
368	 5.68780434408862E-02 
369	 5.68825982465153E-02 
370	 5.66485545377926E-02 
371	 5.65872700945964E-02 
372	 5.67230825151921E-02 
373	 5.68289779360002E-02 
374	 5.67580230776114E-02 
375	 5.66564071401789E-02 
376	 5.66244491904375E-02 
377	 5.66496085162073E-02 
378	 5.68327593721856E-02 
379	 5.66623640633832E-02 
380	 5.60178238125971E-02 
381	 5.63475162611774E-02 
382	 5.67169941998526E-02 
383	 5.69217910986739E-02 
384	 5.70715453546229E-02 
385	 5.68450231011206E-02 
386	 0.056485754415014 
387	 5.62851274392773E-02 
388	 0.056492069609967 
389	 5.65955077091142E-02 
390	 5.63557865442934E-02 
391	 5.59036214626708E-02 
392	 5.60545240341396E-02 
393	 5.62794441712786E-02 
394	 5.62384551311166E-02 
395	 5.58276079167769E-02 
396	 5.56374870419695E-02 
397	 0.055442353050444 
398	 5.52407269029455E-02 
399	 0.055237870968512 
400	 5.50361665040469E-02 
401	 5.48493368627404E-02 
402	 5.48080634931026E-02 
403	 5.46823298439024E-02 
404	 5.42732266723672E-02 
405	 5.39464884224109E-02 
406	 5.40839915836432E-02 
407	 5.38818142940012E-02 
408	 5.36592844432285E-02 
409	 5.34819988716248E-02 
410	 5.31203032158263E-02 
411	 5.28855761492429E-02 
412	 5.28267843275701E-02 
413	 5.28429950801614E-02 
414	 5.26097178355253E-02 
415	 0.052354906853645 
416	 5.21668690512479E-02 
417	 5.20525748304782E-02 
418	 0.051899897332146 
419	 5.16917482312244E-02 
420	 5.14973643057795E-02 
421	 5.14575556427166E-02 
422	 5.13118544975569E-02 
423	 5.12605533013466E-02 
424	 5.14118277637075E-02 
425	 5.13674024375392E-02 
426	 5.12261565408919E-02 
427	 5.12278447941557E-02 
428	 5.15717279760899E-02 
429	 5.16695326632464E-02 
430	 5.16989208726233E-02 
431	 5.17934929448463E-02 
432	 5.19451538319041E-02 
433	 5.20921551634436E-02 
434	 5.21936712778158E-02 
435	 5.22410641686995E-02 
436	 5.22872685099967E-02 
437	 5.23585838720438E-02 
438	 5.24455699478559E-02 
439	 5.25156597577965E-02 
440	 5.25497838408794E-02 
441	 5.24966112514849E-02 
442	 5.23841040078185E-02 
443	 5.23614984725446E-02 
444	 5.21527466754363E-02 
445	 5.19660193024887E-02 
446	 5.20021249116129E-02 
447	 5.19109740548898E-02 
448	 5.18010831171001E-02 
449	 0.051658356841834 
450	 5.14005177808994E-02 
451	 5.13334198244255E-02 
452	 5.12556287109329E-02 
453	 5.10321531250227E-02 
454	 5.08050645472991E-02 
455	 5.06462972447464E-02 
456	 5.05276565095197E-02 
457	 0.050374593900991 
458	 5.01275479315494E-02 
459	 4.98666690645013E-02 
460	 4.96417476842715E-02 
461	 4.94618076857094E-02 
462	 4.92891037491602E-02 
463	 0.049116673971965 
464	 4.89311526800939E-02 
465	 4.86713192475435E-02 
466	 4.84926959124495E-02 
467	 4.83430968934572E-02 
468	 4.81001772695094E-02 
469	 4.79600568958176E-02 
470	 4.78830168781859E-02 
471	 4.77694267285935E-02 
472	 4.74742055459515E-02 
473	 4.72210817935578E-02 
474	 4.71033123794432E-02 
475	 4.70970874963328E-02 
476	 4.69177016657282E-02 
477	 4.67890317155723E-02 
478	 4.67040572524315E-02 
479	 4.65198832391059E-02 
480	 4.64927654532073E-02 
481	 4.64703375308903E-02 
482	 4.63626667769205E-02 
483	 4.63082774774406E-02 
484	 4.63575941617959E-02 
485	 4.64221066368521E-02 
486	 4.63810972374396E-02 
487	 4.62657314769082E-02 
488	 4.62611356547034E-02 
489	 4.63813821555081E-02 
490	 4.64703154443171E-02 
491	 4.64209416383546E-02 
492	 4.64764787460888E-02 
493	 4.67495251467468E-02 
494	 4.68141606706862E-02 
495	 4.68623298025241E-02 
496	 4.69718360359848E-02 
497	 4.71422114183321E-02 
498	 0.047204897978641 
499	 4.71825470854774E-02 
500	 4.71479851147582E-02 
501	 4.72126023085945E-02 
502	 4.73337242807967E-02 
503	 0.047431186480803 
504	 4.74672185138214E-02 
505	 4.76188933787908E-02 
506	 4.77594715644769E-02 
507	 4.78599885824923E-02 
508	 4.79788622207968E-02 
509	 4.82122703511516E-02 
510	 0.048310875514529 
511	 4.82125048766023E-02 
512	 4.84084644240727E-02 
513	 4.86772978244171E-02 
514	 0.048932951655632 
515	 4.91495607370941E-02 
516	 4.94071660200797E-02 
517	 4.96618266377402E-02 
518	 4.98904118563639E-02 
519	 5.01091774739328E-02 
520	 5.04640420561389E-02 
521	 5.08487996058631E-02 
522	 5.11595345499063E-02 
523	 5.14994863700734E-02 
524	 5.18715787513031E-02 
525	 5.23171687780691E-02 
526	 5.28864929352096E-02 
527	 5.34005221142007E-02 
528	 5.39416048145603E-02 
529	 5.45521904107557E-02 
530	 5.51250530532856E-02 
531	 5.56820420985535E-02 
532	 0.056329772501827 
533	 5.71407116204746E-02 
534	 5.77905551028677E-02 
535	 5.84837918554537E-02 
536	 5.92684561158586E-02 
537	 5.99760112023506E-02 
538	 6.07915347635512E-02 
539	 6.16198544852444E-02 
540	 6.23666164550046E-02 
541	 6.31682106113157E-02 
542	 6.39324042995519E-02 
543	 6.46632814427362E-02 
544	 6.54203339403649E-02 
545	 6.61224734668327E-02 
546	 6.68649059249979E-02 
547	 6.76646711835261E-02 
548	 6.83527886046839E-02 
549	 6.90020727167167E-02 
550	 0.069650007005202 
551	 7.03037810857135E-02 
552	 7.08413395677388E-02 
553	 7.14264327283834E-02 
554	 7.20641866804577E-02 
555	 7.25663344622684E-02 
556	 7.31220012160159E-02 
557	 7.37187298398869E-02 
558	 0.074298839562792 
559	 7.48481367467195E-02 
560	 7.53605154857368E-02 
561	 7.59000681305168E-02 
562	 7.65480252340708E-02 
563	 0.077051247040088 
564	 7.75309865515164E-02 
565	 7.80572593032655E-02 
566	 7.85020384768222E-02 
567	 7.89586879222861E-02 
568	 7.94386882415945E-02 
569	 0.079914825627131 
570	 8.03386924497588E-02 
571	 8.07022359549838E-02 
572	 0.081046851891868 
573	 8.14563152699618E-02 
574	 8.17334879712525E-02 
575	 8.20397913392685E-02 
576	 8.24874192235747E-02 
577	 8.27660129299697E-02 
578	 8.30458634975671E-02 
579	 8.33508887485578E-02 
580	 8.36201656934484E-02 
581	 0.083902593193076 
582	 8.41092400671204E-02 
583	 8.42441228397328E-02 
584	 8.45193208150843E-02 
585	 8.46501673189196E-02 
586	 8.46579701963974E-02 
587	 8.46666108594868E-02 
588	 8.46735948008149E-02 
589	 8.47715690749407E-02 
590	 8.49522454599165E-02 
591	 8.51074221156737E-02 
592	 8.51946277224057E-02 
593	 0.085292333706497 
594	 8.54502101827985E-02 
595	 8.55615377705292E-02 
596	 8.56217139250015E-02 
597	 0.085681761691913 
598	 0.085801236743169 
599	 8.57791554295507E-02 
600	 8.57877552843218E-02 
601	 8.59195974773888E-02 
602	 8.60675995890477E-02 
603	 8.60263782045512E-02 
604	 8.59869815761405E-02 
605	 8.61689206704842E-02 
606	 8.62027854212534E-02 
607	 8.62063469325456E-02 
608	 0.086265632530616 
609	 8.64007816370332E-02 
610	 0.086357002130557 
611	 8.63757610891474E-02 
612	 8.65902807153612E-02 
613	 0.086477109393383 
614	 8.65519850031941E-02 
615	 8.66883136605769E-02 
616	 8.64828820387046E-02 
617	 8.65460851165687E-02 
618	 8.66487453824124E-02 
619	 0.086649328706342 
620	 8.66943534222865E-02 
621	 8.67283683248491E-02 
622	 8.67122255506035E-02 
623	 8.66657234994402E-02 
624	 0.086889008187299 
625	 8.69312171421232E-02 
626	 8.67628188156444E-02 
627	 8.67712226539937E-02 
628	 8.68461307178019E-02 
629	 8.68768336239944E-02 
630	 8.68452811149013E-02 
631	 8.69943361355558E-02 
632	 8.70767704668798E-02 
633	 8.70783334210214E-02 
634	 8.70922977705619E-02 
635	 8.70888200938892E-02 
636	 8.71521249136782E-02 
637	 8.72884587645204E-02 
638	 8.73875302498602E-02 
639	 8.73809982327261E-02 
640	 8.72991797246813E-02 
641	 8.72243872205277E-02 
642	 8.72912452902574E-02 
643	 8.72829172898955E-02 
644	 8.71787264570082E-02 
645	 8.71218349129654E-02 
646	 8.70658000786925E-02 
647	 8.70943897957673E-02 
648	 8.71983045502279E-02 
649	 8.71076081731429E-02 
650	 8.70517462206505E-02 
651	 8.70215314087546E-02 
652	 8.69438378321588E-02 
653	 8.69479289540359E-02 
654	 8.69106955687982E-02 
655	 8.67711765165139E-02 
656	 8.66031923975833E-02 
657	 8.65407963457037E-02 
658	 8.65020320183498E-02 
659	 8.64109374708815E-02 
660	 8.63562712628985E-02 
661	 8.62829837500663E-02 
662	 8.61867333336959E-02 
663	 0.086094958066807 
664	 8.59927564635902E-02 
665	 8.59134479664524E-02 
666	 8.58501238523309E-02 
667	 8.57114433417539E-02 
668	 8.56491703127284E-02 
669	 8.56340212574789E-02 
670	 8.56030274946657E-02 
671	 8.56597581414092E-02 
672	 8.56641239925138E-02 
673	 8.56126161804128E-02 
674	 8.56339858509845E-02 
675	 8.56809483294854E-02 
676	 8.57712792847886E-02 
677	 8.58936846922008E-02 
678	 0.085933808996032 
679	 8.60026249660789E-02 
680	 8.60915890171946E-02 
681	 8.61574473862022E-02 
682	 8.63164362145111E-02 
683	 8.65144246528667E-02 
684	 8.66746967916478E-02 
685	 8.67172811892739E-02 
686	 8.67319763906486E-02 
687	 8.68371958020975E-02 
688	 8.70726633922245E-02 
689	 8.72788167130521E-02 
690	 8.73666484921169E-02 
691	 8.74000112596073E-02 
692	 8.75297804909492E-02 
693	 8.77144833016916E-02 
694	 0.087854281815702 
695	 8.79427226684344E-02 
696	 8.81539535374225E-02 
697	 8.81517478430225E-02 
698	 8.79816329533744E-02 
699	 8.78274405154217E-02 
700	 8.78642332006888E-02 
701	 8.79764995496843E-02 
702	 8.80063972325628E-02 
703	 8.78177597221473E-02 
704	 8.76553963006504E-02 
705	 8.75889397159492E-02 
706	 8.75878451294951E-02 
707	 8.74706281570292E-02 
708	 8.73336346552945E-02 
709	 8.71367655639793E-02 
710	 8.68321627141527E-02 
711	 0.086592634738606 
712	 8.63215629556799E-02 
713	 0.085927156697844 
714	 8.53320825534951E-02 
715	 8.47675918854584E-02 
716	 8.42110551179972E-02 
717	 8.36316538015256E-02 
718	 8.29372138242254E-02 
719	 8.25493923196105E-02 
720	 8.23539022669478E-02 
721	 8.20240366824192E-02 
722	 0.081653931784719 
723	 8.10399229595253E-02 
724	 8.02689212435994E-02 
725	 7.97120819072872E-02 
726	 7.91636542841337E-02 
727	 7.85023510218254E-02 
728	 7.76923927628792E-02 
729	 0.076850463230454 
730	 7.60199280818993E-02 
731	 7.53098597654173E-02 
732	 7.47398778215554E-02 
733	 7.40780976459012E-02 
734	 7.34303743176062E-02 
735	 7.28951697670907E-02 
736	 7.25270459716489E-02 
737	 7.23113186212598E-02 
738	 7.21130074592104E-02 
739	 7.18642085812407E-02 
740	 7.17592543357192E-02 
741	 7.17017638019051E-02 
742	 0.071685226121962 
743	 0.071739091652852 
744	 7.18027361074267E-02 
745	 7.18342716455767E-02 
746	 0.071812485529908 
747	 0.07174021772427 
748	 7.16594627359589E-02 
749	 7.16608545829458E-02 
750	 7.17717099964909E-02 
751	 7.17968910650214E-02 
752	 7.17766491481691E-02 
753	 7.17610534359264E-02 
754	 7.17933234896681E-02 
755	 7.17935558429815E-02 
756	 7.18598608649996E-02 
757	 0.071917156174091 
758	 7.15054091057519E-02 
759	 7.10894645588337E-02 
760	 7.07752406226988E-02 
761	 7.06479111369042E-02 
762	 7.09579576554626E-02 
763	 7.10594989205297E-02 
764	 7.11666030457503E-02 
765	 7.15931407444707E-02 
766	 7.19130731260015E-02 
767	 7.20969344291161E-02 
768	 7.22249372486956E-02 
769	 7.24494601063058E-02 
770	 7.25273055714544E-02 
771	 7.25646882980095E-02 
772	 7.26780687755633E-02 
773	 7.28184327914857E-02 
774	 7.29387372060697E-02 
775	 7.30411967947259E-02 
776	 7.31590330001997E-02 
777	 7.33415891648346E-02 
778	 0.073514434480461 
779	 0.073641126324242 
780	 7.37409047680386E-02 
781	 7.39173449865854E-02 
782	 7.41067336321167E-02 
783	 0.074257709605024 
784	 7.44242166577139E-02 
785	 7.45613517980505E-02 
786	 0.074663245020328 
787	 7.47543773767572E-02 
788	 0.074919415939078 
789	 7.51876597798169E-02 
790	 7.54094931505123E-02 
791	 7.53655110273246E-02 
792	 7.55824093534608E-02 
793	 0.075821854072356 
794	 7.59182370214708E-02 
795	 7.59876389544475E-02 
796	 7.61375098425721E-02 
797	 7.63467074516473E-02 
798	 7.65523625757975E-02 
799	 7.66902373562911E-02 
800	 7.67635661366646E-02 
801	 7.68376867682946E-02 
802	 7.69849294903801E-02 
803	 7.70409850240815E-02 
804	 7.71220200666104E-02 
805	 7.72172899771778E-02 
806	 7.71644545728808E-02 
807	 0.077148995251408 
808	 7.71135251584198E-02 
809	 0.076986524362508 
810	 7.67781374930882E-02 
811	 7.65988819277647E-02 
812	 0.076426320402733 
813	 7.62078051565117E-02 
814	 7.61070472662711E-02 
815	 7.59039889272742E-02 
816	 7.55921005322274E-02 
817	 7.53642044349821E-02 
818	 7.53183036080117E-02 
819	 7.50936808272538E-02 
820	 7.46092551086306E-02 
821	 7.41599209312157E-02 
822	 7.34424061311338E-02 
823	 7.28784680167987E-02 
824	 7.26107556524358E-02 
825	 7.17217707334279E-02 
826	 0.071000785570208 
827	 7.03190532537716E-02 
828	 6.93268656391813E-02 
829	 0.068257393725753 
830	 6.74099581701279E-02 
831	 0.066848015376723 
832	 0.066439105060115 
833	 6.57922013217787E-02 
834	 6.53899656774992E-02 
835	 6.53041632366517E-02 
836	 6.49758221666548E-02 
837	 6.45826276879183E-02 
838	 6.43456768987168E-02 
839	 6.43151542757891E-02 
840	 6.40805861913578E-02 
841	 6.38958433764665E-02 
842	 6.36984242889992E-02 
843	 6.33747592484553E-02 
844	 6.30800127654278E-02 
845	 6.30096895189599E-02 
846	 6.30398803948329E-02 
847	 6.28732510860061E-02 
848	 6.27911539951982E-02 
849	 6.27151744682785E-02 
850	 6.25349295787186E-02 
851	 6.21711095533108E-02 
852	 0.061993941545712 
853	 6.20191183213603E-02 
854	 0.062039771220643 
855	 6.15843129160182E-02 
856	 6.13019251757186E-02 
857	 6.11673595627419E-02 
858	 6.10064966550314E-02 
859	 6.08583734978719E-02 
860	 6.07652374196264E-02 
861	 6.07171538903845E-02 
862	 6.06577305987468E-02 
863	 6.04619377109569E-02 
864	 6.01948742044411E-02 
865	 5.99860662370618E-02 
866	 5.99738287051583E-02 
867	 5.99902324654488E-02 
868	 5.97782954177205E-02 
869	 5.94224114795008E-02 
870	 5.94192136943691E-02 
871	 5.91395348491617E-02 
872	 5.88960892515464E-02 
873	 0.058849720285972 
874	 5.83574649410256E-02 
875	 5.80180373498827E-02 
876	 5.79884675094425E-02 
877	 5.80684904403788E-02 
878	 5.73411112214556E-02 
879	 5.69977865076169E-02 
880	 5.69657336242144E-02 
881	 5.66671199880967E-02 
882	 5.65831637896887E-02 
883	 0.056300416339256 
884	 5.59191969198521E-02 
885	 5.58806970373555E-02 
886	 5.57860732736478E-02 
887	 5.55107525710204E-02 
888	 5.52124608272473E-02 
889	 0.055267963808057 
890	 5.49220848430576E-02 
891	 5.44090409576301E-02 
892	 0.054098253629551 
893	 5.42544320667651E-02 
894	 5.40729786402279E-02 
895	 5.36303768333864E-02 
896	 5.32281607472261E-02 
897	 5.28824533277178E-02 
898	 5.26898880341077E-02 
899	 5.26395375787968E-02 
900	 5.26153130975063E-02 
901	 0.052386227716799 
902	 5.20362692063525E-02 
903	 5.18972002258824E-02 
904	 5.21469297702155E-02 
905	 5.18200539649322E-02 
906	 5.13220795003232E-02 
907	 5.08221497434799E-02 
908	 5.03495617800784E-02 
909	 5.02499448296457E-02 
910	 5.03009870436217E-02 
911	 5.00414052990847E-02 
912	 0.049112041261674 
913	 4.93690934204793E-02 
914	 4.92021805261105E-02 
915	 0.048122542795105 
916	 4.73897770525698E-02 
917	 4.69219432270003E-02 
918	 4.65153816968091E-02 
919	 0.046149758991012 
920	 4.60632542659247E-02 
921	 4.56439866820692E-02 
922	 4.51183090225797E-02 
923	 4.47604839882023E-02 
924	 4.46038483634703E-02 
925	 4.39647820231958E-02 
926	 4.32816975818729E-02 
927	 4.29113513890207E-02 
928	 4.12295220758217E-02 
929	 4.08791339543221E-02 
930	 4.12163836417044E-02 
931	 3.99020028446738E-02 
932	 4.03855709003255E-02 
933	 0.038259750695457 
934	 0.03585175702976 
935	 3.73323085277199E-02 
936	 3.68843059463654E-02 
937	 3.46708442039285E-02 
938	 3.37881410464136E-02 
939	 3.59459073144186E-02 
940	 3.53817011992079E-02 
941	 3.49837061921631E-02 
942	 3.47519043337222E-02 
943	 3.33833740126841E-02 
944	 3.07628282011176E-02 
945	 3.46429744992923E-02 
946	 3.79208843077251E-02 
947	 2.98930890650519E-02 
948	 2.95657188294918E-02 
949	 3.16714190027357E-02 
950	 3.14083826225467E-02 
951	 2.74041829779761E-02 
952	 2.88684135230267E-02 
953	 3.17237768222836E-02 
954	 3.28573550583342E-02 
955	 3.13213903635334E-02 
956	 0.029258673895302 
957	 2.74346235306045E-02 
958	 2.68253293374199E-02 
959	 2.82531756363344E-02 
960	 3.11225547015665E-02 
961	 3.18951237894593E-02 
962	 3.00132368195649E-02 
963	 2.75938071347856E-02 
964	 2.83002794793969E-02 
965	 2.79725740198093E-02 
966	 2.76785017307531E-02 
967	 3.10652618340991E-02 
968	 2.91998882617613E-02 
969	 2.83683541912892E-02 
970	 2.97211743245934E-02 
971	 2.92282532886888E-02 
972	 2.75425744975068E-02 
973	 0.026919907085852 
974	 2.81398305677346E-02 
975	 2.99347067417728E-02 
976	 2.96444153467325E-02 
977	 2.91104412329225E-02 
978	 2.91893055340795E-02 
979	 0.029165383892092 
980	 2.72366190120594E-02 
981	 2.80457030596753E-02 
982	 2.98012247832506E-02 
983	 2.69959627841024E-02 
984	 2.95172412632364E-02 
985	 0.030343259288654 
986	 2.88081777894396E-02 
987	 2.97507301168538E-02 
988	 3.05456342409987E-02 
989	 0.029300067700016 
990	 2.72684936865906E-02 
991	 2.74974297207618E-02 
992	 2.87401955320323E-02 
993	 2.98976883347688E-02 
994	 3.01945157973779E-02 
995	 2.94264520195355E-02 
996	 2.83681088629892E-02 
997	 2.91180142355772E-02 
998	 3.01900333878233E-02 
999	 2.88593190825164E-02 
1000	 2.88261347617179E-02 
1001	 2.79359324641954E-02 
1002	 2.79525664761309E-02 
1003	 2.79056736702799E-02 
1004	 2.74839944557487E-02 
1005	 2.72728697509908E-02 
1006	 2.68841335939148E-02 
1007	 2.71184148954442E-02 
1008	 0.027446518320574 
1009	 2.77415821379027E-02 
1010	 2.83201352189894E-02 
1011	 2.87461043402981E-02 
1012	 2.89637929923306E-02 
1013	 2.93167631212061E-02 
1014	 2.96596926393399E-02 
1015	 0.030024965838105 
1016	 3.02024086621334E-02 
1017	 3.03700606060594E-02 
1018	 3.05477385037913E-02 
1019	 3.05673030886691E-02 
1020	 3.05825487800826E-02 
1021	 3.06715062699766E-02 
1022	 3.06369698274984E-02 
1023	 3.06009527455239E-02 
1024	 3.06865373700687E-02 
1025	 0.030900358560682 
1026	 3.09770499673163E-02 
1027	 3.10593115075599E-02 
1028	 3.11257082988557E-02 
1029	 3.11143342544252E-02 
1030	 3.09267677863287E-02 
1031	 3.10639940040444E-02 
1032	 0.031302179660839 
1033	 3.14546312510758E-02 
1034	 3.18675635347367E-02 
1035	 3.20696951113576E-02 
1036	 3.20303836968105E-02 
1037	 3.20908008688871E-02 
1038	 0.032211172287643 
1039	 0.032220680300616 
1040	 3.23412801157005E-02 
1041	 3.24923473850588E-02 
1042	 3.27639070536349E-02 
1043	 3.32597820462114E-02 
1044	 3.35085094676158E-02 
1045	 3.36462926047926E-02 
1046	 0.033940392608623 
1047	 3.43229330077306E-02 
1048	 3.44357912810067E-02 
1049	 3.45115964887878E-02 
1050	 3.46251862260516E-02 
1051	 3.44657707964034E-02 
1052	 3.44520909516484E-02 
1053	 3.47187949414433E-02 
1054	 3.48020329413693E-02 
1055	 3.45970229667993E-02 
1056	 3.46231262820646E-02 
1057	 3.47293048029441E-02 
1058	 0.034870720392796 
1059	 3.50950334897432E-02 
1060	 3.56038789293491E-02 
1061	 3.57678852613191E-02 
1062	 3.58294245609965E-02 
1063	 3.58525720535396E-02 
1064	 3.57150356302012E-02 
1065	 3.56043523004225E-02 
1066	 3.53419934026795E-02 
1067	 3.53331101332813E-02 
1068	 3.54395720146849E-02 
1069	 3.55074054078994E-02 
1070	 3.58397300140401E-02 
1071	 3.59526713981387E-02 
1072	 3.58604669244442E-02 
1073	 3.58490037861689E-02 
1074	 3.57106821749087E-02 
1075	 3.54393530516482E-02 
1076	 3.53249048299628E-02 
1077	 3.52087381423192E-02 
1078	 3.50836601304419E-02 
1079	 3.49601097526264E-02 
1080	 0.035022752569614 
1081	 3.52245462381868E-02 
1082	 3.52325729387447E-02 
1083	 3.54588595111788E-02 
1084	 3.53295833205193E-02 
1085	 3.47068396785239E-02 
1086	 3.44174334374157E-02 
1087	 3.40154409583046E-02 
1088	 3.38235728198861E-02 
1089	 3.40271046545644E-02 
1090	 0.03408798094839 
1091	 3.38871050940824E-02 
1092	 3.35989079012443E-02 
1093	 3.34156710424165E-02 
1094	 3.27391981786855E-02 
1095	 3.27198290303202E-02 
1096	 3.35790867581133E-02 
1097	 3.35164556372412E-02 
1098	 3.31198255295842E-02 
1099	 3.30012206166117E-02 
1100	 3.23628060093559E-02 
1101	 3.19559027441142E-02 
1102	 3.22434486595205E-02 
1103	 3.20948024104146E-02 
1104	 3.14208476957044E-02 
1105	 3.09135271300662E-02 
1106	 3.12559659416991E-02 
1107	 0.030988417678476 
1108	 3.05869606838488E-02 
1109	 3.08246325496986E-02 
1110	 3.09057991800542E-02 
1111	 3.06452917540679E-02 
1112	 0.03060626484324 
1113	 3.12055820010986E-02 
1114	 3.12351062592017E-02 
1115	 3.01218767193793E-02 
1116	 0.029963433273038 
1117	 3.13639074673345E-02 
1118	 3.14923777014934E-02 
1119	 3.08968961220696E-02 
1120	 3.05021533039495E-02 
1121	 2.77462189217599E-02 
1122	 2.63622611422841E-02 
1123	 2.73375693218539E-02 
1124	 2.99948809675132E-02 
1125	 3.49254280323577E-02 
1126	 3.55751346117867E-02 
1127	 3.40137591531873E-02 
1128	 3.43745300145079E-02 
1129	 3.26637478194095E-02 
1130	 2.74338924186165E-02 
1131	 2.75194192042636E-02 
1132	 3.02519725220683E-02 
1133	 3.04839313178436E-02 
1134	 3.27551289348758E-02 
1135	 3.22468131844438E-02 
1136	 2.78786695200585E-02 
1137	 2.66116503830215E-02 
1138	 2.56690243922828E-02 
1139	 2.66573821806759E-02 
1140	 0.026413762464994 
1141	 2.46031821483531E-02 
1142	 2.47611509653715E-02 
1143	 2.45620286367263E-02 
1144	 2.48879226567437E-02 
1145	 0.027266590578171 
1146	 2.64489952159336E-02 
1147	 2.34487433115755E-02 
1148	 2.27338347608541E-02 
1149	 2.17321864250073E-02 
1150	 2.05445899318955E-02 
1151	 2.00013962419203E-02 
1152	 2.00725594979096E-02 
1153	 1.94857963478639E-02 
1154	 1.95168104478594E-02 
1155	 2.06874050075327E-02 
1156	 2.08931268708923E-02 
1157	 1.93930467253612E-02 
1158	 1.91386264041857E-02 
1159	 1.95740203968187E-02 
1160	 1.93573705737741E-02 
1161	 2.01506375412786E-02 
1162	 2.09548137376615E-02 
1163	 2.02355289797026E-02 
1164	 1.93879325880073E-02 
1165	 1.90433035663285E-02 
1166	 1.89817127832049E-02 
1167	 0.019235670710095 
1168	 1.95957829069789E-02 
1169	 1.97213526567447E-02 
1170	 1.95979141153763E-02 
1171	 0.019469453004095 
1172	 1.91783874279969E-02 
1173	 1.91874157391839E-02 
1174	 1.93890138254082E-02 
1175	 1.93210178469614E-02 
1176	 1.90209641450197E-02 
1177	 1.89192153813463E-02 
1178	 1.86789468945209E-02 
1179	 1.84089932528737E-02 
1180	 1.86614699767614E-02 
1181	 0.018766972287238 
1182	 1.86820115984807E-02 
1183	 1.87322134790292E-02 
1184	 1.85941201355615E-02 
1185	 1.85390015440298E-02 
1186	 1.86139018305188E-02 
1187	 1.87252823904706E-02 
1188	 1.87155533972563E-02 
1189	 1.83986590398221E-02 
1190	 1.82138995846132E-02 
1191	 1.81974745946016E-02 
1192	 1.81721524686879E-02 
1193	 1.81749734941675E-02 
1194	 1.84877886799239E-02 
1195	 1.85357273116056E-02 
1196	 1.82042167191016E-02 
1197	 1.82437824722017E-02 
1198	 1.84873065651392E-02 
1199	 1.85685129059198E-02 
1200	 1.85609180406766E-02 
1201	 0.018436623580307 
1202	 1.84018116694059E-02 
1203	 1.84181860190554E-02 
1204	 1.84899094460263E-02 
1205	 1.86617369749349E-02 
1206	 1.83354186576036E-02 
1207	 1.81104353678298E-02 
1208	 1.85621990577418E-02 
1209	 1.86897379456123E-02 
1210	 0.018529872977759 
1211	 1.86016565084545E-02 
1212	 1.86385249573376E-02 
1213	 1.84646051438269E-02 
1214	 1.84055240091175E-02 
1215	 1.85310976011111E-02 
1216	 1.88060492118614E-02 
1217	 1.87186953054411E-02 
1218	 1.86395143349222E-02 
1219	 1.88064513762249E-02 
1220	 1.86501485881398E-02 
1221	 0.018534771155589 
1222	 1.87906200872845E-02 
1223	 1.87415174074248E-02 
1224	 1.85513312288561E-02 
1225	 1.85802636641558E-02 
1226	 1.85214039478664E-02 
1227	 1.85936839514251E-02 
1228	 1.88847336543786E-02 
1229	 1.89738862941529E-02 
1230	 1.87877082050266E-02 
1231	 1.87744463842027E-02 
1232	 1.89086970330254E-02 
1233	 1.87844893343434E-02 
1234	 1.87998913199659E-02 
1235	 1.88983147887475E-02 
1236	 1.89994024244221E-02 
1237	 1.89540027992243E-02 
1238	 1.89236330839871E-02 
1239	 1.90842293053026E-02 
1240	 1.89961423835494E-02 
1241	 1.88433037634529E-02 
1242	 1.88533283213403E-02 
1243	 1.89166470996322E-02 
1244	 1.90647933730593E-02 
1245	 1.92417218692791E-02 
1246	 1.92151306886483E-02 
1247	 0.019038222870632 
1248	 1.88398386437887E-02 
1249	 1.87470950075041E-02 
1250	 1.89594779578537E-02 
1251	 1.91953781760898E-02 
1252	 1.90259887457011E-02 
1253	 1.88400579229729E-02 
1254	 1.90783759918835E-02 
1255	 1.92961792641347E-02 
1256	 1.92614407281098E-02 
1257	 1.91567048976359E-02 
1258	 1.92144272552892E-02 
1259	 0.019096805942045 
1260	 1.90246492938637E-02 
1261	 1.93233964808817E-02 
1262	 1.94395913959689E-02 
1263	 1.94375604893998E-02 
1264	 1.89616089632885E-02 
1265	 1.88100968347818E-02 
1266	 1.88876909027437E-02 
1267	 1.87591376202527E-02 
1268	 1.88228907826118E-02 
1269	 1.91279863499801E-02 
1270	 1.92209984874659E-02 
1271	 1.91017213833695E-02 
1272	 1.90733709180952E-02 
1273	 1.92408377472293E-02 
1274	 1.92045916689014E-02 
1275	 0.018944246050343 
1276	 1.89935141618261E-02 
1277	 1.91534062841896E-02 
1278	 1.90733702890676E-02 
1279	 1.91032506364479E-02 
1280	 1.91856855420052E-02 
1281	 1.91301685657133E-02 
1282	 1.87782978790104E-02 
1283	 1.86551671442931E-02 
1284	 0.018621930145881 
1285	 1.84863553085948E-02 
1286	 1.83053342849298E-02 
1287	 1.82584133945814E-02 
1288	 1.82873840574069E-02 
1289	 1.82447234397447E-02 
1290	 1.82551846778339E-02 
1291	 1.82398548789782E-02 
1292	 1.80001481797094E-02 
1293	 1.79631101489882E-02 
1294	 1.81758744811489E-02 
1295	 1.79975340548472E-02 
1296	 1.78239146468312E-02 
1297	 0.01784400151665 
1298	 1.76544326560259E-02 
1299	 0.017469451639562 
1300	 1.74055880485701E-02 
1301	 1.72371392652219E-02 
1302	 1.70680409440322E-02 
1303	 1.69683359830011E-02 
1304	 1.68526643194577E-02 
1305	 1.71352174769072E-02 
1306	 1.72570250156119E-02 
1307	 1.75771795354732E-02 
1308	 1.73467354415045E-02 
1309	 1.65915945671666E-02 
1310	 1.64055345476756E-02 
1311	 1.62213219801875E-02 
1312	 1.61214371959524E-02 
1313	 1.66392023369671E-02 
1314	 1.65675111959049E-02 
1315	 0.015853276877997 
1316	 1.55352040227914E-02 
1317	 1.53077987931054E-02 
1318	 1.52206133147892E-02 
1319	 1.52573718110003E-02 
1320	 1.53424926792305E-02 
1321	 1.57354285418949E-02 
1322	 1.59001983282226E-02 
1323	 1.56757133770089E-02 
1324	 1.52667413686915E-02 
1325	 1.47454384346721E-02 
1326	 0.014258763458402 
1327	 0.014039620513704 
1328	 1.44304816524269E-02 
1329	 1.47003387332059E-02 
1330	 1.44996486098459E-02 
1331	 1.45005129771604E-02 
1332	 1.44410016134887E-02 
1333	 1.43718713065713E-02 
1334	 1.42879228206479E-02 
1335	 1.42931638428288E-02 
1336	 1.41446791166632E-02 
1337	 1.43955418204294E-02 
1338	 1.56509389026122E-02 
1339	 1.48784428324325E-02 
1340	 1.21870188631509E-02 
1341	 1.13988905243151E-02 
1342	 9.80700509123864E-03 
1343	 9.66725015194901E-03 
1344	 1.35339543535072E-02 
1345	 1.51974486527292E-02 
1346	 1.52898017978087E-02 
1347	 1.64878357914028E-02 
1348	 1.99517301111036E-02 
1349	 2.02235102075599E-02 
1350	 0.012482605957104 
1351	 1.18006120388281E-02 
1352	 1.16915183165282E-02 
1353	 9.79591940432268E-03 
1354	 2.53099314128595E-02 
1355	 8.22462928146312E-02 
1356	 7.77068000865412E-02 
1357	 4.32202969093852E-02 
1358	 4.39081941278114E-02 
1359	 1.54159086734832E-02 
1360	 5.63427921223238E-02 
1361	 0.11917388116743 
1362	 0.103814487864197 
1363	 0.105372304907426 
1364	 6.48416653186917E-02 
1365	-8.78066301223489E-03 
1366	 0.10887898893077 
1367	 0.160104345958951 
1368	 0.127799952053358 
1369	 2.36710288927504E-02 
1370	 6.57792313996225E-02 
1371	 0.159824576915658 
1372	 0.169873701039874 
1373	 0.232250647034069 
1374	 0.256881406448283 
1375	 0.14117485044408 
1376	 0.135029002812148 
1377	 0.101510914351613 
1378	 0.345705818922653 
1379	 0.912343536789893 
1380	 0.82957711153719 
1381	 0.485687719737703 
1382	 0.38918624224164 
1383	-0.011590410753005 
1384	-0.128626864617132 
1385	 0.317291825680343 
1386	 0.510030003251686 
1387	 0.421891255960122 
1388	 0.33962613667396 
1389	 0.241473134959323 
1390	 0.212941614300223 
1391	 0.19538589207008 
1392	 0.115145723317529 
1393	 0.302796515578107 
1394	 0.593917691308143 
1395	 0.461186531312442 
1396	 3.22617948863494E-02 
1397	 0.248268444194855 
1398	 0.326668212760168 
1399	 1.73586495750503E-02 
1400	 1.36557151705511E-03 
1401	 0.1126301150548 
1402	-9.11903979199138E-02 
1403	 1.8245414722421E-03 
1404	 0.432758290345622 
1405	 0.513306717709944 
1406	 0.306527655984507 
1407	 0.195916807347675 
1408	 0.124689106283656 
1409	 0.12336431732944 
1410	 8.20331397187412E-02 
1411	 5.43305357414874E-02 
1412	 0.10983968886224 
1413	 7.61739272189889E-02 
1414	-2.86462523018671E-02 
1415	-1.82128476283592E-02 
1416	-1.54269450168187E-03 
1417	 1.03473775690403E-02 
1418	 7.98553017594683E-02 
1419	 7.88469637632317E-02 
1420	 0.054318454338928 
1421	 3.35620399334129E-02 
1422	 0.011714517796406 
1423	-2.80032364624372E-03 
1424	-0.040279913393109 
1425	-0.035714958428119 
1426	-5.71761539330006E-03 
1427	 2.84396132190898E-03 
1428	 1.59419975377153E-02 
1429	 2.56747403825189E-02 
1430	 3.62893783611529E-02 
1431	 3.24479334577957E-02 
1432	 0.012446108352885 
1433	 1.09551587463204E-02 
1434	 1.84612233986824E-02 
1435	 9.00027939363524E-03 
1436	-5.84747525143013E-03 
1437	-1.00273215456876E-02 
1438	-5.76401083084457E-03 
1439	-3.14695669830504E-03 
1440	-3.30752569259737E-03 
1441	 5.3844949092984E-03 
1442	 8.97435985102972E-03 
1443	 6.64507289180953E-04 
1444	-3.29005515565118E-03 
1445	 1.27876884736105E-03 
1446	 3.83401566343782E-03 
1447	 1.51777369316205E-03 
1448	 2.80825286114246E-03 
1449	 7.08350108626202E-03 
1450	 8.53955996942767E-03 
1451	 6.78615390339624E-03 
1452	 6.32892330375453E-03 
1453	 6.13731330267066E-03 
1454	 5.14724345703932E-03 
1455	 3.14217585816937E-03 
1456	 2.56074630023428E-03 
1457	 1.76364031524097E-03 
1458	 2.24269691473724E-03 
1459	 3.73973033580501E-03 
1460	 4.35593446843414E-03 
1461	 5.96087901922362E-03 
1462	 5.76881843433997E-03 
1463	 3.67448724778923E-03 
1464	 3.05992147270456E-03 
1465	 2.30232055281539E-03 
1466	 2.13314829408508E-03 
1467	 2.79776498073415E-03 
1468	 3.6011611756327E-03 
1469	 5.38808802403437E-03 
1470	 5.20394331147598E-03 
1471	 4.06987379491178E-03 
1472	 4.41407029184038E-03 
1473	 3.78073228766964E-03 
1474	 3.76170804443943E-03 
1475	 5.09457515890499E-03 
1476	 6.50661183663968E-03 
1477	 8.51352080869154E-03 
1478	 7.98700816988679E-03 
1479	 6.72709059212275E-03 
1480	 6.30840639702085E-03 
1481	 4.72501353364693E-03 
1482	 0.003814739053513 
1483	 3.59272212708703E-03 
1484	 3.76921300567626E-03 
1485	 4.24102737521397E-03 
1486	 3.87071688618171E-03 
1487	 3.41144920556014E-03 
1488	 3.56172445238514E-03 
1489	 3.42199355338089E-03 
1490	 3.39808044456171E-03 
1491	 3.98662548712812E-03 
1492	 4.32486280901906E-03 
1493	 4.36300202688447E-03 
1494	 4.21502085883859E-03 
1495	 3.99081176046705E-03 
1496	 4.05343546186304E-03 
1497	 4.27081451193534E-03 
1498	 4.17172568821486E-03 
1499	 3.9021657901026E-03 
1500	 3.9072782023589E-03 
1501	 3.93610860067723E-03 
1502	 3.77678819109626E-03 
1503	 3.80722795922927E-03 
1504	 3.85200919303928E-03 
1505	 3.81213945298337E-03 
1506	 3.37100373717894E-03 
1507	 3.34983072127572E-03 
1508	 3.45647474324017E-03 
1509	 3.5679571440974E-03 
1510	 3.66685949606636E-03 
1511	 3.87270921564038E-03 
1512	 4.28673271850748E-03 
1513	 4.36438995155709E-03 
1514	 4.22949636859502E-03 
1515	 4.35352218338191E-03 
1516	 4.4077187483845E-03 
1517	 4.35278210872051E-03 
1518	 4.54565888916501E-03 
1519	 4.65375054324653E-03 
1520	 4.55642236638922E-03 
1521	 4.45554531006342E-03 
1522	 4.3242736531333E-03 
1523	 4.34214422713507E-03 
1524	 4.47974637499037E-03 
1525	 4.60034568014046E-03 
1526	 4.69545309799275E-03 
1527	 4.75677922552098E-03 
1528	 4.71361896995506E-03 
1529	 4.58716375505664E-03 
1530	 4.59829921645397E-03 
1531	 4.69079860628056E-03 
1532	 4.67227758393833E-03 
1533	 4.74303712684825E-03 
1534	 5.00022307053953E-03 
1535	 5.03684316376395E-03 
1536	 4.96916036935131E-03 
1537	 5.03830586176888E-03 
1538	 5.0444169164488E-03 
1539	 4.97555954263054E-03 
1540	 4.90743109454507E-03 
1541	 4.94745629022878E-03 
1542	 5.04653873947784E-03 
1543	 5.08651716176752E-03 
1544	 4.86048574926481E-03 
1545	 4.67382402548341E-03 
1546	 4.93211134324463E-03 
1547	 5.08902503617615E-03 
1548	 5.11913125756834E-03 
1549	 5.18916347978028E-03 
1550	 5.18202836374188E-03 
1551	 5.23390559765925E-03 
1552	 5.3154125571907E-03 
1553	 5.26797331271749E-03 
1554	 5.19415275871803E-03 
1555	 5.45080169903925E-03 
1556	 5.62405684887239E-03 
1557	 5.61363710821406E-03 
1558	 5.72921297502138E-03 
1559	 5.47549090566001E-03 
1560	 5.27944205910145E-03 
1561	 5.67431208204259E-03 
1562	 5.91697681797952E-03 
1563	 5.92370472488259E-03 
1564	 6.04092484420627E-03 
1565	 6.14081895454723E-03 
1566	 6.03329898318882E-03 
1567	 5.83465176461619E-03 
1568	 6.00988073099302E-03 
1569	 6.16450409659877E-03 
1570	 5.98330164920304E-03 
1571	 6.14329558334897E-03 
1572	 6.30780710902551E-03 
1573	 5.8976767237675E-03 
1574	 5.78539719031177E-03 
1575	 6.08477284134239E-03 
1576	 6.01191147861077E-03 
1577	 5.82664223424712E-03 
1578	 5.92201428014007E-03 
1579	 6.11750014765871E-03 
1580	 6.23537396657872E-03 
1581	 6.4449447972575E-03 
1582	 6.71176886035665E-03 
1583	 6.5829095196268E-03 
1584	 6.32162658435561E-03 
1585	 6.34519209183364E-03 
1586	 6.44814765445987E-03 
1587	 6.64949085341325E-03 
1588	 6.73397151023285E-03 
1589	 6.47761849912158E-03 
1590	 6.32422114058695E-03 
1591	 6.33998663735494E-03 
1592	 6.35054787999153E-03 
1593	 6.52367472158209E-03 
1594	 6.86649311764446E-03 
1595	 7.07658186471553E-03 
1596	 0.006956171604704 
1597	 6.94651135763816E-03 
1598	 7.14404668305865E-03 
1599	 6.88151704487972E-03 
1600	 6.65341260211359E-03 
1601	 6.83529250045236E-03 
1602	 6.66512632635518E-03 
1603	 6.56265475593046E-03 
1604	 6.96367208229112E-03 
1605	 7.24282857161493E-03 
1606	 7.24947632882904E-03 
1607	 7.35244221277354E-03 
1608	 7.4351996041298E-03 
1609	 7.22634075055279E-03 
1610	 7.13739136360375E-03 
1611	 7.2147290470814E-03 
1612	 7.21385914085218E-03 
1613	 7.25237352308731E-03 
1614	 7.32703259200724E-03 
1615	 7.34268774512759E-03 
1616	 7.14429458451337E-03 
1617	 6.95159844959459E-03 
1618	 7.05060086101775E-03 
1619	 7.03635468648269E-03 
1620	 7.02695259485396E-03 
1621	 7.42676197525424E-03 
1622	 0.007610564325868 
1623	 7.50421049528076E-03 
1624	 7.68985730583963E-03 
1625	 7.77236560463336E-03 
1626	 7.39137239877272E-03 
1627	 7.10360728622525E-03 
1628	 7.14461979695863E-03 
1629	 7.12416429544891E-03 
1630	 7.11615742976346E-03 
1631	 7.43457627535054E-03 
1632	 7.5285715156352E-03 
1633	 7.32528333371255E-03 
1634	 7.46945299950027E-03 
1635	 7.50790166533062E-03 
1636	 7.49665881050301E-03 
1637	 7.7290585914569E-03 
1638	 7.70788387509857E-03 
1639	 7.77405239680234E-03 
1640	 7.81135453030659E-03 
1641	 7.33532931345472E-03 
1642	 7.13523919217962E-03 
1643	 7.44979380855991E-03 
1644	 7.51016361757687E-03 
1645	 7.5618572958977E-03 
1646	 7.71969432190041E-03 
1647	 7.5619027964349E-03 
1648	 7.62667582758298E-03 
1649	 7.74036071491889E-03 
1650	 7.53129588743238E-03 
1651	 7.55730574647371E-03 
1652	 7.70366482321877E-03 
1653	 7.65713544592395E-03 
1654	 7.73938165915719E-03 
1655	 7.74159192312557E-03 
1656	 7.64534383308742E-03 
1657	 7.70799093215829E-03 
1658	 7.8528953845986E-03 
1659	 7.77901004406148E-03 
1660	 7.69975174006208E-03 
1661	 7.85600670101556E-03 
1662	 7.87280703377849E-03 
1663	 7.66561263817524E-03 
1664	 7.6986475294307E-03 
1665	 7.77541965688822E-03 
1666	 7.73471255882427E-03 
1667	 7.88009971386287E-03 
1668	 7.8374596680894E-03 
1669	 7.83349743470504E-03 
1670	 7.98940641123573E-03 
1671	 7.96320970506119E-03 
1672	 7.95704589332553E-03 
1673	 7.86074187991107E-03 
1674	 7.79213552271223E-03 
1675	 7.7389795055653E-03 
1676	 7.53263503384833E-03 
1677	 7.65854089077847E-03 
1678	 8.01406670278363E-03 
1679	 8.2321128342775E-03 
1680	 8.27960227106912E-03 
1681	 7.9391606770094E-03 
1682	 7.76369621345376E-03 
1683	 7.91395062118879E-03 
1684	 7.83268877263837E-03 
1685	 7.78428677236911E-03 
1686	 7.97393222997347E-03 
1687	 7.87357565564753E-03 
1688	 7.53869903012445E-03 
1689	 7.61799625564466E-03 
1690	 7.73239065106431E-03 
1691	 7.72741170928765E-03 
1692	 8.07507842455702E-03 
1693	 8.43921512689503E-03 
1694	 8.38797634848976E-03 
1695	 7.9688209075164E-03 
1696	 7.56108215439752E-03 
1697	 7.54140830728946E-03 
1698	 7.73957690751176E-03 
1699	 8.06830108911494E-03 
1700	 8.34862055428914E-03 
1701	 8.06575176800202E-03 
1702	 7.6947590977631E-03 
1703	 7.48147434612516E-03 
1704	 7.51165660348944E-03 
1705	 8.08224483585585E-03 
1706	 8.44222207093071E-03 
1707	 8.23305129208311E-03 
1708	 7.98082829793346E-03 
1709	 7.82915810825008E-03 
1710	 7.46572523643241E-03 
1711	 7.60125103825945E-03 
1712	 7.95650796598811E-03 
1713	 7.06423301821194E-03 
1714	 7.16212655831072E-03 
1715	 7.52962327207423E-03 
1716	 7.4227874206526E-03 
1717	 7.9146620485371E-03 
1718	 8.12280133828129E-03 
1719	 7.79656841974922E-03 
1720	 7.8196025241016E-03 
1721	 7.85566152260751E-03 
1722	 7.49199089846381E-03 
1723	 6.91105284372859E-03 
1724	 6.95079977829008E-03 
1725	 7.25520006194432E-03 
1726	 7.04685904605614E-03 
1727	 7.40132765603493E-03 
1728	 7.37496533564023E-03 
1729	 6.90679419699382E-03 
1730	 7.17509640351047E-03 
1731	 7.1387381371717E-03 
1732	 7.07756202837546E-03 
1733	 7.28112818824273E-03 
1734	 7.24486197367811E-03 
1735	 7.18321487235642E-03 
1736	 7.2190386821897E-03 
1737	 7.24421246866609E-03 
1738	 6.88224136865252E-03 
1739	 6.86836891306397E-03 
1740	 7.16347690318083E-03 
1741	 7.04942639076458E-03 
1742	 7.03071332822033E-03 
1743	 6.89585529633678E-03 
1744	 6.54963052997676E-03 
1745	 6.55432541307118E-03 
1746	 7.20189892221684E-03 
1747	 7.33745809052267E-03 
1748	 7.2683214355412E-03 
1749	 6.99438881110194E-03 
1750	 6.1163942671515E-03 
1751	 5.98039410604434E-03 
1752	 6.22464560130841E-03 
1753	 6.18973708325901E-03 
1754	 6.51381958849806E-03 
1755	 6.64794338418015E-03 
1756	 6.24892233745647E-03 
1757	 6.59508722704178E-03 
1758	 6.75421372847884E-03 
1759	 6.02574080214097E-03 
1760	 5.87784030311852E-03 
1761	 6.23212008141371E-03 
1762	 6.23910984024005E-03 
1763	 6.4989496656685E-03 
1764	 6.86052841156666E-03 
1765	 5.57230442514255E-03 
1766	 4.66076984923108E-03 
1767	 6.08819342865811E-03 
1768	 6.13070921364445E-03 
1769	 0.00495904857565 
1770	 5.41940406226251E-03 
1771	 5.36431451413621E-03 
1772	 4.55375624188744E-03 
1773	 5.50453929131606E-03 
1774	 6.28668103153035E-03 
1775	 5.4246829739481E-03 
1776	 5.66241764445894E-03 
1777	 8.33567374109923E-03 
1778	 8.68784400777855E-03 
1779	 6.98703099938826E-03 
1780	 6.61769291563549E-03 
1781	 5.12245972560746E-03 
1782	 4.54999689870219E-03 
1783	 6.10505866689166E-03 
1784	 6.24969120966482E-03 
1785	 5.8158676644768E-03 
1786	 6.02348712640617E-03 
1787	 5.28189174372994E-03 
1788	 5.36317314293237E-03 
1789	 7.0870687779835E-03 
1790	 6.83573647481995E-03 
1791	 9.09383401335047E-03 
1792	 0.011162274637271 
1793	 6.0975850103579E-03 
1794	 3.10603454652148E-03 
1795	 4.51271645594808E-03 
1796	 5.62996953028669E-03 
1797	 8.49726109626165E-03 
1798	 7.09111860698996E-03 
1799	-4.94507282893723E-03 
1800	 1.43215122301899E-03 
1801	 4.37746982534423E-03 
1802	 2.83605964096898E-02 
1803	 4.12524021675014E-02 
1804	 2.14050911135096E-02 
1805	 7.86573115842749E-03 
1806	-1.05481917087943E-02 
1807	-2.88736465734678E-02 
1808	-8.03218687400908E-02 
1809	-7.42754247667935E-02 
1810	 7.68908089063533E-02 
1811	 0.129792614361542 
1812	 0.204151960613063 
1813	 0.196263312578154 
1814	-0.163898016547093 
1815	-0.241269543715422 
1816	-0.233390177193697 
1817	-0.145577435415885 
1818	 6.71259109587066E-02 
1819	 0.128251331026147 
1820	 0.278588319589439 
1821	-0.251954470998713 
1822	-0.501084634160463 
1823	-0.434747916202715 
1824	-0.398591442021546 
1825	 1.90007205274249E-02 
1826	 0.14584988394903 
1827	 0.239202025863317 
1828	 0.747882818350561 
1829	 0.890027171359205 
1830	 0.103484532315533 
1831	 0.159895296543386 
1832	-9.18999498741746E-02 
1833	-0.179990492062055 
1834	-0.128758544014239 
1835	 0.299352975153456 
1836	 0.374684566121298 
1837	 0.106995301626087 
1838	 0.425279768354701 
1839	 2.27069328439994 
1840	 1.32973001170553 
1841	 7.45149717894234 
1842	-1.59867374866547 
1843	-1.53757198536776 
1844	 8.74924223719274E-02 
1845	 0.678375032401475 
1846	 0.599427202742178 
1847	 0.494895460132749 
1848	 0.40652593667476 
1849	 1.85581942208051 
1850	-2.61410620359265 
1851	 0.785719996158031 
1852	-0.882553230407353 
1853	-9.33095094365406 
1854	 56.5257486238134 
1855	 1.70032561867446 
1856	 0.874699810936011 
1857	-0.338266727679692 
1858	-0.587487091617631 
1859	-1.44506664922729 
1860	-20.0409579609274 
1861	 0.369799072358681 
1862	-0.134890333257327 
1863	-0.393639384722435 
1864	 3.20014993444795 
1865	 1.61264281546456 
1866	 0.241809340580739 
1867	 0.216467205636347 
1868	 5.45263395634559E-03 
1869	-0.142776947405883 
1870	-0.166272122112961 
1871	 0.824668519124664 
1872	-4.62466679911032E-04 
1873	-1.10288474340439E-02 
1874	-8.49579392296602E-02 
1875	-0.718228405183276 
1876	-2.86606643058436 
1877	 1.74080105857665 
1878	 1.2428984313316 
1879	 0.857889532680487 
1880	 0.710909578893591 
1881	 0.504603273384391 
1882	 0.500773859542725 
1883	 1.01613574659012 
1884	-1.50441828171539 
1885	-0.50219686449921 
1886	-6.04266699853635E-02 
1887	-0.194646897266719 
1888	-0.772690047212269 
1889	-0.954585062234141 
1890	-0.951997592012303 
1891	-0.767564661387186 
1892	 0.138250975909804 
1893	 0.27759779075812 
1894	 0.583626069264446 
1895	-4.78306001273346 
1896	-2.16949995313132 
1897	-2.76023745582952 
1898	-1.2486194545492 
1899	 5.21109113096709 
1900	 0.713254339983598 
1901	 0.365643813214377 
1902	 0.28714476865053 
1903	 0.38110444484739 
1904	-0.686221831622476 
1905	-3.5474502338796 
1906	-0.707684746108147 
1907	-0.274446014494102 
1908	 0.14556898143323 
1909	 0.833608742529386 
1910	 0.243185365235646 
1911	 6.91343324021934E-02 
1912	 1.12827910803973 
1913	-2.10656819037239 
1914	 1.63908456870569 
1915	 1.19239220379797 
1916	 0.683420266559629 
1917	 0.196608272510825 
1918	-0.656568900461142 
1919	-3.01642994107842 
1920	-4.25713393015292 
1921	 2.4351756130829 
1922	 1.68659899775431 
1923	-60.8053967820404 
1924	 7.88299756665808 
1925	 4.83550075429712 
1926	 3.89444216500216 
1927	 1.1265271503901 
1928	 35.8890782042708 
1929	-30.3351601643119 
1930	 3.40936030577787 
1931	 18.3243779820632 
1932	 0.451406765688162 
1933	 0.507053227532888 
1934	 0.330678110742092 
1935	 0.264835906997364 
1936	 0.714004630592716 
1937	 0.315700742235911 
1938	-0.035744586543354 
1939	-4.57711870950251E-02 
1940	 7.77544988711108E-02 
1941	 0.102164321882585 
1942	 0.129356767748641 
1943	 0.108237629729898 
1944	 7.21786277085823E-02 
1945	 5.19891463827554E-02 
1946	 3.82807342624474E-02 
1947	 3.46036325139706E-02 
1948	 2.02389861234065E-02 
1949	-9.30641005737399E-03 
1950	 0.004979842360665 
1951	 5.60369990487189E-02 
1952	 7.27178070296674E-02 
1953	 9.32798950764997E-02 
1954	 0.107596709595361 
1955	 0.107824104255256 
1956	 6.71472414814563E-02 
1957	 0.038083565087388 
1958	 3.34385263781562E-02 
1959	 1.09897783217521E-02 
1960	 1.6692130150943E-03 
1961	 8.03482935818462E-03 
1962	 8.5461872733977E-03 
1963	 9.22872820649768E-03 
1964	 7.52833900832926E-03 
1965	 6.60947121056559E-03 
1966	 5.39558462613484E-03 
1967	 3.4165025965588E-03 
1968	 7.47856599096825E-04 
1969	 6.41998720711809E-04 
1970	-2.52475125431897E-04 
1971	-1.06567977462908E-03 
1972	 8.22797708661794E-04 
1973	 2.22519822001591E-03 
1974	 1.49203173349948E-03 
1975	 1.09254529439378E-03 
1976	 2.05968634464722E-03 
1977	 4.33085823181015E-03 
1978	 0.006273672967349 
1979	 6.76501302028526E-03 
1980	 6.9616125812849E-03 
1981	 6.62500915001059E-03 
1982	 5.00143774882258E-03 
1983	 2.72503880535645E-03 
1984	 1.69511910532497E-03 
1985	 3.84254158257105E-04 
1986	-3.49412558231324E-04 
1987	 1.01788777118066E-03 
1988	 2.73126504535498E-03 
1989	 3.53033532126723E-03 
1990	 3.05549892422014E-03 
1991	 3.10751193863066E-03 
1992	 2.30215655282676E-03 
1993	 2.39540146776197E-04 
1994	 2.6216218991771E-04 
1995	 2.05395831209024E-03 
1996	 2.72807848576735E-03 
1997	 2.33119292299713E-03 
1998	 4.98843695979887E-03 
1999	 6.94035101703903E-03 
2000	 8.27829587983011E-03 
2001	 1.09898369277777E-02 
2002	 1.13319795849132E-02 
2003	 9.62761606733665E-03 
2004	 7.42096986485025E-03 
2005	 7.63769548843395E-03 
2006	 1.18152522474435E-02 
2007	 1.29930773896816E-02 
2008	 8.61497929058592E-03 
2009	 5.69707401546925E-03 
2010	-3.85021748591728E-04 
2011	-1.32170947756495E-03 
2012	 1.21558436272711E-04 
2013	 2.18115857671795E-03 
2014	 3.84624149759989E-03 
2015	 2.62988953440028E-03 
2016	 1.40933579085376E-03 
2017	 1.68398560813096E-03 
2018	 2.7024849429052E-03 
2019	 3.58021686772672E-03 
2020	 2.36197838844258E-03 
2021	 6.6322182995871E-04 
2022	-1.10765766171828E-04 
2023	 8.5061342452678E-04 
2024	 1.58444633614317E-03 
2025	 3.3611581924653E-03 
2026	 3.6090085955928E-03 
2027	 3.53638701181972E-03 
2028	 3.35243436260789E-03 
2029	 1.97449838075861E-03 
2030	 1.70211889360246E-03 
2031	 1.8335033202578E-03 
2032	 9.53979312453059E-04 
2033	 1.41364571894123E-03 
2034	 1.30130115514406E-03 
2035	 6.09133298943948E-04 
2036	 1.00655619041466E-03 
2037	 1.04661075737176E-03 
2038	 1.43482619657774E-03 
2039	 1.83563555009302E-03 
2040	 2.76921202318995E-03 
2041	 3.14778565892577E-03 
2042	 3.44575416603242E-03 
2043	 3.2436915772745E-03 
2044	 2.66236678953795E-03 
2045	 1.86684335964839E-03 
2046	 1.55680900533307E-03 
2047	 1.59260587592305E-03 
2048	 1.57467911008311E-03 
2049	 2.23352927766549E-03 
2050	 2.47311659125591E-03 
2051	 2.02159921482182E-03 
2052	 2.03194823651758E-03 
2053	 1.75430282208627E-03 
2054	 8.80841391947168E-04 
2055	 1.55580373021886E-03 
2056	 2.24894760231075E-03 
2057	 4.06660832996036E-03 
2058	 4.22339145820539E-03 
2059	 3.64955231745125E-03 
2060	 3.72139025110422E-03 
2061	 3.35937904828945E-03 
2062	 3.10723174279171E-03 
2063	 3.03879916413081E-03 
2064	 2.67628446599186E-03 
2065	 1.65123877875101E-03 
2066	 1.44546269570514E-03 
2067	 2.68627559389954E-03 
2068	 3.15499704484433E-03 
2069	 1.95186614853557E-03 
2070	 1.11665115248447E-03 
2071	 9.06876990190824E-04 
2072	 1.03689884176525E-03 
2073	 1.37845595688971E-03 
2074	 2.98204955288712E-03 
2075	 3.56477999793444E-03 
2076	 3.36418388939103E-03 
2077	 3.3203112309174E-03 
2078	 3.1925107685547E-03 
2079	 3.05875819600385E-03 
2080	 2.58186779630803E-03 
2081	 3.10672462192532E-03 
2082	 3.89132245828976E-03 
2083	 3.80789447997803E-03 
2084	 3.01135133324561E-03 
2085	 0.002783351913669 
2086	 2.23452730817804E-03 
2087	 2.06475872349246E-03 
2088	 2.96170440042492E-03 
2089	 2.94385453502097E-03 
2090	 2.72799232219994E-03 
2091	 2.43790196350137E-03 
2092	 2.39892861708349E-03 
2093	 2.76087629825809E-03 
2094	 2.75966462684987E-03 
2095	 2.31188392976303E-03 
2096	 2.44513169274047E-03 
2097	 2.94904166534664E-03 
2098	 3.03474872586104E-03 
2099	 3.05622941146734E-03 
2100	 3.66408153329063E-03 
2101	 3.96365985345315E-03 
2102	 3.27850638210474E-03 
2103	 4.14445519832998E-03 
2104	 4.43449548361491E-03 
2105	 3.37620736962489E-03 
2106	 3.14229871815713E-03 
2107	 2.83996706829827E-03 
2108	 2.93571313616998E-03 
2109	 3.50667073607402E-03 
2110	 3.25130549475655E-03 
2111	 2.83914470966628E-03 
2112	 2.33511020845982E-03 
2113	 1.98474277591418E-03 
2114	 1.96387158852212E-03 
2115	 2.16921524382845E-03 
2116	 2.19517255246569E-03 
2117	 2.49368518340965E-03 
2118	 4.1748519942089E-03 
2119	 4.24515202254852E-03 
2120	 3.30825985407779E-03 
2121	 2.60681509127435E-03 
2122	 2.17651465036299E-03 
2123	 1.42456620218919E-03 
2124	 1.6193207825249E-03 
2125	 2.15526342236187E-03 
2126	 2.18364972588236E-03 
2127	 1.31045874958389E-03 
2128	 5.81236530837133E-04 
2129	 8.59058632321993E-04 
2130	 1.61441744480405E-03 
2131	 2.13280530820854E-03 
2132	 2.23324453788433E-03 
2133	 2.0036179631316E-03 
2134	 2.14058993676766E-03 
2135	 2.06253826520798E-03 
2136	 1.86355374745054E-03 
2137	 1.87568481659589E-03 
2138	 2.23767208592447E-03 
2139	 2.51135396743785E-03 
2140	 2.31102718385119E-03 
2141	 2.25644496665565E-03 
2142	 2.45646304870253E-03 
2143	 2.25964079753722E-03 
2144	 1.92278894539462E-03 
2145	 2.28206253764185E-03 
2146	 2.99354065736947E-03 
2147	 3.30360582306739E-03 
2148	 3.31799494029385E-03 
2149	 3.89111344017943E-03 
2150	 4.75026091303978E-03 
2151	 4.84225889968748E-03 
2152	 4.9672570379938E-03 
2153	 5.5768121898901E-03 
2154	 5.83473181660023E-03 
2155	 5.68310689569424E-03 
2156	 5.78528714054928E-03 
2157	 6.11252831325282E-03 
2158	 6.92316873211843E-03 
2159	 6.49600427276451E-03 
2160	 5.86626737799009E-03 
2161	 4.86890340085094E-03 
2162	 2.04272996607503E-03 
2163	 1.4328563096969E-03 
2164	 2.40342660021126E-03 
2165	 2.20223359999213E-03 
2166	 1.78403504778103E-03 
2167	 2.10825056437126E-03 
2168	 2.08040949977151E-03 
2169	 2.35902562688205E-03 
2170	 3.85233287205717E-03 
2171	 5.56208958249008E-03 
2172	 4.63942275546047E-03 
2173	 3.89862209559911E-03 
2174	 4.16689096137805E-03 
2175	 0.003431364641512 
2176	 2.98758008876702E-03 
2177	 3.80766907369396E-03 
2178	 2.86390955181249E-03 
2179	 2.92014885905929E-03 
2180	 5.14525825231895E-03 
2181	 6.20676894294349E-03 
2182	 7.25367337805398E-03 
2183	 7.28057671668925E-03 
2184	 5.14336627932126E-03 
2185	 4.06989193066748E-03 
2186	 3.39745602582683E-03 
2187	 3.16342732132274E-03 
2188	 2.45703004428447E-03 
2189	 1.5792611115164E-03 
2190	 1.69508587833315E-03 
2191	 2.2523367438696E-03 
2192	 3.33208011869973E-03 
2193	 6.54550472799651E-03 
2194	 7.16937823454139E-03 
2195	 5.9447941828782E-03 
2196	 5.29296217712377E-03 
2197	 3.51620053292279E-03 
2198	 2.9973992115906E-03 
2199	 3.37673423370216E-03 
2200	 3.90886681360424E-03 
2201	 3.48076342018553E-03 
2202	 2.49213092825777E-03 
2203	 3.69196616936384E-03 
2204	 4.40487910200068E-03 
2205	 4.32632162255288E-03 
2206	 4.40144555174166E-03 
2207	 3.21338678496297E-03 
2208	 2.59987977835743E-03 
2209	 2.89788525041321E-03 
2210	 3.81227044006637E-03 
2211	 4.49910640781068E-03 
2212	 3.39071832283989E-03 
2213	 3.63166988806822E-03 
2214	 4.81292052804572E-03 
2215	 4.36587710864945E-03 
2216	 4.32317830430908E-03 
2217	 4.6442945685362E-03 
2218	 4.87091983743725E-03 
2219	 4.71917230155448E-03 
2220	 5.41457024755515E-03 
2221	 0.005376787415286 
2222	 3.36051228618233E-03 
2223	 3.76394225342088E-03 
2224	 6.07630721269268E-03 
2225	 6.1195507855129E-03 
2226	 6.21460248747871E-03 
2227	 6.28185798773132E-03 
2228	 5.04306598514571E-03 
2229	 4.18684537055457E-03 
2230	 3.44848109669937E-03 
2231	 3.66546958806861E-03 
2232	 0.004034301171405 
2233	 3.87257737997962E-03 
2234	 4.94027184881423E-03 
2235	 4.7809278267683E-03 
2236	 3.1396253660394E-03 
2237	 3.74741571196604E-03 
2238	 3.00921896718537E-03 
2239	 3.91705859937023E-03 
2240	 5.92110984232313E-03 
2241	 4.60812941416193E-03 
2242	 4.00017624552178E-03 
2243	 4.76989665621691E-03 
2244	 5.76281392787334E-03 
2245	 6.90474992347647E-03 
2246	 6.94760708431745E-03 
2247	 7.97809388970891E-03 
2248	 9.43958948030456E-03 
2249	 8.33125680402585E-03 
2250	 7.75535120209668E-03 
2251	 6.70388800919232E-03 
2252	 4.57981364247934E-03 
2253	 4.2396938797709E-03 
2254	 4.9887634156267E-03 
2255	 6.19311935711086E-03 
2256	 6.75076908601395E-03 
2257	 6.83363019610194E-03 
2258	 5.78005484114446E-03 
2259	 3.6609456722042E-03 
2260	 3.28556389974076E-03 
2261	 2.20829681309613E-03 
2262	 2.90348899806227E-03 
2263	 7.46027161138448E-03 
2264	 8.74072292327721E-03 
2265	 8.08383046770317E-03 
2266	 7.79579029697104E-03 
2267	 6.79538416311075E-03 
2268	 6.12243627736813E-03 
2269	 4.94612958549354E-03 
2270	 0.004798155989892 
2271	 6.12024947642406E-03 
2272	 5.84631298181614E-03 
2273	 5.23080210958084E-03 
2274	 5.56989766815326E-03 
2275	 5.28861350522984E-03 
2276	 3.51725457919756E-03 
2277	 8.62869082239548E-04 
2278	 1.06664048212238E-03 
2279	 0.001905763393783 
2280	 1.70499418828771E-03 
2281	 3.36995787003034E-03 
2282	 4.53292193652623E-03 
2283	 2.0620269485461E-03 
2284	 1.5402178333336E-03 
2285	 1.93234809698107E-03 
2286	 1.58843893300222E-03 
2287	 3.89460623338015E-03 
2288	 4.69397965025473E-03 
2289	 1.8263602820861E-03 
2290	 1.78855184625772E-03 
2291	 1.92859085445982E-03 
2292	-4.97553140630484E-04 
2293	 1.74705857214773E-03 
2294	 4.3077916784053E-03 
2295	 3.83184732352277E-03 
2296	 5.95187032888488E-03 
2297	 7.26680580457424E-03 
2298	 7.22687146976175E-03 
2299	 4.21125266605434E-03 
2300	 2.14626386997939E-04 
2301	 9.93534677714077E-04 
2302	-5.50277293097763E-05 
2303	-1.7805928452183E-03 
2304	-1.49704873440439E-03 
2305	-3.19655971415461E-03 
2306	-2.70823680404504E-03 
2307	 1.61488336814958E-03 
2308	 4.50482405359882E-03 
2309	 4.13345062043809E-03 
2310	 2.8966032820266E-03 
2311	 2.44567848103098E-03 
2312	 4.22230152438196E-03 
2313	 6.63321104853249E-03 
2314	 6.39015126443593E-03 
2315	 7.53980173251317E-03 
2316	 7.03973046682878E-03 
2317	 7.82918295458408E-03 
2318	 1.46667714213377E-02 
2319	 1.67799894779182E-02 
2320	 1.42912468143076E-02 
2321	 9.90155997355327E-03 
2322	 8.15414186744966E-03 
2323	 6.61330054095112E-03 
2324	 3.12404530983407E-03 
2325	 6.58216998665673E-03 
2326	 8.69735542497315E-03 
2327	 4.46155726942622E-03 
2328	 1.04945107660617E-03 
2329	-3.85647695942573E-05 
2330	-9.10850066096936E-04 
2331	-3.03024834399662E-03 
2332	 2.5085214857105E-03 
2333	 9.7389957459445E-03 
2334	 3.71924644168911E-03 
2335	 1.4082866988208E-03 
2336	 5.58839166172867E-03 
2337	 2.87985505967126E-03 
2338	 6.30377352282836E-03 
2339	 1.59759667829948E-02 
2340	 1.16131377449702E-02 
2341	 6.75553310635813E-03 
2342	 9.01989638323262E-03 
2343	 2.03172557612164E-03 
2344	 4.82340784118999E-04 
2345	 2.50533317326364E-03 
2346	-7.32020344448477E-03 
2347	-1.24776556368722E-02 
2348	-9.52895064826683E-03 
2349	-9.40057237155381E-03 
2350	-2.62042269174987E-03 
2351	 1.28461816053292E-02 
2352	 2.47970631895303E-02 
2353	 0.025969287421573 
2354	 2.05563774963996E-02 
2355	 0.015835650025352 
2356	 6.89195800015783E-03 
2357	 9.17339338582552E-03 
2358	 2.29632090947245E-02 
2359	 2.48430001942954E-02 
2360	 2.31769773227776E-02 
2361	 1.54905244962322E-02 
2362	 7.73288827558145E-03 
2363	 8.38139260931918E-03 
2364	 2.12256526076934E-05 
2365	-7.61044364371532E-03 
2366	-1.13270945233848E-02 
2367	-2.12916897915202E-02 
2368	-1.38216823835894E-02 
2369	 5.87980216928273E-03 
2370	-7.30637222594691E-04 
2371	 3.56362305123587E-03 
2372	 0.026661957098388 
2373	 0.016220034127729 
2374	 7.40261247519243E-03 
2375	 1.35143191676234E-02 
2376	-2.49421691131027E-03 
2377	-1.90896311961945E-02 
2378	-1.89461537481897E-02 
2379	-2.05896829310561E-02 
2380	-1.83723060997731E-02 
2381	 5.31002064028465E-04 
2382	 3.02494582945758E-02 
2383	 3.05165431226459E-02 
2384	 1.20168273622985E-02 
2385	 2.4785175753209E-03 
2386	 2.3082131121993E-03 
2387	 1.32861842831011E-02 
2388	-6.42741598904319E-04 
2389	-3.00780219351446E-02 
2390	-4.79647848570308E-02 
2391	-4.59652399189906E-02 
2392	 6.68582292214316E-03 
2393	 0.082040368577401 
2394	 0.099279425300242 
2395	 7.38301518261317E-02 
2396	 3.39813089279531E-02 
2397	-0.022893020751536 
2398	-6.41771663103608E-02 
2399	-7.11345527701709E-02 
2400	-4.38086936159152E-02 
2401	-1.30359438127986E-03 
2402	 2.18939379135932E-02 
2403	 1.56558902601404E-02 
2404	 5.4584822999116E-03 
2405	-1.28463344882722E-02 
2406	-1.27621724933737E-02 
2407	 2.91286262019672E-02 
2408	 4.84024224651759E-02 
2409	 7.50298708753454E-02 
2410	 0.110251246076525 
2411	 0.113734892741583 
2412	 0.103446034885132 
2413	 0.066295406144414 
2414	 6.07180084217019E-03 
2415	-2.39584762395251E-02 
2416	-2.39208025726982E-02 
2417	-6.71248249348535E-02 
2418	-0.157977148928083 
2419	-0.211847272985018 
2420	-0.165833201977854 
2421	-5.57710971693914E-02 
2422	-3.31822805200853E-03 
2423	 0.059056719828712 
2424	 0.119254452038777 
2425	 6.02671897362715E-02 
2426	 2.30631022211466E-02 
2427	 6.45062321179227E-02 
2428	 5.04590490415745E-02 
2429	 6.66702436819069E-02 
2430	 0.112012214225453 
2431	 0.112511668812932 
2432	 9.88001798317303E-02 
2433	 3.36472458436933E-02 
2434	 5.18682492437248E-02 
2435	 5.92849337791259E-02 
2436	-1.16954164030961E-02 
2437	 0.151885004426418 
2438	 0.265861591828683 
2439	 0.227897430439314 
2440	 0.245527635314303 
2441	 0.106580573065874 
2442	-0.171186411109105 
2443	-2.61831968478816E-02 
2444	 0.189446041416492 
2445	 0.305507289158713 
2446	 0.531223257652963 
2447	 0.236460370179228 
2448	-0.043932832284761 
2449	-0.510988772221921 
2450	-0.828497131189077 
2451	-0.470917372901891 
2452	-0.674504286184535 
2453	-0.416497409424356 
2454	 0.161360211446198 
2455	 0.530943566879369 
2456	 0.481596890781186 
2457	 0.248820837957088 
2458	 8.22581357999301E-02 
2459	 9.03754858953814E-02 
2460	 0.100137778906333 
2461	-6.49442448284483E-02 
2462	-0.325375220922326 
2463	-0.445129910094374 
2464	-0.713884878857311 
2465	-0.815852596683238 
2466	-0.333872200906229 
2467	-0.125626762849678 
2468	 0.243438363532401 
2469	 0.154548123778027 
2470	 8.79911495196229E-02 
2471	 0.13693145782582 
2472	-6.62621673800985E-02 
2473	-0.128629432330055 
2474	-0.444102351267249 
2475	-0.713672965199106 
2476	-4.87292326068409 
2477	-1.31551101100837 
2478	 0.688031117337486 
2479	 2.78126373145159 
2480	-0.97966303394938 
2481	-1.29857611859295E-02 
2482	-0.400210117855933 
2483	-4.68742185378532E-02 
2484	 0.118677939475591 
2485	 0.425437349600394 
2486	 1.67254431455674 
2487	 1.64001598587094 
2488	-41.9139073129653 
2489	-5.38452179331868 
2490	 0.999590553155515 
2491	 0.397881644323546 
2492	 0.10231486417709 
2493	-1.33303901075941 
2494	-0.416946743265329 
2495	-0.69034264424649 
2496	-1.10879385348363 
2497	 1.66756412058552 
2498	-1.24547369896546 
2499	-3.74195026369922 
2500	 0.407679206785823 
