Wavelength	rt0716clean00006.asd
350	 2.12640738634546E-02 
351	 2.12774693675557E-02 
352	 2.08605911226363E-02 
353	 0.020481851122798 
354	 2.04438747003864E-02 
355	 2.06178227512031E-02 
356	 2.09626128420861E-02 
357	 2.11371007372343E-02 
358	 2.09570470100326E-02 
359	 2.11875538329422E-02 
360	 2.14372634038117E-02 
361	 2.15732857629087E-02 
362	 2.16389315609205E-02 
363	 2.12294139926213E-02 
364	 2.11479003014919E-02 
365	 2.16095455140496E-02 
366	 2.17794639557674E-02 
367	 2.15669831976158E-02 
368	 2.14868837603203E-02 
369	 2.18592112501481E-02 
370	 2.16770234890256E-02 
371	 2.18409853501864E-02 
372	 2.23334315607656E-02 
373	 2.26287764989739E-02 
374	 2.29920780256585E-02 
375	 2.28625445831542E-02 
376	 2.23603997100042E-02 
377	 2.25739227896788E-02 
378	 2.27946112426716E-02 
379	 0.022820343284259 
380	 2.28005399570158E-02 
381	 2.36329861346006E-02 
382	 2.39916042606467E-02 
383	 2.40014586187106E-02 
384	 2.43520977474927E-02 
385	 2.42871269097128E-02 
386	 2.39745980303251E-02 
387	 2.38671475468408E-02 
388	 2.45672455307484E-02 
389	 2.50511077486897E-02 
390	 2.49805982317107E-02 
391	 2.46278454729465E-02 
392	 2.53226368858967E-02 
393	 2.57286521740299E-02 
394	 2.58755308287028E-02 
395	 2.61674674065374E-02 
396	 2.60101822578687E-02 
397	 2.60721416208585E-02 
398	 2.63959347694917E-02 
399	 2.64682261846996E-02 
400	 2.65129416273483E-02 
401	 2.66222574111786E-02 
402	 2.68269589039386E-02 
403	 2.71094434693302E-02 
404	 0.02713138654219 
405	 2.71720833486603E-02 
406	 2.75723012578387E-02 
407	 2.76085981779876E-02 
408	 2.76330922565952E-02 
409	 2.78023040248781E-02 
410	 0.028007114626381 
411	 2.79531390591984E-02 
412	 2.80921039891213E-02 
413	 2.86055086465397E-02 
414	 2.87309730416381E-02 
415	 0.028871651057356 
416	 2.90097253118927E-02 
417	 2.90387634919275E-02 
418	 0.029359475875145 
419	 2.95487920340069E-02 
420	 2.95891011529266E-02 
421	 2.99322784419335E-02 
422	 3.01062696721177E-02 
423	 3.02989773555705E-02 
424	 3.06408491758299E-02 
425	 3.06843739301943E-02 
426	 3.10853361516738E-02 
427	 3.15839061411691E-02 
428	 3.16153803614912E-02 
429	 0.031857348735456 
430	 3.22921172603627E-02 
431	 0.032770509508212 
432	 3.30823254297759E-02 
433	 3.33621458445561E-02 
434	 3.36030251950586E-02 
435	 3.38213002619514E-02 
436	 0.034195557411574 
437	 3.45459631880889E-02 
438	 3.48752470723267E-02 
439	 0.035255559865876 
440	 3.54166092054836E-02 
441	 3.56979615437511E-02 
442	 3.61726056653747E-02 
443	 3.64382467691782E-02 
444	 3.66310186348651E-02 
445	 3.68384788855969E-02 
446	 3.71142219757332E-02 
447	 3.74247195949962E-02 
448	 3.76674712851722E-02 
449	 3.78616404321804E-02 
450	 0.038111110377691 
451	 3.83658801458973E-02 
452	 3.85636909102896E-02 
453	 3.86864670949721E-02 
454	 3.87987436507818E-02 
455	 3.89400853493742E-02 
456	 3.91688831866704E-02 
457	 3.94696357744622E-02 
458	 3.94567026670485E-02 
459	 3.94317571995809E-02 
460	 3.95554505831496E-02 
461	 3.97985641283107E-02 
462	 3.99454366726995E-02 
463	 4.00460544660323E-02 
464	 4.01686289970419E-02 
465	 4.02623166001896E-02 
466	 4.03759803187252E-02 
467	 4.04811344633999E-02 
468	 4.05441070220977E-02 
469	 4.07839756425298E-02 
470	 4.10221471115115E-02 
471	 4.11528649854938E-02 
472	 4.12148364071611E-02 
473	 4.13949620373562E-02 
474	 4.16040545694725E-02 
475	 4.17403454706196E-02 
476	 4.19503804432358E-02 
477	 4.21024672849692E-02 
478	 4.22283218144571E-02 
479	 4.24603480096941E-02 
480	 4.27021567745319E-02 
481	 4.29555386295175E-02 
482	 4.32166001636065E-02 
483	 4.34352791475041E-02 
484	 4.37340406274846E-02 
485	 4.40542566584397E-02 
486	 4.42842156831511E-02 
487	 4.44088933520854E-02 
488	 0.044679429444842 
489	 4.50709878100527E-02 
490	 4.53020750658214E-02 
491	 4.56635375837244E-02 
492	 0.046046544096389 
493	 4.63471703930912E-02 
494	 4.66845242992638E-02 
495	 4.70813388802507E-02 
496	 4.74909707659343E-02 
497	 4.78465242248485E-02 
498	 4.82546372400492E-02 
499	 4.87058847114176E-02 
500	 4.91189291396145E-02 
501	 4.93156499460521E-02 
502	 4.97731965483913E-02 
503	 5.02918446671597E-02 
504	 5.06165493588627E-02 
505	 5.11184305666294E-02 
506	 0.051599403490145 
507	 5.20100544713239E-02 
508	 5.24330457157661E-02 
509	 5.29662301805852E-02 
510	 0.053369795377428 
511	 0.053592379060685 
512	 5.41573233470809E-02 
513	 0.054657347793326 
514	 5.51486188092286E-02 
515	 5.58212046820877E-02 
516	 5.63756597607723E-02 
517	 5.68913160734278E-02 
518	 5.74282775031759E-02 
519	 5.79803529350364E-02 
520	 5.85217479073213E-02 
521	 5.91425483766362E-02 
522	 5.98605688464725E-02 
523	 6.03364489918738E-02 
524	 6.08674808416355E-02 
525	 6.15292542390716E-02 
526	 6.22259377621414E-02 
527	 6.28422820387364E-02 
528	 6.34594484619322E-02 
529	 6.41235550952855E-02 
530	 6.47589930576874E-02 
531	 6.53433527455201E-02 
532	 0.065987771562286 
533	 6.67914392215359E-02 
534	 6.74670024159938E-02 
535	 6.81629593589596E-02 
536	 6.89145906362142E-02 
537	 0.069595203903108 
538	 0.07039341767667 
539	 7.11196021141014E-02 
540	 7.16635394869776E-02 
541	 7.24696460696589E-02 
542	 7.32592738006379E-02 
543	 7.39577038408055E-02 
544	 0.074632292517549 
545	 7.53484829262757E-02 
546	 7.60637615690676E-02 
547	 7.67708077312965E-02 
548	 0.077572558552656 
549	 7.82857568790236E-02 
550	 7.89729362992874E-02 
551	 7.97428559336896E-02 
552	 8.04090554378061E-02 
553	 8.11335013287087E-02 
554	 8.19240097744765E-02 
555	 8.25952381279942E-02 
556	 8.32973655577495E-02 
557	 8.39898790511811E-02 
558	 8.46300783440649E-02 
559	 8.53426421284695E-02 
560	 8.60375145785426E-02 
561	 0.086687570952046 
562	 8.73058182147426E-02 
563	 8.78338876490653E-02 
564	 8.83685147674275E-02 
565	 8.89538917532401E-02 
566	 8.94985546470139E-02 
567	 9.00313642000223E-02 
568	 0.090555531474056 
569	 9.10501004974117E-02 
570	 9.14056812305716E-02 
571	 9.18204910577571E-02 
572	 9.23094833272953E-02 
573	 9.26759882894063E-02 
574	 9.30250026183355E-02 
575	 9.34110263685321E-02 
576	 9.38162448014965E-02 
577	 9.40278194262567E-02 
578	 9.42782170837364E-02 
579	 0.094548187253683 
580	 9.46888748575027E-02 
581	 9.49393923784732E-02 
582	 0.0950883698465 
583	 9.50793068560558E-02 
584	 9.52437540554953E-02 
585	 9.52907238822178E-02 
586	 9.52065215680103E-02 
587	 9.50874751398952E-02 
588	 0.095064505384056 
589	 9.50314408656368E-02 
590	 9.49435343602578E-02 
591	 9.48392554146578E-02 
592	 9.47024410086291E-02 
593	 9.44963712269711E-02 
594	 9.42191111777289E-02 
595	 9.39922605384502E-02 
596	 9.35873215306536E-02 
597	 9.30392745599244E-02 
598	 9.25303734576444E-02 
599	 9.20309744452467E-02 
600	 9.15692098355727E-02 
601	 9.12134163612932E-02 
602	 9.11053432262001E-02 
603	 9.09047884032708E-02 
604	 9.07455923497966E-02 
605	 9.08342626682205E-02 
606	 9.09001842153653E-02 
607	 9.09008107858022E-02 
608	 9.08753507595129E-02 
609	 9.09342977856972E-02 
610	 0.091071578741886 
611	 9.11433615981603E-02 
612	 9.10795816864801E-02 
613	 9.11022549891826E-02 
614	 9.11710240864177E-02 
615	 9.12051780050744E-02 
616	 9.11280723373732E-02 
617	 9.11593836078011E-02 
618	 0.091193934594204 
619	 9.11796686793886E-02 
620	 9.12072770644498E-02 
621	 9.12486988901189E-02 
622	 9.12343486363912E-02 
623	 9.11435670841591E-02 
624	 9.12714161860612E-02 
625	 9.12767875932311E-02 
626	 9.11477761233915E-02 
627	 9.11952450105636E-02 
628	 9.12510704989292E-02 
629	 9.12315562394985E-02 
630	 9.11489937432501E-02 
631	 0.091233757196049 
632	 9.12132797231858E-02 
633	 0.091129621066113 
634	 9.11516778792278E-02 
635	 9.11554379489095E-02 
636	 0.091189591910015 
637	 0.091248263892889 
638	 9.12268327732004E-02 
639	 9.12346116912583E-02 
640	 9.12140613412888E-02 
641	 9.11171092369807E-02 
642	 9.11353324718841E-02 
643	 9.11124249679907E-02 
644	 9.10050580056741E-02 
645	 9.08734135403467E-02 
646	 9.08055820524526E-02 
647	 0.090752434236463 
648	 9.06846015227417E-02 
649	 9.07034925903535E-02 
650	 9.05688290787928E-02 
651	 9.03329625999061E-02 
652	 9.01387348973127E-02 
653	 8.98401582627853E-02 
654	 0.089506617285331 
655	 8.91234650263292E-02 
656	 8.86035956411238E-02 
657	 8.82952357260693E-02 
658	 8.80650262287709E-02 
659	 8.77555835607051E-02 
660	 8.74721949253906E-02 
661	 8.71638160897722E-02 
662	 8.68903500789493E-02 
663	 8.67648939763921E-02 
664	 8.66341843324758E-02 
665	 8.65058999269006E-02 
666	 8.63962152523105E-02 
667	 0.086301240335042 
668	 8.62202314557871E-02 
669	 8.61181656338816E-02 
670	 8.59938810890832E-02 
671	 0.086069798394518 
672	 8.60749616631798E-02 
673	 8.60256911693317E-02 
674	 8.62031288026443E-02 
675	 8.62549505600695E-02 
676	 8.62446312375183E-02 
677	 8.62873822913869E-02 
678	 8.64320102226258E-02 
679	 8.65275433045408E-02 
680	 0.086589925843084 
681	 8.67068753029197E-02 
682	 8.68676251891045E-02 
683	 8.70036934692651E-02 
684	 8.71029061830376E-02 
685	 8.72464821231528E-02 
686	 0.087347571012249 
687	 8.73869041495265E-02 
688	 8.73829765878458E-02 
689	 8.73618510200795E-02 
690	 8.72869075047416E-02 
691	 0.087170021888856 
692	 8.70395963293933E-02 
693	 0.086809102292836 
694	 8.64768273724146E-02 
695	 8.61059891083887E-02 
696	 0.085785984297589 
697	 8.53420687896443E-02 
698	 8.47804459846863E-02 
699	 8.41922229646085E-02 
700	 8.35616272415072E-02 
701	 8.29941407263107E-02 
702	 8.24264630552202E-02 
703	 8.16599334883419E-02 
704	 8.08573908580853E-02 
705	 8.00208713820898E-02 
706	 7.91636807090732E-02 
707	 7.83294304379979E-02 
708	 7.72893883306255E-02 
709	 7.61126984234517E-02 
710	 7.49426268772504E-02 
711	 7.36275043802729E-02 
712	 7.22438151174728E-02 
713	 7.07968711456305E-02 
714	 6.91690465708624E-02 
715	 6.76420387399537E-02 
716	 6.60875928531909E-02 
717	 6.43903672587862E-02 
718	 6.22612144558871E-02 
719	 6.03225934276091E-02 
720	 0.058773414081804 
721	 5.72009499311922E-02 
722	 5.57435790396207E-02 
723	 0.054010823286404 
724	 5.20722433801093E-02 
725	 5.01287159127358E-02 
726	 4.82635842407647E-02 
727	 4.62070506480782E-02 
728	 4.38225802383431E-02 
729	 4.15053126939942E-02 
730	 3.90857693932965E-02 
731	 3.67786894610092E-02 
732	 3.47760485551645E-02 
733	 3.32169707587901E-02 
734	 3.18094617271395E-02 
735	 3.05172769678723E-02 
736	 2.96235793188426E-02 
737	 2.88414191634716E-02 
738	 2.82280270527225E-02 
739	 2.78530727088134E-02 
740	 2.75252614536554E-02 
741	 2.73588720611868E-02 
742	 2.72875650229328E-02 
743	 2.71711061749723E-02 
744	 2.71083150519338E-02 
745	 2.70883563644328E-02 
746	 2.70629666184888E-02 
747	 2.69486132195246E-02 
748	 2.69160315561926E-02 
749	 2.69428924101176E-02 
750	 2.69612998392062E-02 
751	 2.69309044822273E-02 
752	 0.026939477160387 
753	 2.69806580881416E-02 
754	 2.69965060945122E-02 
755	 2.69737518291546E-02 
756	 2.70336087289147E-02 
757	 2.71548802927337E-02 
758	 2.70632752138306E-02 
759	 2.70162326507009E-02 
760	 2.72023492716374E-02 
761	 2.74647498241951E-02 
762	 2.75096602196677E-02 
763	 2.73560247813894E-02 
764	 2.73433306061513E-02 
765	 0.027662076396922 
766	 2.77466249807422E-02 
767	 2.78567978880294E-02 
768	 2.80392541849348E-02 
769	 2.81316090250054E-02 
770	 2.83479622457644E-02 
771	 0.028570677571246 
772	 2.87018506543794E-02 
773	 2.88762854103683E-02 
774	 2.90773766139468E-02 
775	 0.029317272223962 
776	 2.96052503323325E-02 
777	 2.98673751107716E-02 
778	 3.01736463527913E-02 
779	 0.0305061212898 
780	 3.07593049605192E-02 
781	 3.10217181884415E-02 
782	 3.13522033452476E-02 
783	 3.17362000173598E-02 
784	 3.19936283008891E-02 
785	 3.24767203697328E-02 
786	 3.29792530148184E-02 
787	 3.32173179705566E-02 
788	 3.36780534680015E-02 
789	 3.40726932378244E-02 
790	 3.43946843067209E-02 
791	 3.48688858355423E-02 
792	 3.52318518441874E-02 
793	 3.55977842072173E-02 
794	 3.60357376754767E-02 
795	 3.64431529042896E-02 
796	 3.68107816760202E-02 
797	 3.71564830374158E-02 
798	 3.75159898938035E-02 
799	 0.037903479977081 
800	 3.81786361000791E-02 
801	 3.84028489201243E-02 
802	 3.87229409453219E-02 
803	 3.89417942593576E-02 
804	 3.91154712886006E-02 
805	 3.92351736673405E-02 
806	 3.92085419660984E-02 
807	 3.92953381679859E-02 
808	 3.93101538069835E-02 
809	 3.91122187796214E-02 
810	 3.89102369571568E-02 
811	 3.86907816020003E-02 
812	 3.84997421265611E-02 
813	 0.0383304487395 
814	 3.77550172624857E-02 
815	 3.72432302813179E-02 
816	 3.68498605777911E-02 
817	 3.62601366872064E-02 
818	 3.58090226566569E-02 
819	 3.51536423422689E-02 
820	 0.034219226236498 
821	 3.33594973289381E-02 
822	 3.22786108609247E-02 
823	 3.11985093462938E-02 
824	 3.01842880678471E-02 
825	 2.84944554648127E-02 
826	 2.70220604888214E-02 
827	 2.55853972501504E-02 
828	 2.38405693298243E-02 
829	 2.24490876133069E-02 
830	 2.11462874368953E-02 
831	 0.01987850069967 
832	 1.88179626981819E-02 
833	 1.79726017445879E-02 
834	 1.73551282517811E-02 
835	 1.69099669626848E-02 
836	 1.65195958498119E-02 
837	 1.62684383499527E-02 
838	 1.59917008223283E-02 
839	 1.56104859643895E-02 
840	 1.53959286130956E-02 
841	 0.015110613700704 
842	 1.48248856746258E-02 
843	 1.46560666229307E-02 
844	 1.43806568644715E-02 
845	 1.41521157608713E-02 
846	 1.39834879172435E-02 
847	 1.37884306769342E-02 
848	 1.36000410499578E-02 
849	 1.34583628343391E-02 
850	 1.33244242163005E-02 
851	 1.30712022327474E-02 
852	 1.29490327216128E-02 
853	 1.27889502484179E-02 
854	 1.24923257503405E-02 
855	 1.22822993793544E-02 
856	 1.21671321829986E-02 
857	 1.20671930350137E-02 
858	 1.18909852987127E-02 
859	 1.15940917677337E-02 
860	 1.14318875526697E-02 
861	 1.14128647746952E-02 
862	 1.13859279278529E-02 
863	 1.11446467198848E-02 
864	 1.10016201015012E-02 
865	 1.09270389757466E-02 
866	 1.06165298544566E-02 
867	 1.06944263273215E-02 
868	 1.05757794462664E-02 
869	 1.01757247421481E-02 
870	 1.02269894428386E-02 
871	 1.00531618326061E-02 
872	 9.74163460469474E-03 
873	 9.51751508613249E-03 
874	 9.56027411267148E-03 
875	 9.10885311282038E-03 
876	 8.78996103927989E-03 
877	 9.14216664394539E-03 
878	 8.77205358371921E-03 
879	 8.31717775341437E-03 
880	 8.08328448406491E-03 
881	 8.09100577700902E-03 
882	 7.84027618553569E-03 
883	 7.50899562279637E-03 
884	 7.32114643213668E-03 
885	 7.4183178046471E-03 
886	 7.26541356505928E-03 
887	 6.96012940608751E-03 
888	 6.75288820324972E-03 
889	 6.9136068744117E-03 
890	 6.66261862590086E-03 
891	 6.32821524953131E-03 
892	 6.20529202528966E-03 
893	 6.12529876402047E-03 
894	 6.24268636636021E-03 
895	 6.20499692179641E-03 
896	 5.77512169445355E-03 
897	 5.59501885036673E-03 
898	 5.49090088530099E-03 
899	 5.27372904084359E-03 
900	 4.91450680820216E-03 
901	 4.90765604632506E-03 
902	 4.74672288968859E-03 
903	 4.75458789336101E-03 
904	 5.28333194905549E-03 
905	 5.22957943413016E-03 
906	 4.9478706249923E-03 
907	 4.55688419906711E-03 
908	 4.04359508906005E-03 
909	 3.69822797946815E-03 
910	 3.92030763472463E-03 
911	 4.26046209705073E-03 
912	 3.74950599084504E-03 
913	 3.78476096353448E-03 
914	 3.73748328800882E-03 
915	 3.31231455686784E-03 
916	 2.91444376975258E-03 
917	 2.93554639899521E-03 
918	 2.88909776991569E-03 
919	 2.63140522263359E-03 
920	 2.60200917254671E-03 
921	 2.52286441212596E-03 
922	 2.19160601847561E-03 
923	 1.75382739527346E-03 
924	 2.07006255043106E-03 
925	 1.74195994321285E-03 
926	 1.74807242088495E-03 
927	 2.74294970052072E-03 
928	 8.58535446801879E-04 
929	 8.2438188729224E-04 
930	 2.33351302817398E-03 
931	 1.74367654655945E-03 
932	-1.2101466593355E-03 
933	-3.77870412450258E-03 
934	-1.68462699066033E-03 
935	 4.17882978794654E-03 
936	 1.93230098389247E-04 
937	-1.04613364233622E-03 
938	-5.98127990576167E-04 
939	-2.29382139661945E-03 
940	-2.88024440126213E-03 
941	 3.22639994692257E-04 
942	 3.93147095340579E-03 
943	 2.71243534229863E-03 
944	 1.30887617813468E-03 
945	 2.95504486825062E-03 
946	 3.78092679245522E-03 
947	-1.53439824540604E-03 
948	-3.87748546042671E-03 
949	-2.62577035512208E-04 
950	 3.03207859503782E-03 
951	-1.9261839453675E-03 
952	-1.74517985774326E-03 
953	 1.92946881630797E-03 
954	 4.3000388954795E-03 
955	 1.27178787978716E-03 
956	-1.18255077516047E-04 
957	 7.1931374915995E-05 
958	 9.73609555462658E-04 
959	 1.57160567698547E-03 
960	 3.83414882914701E-04 
961	 1.64688038465567E-03 
962	 3.40362551332211E-03 
963	 9.50025967569484E-04 
964	 2.01250106906094E-03 
965	 2.34929677853775E-03 
966	 1.48746341191669E-03 
967	 1.82596105416511E-03 
968	 1.17233922129289E-03 
969	 7.4303215555543E-04 
970	 1.07239437440201E-03 
971	 1.66487456619804E-03 
972	 6.11712641707128E-04 
973	 2.84806670155925E-04 
974	 1.38502262510251E-03 
975	 2.23282903556834E-03 
976	 2.29534093684777E-04 
977	-2.32437699197307E-04 
978	 1.45153945813531E-03 
979	 1.88141565552215E-03 
980	-9.71862565278788E-04 
981	-1.15008416588534E-03 
982	 1.09004077508836E-03 
983	 6.67523992842814E-04 
984	 2.80673435186587E-04 
985	 7.98133741657243E-04 
986	 1.94866657619649E-03 
987	 2.58565448060756E-03 
988	 1.36935400656625E-03 
989	 1.55027430054552E-04 
990	 5.2747257860562E-04 
991	 2.58324552302212E-03 
992	 5.88288616258155E-04 
993	 5.88597103805343E-04 
994	 1.94125367187807E-03 
995	 1.11181282779619E-04 
996	 1.34681455112898E-03 
997	 2.20556917337012E-03 
998	 1.72672158046788E-03 
999	 1.04409557067033E-03 
1000	 8.28751933033188E-04 
1001	 1.02763708012542E-03 
1002	 1.50268303455244E-03 
1003	 1.62760301456461E-03 
1004	 1.53600800276151E-03 
1005	 1.58608256222535E-03 
1006	 1.64667712819915E-03 
1007	 1.57060444169563E-03 
1008	 1.51843724910296E-03 
1009	 1.60947414046194E-03 
1010	 1.49168870169093E-03 
1011	 1.37674777211946E-03 
1012	 1.33574535456093E-03 
1013	 1.35576456146948E-03 
1014	 1.34686194497387E-03 
1015	 1.37920301662303E-03 
1016	 1.35999243750165E-03 
1017	 1.20251914230993E-03 
1018	 1.22832348224234E-03 
1019	 1.28735646300046E-03 
1020	 1.38702704046999E-03 
1021	 1.60036335090463E-03 
1022	 2.01772356732177E-03 
1023	 1.9032999170582E-03 
1024	 1.87812831449725E-03 
1025	 1.64752485720596E-03 
1026	 1.32814686841435E-03 
1027	 1.25356838921194E-03 
1028	 1.34810183471652E-03 
1029	 1.32991237475023E-03 
1030	 1.40996668968737E-03 
1031	 1.36710928212446E-03 
1032	 1.14951845839995E-03 
1033	 1.08737330475541E-03 
1034	 1.05525442589945E-03 
1035	 1.07825654593299E-03 
1036	 1.1287958389065E-03 
1037	 1.30677866942497E-03 
1038	 1.70325820019457E-03 
1039	 1.92229255394282E-03 
1040	 2.12989472708871E-03 
1041	 2.22099307033938E-03 
1042	 2.19077733885975E-03 
1043	 1.92274775144062E-03 
1044	 1.76731634736666E-03 
1045	 1.46697833114354E-03 
1046	 1.49954556162089E-03 
1047	 1.73502797072258E-03 
1048	 1.78993778458062E-03 
1049	 2.13619504750971E-03 
1050	 2.08908123809385E-03 
1051	 1.52089294361885E-03 
1052	 1.32878350494823E-03 
1053	 1.12004289483685E-03 
1054	 1.0409044907102E-03 
1055	 1.23764425560571E-03 
1056	 1.38532690359319E-03 
1057	 1.54717451332745E-03 
1058	 1.73376308151794E-03 
1059	 1.88271207395662E-03 
1060	 2.18722499071624E-03 
1061	 2.0886095146839E-03 
1062	 1.75193476729863E-03 
1063	 1.49830578714983E-03 
1064	 6.91828481558365E-04 
1065	 6.64146506491483E-04 
1066	 1.27803909656684E-03 
1067	 1.47887587039377E-03 
1068	 2.19834751331901E-03 
1069	 2.25926237028894E-03 
1070	 1.26059867740941E-03 
1071	 1.03137637937313E-03 
1072	 7.88912311824868E-04 
1073	 9.70605278591883E-04 
1074	 1.07411354304214E-03 
1075	 1.76121844681071E-03 
1076	 1.8813516198844E-03 
1077	 1.66039718659123E-03 
1078	 1.56840997805954E-03 
1079	 1.39217268299551E-03 
1080	 1.3307691274119E-03 
1081	 1.28086511159437E-03 
1082	 1.25633733321798E-03 
1083	 1.24362072207878E-03 
1084	 1.37429620740481E-03 
1085	 1.79319358980369E-03 
1086	 1.82785078505073E-03 
1087	 1.6785726627734E-03 
1088	 1.64159782390313E-03 
1089	 1.20953050935894E-03 
1090	 1.16395403079772E-03 
1091	 1.13856406905108E-03 
1092	 1.45333343371603E-03 
1093	 1.46059734926129E-03 
1094	 1.23335598921549E-03 
1095	 1.28940248495907E-03 
1096	 1.67521160547556E-03 
1097	 1.57561869172964E-03 
1098	 1.11934624944418E-03 
1099	 1.14925699537201E-03 
1100	 9.82497497184193E-04 
1101	 9.62446509360344E-04 
1102	 2.12636324232118E-03 
1103	 2.32109385585117E-03 
1104	 1.81683970560509E-03 
1105	 9.08664880628051E-04 
1106	 8.06484659288196E-04 
1107	 2.71938591190018E-04 
1108	 1.08298793588642E-04 
1109	 1.53923787803074E-03 
1110	 1.97149959007107E-03 
1111	 2.01363031776421E-03 
1112	 1.83062450988596E-03 
1113	 0.001178928635902 
1114	 7.78620482409316E-04 
1115	 1.6535492621961E-04 
1116	-3.4232102388469E-05 
1117	-3.71724848092605E-05 
1118	-2.61380403351513E-04 
1119	-2.4789589169354E-04 
1120	-5.1856258935645E-04 
1121	-3.10424889983852E-03 
1122	 1.12269752763542E-03 
1123	 4.32294368710821E-03 
1124	 2.09890202456279E-03 
1125	 3.83040571996576E-03 
1126	 1.03363354181034E-03 
1127	 1.14301067939785E-03 
1128	 6.40582342937211E-03 
1129	 5.16425405799383E-03 
1130	 1.63847451714127E-03 
1131	 1.65068294444109E-03 
1132	-8.79435772198252E-04 
1133	-4.72178938594578E-04 
1134	 5.4910421415917E-03 
1135	 5.83209745822736E-03 
1136	 0.002695027558678 
1137	 2.04083218243904E-03 
1138	 9.99667783506635E-04 
1139	 8.80521222612343E-05 
1140	 1.12071972200439E-03 
1141	 2.09770891387396E-03 
1142	 2.02616442184072E-03 
1143	 2.39563974293549E-03 
1144	 2.81594981262153E-03 
1145	 3.66885855835711E-03 
1146	 3.13066161395315E-03 
1147	 1.14782724689895E-03 
1148	 1.10487266701074E-03 
1149	 1.76673833989465E-03 
1150	 1.48897168681764E-03 
1151	 2.19844846993297E-03 
1152	 2.10546803459866E-03 
1153	 2.39649247326617E-04 
1154	 4.54773422449513E-05 
1155	 6.02040968629134E-04 
1156	 1.30331059150784E-03 
1157	 1.27631880074658E-03 
1158	 1.22698251617916E-03 
1159	 8.06822665225942E-04 
1160	 5.16375971490942E-04 
1161	 5.55732783764917E-04 
1162	 7.47167763752574E-04 
1163	 9.82767479927425E-04 
1164	 7.38828567172812E-04 
1165	 3.97992819350743E-04 
1166	 5.22965067889494E-04 
1167	 8.84152793422375E-04 
1168	 1.04705677343136E-03 
1169	 1.15960045149235E-03 
1170	 1.21104296789896E-03 
1171	 1.18107992605218E-03 
1172	 9.28683368987587E-04 
1173	 8.45982881041405E-04 
1174	 9.02476674382779E-04 
1175	 6.9870259142404E-04 
1176	 5.74621449564512E-04 
1177	 5.97096467977567E-04 
1178	 6.75052760903615E-04 
1179	 8.48655910659289E-04 
1180	 1.10954445915147E-03 
1181	 1.07527020158661E-03 
1182	 8.09524061268952E-04 
1183	 8.09371682014114E-04 
1184	 8.60224075461755E-04 
1185	 8.16537486223912E-04 
1186	 9.12514235108767E-04 
1187	 9.9294399048237E-04 
1188	 7.58521773233813E-04 
1189	 5.46316351175101E-04 
1190	 8.46880599624509E-04 
1191	 9.63445618078371E-04 
1192	 9.25073473914893E-04 
1193	 7.87038054874941E-04 
1194	 1.00741380241581E-03 
1195	 9.13542843239341E-04 
1196	 7.60828171157898E-04 
1197	 1.04565984839629E-03 
1198	 1.10264541219624E-03 
1199	 9.26863035566311E-04 
1200	 8.0201456864238E-04 
1201	 7.251954809763E-04 
1202	 7.37192949927764E-04 
1203	 7.45214896226046E-04 
1204	 7.86798825153585E-04 
1205	 8.12260163065206E-04 
1206	 7.13053622356969E-04 
1207	 5.04190474230538E-04 
1208	 4.61170459485549E-04 
1209	 6.07899812786687E-04 
1210	 7.15883218862325E-04 
1211	 9.0159658038395E-04 
1212	 1.01455759111522E-03 
1213	 8.16208801769894E-04 
1214	 7.78773983302416E-04 
1215	 6.64916921269773E-04 
1216	 8.11375933661661E-04 
1217	 9.33320508950831E-04 
1218	 9.48132966050998E-04 
1219	 9.28956860284905E-04 
1220	 8.65282169895105E-04 
1221	 7.50051523890491E-04 
1222	 6.37983475646376E-04 
1223	 6.9457110575835E-04 
1224	 7.51577172199101E-04 
1225	 8.42618157247236E-04 
1226	 1.11198259448556E-03 
1227	 1.18778050006336E-03 
1228	 9.40974377009839E-04 
1229	 6.7634929141301E-04 
1230	 6.26233153870053E-04 
1231	 7.02875679266797E-04 
1232	 8.19727199016173E-04 
1233	 8.05540723949701E-04 
1234	 7.21009140780361E-04 
1235	 7.82009620983374E-04 
1236	 1.04332082344317E-03 
1237	 9.86787072702564E-04 
1238	 8.67380389023645E-04 
1239	 7.00973380353429E-04 
1240	 5.68178967773458E-04 
1241	 5.64313579704649E-04 
1242	 6.78800524777771E-04 
1243	 8.3110415813643E-04 
1244	 7.98667860445179E-04 
1245	 7.331306890542E-04 
1246	 8.90249443136677E-04 
1247	 9.54966253945189E-04 
1248	 8.28639323882091E-04 
1249	 7.84577566667079E-04 
1250	 7.95753101218403E-04 
1251	 7.9738219534514E-04 
1252	 8.70482679927888E-04 
1253	 8.25548376381129E-04 
1254	 7.07156170702383E-04 
1255	 7.30582775784355E-04 
1256	 7.23996761620996E-04 
1257	 8.14325656941027E-04 
1258	 8.13797607171025E-04 
1259	 7.49948795549084E-04 
1260	 8.03331772393236E-04 
1261	 8.87278692085084E-04 
1262	 9.3263072301675E-04 
1263	 1.06362488405266E-03 
1264	 1.04911735073918E-03 
1265	 8.11478652429972E-04 
1266	 9.45800106465275E-04 
1267	 1.22776012741983E-03 
1268	 1.00167447784819E-03 
1269	 7.26636292071341E-04 
1270	 8.06927853139514E-04 
1271	 8.73011826763735E-04 
1272	 8.33268014432833E-04 
1273	 7.96360659130676E-04 
1274	 9.41428143936063E-04 
1275	 1.06987271197068E-03 
1276	 8.09410592270995E-04 
1277	 6.45492359728743E-04 
1278	 7.88946929729008E-04 
1279	 9.38214292881944E-04 
1280	 1.03734948755126E-03 
1281	 9.6202364109311E-04 
1282	 8.13648981212582E-04 
1283	 8.63287361255552E-04 
1284	 8.54085711713015E-04 
1285	 7.40248936138409E-04 
1286	 8.27853794116268E-04 
1287	 8.65346651563354E-04 
1288	 5.76434108661537E-04 
1289	 4.5665369224297E-04 
1290	 6.2663679884241E-04 
1291	 6.10651607258084E-04 
1292	 6.69335164954314E-04 
1293	 9.18534884757812E-04 
1294	 9.35792804133189E-04 
1295	 8.21294449858855E-04 
1296	 9.50133990003144E-04 
1297	 9.99749841341874E-04 
1298	 9.29309227576599E-04 
1299	 1.1176248826083E-03 
1300	 1.05409533669814E-03 
1301	 7.74952017605283E-04 
1302	 8.24809447129364E-04 
1303	 1.12762273958405E-03 
1304	 1.47840905979505E-03 
1305	 1.37377338589426E-03 
1306	 1.13571388182448E-03 
1307	 6.56034066434266E-04 
1308	 6.35105628705694E-04 
1309	 4.41761163863875E-04 
1310	 3.9272787053718E-04 
1311	 1.00108962027202E-03 
1312	 1.13526732185273E-03 
1313	 9.08426852131483E-04 
1314	 7.38203550919063E-04 
1315	 1.89868428127267E-04 
1316	 2.32021353886825E-04 
1317	 1.12025870493658E-03 
1318	 1.09032640007172E-03 
1319	 4.5780421849631E-04 
1320	 5.54214873713908E-04 
1321	 7.28947793736291E-04 
1322	 1.4313115074101E-04 
1323	-5.4750364615034E-05 
1324	 6.32475997200789E-04 
1325	 5.88347426166754E-04 
1326	 2.25104624678642E-05 
1327	 3.05811132400971E-04 
1328	 0.001177414933427 
1329	 9.50358426378706E-04 
1330	 7.20960826395985E-05 
1331	 8.97756418835571E-04 
1332	 1.64763994120849E-03 
1333	 6.82740192272538E-04 
1334	 6.6231237735999E-04 
1335	 1.02035421456232E-03 
1336	 9.93388879065431E-04 
1337	 5.75243099927982E-04 
1338	 1.0323695943879E-03 
1339	 1.37512970189054E-03 
1340	 3.62121117915557E-04 
1341	-2.99573284144315E-05 
1342	 1.58592419131527E-03 
1343	 1.52177017650543E-03 
1344	-2.10069133749586E-03 
1345	-1.85029579159365E-03 
1346	 3.23700968499969E-03 
1347	 3.79408986822095E-03 
1348	 3.25273560314765E-03 
1349	 6.11943070860607E-03 
1350	 7.25836866071056E-03 
1351	 4.19424186675474E-03 
1352	 2.75540912640072E-03 
1353	 1.30373676216227E-03 
1354	-3.19037259068743E-02 
1355	-7.84475577949649E-02 
1356	-6.69142423062042E-02 
1357	 5.61236726905621E-03 
1358	 6.05726436592199E-02 
1359	-1.37936650010266E-02 
1360	-7.27934493206255E-02 
1361	-3.51200767628132E-02 
1362	-6.80966436401534E-02 
1363	-4.07741369439481E-02 
1364	 0.107413435610646 
1365	 1.96141268491277E-02 
1366	-0.355670701754795 
1367	-0.328222000149079 
1368	-0.134686418772274 
1369	 0.195937829100738 
1370	 0.158604095407029 
1371	 2.54065013960228E-02 
1372	 0.136068510457596 
1373	 0.217054528530707 
1374	 7.97840502667436E-02 
1375	 0.10003242465196 
1376	 0.242335957253696 
1377	 0.194837247275951 
1378	-0.17849216082524 
1379	-0.210575469753136 
1380	-0.169282016762616 
1381	-0.78546554582763 
1382	-1.08419495416828 
1383	-0.4677844521621 
1384	-0.338984829286119 
1385	-0.687771034488973 
1386	-0.711650508949414 
1387	-0.304411832942346 
1388	-0.183479782056395 
1389	-0.201194777143706 
1390	-0.170180507180623 
1391	-0.142264423558409 
1392	-0.26716646700825 
1393	-0.071564844070877 
1394	-0.126162257273512 
1395	-0.20683207303984 
1396	-9.93072698032528E-02 
1397	-0.263034256385584 
1398	-0.116580309103534 
1399	 0.140200553624518 
1400	 0.110731701661217 
1401	-3.04967643492209E-02 
1402	 4.00866815924125E-02 
1403	 0.286900643940648 
1404	 1.58529969221896E-02 
1405	-0.124380505711403 
1406	-0.428298572791736 
1407	-0.383847827841482 
1408	-0.208165095867342 
1409	-0.144791155987025 
1410	 9.49740376884428E-03 
1411	 2.29967870090747E-02 
1412	-7.63897808378547E-02 
1413	-6.88298114583055E-02 
1414	-2.58507813492207E-02 
1415	-2.26097248731136E-02 
1416	-3.32333869453411E-02 
1417	-8.36458861742136E-03 
1418	 3.59285039470405E-02 
1419	 3.77625335414116E-02 
1420	 3.35547823998598E-02 
1421	 2.90535963333742E-02 
1422	 0.011079399241378 
1423	 7.07231998047981E-03 
1424	 1.41125625967572E-02 
1425	 1.62465148026859E-02 
1426	 1.32551069212376E-02 
1427	 1.04854547721317E-02 
1428	 1.16511420177969E-02 
1429	 5.45835864608934E-03 
1430	-8.05216872818632E-03 
1431	-1.00230029682718E-02 
1432	-8.12309111490076E-03 
1433	-1.10731087132613E-02 
1434	-1.66979944378074E-02 
1435	-1.38444096538381E-02 
1436	-0.006435870501579 
1437	-2.49904187791612E-03 
1438	-0.016067667379114 
1439	-1.82083610226208E-02 
1440	-1.63770411868169E-02 
1441	-1.30121441656369E-02 
1442	 1.09716658396955E-02 
1443	 1.60548807273877E-02 
1444	 1.76323486093045E-03 
1445	-3.16402365963763E-03 
1446	-1.29442803926999E-03 
1447	 2.0129702998177E-03 
1448	-4.6609406427918E-03 
1449	-8.60802834685483E-03 
1450	 1.2418486559663E-03 
1451	 2.92660565535269E-03 
1452	-3.0019762161907E-03 
1453	-1.25822918939921E-03 
1454	 1.48960977317645E-03 
1455	 3.55616205616062E-05 
1456	-1.39790113822352E-03 
1457	 2.75910378210418E-03 
1458	 3.54303886325582E-03 
1459	-1.87067413036571E-03 
1460	-2.88477508354853E-03 
1461	 1.14535558596377E-03 
1462	 1.41831066052698E-03 
1463	-2.09348588004491E-03 
1464	-2.0901412689602E-03 
1465	 2.09260034446034E-04 
1466	 6.87426299294103E-04 
1467	 1.92568413319951E-03 
1468	 2.09431508727058E-03 
1469	-5.48114100078826E-05 
1470	-3.8939313345537E-04 
1471	 4.78536110060196E-04 
1472	 2.07111585414333E-04 
1473	-3.28363143015279E-04 
1474	-2.42817982496776E-04 
1475	 1.60135683810093E-04 
1476	-7.85762075296381E-04 
1477	-2.9421303527903E-03 
1478	-2.44635558993334E-03 
1479	-8.82459019282476E-04 
1480	-9.94495477631894E-04 
1481	-9.70320689767896E-04 
1482	-4.69298692483456E-06 
1483	 3.02028240479957E-04 
1484	 4.83132702155947E-04 
1485	 1.86540674256821E-03 
1486	 2.37193793994853E-03 
1487	 2.22695781131576E-03 
1488	 1.67904041842584E-03 
1489	 5.9693091321294E-04 
1490	 6.20534630552051E-04 
1491	 9.00901486813788E-04 
1492	 6.34489805888425E-04 
1493	 5.2836715721392E-04 
1494	 7.57601372014956E-04 
1495	 9.85983738379718E-04 
1496	 7.36162327760326E-04 
1497	 4.45549989839124E-04 
1498	 5.13349893184627E-04 
1499	 3.60293338001844E-04 
1500	 1.75404206725886E-04 
1501	 4.02194003430013E-04 
1502	 5.10552038188479E-04 
1503	 1.87017103958571E-04 
1504	 4.41123350433727E-05 
1505	 1.00647689709767E-04 
1506	 3.35491360548293E-04 
1507	 1.78609030621247E-04 
1508	 1.98856148429337E-04 
1509	 4.69606717708354E-04 
1510	 4.11798004636652E-04 
1511	 2.77592735894619E-04 
1512	 3.94993620367113E-04 
1513	 5.55901188720176E-04 
1514	 6.94284213038799E-04 
1515	 5.43956312049313E-04 
1516	 4.53958375999217E-04 
1517	 6.7786518836385E-04 
1518	 4.87069464823469E-04 
1519	 3.89135257946399E-04 
1520	 6.9682879010514E-04 
1521	 6.21381823220472E-04 
1522	 6.29361172346802E-04 
1523	 9.78564130570351E-04 
1524	 9.2872060578513E-04 
1525	 6.52366679054681E-04 
1526	 5.58766014483891E-04 
1527	 5.3780323458709E-04 
1528	 5.03454478811477E-04 
1529	 5.04156265491053E-04 
1530	 5.24565460350867E-04 
1531	 5.40437038927734E-04 
1532	 5.30099084191615E-04 
1533	 4.54490891018246E-04 
1534	 5.08951173183009E-04 
1535	 5.6571638327443E-04 
1536	 5.661643103016E-04 
1537	 6.9122899274057E-04 
1538	 7.69339517350788E-04 
1539	 8.45625286139721E-04 
1540	 8.62383270598777E-04 
1541	 7.40777713687988E-04 
1542	 8.84472106259773E-04 
1543	 1.09125888050512E-03 
1544	 8.21998360165322E-04 
1545	 4.80904249547726E-04 
1546	 3.72035986066967E-04 
1547	 3.41811659257389E-04 
1548	 4.89728532920955E-04 
1549	 4.8977064661628E-04 
1550	 3.22581784010431E-04 
1551	 3.0712693758318E-04 
1552	 1.56820231734766E-04 
1553	 2.65028777200582E-04 
1554	 7.69669103844856E-04 
1555	 7.35970467115459E-04 
1556	 4.90285279398204E-04 
1557	 6.04572026764596E-04 
1558	 5.77440257018223E-04 
1559	 4.30668382924868E-04 
1560	 4.12949274682512E-04 
1561	 4.03084932374996E-04 
1562	 3.57691294832399E-04 
1563	 2.6682613582566E-04 
1564	 2.90484820529508E-04 
1565	 4.27492983012227E-04 
1566	 4.03316265209933E-04 
1567	 4.48826435020299E-04 
1568	 7.00769064067026E-04 
1569	 8.47196512675092E-04 
1570	 8.22606246245411E-04 
1571	 6.65673642763342E-04 
1572	 5.91280989715113E-04 
1573	 6.20120651406714E-04 
1574	 5.2288204724581E-04 
1575	 4.14351785843296E-04 
1576	 4.97658267049448E-04 
1577	 5.25613735416728E-04 
1578	 3.01627729803836E-04 
1579	 3.85182282324469E-04 
1580	 4.57614235571947E-04 
1581	 1.76380160648839E-04 
1582	 3.40623203756147E-04 
1583	 7.87110134905446E-04 
1584	 7.6389596464906E-04 
1585	 4.48483098432919E-04 
1586	 5.09997361732279E-04 
1587	 6.08245813648273E-04 
1588	 4.39599513517438E-04 
1589	 5.66894133129184E-04 
1590	 5.74019038726175E-04 
1591	 2.93249093127363E-04 
1592	 3.48296644748415E-04 
1593	 5.5421506569872E-04 
1594	 6.62509103213389E-04 
1595	 6.10613692701498E-04 
1596	 5.27219707704772E-04 
1597	 6.20543448840232E-04 
1598	 6.80914068624039E-04 
1599	 6.99018750036565E-04 
1600	 6.74759924813731E-04 
1601	 4.28162482448411E-04 
1602	 3.03484959985567E-04 
1603	 4.34818369397628E-04 
1604	 5.07026569725871E-04 
1605	 6.44960820292541E-04 
1606	 7.13892111147966E-04 
1607	 6.16342127436298E-04 
1608	 6.66983012967291E-04 
1609	 7.03919620704457E-04 
1610	 7.08201354433899E-04 
1611	 9.19161957351565E-04 
1612	 8.85883725480663E-04 
1613	 4.07298845063956E-04 
1614	 1.82194281491363E-04 
1615	 3.64123624908921E-04 
1616	 5.30238243822065E-04 
1617	 7.52018062643789E-04 
1618	 8.56187133298308E-04 
1619	 5.57638961326818E-04 
1620	 2.1425904905655E-04 
1621	 2.03218600618334E-04 
1622	 6.11454483725215E-04 
1623	 8.54219833539519E-04 
1624	 6.31523000393176E-04 
1625	 3.5642114139552E-04 
1626	 2.15074291490614E-04 
1627	 3.33674110529229E-04 
1628	 5.901847166755E-04 
1629	 7.68963638608173E-04 
1630	 8.44155576706562E-04 
1631	 5.83123283960225E-04 
1632	 3.75392611764767E-04 
1633	 5.93876733506499E-04 
1634	 5.38091383680488E-04 
1635	 5.18944982401143E-04 
1636	 8.02684161308489E-04 
1637	 5.99813048540469E-04 
1638	 4.25411934152562E-04 
1639	 6.56371506635726E-04 
1640	 7.56666672615109E-04 
1641	 9.00690124245024E-04 
1642	 9.34237801972765E-04 
1643	 5.98780078772419E-04 
1644	 3.16928257019699E-04 
1645	 1.85221770918523E-04 
1646	 4.24088766867002E-04 
1647	 1.02483765302363E-03 
1648	 9.55621231123836E-04 
1649	 4.36023548912502E-04 
1650	 6.66468833241118E-04 
1651	 8.4513273587649E-04 
1652	 5.2202573618441E-04 
1653	 8.55671676079378E-04 
1654	 8.92572826280844E-04 
1655	 4.72814819739466E-04 
1656	 3.58831733651432E-04 
1657	 4.71608207156048E-04 
1658	 3.99221376143901E-04 
1659	 1.49890661601548E-04 
1660	 9.73515729815498E-05 
1661	 2.47492208740607E-04 
1662	 2.49552674266592E-04 
1663	 1.13640905658778E-04 
1664	 2.88030483343936E-04 
1665	 6.6352245972423E-04 
1666	 6.45081803463983E-04 
1667	 6.64175942205684E-04 
1668	 4.46256829500939E-04 
1669	-5.52369321414552E-06 
1670	-1.34587778875974E-04 
1671	 2.60692640818263E-04 
1672	 6.54043651204826E-04 
1673	 9.19221463117975E-04 
1674	 1.07609857228464E-03 
1675	 7.19588927431945E-04 
1676	 3.31111850402909E-04 
1677	 3.85774857384451E-04 
1678	 3.29606450502207E-04 
1679	 1.92229236396628E-04 
1680	 4.26612004298572E-04 
1681	 6.192119427014E-04 
1682	 4.39207561405752E-04 
1683	 3.83786080386863E-04 
1684	 4.75853021863574E-04 
1685	 2.22635957454207E-04 
1686	 1.90328106679357E-05 
1687	 3.57969188216725E-04 
1688	 5.90899462817807E-04 
1689	 4.37387083129815E-04 
1690	 6.27588654156962E-04 
1691	 9.22088711028937E-04 
1692	 5.04574398338664E-04 
1693	 1.77755207663186E-04 
1694	 5.14528847884809E-04 
1695	 7.69506377764048E-04 
1696	 6.76985045525276E-04 
1697	 3.76299785823314E-04 
1698	 7.73494977662216E-05 
1699	 4.20572667832279E-05 
1700	 2.42382536475551E-04 
1701	 6.76476401499825E-04 
1702	 9.34110646467756E-04 
1703	 5.24381254804931E-04 
1704	 3.64076947733289E-04 
1705	 7.68851595042026E-04 
1706	 9.37544580234837E-04 
1707	 8.87291876637134E-04 
1708	 6.99973294189838E-04 
1709	 6.3095683401453E-04 
1710	 4.18125751447684E-04 
1711	-2.61606946767571E-04 
1712	-3.84595247302674E-04 
1713	 9.38385168202939E-05 
1714	 1.90783679322668E-04 
1715	 8.35027593267137E-04 
1716	 6.80521352951686E-04 
1717	 2.6580507435944E-04 
1718	 3.52702132947691E-04 
1719	 4.30925155909421E-04 
1720	 1.36303057379539E-04 
1721	 2.31307999162697E-04 
1722	 6.84483065128003E-04 
1723	 5.13710569259168E-04 
1724	 5.228377366381E-04 
1725	 7.21603015577277E-04 
1726	 2.92422008062366E-04 
1727	 1.96807721632949E-04 
1728	 3.79110534060196E-04 
1729	 5.7557315812421E-04 
1730	 1.05762616229395E-03 
1731	 1.12939174908398E-03 
1732	 6.02245070268032E-04 
1733	 9.48930111806659E-05 
1734	-1.26690081573681E-04 
1735	-1.4988592114376E-04 
1736	-1.76437849908135E-04 
1737	-1.5217838141538E-04 
1738	-2.36767039982833E-05 
1739	 2.82386092674261E-05 
1740	-1.78580643433894E-05 
1741	 3.76453698495452E-05 
1742	 1.37238975469646E-04 
1743	-6.66784461438129E-04 
1744	-1.15601371733757E-03 
1745	-1.65898056055341E-04 
1746	 6.5485722730352E-04 
1747	 5.59021326197383E-04 
1748	 2.58040596837488E-04 
1749	 3.60595272629778E-04 
1750	-3.62824290471505E-04 
1751	-2.74174955430356E-04 
1752	 1.38283236684108E-03 
1753	 1.50701813322923E-03 
1754	 5.52691927235846E-04 
1755	 6.15786275391555E-04 
1756	 8.69398117497102E-04 
1757	 6.44289329757533E-04 
1758	 7.4391126033942E-06 
1759	-5.74097501853939E-04 
1760	 6.81112846970787E-05 
1761	 5.47983877084252E-04 
1762	 4.34318919212156E-04 
1763	-4.46359642182122E-04 
1764	-1.5528990170893E-03 
1765	-8.44753714945609E-04 
1766	 8.19866080903077E-04 
1767	 1.5626928091217E-03 
1768	 1.61666247379274E-03 
1769	 4.73121753014651E-04 
1770	-1.41824415169993E-03 
1771	-1.31693041152415E-03 
1772	-5.02550707020442E-04 
1773	-1.255404157292E-04 
1774	 5.75867110974179E-04 
1775	-2.84173638710823E-04 
1776	-7.7709117746158E-04 
1777	-2.10843552667416E-03 
1778	-2.50684027590694E-03 
1779	-2.37162347712318E-03 
1780	-1.9910535170324E-03 
1781	 9.94730975003749E-04 
1782	 1.83810681624446E-03 
1783	 1.51129768579112E-03 
1784	 6.19366392790859E-04 
1785	-4.39445637888994E-03 
1786	-5.08560846667147E-03 
1787	-1.90827333833652E-03 
1788	-1.24121421688096E-03 
1789	 1.56106415525614E-03 
1790	 3.19373737840061E-03 
1791	-2.03697096918187E-03 
1792	-2.90809818237196E-03 
1793	-8.86354248699643E-04 
1794	 1.05262398090056E-03 
1795	 5.74383467712414E-03 
1796	 4.01994930298701E-03 
1797	-6.13372968989504E-04 
1798	-4.33617845867029E-03 
1799	-1.30750357353604E-02 
1800	-1.09730815224576E-02 
1801	-0.011627227686926 
1802	-2.29625324701376E-02 
1803	-1.76382031864985E-02 
1804	 2.85723755435976E-02 
1805	 4.04234302813379E-02 
1806	 3.38829602464699E-02 
1807	 2.99791136491062E-02 
1808	-7.20729061512982E-02 
1809	-0.127098726253611 
1810	-0.113547516881696 
1811	-9.34548681078189E-02 
1812	 4.82260357457068E-02 
1813	 9.08736875004423E-02 
1814	 0.1433648246039 
1815	 0.056014554903911 
1816	-0.370332883483699 
1817	-0.371677833239736 
1818	-0.426869280927854 
1819	-0.17402170984803 
1820	 3.28969843160315E-02 
1821	-0.393321386507267 
1822	-0.368857683876614 
1823	-0.100395870168954 
1824	-3.88137691572772E-02 
1825	 0.278618090576443 
1826	 0.331128391959322 
1827	 8.90121455035071E-02 
1828	-0.950419132166208 
1829	-4.47474227651966 
1830	-2.25978544289558 
1831	-1.4337295257948 
1832	 6.75668993947411E-02 
1833	 0.588078778108509 
1834	 0.584347151049325 
1835	 0.128409751367616 
1836	-3.21753145790529E-02 
1837	-0.521780010069469 
1838	-1.15676318254619 
1839	-2.7037563243476 
1840	-0.889777897603748 
1841	-6.37136199072231 
1842	 2.65486836126433 
1843	 3.16406294269431 
1844	 5.55676324930596 
1845	 6.77095242133555 
1846	-1.63183142990246 
1847	-0.611529162230928 
1848	 0.697404569391923 
1849	 3.41734116439162 
1850	-0.710221744251274 
1851	-4.58885230454375 
1852	-4.0908166775677 
1853	 13.219559726452 
1854	-56.1830828035914 
1855	 4.30699134596234 
1856	 4.8398663558958 
1857	 1.7644018972364 
1858	 1.74507216506855 
1859	 2.14154535589637 
1860	-90.4304588854451 
1861	-11.6613341985707 
1862	-5.16401265410395E-02 
1863	 0.711370894209993 
1864	 4.62987884443328 
1865	 2.24826406652595 
1866	 0.463445844814243 
1867	 0.315375954020944 
1868	-0.211840605304768 
1869	-0.313149499110215 
1870	-0.175096343173234 
1871	 0.448855281544351 
1872	 0.388002379455625 
1873	 0.311925998748264 
1874	 0.492252829112541 
1875	 1.24428580387743 
1876	 2.9316621411093 
1877	-0.824598409094776 
1878	-0.702975525639821 
1879	-0.543750651223375 
1880	-0.645410087001751 
1881	-1.8707491403525 
1882	-2.24816037314561 
1883	-2.10635462557781 
1884	-0.928237709565312 
1885	-1.34783464836931 
1886	-1.52190863226913 
1887	-1.12735064974347 
1888	-0.493516235852818 
1889	-0.119023821858636 
1890	 0.473610469519942 
1891	 0.593273321214023 
1892	-0.111461357494114 
1893	-0.710183706197218 
1894	-0.627794674266228 
1895	 2.33429116686385 
1896	 1.77089498234846 
1897	 1.79270859036754 
1898	 0.195927197873628 
1899	-3.69401205810567 
1900	-0.515143167749943 
1901	 0.398788198501879 
1902	 0.539330502855336 
1903	 0.308086555948196 
1904	 8.74669199058255E-02 
1905	 0.478428990672683 
1906	 0.331918728823486 
1907	 0.252519206811542 
1908	 0.641871421165797 
1909	 6.60246614968016 
1910	-1.40984410711064 
1911	-0.898128475583004 
1912	-3.05570659985212 
1913	 8.70958054021919 
1914	 0.814526984171557 
1915	 0.26744928586731 
1916	 0.189280310905538 
1917	 0.365085952511265 
1918	 0.154783744660769 
1919	-8.58659753489993E-02 
1920	 0.262318273176398 
1921	-0.315458099189235 
1922	-0.962076493595223 
1923	 59.142023556907 
1924	-5.31758712338292 
1925	-4.21057682522346 
1926	-5.59619604150544 
1927	-12.6040568448662 
1928	 110.337055427281 
1929	-105.041980400896 
1930	 29.7438475740677 
1931	-69.1929924046204 
1932	-1.54732073367528 
1933	-0.968650624132732 
1934	-0.921644086320067 
1935	-0.930207157201594 
1936	-0.621110230759982 
1937	-0.127559540547042 
1938	 8.90612993288156E-02 
1939	 6.10577920572832E-02 
1940	-5.48691187809472E-02 
1941	-0.109105903618102 
1942	-0.114823135581005 
1943	-0.165200592581439 
1944	-0.148138399125207 
1945	-0.112654535487923 
1946	-0.119935358475491 
1947	-8.99440810084727E-02 
1948	-8.01924373647787E-02 
1949	-5.63496139213118E-02 
1950	-2.14764569107979E-02 
1951	-0.034850152227627 
1952	-0.038212007266444 
1953	-3.08325916741346E-02 
1954	-3.29823340044254E-02 
1955	-4.23710570518134E-02 
1956	-9.16961408978107E-03 
1957	 2.63193425832123E-02 
1958	 2.03858103410057E-02 
1959	 4.48049524201189E-05 
1960	-0.013559823721596 
1961	-2.32471937871618E-02 
1962	-2.27726113461774E-02 
1963	-9.72579119593008E-03 
1964	-4.81999830837605E-03 
1965	-8.64262119294471E-03 
1966	-7.4051291520533E-03 
1967	-4.92289407778214E-03 
1968	-5.3063359893738E-03 
1969	-6.2208107640575E-03 
1970	-3.71971558437653E-03 
1971	-4.5485379668835E-03 
1972	-4.15918500268844E-03 
1973	-1.19141488323455E-03 
1974	-2.94277568325757E-04 
1975	 1.13224902012982E-03 
1976	 1.51389662497577E-03 
1977	 5.74303067223383E-04 
1978	 3.37235562340377E-04 
1979	 3.35536909734693E-04 
1980	 5.58521515948866E-04 
1981	 1.41108965577307E-03 
1982	 5.3327375168867E-04 
1983	-1.40873561538673E-03 
1984	-1.31818123582013E-03 
1985	-2.88547473782669E-03 
1986	-4.29582748430355E-03 
1987	-3.29385785083958E-03 
1988	-4.06509213552851E-03 
1989	-4.99437460178141E-03 
1990	-5.00728304449001E-03 
1991	-5.06928071639241E-03 
1992	-3.2645669060521E-03 
1993	-2.19766723108149E-03 
1994	-1.66198367672142E-03 
1995	-1.28585720828683E-03 
1996	 1.71586002370935E-04 
1997	-1.14674200221437E-03 
1998	-2.58792411123543E-03 
1999	-4.33320097627165E-03 
2000	-9.21415275761424E-03 
2001	-1.12830863210809E-02 
2002	-8.66265349058461E-03 
2003	-6.77584562958617E-03 
2004	-0.006335149110284 
2005	-7.63234404752334E-03 
2006	-1.06505815165882E-02 
2007	-8.08185274720797E-03 
2008	-3.9909039085996E-03 
2009	-1.69301756385975E-03 
2010	 2.4286368304098E-03 
2011	 2.95641195988266E-03 
2012	-9.41269568168923E-05 
2013	-2.27645124754792E-03 
2014	-1.98028015352786E-03 
2015	-3.84111217788441E-03 
2016	-6.90457656728808E-03 
2017	-7.81778783768531E-03 
2018	-8.05681922468245E-03 
2019	-8.21806150887982E-03 
2020	-7.59700629266442E-03 
2021	-5.08255148821731E-03 
2022	-3.63776784954356E-03 
2023	-3.52901174060144E-03 
2024	-2.96367816672597E-03 
2025	-2.54861527938634E-03 
2026	-2.22805892361205E-03 
2027	-1.85409822066425E-03 
2028	-1.32605670020796E-03 
2029	-1.37223727104721E-03 
2030	-1.59608654943056E-03 
2031	-1.97938098549657E-03 
2032	-1.6676107541212E-03 
2033	-1.42146871364026E-03 
2034	-1.55636685641964E-03 
2035	-1.09453171692638E-03 
2036	-8.42838573518174E-04 
2037	-1.62800597133065E-03 
2038	-1.69663148993008E-03 
2039	-1.25478833967915E-03 
2040	-3.42791716272666E-04 
2041	-5.30701694109371E-04 
2042	-6.05941614549498E-04 
2043	-5.40127697751258E-04 
2044	-1.36146645560765E-03 
2045	-1.96388189106795E-03 
2046	-1.18543404289819E-03 
2047	-6.3354891103911E-04 
2048	-8.72695482975948E-04 
2049	-1.58512303210502E-03 
2050	-1.90525348738097E-03 
2051	-1.79365454333813E-03 
2052	-2.12845773686387E-03 
2053	-2.73763849626971E-03 
2054	-3.4826339523313E-03 
2055	-3.91547979572609E-03 
2056	-3.41557110985139E-03 
2057	-6.88592961326842E-04 
2058	-3.37288770768906E-04 
2059	-1.10800916280646E-03 
2060	-8.68752436880376E-04 
2061	-1.22695038600491E-03 
2062	-1.65174187466324E-03 
2063	-6.81531641770678E-04 
2064	-9.33054917489055E-04 
2065	-1.79130102748418E-03 
2066	-2.2158760563167E-03 
2067	-3.80285037268522E-03 
2068	-3.29662628994159E-03 
2069	-1.47410233510562E-03 
2070	-1.99434130551345E-03 
2071	-1.27910157851196E-03 
2072	-5.42428987350684E-04 
2073	-5.07390869124476E-04 
2074	-1.38402751925231E-03 
2075	-1.43314854399281E-03 
2076	-1.66206446619814E-03 
2077	-1.5186945517838E-03 
2078	-8.22977108675746E-04 
2079	-8.75847229278882E-04 
2080	-1.33135944877934E-03 
2081	-8.52003370962882E-04 
2082	-9.92634639789804E-04 
2083	-1.60722924565299E-03 
2084	-1.05900721146407E-03 
2085	 1.46512979918192E-04 
2086	 8.74645079138186E-04 
2087	 1.19042598573473E-03 
2088	 1.68957198269269E-03 
2089	 1.82746537403812E-03 
2090	 1.65898509476687E-03 
2091	 1.92806801324005E-03 
2092	 1.8144200805773E-03 
2093	 9.24349610850412E-04 
2094	 7.01362124498223E-04 
2095	 1.15532860733079E-03 
2096	 8.97165686995432E-04 
2097	 2.68510508651801E-04 
2098	 1.09439780417715E-04 
2099	-6.41066278979167E-05 
2100	-6.90321018713407E-04 
2101	-6.68117268444153E-04 
2102	-6.70508203169029E-05 
2103	-5.28617727731232E-04 
2104	-1.10979307964317E-03 
2105	-1.41393238505414E-03 
2106	-1.0586526628278E-03 
2107	 3.14584960862588E-04 
2108	 1.03892691480679E-03 
2109	 1.09445419294409E-03 
2110	-7.90465291943197E-05 
2111	-1.86352655059449E-03 
2112	-2.4204359178843E-03 
2113	-2.51111887571341E-03 
2114	-1.22617190608211E-03 
2115	-7.0463379708275E-04 
2116	 2.03774630663601E-04 
2117	 1.95505333004679E-04 
2118	-6.36253159491867E-04 
2119	-7.41770856144258E-04 
2120	-6.17909677049607E-04 
2121	-1.59005800673148E-03 
2122	-1.12781959385945E-03 
2123	-8.56454793269561E-04 
2124	-1.63999877016255E-03 
2125	-1.09795817500866E-03 
2126	-9.2693237767386E-04 
2127	-1.79320344021585E-03 
2128	-1.52332234794086E-03 
2129	-8.08755467512504E-04 
2130	-3.47355326482481E-04 
2131	 6.98896462854515E-05 
2132	-3.16358834093247E-04 
2133	-1.07980919730408E-03 
2134	-1.38825430900454E-03 
2135	-1.68369229039408E-03 
2136	-1.68026301306127E-03 
2137	-1.09687464934658E-03 
2138	-1.3459855663509E-03 
2139	-2.25413306279303E-03 
2140	-2.32956291953806E-03 
2141	-2.30149854128127E-03 
2142	-2.02645253412808E-03 
2143	-9.72161560761187E-04 
2144	-3.18248285948136E-04 
2145	-4.54620214206658E-04 
2146	-3.40697532961937E-04 
2147	 9.6766455012898E-04 
2148	 1.03597775787292E-03 
2149	 2.54192803526402E-04 
2150	-2.16410485120238E-04 
2151	-1.1134585322325E-03 
2152	-1.65520239472901E-03 
2153	-1.03644418665338E-03 
2154	-5.75752879730884E-04 
2155	-1.24879847648998E-03 
2156	-1.46275974726467E-03 
2157	-1.30413176883734E-03 
2158	-5.30491626075313E-04 
2159	-6.26392754444708E-04 
2160	-6.86671759213584E-04 
2161	-8.60721056403122E-04 
2162	-2.09769518125504E-03 
2163	-2.04013504803826E-03 
2164	-5.56794970866891E-04 
2165	-7.36556700353755E-04 
2166	-1.65876115974054E-03 
2167	-2.04427995537548E-03 
2168	-3.40233126362604E-03 
2169	-3.82524576427987E-03 
2170	-3.65113747297484E-03 
2171	-2.27352885587202E-03 
2172	-1.39035023591103E-03 
2173	-9.45511777830381E-04 
2174	-7.69531989268425E-04 
2175	-8.16044539431082E-04 
2176	-1.22799084068682E-03 
2177	-2.17511338577866E-03 
2178	-2.86487957985495E-03 
2179	-3.42560791857707E-03 
2180	-3.04281459366729E-03 
2181	-1.59557677913046E-03 
2182	-8.27637458706292E-04 
2183	-1.0167743398244E-03 
2184	-1.28265981395309E-03 
2185	-2.07312250413321E-03 
2186	-2.61995868402034E-03 
2187	-3.16493484027084E-03 
2188	-2.30746239583079E-03 
2189	-2.64596665087113E-04 
2190	-2.21259743223236E-04 
2191	-5.18306345122319E-05 
2192	 2.79387836713677E-04 
2193	-1.03362801458092E-03 
2194	-1.6956170663424E-03 
2195	-7.26189272604265E-04 
2196	-1.47852239236885E-03 
2197	-5.01416458444838E-03 
2198	-5.57481294706493E-03 
2199	-4.7064809499891E-03 
2200	-4.04302936297397E-03 
2201	-2.16209435073968E-03 
2202	-1.54956299524914E-03 
2203	-3.23379406596646E-03 
2204	-3.40173589050167E-03 
2205	-3.45783360673832E-03 
2206	-3.53825094446874E-03 
2207	-2.37456266751966E-03 
2208	-2.07508366140629E-03 
2209	-7.34781665280413E-04 
2210	 1.3226830531343E-03 
2211	-1.5080813270945E-04 
2212	-6.40259409927027E-04 
2213	 2.29996555354521E-04 
2214	-1.33847929111661E-03 
2215	-9.20680603580363E-04 
2216	-2.3347957310726E-04 
2217	-3.39150384331352E-04 
2218	-1.55374722457336E-03 
2219	-2.22417320065302E-03 
2220	-3.08477830995566E-03 
2221	-3.36091517434275E-03 
2222	-4.19313523746765E-03 
2223	-4.3553056329745E-03 
2224	-3.27016375040722E-03 
2225	-2.13093726182115E-03 
2226	-3.41160629150737E-04 
2227	 1.07078948800772E-04 
2228	 3.6387279016493E-04 
2229	 3.40503814266754E-04 
2230	-1.82490153909216E-03 
2231	-1.94684232489258E-03 
2232	 4.03966909245549E-04 
2233	 6.10527373105902E-04 
2234	-3.03342580640289E-04 
2235	 3.62199154705047E-04 
2236	 1.05464318215618E-04 
2237	-3.87208610958829E-04 
2238	 1.25251722803919E-03 
2239	 2.23837596687083E-03 
2240	 4.14520228384192E-03 
2241	 3.80568550057986E-03 
2242	 1.71359474725714E-04 
2243	-1.86339046121326E-03 
2244	-3.54680950787501E-03 
2245	-4.55214012320853E-03 
2246	-1.28160026571442E-03 
2247	 1.89591248414732E-03 
2248	 1.25339915516463E-03 
2249	 2.20567166440236E-04 
2250	-1.06642445049739E-03 
2251	-2.65502613942281E-03 
2252	-0.003233542509814 
2253	-2.80603913804053E-03 
2254	-2.80290401340959E-03 
2255	-3.85092032560424E-03 
2256	-3.95102374653138E-03 
2257	-4.22303455909769E-03 
2258	-4.93969118344686E-03 
2259	-4.81578885282448E-03 
2260	-4.81646364323369E-03 
2261	-5.02919616667604E-03 
2262	-4.41031970401814E-03 
2263	-3.4937026393406E-03 
2264	-2.35190221492481E-03 
2265	 8.99077311105801E-04 
2266	 6.55014539993295E-04 
2267	-1.92945997456596E-03 
2268	-2.03776426251764E-03 
2269	-3.04299037117153E-03 
2270	-3.58549195371651E-03 
2271	-2.66681665384212E-03 
2272	-2.45643457112567E-03 
2273	-2.0948534661613E-03 
2274	-3.36376548505267E-03 
2275	-5.87288956475312E-03 
2276	-5.74365810984614E-03 
2277	-6.75430534874078E-03 
2278	-6.10847621608881E-03 
2279	-1.09821350327024E-03 
2280	 6.17944385276002E-04 
2281	 1.51366338345349E-03 
2282	 1.10711123355883E-03 
2283	-1.83163051179067E-03 
2284	-3.01449985647798E-03 
2285	-2.78145713842746E-03 
2286	-0.003772365186471 
2287	-4.77030187697963E-03 
2288	-3.92518707822225E-03 
2289	-3.48476502953463E-03 
2290	-4.16658941738949E-03 
2291	-1.48394565575096E-03 
2292	 2.40692299987758E-04 
2293	-3.81002583816707E-03 
2294	-5.00984868429615E-03 
2295	-4.07993411622018E-03 
2296	-3.65684363633168E-03 
2297	 2.85805968672942E-05 
2298	 6.88116811607736E-05 
2299	-3.84913665629548E-03 
2300	-5.3303421834656E-03 
2301	-3.36719719597679E-03 
2302	-7.07957042395226E-04 
2303	-1.38266885754818E-03 
2304	-3.66750557806042E-03 
2305	-7.10447357490257E-03 
2306	-8.96356400278166E-03 
2307	-6.30998292694956E-03 
2308	-5.16619765907961E-03 
2309	-6.91023938467962E-03 
2310	-8.81296911201382E-03 
2311	-0.011058179443825 
2312	-1.21444605459227E-02 
2313	-1.22393888158177E-02 
2314	-1.12523700877965E-02 
2315	-8.29286161134751E-03 
2316	-7.56506387398069E-03 
2317	-7.02353631463719E-03 
2318	-8.50526409511807E-03 
2319	-1.31550763678402E-02 
2320	-1.48322539355397E-02 
2321	-1.93467847533094E-02 
2322	-1.95611463456905E-02 
2323	-1.27057788054244E-02 
2324	-9.06594407992602E-03 
2325	-3.83802103636157E-03 
2326	-1.04849871469798E-04 
2327	-3.54584190423922E-03 
2328	-7.69610027037818E-03 
2329	-6.4410246509256E-03 
2330	-3.9046824755009E-03 
2331	-4.70575648579069E-03 
2332	-4.62499179782531E-03 
2333	-5.3499599218921E-03 
2334	-1.05074176568481E-02 
2335	-1.30062879206266E-02 
2336	-0.011491567807456 
2337	-1.10418977356412E-02 
2338	-1.24211326014332E-02 
2339	-1.24938110989887E-02 
2340	-1.41113138201477E-02 
2341	-0.020008399479438 
2342	-1.59824491017294E-02 
2343	-1.09190074566556E-02 
2344	-1.20847212412353E-02 
2345	-9.82862393395012E-03 
2346	-1.31799033510546E-02 
2347	-2.22935836060441E-02 
2348	-0.026858009552882 
2349	-2.22874060741817E-02 
2350	-1.85994819084182E-02 
2351	-1.85831958724995E-02 
2352	-1.74726237173154E-02 
2353	-1.94113967358615E-02 
2354	-2.42960844254626E-02 
2355	-2.31760779589636E-02 
2356	-1.45778001324327E-02 
2357	-7.53463243639283E-03 
2358	-4.03903741876787E-03 
2359	-4.9948169345493E-03 
2360	-7.36172348350531E-03 
2361	-1.07754810562353E-02 
2362	-1.48865824975497E-02 
2363	-1.30371059770644E-02 
2364	-1.26997557288339E-02 
2365	-9.14844342484164E-03 
2366	-4.34909023768272E-03 
2367	-0.016611075565078 
2368	-1.99721310326532E-02 
2369	-1.66313100649788E-02 
2370	-0.024956805321958 
2371	-2.08277556138014E-02 
2372	-3.17814568477419E-02 
2373	-5.89488802340512E-02 
2374	-6.09624662758507E-02 
2375	-4.84593233250577E-02 
2376	-2.19080902657312E-02 
2377	-1.47779514108959E-02 
2378	-0.033842822474087 
2379	-1.85562216466967E-02 
2380	-1.52053307031632E-02 
2381	-2.65603010216201E-02 
2382	-0.015388080320205 
2383	-4.38104041134905E-02 
2384	-7.18193670281257E-02 
2385	-7.67685941477128E-02 
2386	-7.05345313765617E-02 
2387	-4.19317892704208E-02 
2388	-3.85530199070389E-02 
2389	-4.27711351035577E-02 
2390	-5.08921313979087E-02 
2391	-6.34020354254996E-02 
2392	-5.56067673477878E-02 
2393	-0.054597383624974 
2394	-5.82737628452773E-02 
2395	-7.40835081814598E-02 
2396	-0.119209568987364 
2397	-0.152006343672276 
2398	-0.128794137736386 
2399	-9.42134797845223E-02 
2400	-0.095875662526686 
2401	-8.62727515535065E-02 
2402	-8.07624429375655E-02 
2403	-0.109145555905452 
2404	-7.45453107645354E-02 
2405	-6.18906827812307E-03 
2406	-3.30140442449633E-03 
2407	 3.20848612358793E-02 
2408	 9.94965461250421E-02 
2409	 3.40528587989568E-02 
2410	-1.56151550899427E-02 
2411	-5.40525123983572E-02 
2412	-0.167781227073467 
2413	-0.132435343058384 
2414	-8.08998645795341E-02 
2415	-6.22696908623768E-02 
2416	-7.67764773367552E-02 
2417	-0.119577251036027 
2418	-0.134547766054942 
2419	-0.184298008024952 
2420	-0.194157198185094 
2421	-0.274372107264936 
2422	-0.255865298470193 
2423	-9.39898312503662E-02 
2424	-7.07382669680642E-02 
2425	-6.53624201454093E-02 
2426	-6.36756880824132E-02 
2427	-0.17059897195128 
2428	-0.172826003751254 
2429	-0.117768673472383 
2430	-0.101785237553162 
2431	-0.03273830640754 
2432	 3.45149147810504E-03 
2433	 2.21413350784152E-02 
2434	-1.81729797558615E-02 
2435	-0.173680936778096 
2436	-0.208398206917615 
2437	-0.141517649816438 
2438	-8.21634087845025E-02 
2439	-0.04181586348449 
2440	-7.55133974972825E-02 
2441	-0.137775703585216 
2442	-0.316976968364401 
2443	-0.349914282707567 
2444	-0.278888521691946 
2445	-0.398068343325163 
2446	-0.509225408750629 
2447	-0.838306902411496 
2448	-1.35905272792922 
2449	-2.20170947605754 
2450	-2.06839133711336 
2451	-0.859461505867229 
2452	-0.645056490513681 
2453	-0.367026683136767 
2454	 0.010535599601864 
2455	-0.222597141798554 
2456	-0.295396815946922 
2457	 1.12385416546501E-02 
2458	-0.219179347746227 
2459	-0.357033201022099 
2460	-0.221592829826032 
2461	-0.478222502014906 
2462	-0.458402254630445 
2463	-0.151188931960187 
2464	-0.374940730675214 
2465	-0.405568603995778 
2466	-0.321772780565818 
2467	-0.85014270029251 
2468	-1.65333841695582 
2469	-1.40383957025848 
2470	-1.68994350498413 
2471	-1.35172841279873 
2472	-0.527922416704197 
2473	-0.354264999057757 
2474	-0.779199163995873 
2475	-0.761374948123895 
2476	 0.620551449038788 
2477	 0.522647824072286 
2478	-0.911325657677179 
2479	-1.35876095603241 
2480	 1.5036985461885 
2481	 0.697734371191839 
2482	 0.703116837434804 
2483	 0.557878791380306 
2484	 0.476313658392652 
2485	 1.09472729333306 
2486	 0.859697262678544 
2487	 0.286022456993749 
2488	-10.7724997748817 
2489	-3.17778758928362 
2490	-5.87882285712165 
2491	-1.23378801977899 
2492	-1.08592994535448 
2493	 6.24961805598133 
2494	 1.41827197524352 
2495	 1.42594524320539 
2496	 1.99090413521523 
2497	-64.9931477583088 
2498	-2.97034688226213 
2499	-3.92584881516838 
2500	 2.15947008093457 
