Wavelength	rt0716a00003.asd
350	 7.40269861841467E-02 
351	 0.073239799025642 
352	 7.33359475268407E-02 
353	 7.35682659233877E-02 
354	 7.31939554268585E-02 
355	 7.26385027526385E-02 
356	 7.29670302616535E-02 
357	 7.34858115538526E-02 
358	 7.33792229691978E-02 
359	 0.073930209390605 
360	 0.073864840265544 
361	 7.34297409132205E-02 
362	 7.38122586364822E-02 
363	 7.43917945248698E-02 
364	 7.43574228783624E-02 
365	 7.36173553542372E-02 
366	 0.073111744381037 
367	 7.33229816382222E-02 
368	 7.37165475430954E-02 
369	 7.37014103720466E-02 
370	 7.35504996442283E-02 
371	 7.36918582128596E-02 
372	 7.39136084979494E-02 
373	 7.37417850985128E-02 
374	 7.39792754031189E-02 
375	 7.41074521817288E-02 
376	 7.39620318260824E-02 
377	 7.40262162530593E-02 
378	 7.37398200566871E-02 
379	 0.073721000544675 
380	 7.43179309764101E-02 
381	 7.42239164187255E-02 
382	 7.44450839478489E-02 
383	 7.45759951098068E-02 
384	 7.38845830898486E-02 
385	 7.42661287029025E-02 
386	 7.44304693750825E-02 
387	 7.41500355498598E-02 
388	 7.45918034021621E-02 
389	 7.50667643441192E-02 
390	 7.50522958022492E-02 
391	 7.45778035746137E-02 
392	 7.48808458477715E-02 
393	 7.47763089874677E-02 
394	 0.074496797468227 
395	 7.46408929580691E-02 
396	 7.48191919128739E-02 
397	 7.47931013246565E-02 
398	 7.46209026997662E-02 
399	 7.45775576216927E-02 
400	 7.44022249828474E-02 
401	 7.42909365007932E-02 
402	 7.43596104670322E-02 
403	 7.44326194400097E-02 
404	 7.43694548080485E-02 
405	 7.42302557755076E-02 
406	 7.41311011591776E-02 
407	 7.39710087854465E-02 
408	 7.39633707171164E-02 
409	 0.074028753332325 
410	 7.38188052909526E-02 
411	 7.36914885881159E-02 
412	 7.37349673956255E-02 
413	 7.38643587230169E-02 
414	 7.37026609747623E-02 
415	 7.36563919279808E-02 
416	 7.36957722966815E-02 
417	 0.073660454024827 
418	 7.37628685443419E-02 
419	 7.38425710279745E-02 
420	 7.38844752363201E-02 
421	 7.40450878582802E-02 
422	 7.40227279058498E-02 
423	 7.40784732416831E-02 
424	 7.43830184997097E-02 
425	 7.45421710642089E-02 
426	 7.47044052341437E-02 
427	 7.49333343587954E-02 
428	 7.52328833582506E-02 
429	 7.54757497931763E-02 
430	 7.57308415074019E-02 
431	 7.60574387927148E-02 
432	 7.64810143723071E-02 
433	 7.67590265280526E-02 
434	 7.69407429155865E-02 
435	 7.71430848667314E-02 
436	 0.077477537259534 
437	 7.77367217551516E-02 
438	 7.79362662624944E-02 
439	 7.81984603595448E-02 
440	 7.84252229128692E-02 
441	 7.85815568777534E-02 
442	 0.078678768332281 
443	 7.87822127237445E-02 
444	 7.88833943707384E-02 
445	 7.89829037953199E-02 
446	 7.90793016875046E-02 
447	 7.91719186987026E-02 
448	 7.91914751073043E-02 
449	 7.91798716364296E-02 
450	 0.079245961588063 
451	 7.92370446908978E-02 
452	 7.92381169273751E-02 
453	 0.079278547022618 
454	 7.92050638418582E-02 
455	 7.91111881806165E-02 
456	 7.90231267504957E-02 
457	 7.89504730292521E-02 
458	 0.078949753881649 
459	 7.88380039808539E-02 
460	 7.86559394753216E-02 
461	 7.86627545970918E-02 
462	 7.86020063009983E-02 
463	 7.85056477426354E-02 
464	 7.84281629174441E-02 
465	 7.83278397875423E-02 
466	 7.81876638769596E-02 
467	 7.80615285771339E-02 
468	 7.80211524298009E-02 
469	 7.79948260732162E-02 
470	 7.78967741781083E-02 
471	 7.77616849790295E-02 
472	 7.77810829228744E-02 
473	 7.77523057920957E-02 
474	 7.77267027442513E-02 
475	 7.77537120008177E-02 
476	 0.077621976370075 
477	 7.75786356217901E-02 
478	 7.76412992905517E-02 
479	 7.76739821761683E-02 
480	 7.77559412318424E-02 
481	 7.78396565455336E-02 
482	 7.79057534682156E-02 
483	 7.80218998709044E-02 
484	 7.81395240819867E-02 
485	 7.82901219459005E-02 
486	 7.84887672828173E-02 
487	 7.85112265261045E-02 
488	 7.85813943395669E-02 
489	 7.87760212265837E-02 
490	 7.90059658516482E-02 
491	 7.92267167169301E-02 
492	 7.95011345807168E-02 
493	 7.98421210852111E-02 
494	 8.00662505643567E-02 
495	 8.03137781428123E-02 
496	 8.05749229310676E-02 
497	 8.07827863455864E-02 
498	 8.10598091985579E-02 
499	 8.13504881178878E-02 
500	 8.16083113293699E-02 
501	 8.18264337289922E-02 
502	 8.21397368230452E-02 
503	 8.25122798776325E-02 
504	 8.28611430629711E-02 
505	 8.31375614670283E-02 
506	 8.34251657273989E-02 
507	 8.37721738726784E-02 
508	 8.41834688970342E-02 
509	 8.45243534126767E-02 
510	 8.47836710032231E-02 
511	 8.50319957882534E-02 
512	 8.54880450251159E-02 
513	 8.59035264942766E-02 
514	 8.63162253363819E-02 
515	 0.086857192545194 
516	 8.74046758304449E-02 
517	 8.79136099354506E-02 
518	 8.83887240940308E-02 
519	 0.088887037533943 
520	 8.94426282419544E-02 
521	 9.00630553063256E-02 
522	 9.07293601976001E-02 
523	 9.13425636195388E-02 
524	 9.20483800470792E-02 
525	 9.28371890085137E-02 
526	 9.35951922189015E-02 
527	 9.43461097445846E-02 
528	 9.51564331805625E-02 
529	 9.60305167697027E-02 
530	 9.68423187081005E-02 
531	 9.76736641434442E-02 
532	 9.86075926423186E-02 
533	 9.96861351813062E-02 
534	 0.100734862738229 
535	 0.101728177368998 
536	 0.102710117716972 
537	 0.103780060487488 
538	 0.104904411421781 
539	 0.10601390369656 
540	 0.10706660052629 
541	 0.10813667512698 
542	 0.109209899277821 
543	 0.110285166533765 
544	 0.111370871655455 
545	 0.112447390232769 
546	 0.113472359528795 
547	 0.114455041873131 
548	 0.115516838012043 
549	 0.116503265577978 
550	 0.11744576987351 
551	 0.118425410749583 
552	 0.11938690610662 
553	 0.120365607475606 
554	 0.121310453590851 
555	 0.122071750470093 
556	 0.122970179201397 
557	 0.123886925644072 
558	 0.124692541631668 
559	 0.125623065082747 
560	 0.126573255458781 
561	 0.127467994420189 
562	 0.128269041071184 
563	 0.129055531577409 
564	 0.129839952320257 
565	 0.130624687412395 
566	 0.131418132576976 
567	 0.132172362378823 
568	 0.132895137473087 
569	 0.133605410822182 
570	 0.134269307860176 
571	 0.134889493551898 
572	 0.135491888166835 
573	 0.13612107680493 
574	 0.136709932810057 
575	 0.137325164057394 
576	 0.137992802317563 
577	 0.138525006351376 
578	 0.139056739161338 
579	 0.139583624053607 
580	 0.140031174259947 
581	 0.140526042271872 
582	 0.140987675968689 
583	 0.141393858055152 
584	 0.141879006573791 
585	 0.142282620269463 
586	 0.142557338739071 
587	 0.142731440023651 
588	 0.142982052266443 
589	 0.143342583750296 
590	 0.14374087490459 
591	 0.144045912932407 
592	 0.144280208966337 
593	 0.144505939332208 
594	 0.144772237630028 
595	 0.145087521858219 
596	 0.1453495022 
597	 0.145555882479323 
598	 0.145760572354346 
599	 0.14595889514009 
600	 0.146163256381639 
601	 0.146378236372894 
602	 0.146601301732038 
603	 0.146705568590969 
604	 0.14681652555553 
605	 0.147078784386115 
606	 0.147281477605917 
607	 0.147492583165887 
608	 0.147696263869145 
609	 0.147786129749502 
610	 0.147958423444123 
611	 0.14812877749435 
612	 0.14822659504767 
613	 0.148400924744167 
614	 0.148595290525653 
615	 0.148741913887002 
616	 0.148796767412837 
617	 0.14901732956277 
618	 0.149201860109628 
619	 0.149268758985869 
620	 0.149401496379735 
621	 0.149566774983811 
622	 0.149708661589331 
623	 0.149803813298252 
624	 0.150070768270863 
625	 0.150141899191984 
626	 0.150062807437568 
627	 0.150271217079434 
628	 0.150532272868352 
629	 0.150683370884909 
630	 0.15071278669311 
631	 0.150969982330717 
632	 0.151076998369132 
633	 0.151094574765262 
634	 0.1512601541251 
635	 0.151404178612572 
636	 0.151585859793885 
637	 0.151794238942907 
638	 0.151890664257618 
639	 0.152078361922658 
640	 0.152211781546698 
641	 0.152164544742565 
642	 0.152318017103049 
643	 0.152429577246764 
644	 0.15244313882974 
645	 0.152465185927529 
646	 0.152535721942747 
647	 0.152572045194716 
648	 0.152571776374624 
649	 0.152805101389487 
650	 0.152829786668782 
651	 0.152775575698607 
652	 0.15292095207233 
653	 0.152941851011611 
654	 0.15296453546868 
655	 0.153008141456269 
656	 0.152910332439201 
657	 0.152914183621917 
658	 0.153002489757186 
659	 0.153077235633651 
660	 0.152949003648089 
661	 0.152854991890957 
662	 0.152816312211237 
663	 0.152737759638204 
664	 0.152819604338899 
665	 0.152838066359042 
666	 0.152724571727811 
667	 0.152779880469006 
668	 0.152811853242389 
669	 0.152838962915282 
670	 0.152934382348137 
671	 0.153103443867937 
672	 0.153232849747545 
673	 0.153309149506155 
674	 0.153416558848778 
675	 0.153574237903189 
676	 0.15370787331938 
677	 0.153822888382448 
678	 0.154199073764193 
679	 0.154417617120762 
680	 0.154555589459682 
681	 0.154880160475571 
682	 0.15524102406321 
683	 0.155547764760749 
684	 0.155789327749881 
685	 0.15607875072486 
686	 0.15640740220544 
687	 0.156791358194572 
688	 0.157199977576826 
689	 0.157559318292417 
690	 0.157898011435476 
691	 0.158188085320798 
692	 0.15839478694957 
693	 0.158819222586971 
694	 0.159182088413677 
695	 0.159372414018514 
696	 0.159709661387142 
697	 0.159926801403397 
698	 0.159980368718958 
699	 0.159939094074889 
700	 0.160147486274066 
701	 0.160346814945318 
702	 0.160445095489456 
703	 0.160520572472792 
704	 0.160604106781745 
705	 0.16064018143966 
706	 0.160629156693837 
707	 0.160740939213594 
708	 0.160739663632652 
709	 0.160648001163702 
710	 0.160565280664123 
711	 0.160421608382103 
712	 0.160309169549424 
713	 0.160174346331028 
714	 0.159801961135773 
715	 0.159410119260546 
716	 0.159051360717168 
717	 0.158734555963881 
718	 0.158199806063221 
719	 0.157953439173846 
720	 0.157785343091548 
721	 0.157319524059091 
722	 0.156990990737355 
723	 0.156523127340643 
724	 0.155941008368632 
725	 0.155614871000756 
726	 0.155024682630824 
727	 0.154305316992303 
728	 0.15362544570631 
729	 0.152793195444478 
730	 0.151896646309232 
731	 0.151019345834241 
732	 0.150182636557165 
733	 0.149462416088012 
734	 0.148760304887893 
735	 0.148136220768397 
736	 0.147852200224343 
737	 0.147481206573061 
738	 0.147130724315023 
739	 0.146982449084319 
740	 0.147033455332794 
741	 0.147050540492536 
742	 0.14705057603284 
743	 0.147162631157142 
744	 0.147227673515468 
745	 0.147306684008705 
746	 0.147401749307337 
747	 0.147409452912304 
748	 0.147466440912684 
749	 0.14759380490673 
750	 0.147749634282773 
751	 0.147798506532183 
752	 0.147873511158847 
753	 0.147985760910284 
754	 0.148082566148178 
755	 0.148203561912375 
756	 0.14828973313912 
757	 0.14830092974394 
758	 0.148199616773581 
759	 0.147965740462269 
760	 0.147846379587568 
761	 0.148152470552061 
762	 0.14848240590162 
763	 0.148521909503185 
764	 0.148620040467861 
765	 0.149090680511499 
766	 0.149341738135104 
767	 0.149473103353308 
768	 0.149605998761552 
769	 0.149857431870048 
770	 0.150008892143991 
771	 0.150173620734406 
772	 0.150421102185518 
773	 0.150509742563639 
774	 0.150664407030292 
775	 0.150867896575173 
776	 0.151034475757297 
777	 0.15134459636405 
778	 0.151654655866684 
779	 0.151891243647455 
780	 0.152081951474724 
781	 0.152250863473507 
782	 0.152505253869943 
783	 0.152832153908082 
784	 0.152899152820986 
785	 0.153238026754438 
786	 0.153612744666956 
787	 0.153656444290821 
788	 0.153921337928751 
789	 0.154143836548127 
790	 0.154322753531289 
791	 0.154669948096323 
792	 0.154952544796221 
793	 0.155151349626808 
794	 0.155319824412623 
795	 0.155569328304561 
796	 0.155750190255778 
797	 0.155941482793028 
798	 0.156212332629949 
799	 0.156350589425238 
800	 0.15641249413794 
801	 0.156564779332923 
802	 0.156937742928881 
803	 0.156962108037166 
804	 0.156976083941601 
805	 0.15706780374833 
806	 0.156978541329962 
807	 0.156992601267752 
808	 0.156965155460052 
809	 0.156817661414189 
810	 0.156882847200088 
811	 0.156795627388762 
812	 0.15659737321935 
813	 0.156466035193242 
814	 0.1562191400167 
815	 0.156021244121883 
816	 0.15583196362689 
817	 0.15546897425398 
818	 0.155234983785735 
819	 0.154755677127906 
820	 0.154024924832143 
821	 0.153577947749444 
822	 0.153073271652011 
823	 0.15236406531919 
824	 0.151468731455308 
825	 0.150490407507191 
826	 0.149585953642015 
827	 0.148521268381105 
828	 0.147121613421101 
829	 0.14608395538312 
830	 0.144938395215695 
831	 0.143768329366233 
832	 0.143054104611946 
833	 0.142269029482676 
834	 0.141467342168264 
835	 0.140849360949877 
836	 0.14069669815832 
837	 0.140209664335203 
838	 0.13973457014889 
839	 0.139579071897569 
840	 0.139294165723603 
841	 0.139025049067095 
842	 0.138666705173521 
843	 0.138133671821234 
844	 0.137769971393337 
845	 0.137603868903893 
846	 0.137502742154398 
847	 0.137252413760178 
848	 0.13689758892937 
849	 0.136728064104061 
850	 0.13667518577407 
851	 0.136219174415077 
852	 0.135868596301847 
853	 0.13571548831564 
854	 0.135606146614474 
855	 0.135070483074676 
856	 0.134786412859938 
857	 0.134626955764742 
858	 0.134314831817829 
859	 0.133874686382129 
860	 0.133732414947891 
861	 0.133753664732633 
862	 0.133543831578503 
863	 0.133090285079646 
864	 0.13294097629219 
865	 0.132938187914826 
866	 0.132366232222886 
867	 0.132110258156125 
868	 0.131940991840104 
869	 0.131668611732833 
870	 0.13136336196159 
871	 0.131042425258552 
872	 0.130689068887206 
873	 0.130274560043419 
874	 0.129747147059455 
875	 0.129421674459526 
876	 0.129253817365683 
877	 0.12899478719975 
878	 0.128098657740407 
879	 0.127789182341786 
880	 0.127715879122934 
881	 0.127003438178211 
882	 0.12656328705432 
883	 0.126171558569379 
884	 0.125826718304157 
885	 0.125675418655601 
886	 0.125351855702971 
887	 0.124727571441343 
888	 0.124117621485317 
889	 0.124186762547427 
890	 0.123665682413822 
891	 0.123089288938472 
892	 0.122836625391146 
893	 0.122354511055361 
894	 0.12205407722045 
895	 0.121594440002303 
896	 0.120795639069028 
897	 0.120717436312314 
898	 0.120259525481572 
899	 0.119734058619513 
900	 0.119691309533837 
901	 0.119714000622834 
902	 0.118702544872215 
903	 0.117766157010131 
904	 0.118215037295415 
905	 0.118071874741863 
906	 0.117292495820156 
907	 0.116201096897133 
908	 0.115435732546304 
909	 0.115404996633906 
910	 0.114861019495555 
911	 0.113799114598753 
912	 0.113388539440179 
913	 0.113232418105504 
914	 0.112617877090534 
915	 0.111201439483041 
916	 0.109294478237169 
917	 0.108774900143215 
918	 0.107952824564096 
919	 0.10650251573211 
920	 0.106383743756291 
921	 0.105294593289927 
922	 0.103580215037207 
923	 0.101974276197165 
924	 0.100964748234577 
925	 9.92645864417668E-02 
926	 9.80943228232776E-02 
927	 0.098193327926514 
928	 0.094935529641185 
929	 9.26001814356275E-02 
930	 9.21053605069578E-02 
931	 9.18664581084064E-02 
932	 8.90057830233274E-02 
933	 0.085689209676434 
934	 8.27100583983569E-02 
935	 8.01400841302592E-02 
936	 8.04757321883317E-02 
937	 0.076627798287104 
938	 7.20242377779447E-02 
939	 7.15698045818028E-02 
940	 7.36542606909918E-02 
941	 7.34705524162936E-02 
942	 7.07656773708728E-02 
943	 6.76650155856707E-02 
944	 6.43395020887664E-02 
945	 6.56082854232568E-02 
946	 6.76979620632684E-02 
947	 6.33239900410495E-02 
948	 5.48356069578566E-02 
949	 5.47080745015684E-02 
950	 5.93215504752878E-02 
951	 5.71843854706115E-02 
952	 0.054613717193124 
953	 5.21108759286938E-02 
954	 5.04591380529743E-02 
955	 4.98708094229626E-02 
956	 4.44619834867062E-02 
957	 0.043870062962608 
958	 4.64596329638393E-02 
959	 4.40396489298401E-02 
960	 4.34041446856794E-02 
961	 4.46102386434515E-02 
962	 4.54269739326902E-02 
963	 4.34814961026171E-02 
964	 4.18505047582411E-02 
965	 4.15496206158889E-02 
966	 4.25079504916934E-02 
967	 4.37391834046096E-02 
968	 4.19677131292844E-02 
969	 4.13395010222151E-02 
970	 4.21994716418182E-02 
971	 4.15041454764297E-02 
972	 4.09939507079823E-02 
973	 4.06110422608645E-02 
974	 4.08761947012339E-02 
975	 4.24846429285553E-02 
976	 4.19037223753658E-02 
977	 4.15390152636714E-02 
978	 4.21880580177034E-02 
979	 4.24641516508985E-02 
980	 4.05145862555297E-02 
981	 4.04319531670087E-02 
982	 4.18652497812402E-02 
983	 4.12096688465289E-02 
984	 0.041954293766379 
985	 4.23245588259432E-02 
986	 4.20289372753092E-02 
987	 4.22928035298585E-02 
988	 4.38439216142881E-02 
989	 4.26634347145897E-02 
990	 0.040693347632393 
991	 4.31982807754967E-02 
992	 4.46737959517251E-02 
993	 0.044256365162031 
994	 4.35157824939757E-02 
995	 4.46864987522344E-02 
996	 4.48858614593866E-02 
997	 4.49297478059634E-02 
998	 4.55687834698369E-02 
999	 4.67985591646342E-02 
1000	 4.59758908627511E-02 
1001	 3.96466806294866E-02 
1002	 4.01788713651046E-02 
1003	 4.05984228479091E-02 
1004	 4.06788231825585E-02 
1005	 4.09952261972735E-02 
1006	 4.13974200000208E-02 
1007	 4.19144270498352E-02 
1008	 4.25543284545183E-02 
1009	 4.32034589047234E-02 
1010	 4.42264759908778E-02 
1011	 4.52309170993873E-02 
1012	 4.55882844320362E-02 
1013	 4.62024437857445E-02 
1014	 4.68081421541271E-02 
1015	 4.71060441143734E-02 
1016	 4.77247685127015E-02 
1017	 4.87683487061442E-02 
1018	 0.049413251986442 
1019	 4.98560307500944E-02 
1020	 5.04657153066654E-02 
1021	 5.08642723521002E-02 
1022	 0.051638622286405 
1023	 5.26629281090917E-02 
1024	 5.36747646137328E-02 
1025	 5.48837252281184E-02 
1026	 5.59424224593435E-02 
1027	 5.66493139264801E-02 
1028	 5.70635395315833E-02 
1029	 5.76640894756222E-02 
1030	 5.78781726737213E-02 
1031	 5.86574141598914E-02 
1032	 5.99031213221206E-02 
1033	 6.08417298485688E-02 
1034	 6.18898697466227E-02 
1035	 6.27685217449815E-02 
1036	 0.063426275273186 
1037	 6.42190100561665E-02 
1038	 6.48391175402702E-02 
1039	 6.58919195430929E-02 
1040	 6.69280692445483E-02 
1041	 6.78868787828837E-02 
1042	 0.068727849002048 
1043	 6.95430624000108E-02 
1044	 7.02822823281679E-02 
1045	 7.07760173603658E-02 
1046	 7.15374628506107E-02 
1047	 7.24969787321718E-02 
1048	 7.33059061421359E-02 
1049	 7.40619311041004E-02 
1050	 7.49573182624885E-02 
1051	 0.075958602135737 
1052	 7.67429366378299E-02 
1053	 7.78346913960069E-02 
1054	 7.83957790367471E-02 
1055	 7.81003458596783E-02 
1056	 7.83840104836032E-02 
1057	 7.87780296795857E-02 
1058	 7.90986248664238E-02 
1059	 7.95903263514634E-02 
1060	 8.06177808564414E-02 
1061	 8.11073640089368E-02 
1062	 8.12436941874295E-02 
1063	 8.16183733678632E-02 
1064	 8.20333304970643E-02 
1065	 8.23446639502396E-02 
1066	 8.28413010328462E-02 
1067	 8.29873627962589E-02 
1068	 8.27590803080996E-02 
1069	 8.26892235505526E-02 
1070	 8.22958433573607E-02 
1071	 8.22667895725523E-02 
1072	 8.25038356161039E-02 
1073	 8.28697074260035E-02 
1074	 8.30088546230223E-02 
1075	 0.083363396071525 
1076	 8.32440512222101E-02 
1077	 8.27588432824516E-02 
1078	 0.082362328719422 
1079	 8.17348547031647E-02 
1080	 8.12625571380773E-02 
1081	 8.07695494386402E-02 
1082	 8.03979920383795E-02 
1083	 8.01564008835241E-02 
1084	 7.98271001275233E-02 
1085	 0.079415107406449 
1086	 0.079141827839933 
1087	 7.93331546771952E-02 
1088	 7.88879872853808E-02 
1089	 0.078071502199731 
1090	 7.72947080112862E-02 
1091	 7.65686707285557E-02 
1092	 7.51883582062886E-02 
1093	 7.46309767131271E-02 
1094	 7.49027704019856E-02 
1095	 7.44398549818775E-02 
1096	 7.38315704675639E-02 
1097	 7.31599351331205E-02 
1098	 7.21783347426574E-02 
1099	 7.12874988441903E-02 
1100	 7.01787026971616E-02 
1101	 0.069487715763809 
1102	 6.90890942220758E-02 
1103	 6.84513472153512E-02 
1104	 6.80550356936413E-02 
1105	 6.76673061488752E-02 
1106	 6.64198893955642E-02 
1107	 6.51822389695761E-02 
1108	 0.064781081734271 
1109	 6.46376899189456E-02 
1110	 6.42885826199776E-02 
1111	 6.47971838592175E-02 
1112	 6.42961911198673E-02 
1113	 6.21488475379547E-02 
1114	 6.11356566964667E-02 
1115	 6.05439741359382E-02 
1116	 6.00383316879272E-02 
1117	 6.08054274097543E-02 
1118	 0.061201176300781 
1119	 6.14803585948072E-02 
1120	 6.09392420649028E-02 
1121	 5.85662648683381E-02 
1122	 5.96343288310682E-02 
1123	 5.74954834749708E-02 
1124	 5.58470823232536E-02 
1125	 5.68333386491875E-02 
1126	 5.22590622915646E-02 
1127	 5.07335591358485E-02 
1128	 5.14074259828922E-02 
1129	 4.92477586608553E-02 
1130	 4.73843920056409E-02 
1131	 4.47735405207368E-02 
1132	 4.03576440069386E-02 
1133	 3.81818554169274E-02 
1134	 3.59403755557333E-02 
1135	 3.49679523795785E-02 
1136	 0.036165230939643 
1137	 0.035421666729791 
1138	 3.47995831363518E-02 
1139	 3.26616062836059E-02 
1140	 0.029817276423509 
1141	 2.78342290101188E-02 
1142	 0.026777337362196 
1143	 2.78020766034291E-02 
1144	 2.88466617877276E-02 
1145	 0.028954719534425 
1146	 2.78658560913126E-02 
1147	 2.51467954974403E-02 
1148	 2.44945599004794E-02 
1149	 2.45874221108687E-02 
1150	 2.37425947658823E-02 
1151	 2.34344505715327E-02 
1152	 2.30354933929601E-02 
1153	 2.15184902011314E-02 
1154	 2.09510745994107E-02 
1155	 2.08507992998678E-02 
1156	 2.13597808236457E-02 
1157	 2.10146016351167E-02 
1158	 2.04682496516576E-02 
1159	 2.03201848187258E-02 
1160	 1.99425186672742E-02 
1161	 1.94916570775876E-02 
1162	 1.98931638648909E-02 
1163	 2.03495706793213E-02 
1164	 1.99745131941452E-02 
1165	 1.96444601895491E-02 
1166	 0.019660052820263 
1167	 1.97497108199211E-02 
1168	 1.98574820384287E-02 
1169	 1.98119017952209E-02 
1170	 1.97013328807777E-02 
1171	 0.019784369364457 
1172	 1.99534887108055E-02 
1173	 1.97993328178117E-02 
1174	 1.96848132646069E-02 
1175	 1.94950934798243E-02 
1176	 1.92207911360211E-02 
1177	 1.92157121888512E-02 
1178	 1.96020033867294E-02 
1179	 1.96647219636339E-02 
1180	 1.93981336694064E-02 
1181	 1.91322713564148E-02 
1182	 1.89914506803006E-02 
1183	 1.92394908989491E-02 
1184	 1.93007694988372E-02 
1185	 1.90541482350648E-02 
1186	 1.90110500204408E-02 
1187	 0.019210307449806 
1188	 1.94264724650192E-02 
1189	 1.94859779584555E-02 
1190	 1.93492177127944E-02 
1191	 1.89311464887466E-02 
1192	 1.88771609291295E-02 
1193	 1.89983303438079E-02 
1194	 1.94175024610458E-02 
1195	 0.019446874140369 
1196	 0.019472492555489 
1197	 1.93396063303643E-02 
1198	 1.88868081451916E-02 
1199	 1.89493369229271E-02 
1200	 0.019220292930731 
1201	 1.91464990058142E-02 
1202	 1.91068490596484E-02 
1203	 1.89696735038422E-02 
1204	 0.019055252920999 
1205	 1.94268405730416E-02 
1206	 1.95768111215368E-02 
1207	 1.97769665458628E-02 
1208	 1.97734972522557E-02 
1209	 1.95159408422413E-02 
1210	 1.94275730522537E-02 
1211	 1.94105568691718E-02 
1212	 1.94547002947165E-02 
1213	 1.94919553096421E-02 
1214	 1.95281627747936E-02 
1215	 1.96523007395769E-02 
1216	 1.97534646329972E-02 
1217	 1.96630512216395E-02 
1218	 1.96077455327434E-02 
1219	 1.95992777283323E-02 
1220	 1.94616138700545E-02 
1221	 1.94358234350273E-02 
1222	 1.96806820556305E-02 
1223	 1.97475484780892E-02 
1224	 1.96637259445173E-02 
1225	 1.97089775520911E-02 
1226	 1.95952149548625E-02 
1227	 1.94816544103789E-02 
1228	 1.96803621168189E-02 
1229	 1.98695946566627E-02 
1230	 1.99241880476137E-02 
1231	 1.99568341383724E-02 
1232	 2.00574374480848E-02 
1233	 2.02366359796808E-02 
1234	 2.03044708659552E-02 
1235	 2.03033952955776E-02 
1236	 2.02105095170401E-02 
1237	 0.020286678524384 
1238	 2.03781507618991E-02 
1239	 2.03647497274377E-02 
1240	 2.04501799809335E-02 
1241	 2.07416064016305E-02 
1242	 2.06840980115409E-02 
1243	 2.05809233989816E-02 
1244	 2.08285529303983E-02 
1245	 2.07865404055968E-02 
1246	 2.05056970162279E-02 
1247	 2.05983719019039E-02 
1248	 2.06928203484533E-02 
1249	 2.04132378645704E-02 
1250	 2.03326204903583E-02 
1251	 2.04522682123052E-02 
1252	 2.04795441520038E-02 
1253	 2.07712983208178E-02 
1254	 2.10343346184233E-02 
1255	 2.09221335688795E-02 
1256	 2.09611666947118E-02 
1257	 2.09124286710219E-02 
1258	 2.09075964238684E-02 
1259	 2.09563174958427E-02 
1260	 2.10592733304343E-02 
1261	 2.12728842560466E-02 
1262	 2.13192073707205E-02 
1263	 2.13855236687338E-02 
1264	 2.12413824113401E-02 
1265	 2.10838585919954E-02 
1266	 2.08117856571648E-02 
1267	 2.07208494368539E-02 
1268	 2.10617827585407E-02 
1269	 2.12772208703172E-02 
1270	 0.02120752932807 
1271	 2.11168776233561E-02 
1272	 2.10250475291492E-02 
1273	 2.08910858719759E-02 
1274	 2.07678603942853E-02 
1275	 2.08058846220115E-02 
1276	 2.08661921123812E-02 
1277	 2.09054263542555E-02 
1278	 2.10623054004413E-02 
1279	 2.09379202401729E-02 
1280	 2.07077594745035E-02 
1281	 2.07372151438637E-02 
1282	 2.11163410819753E-02 
1283	 2.09690015551734E-02 
1284	 2.05336440270336E-02 
1285	 2.05187667751523E-02 
1286	 2.05349139320175E-02 
1287	 2.03066987181048E-02 
1288	 2.01347234008251E-02 
1289	 2.01813626907651E-02 
1290	 2.01761279281801E-02 
1291	 1.98805174592761E-02 
1292	 1.97956450972711E-02 
1293	 0.020168353211161 
1294	 2.00452443899696E-02 
1295	 1.97299632302353E-02 
1296	 1.99622386331527E-02 
1297	 1.99182625523074E-02 
1298	 1.95398173786968E-02 
1299	 1.94624676524856E-02 
1300	 1.94169348792446E-02 
1301	 1.93702296767327E-02 
1302	 1.95843973619198E-02 
1303	 1.98117798910434E-02 
1304	 1.98454067347854E-02 
1305	 1.95303912385666E-02 
1306	 1.93406780511719E-02 
1307	 1.88933602574622E-02 
1308	 1.86094048534214E-02 
1309	 1.84409089698147E-02 
1310	 1.84364531726443E-02 
1311	 1.84391140181953E-02 
1312	 1.84151486203445E-02 
1313	 1.88629035162048E-02 
1314	 1.87762189380937E-02 
1315	 1.79986120199075E-02 
1316	 1.78412704303099E-02 
1317	 1.79232970823167E-02 
1318	 1.77826152259554E-02 
1319	 1.78145091892491E-02 
1320	 1.79288444928361E-02 
1321	 1.80198957738423E-02 
1322	 1.77317036962598E-02 
1323	 1.76974259343838E-02 
1324	 1.80524589206525E-02 
1325	 1.77928054542075E-02 
1326	 1.70450112083447E-02 
1327	 1.66704803557808E-02 
1328	 1.71811178051901E-02 
1329	 1.76123396060498E-02 
1330	 1.74961497117241E-02 
1331	 1.72823685402425E-02 
1332	 1.71389332941076E-02 
1333	 1.76253887971421E-02 
1334	 0.017855897024033 
1335	 1.72226884223711E-02 
1336	 1.57157496629755E-02 
1337	 1.56981712317724E-02 
1338	 1.55221382584247E-02 
1339	 1.49776051878632E-02 
1340	 1.60585092592482E-02 
1341	 1.61504347166146E-02 
1342	 1.39231930861551E-02 
1343	 1.33044082036112E-02 
1344	 1.45155598349688E-02 
1345	 1.46679037890418E-02 
1346	 1.35346071757034E-02 
1347	 1.37857944520434E-02 
1348	 1.82496616202055E-02 
1349	 1.95834124133613E-02 
1350	 1.41822321227621E-02 
1351	 1.33311990518995E-02 
1352	 1.26122447517163E-02 
1353	 1.06047337093669E-02 
1354	 2.14470032173849E-02 
1355	 4.82601669092855E-02 
1356	 5.75826883540771E-02 
1357	 4.71836919586044E-02 
1358	-9.25391698401404E-03 
1359	-7.58528296207298E-02 
1360	-0.023321742067967 
1361	 6.73331183021184E-02 
1362	 0.107696738696086 
1363	 0.160754690843661 
1364	 0.164367659805993 
1365	 2.15718849630389E-02 
1366	-0.113083758733713 
1367	 1.31655147396967E-02 
1368	 4.31449169928144E-02 
1369	 2.21156605817238E-02 
1370	 0.072821283111436 
1371	 0.268722526930103 
1372	 0.224120714013172 
1373	 4.73652133984216E-02 
1374	 6.97179630228454E-02 
1375	 7.05542321422659E-02 
1376	-4.04627069829742E-03 
1377	-1.56759894799212E-02 
1378	 0.199463696425201 
1379	 0.40431604728462 
1380	 0.302814112636559 
1381	 0.259683993434204 
1382	 0.332472399364949 
1383	 5.88978869512222E-02 
1384	-5.80781935327319E-02 
1385	 0.10627192330433 
1386	 0.207592816385715 
1387	 0.152896318583323 
1388	 0.127113794044511 
1389	 0.353598937449095 
1390	 0.334039846022979 
1391	-7.23463988073093E-03 
1392	-0.222418014584547 
1393	-0.338767823942776 
1394	-0.261410402438528 
1395	-3.97105518991203E-02 
1396	-0.145803779401928 
1397	-2.58242969496557E-02 
1398	 0.292631133020496 
1399	 0.307119425042347 
1400	 0.283842394325525 
1401	 0.506742570779617 
1402	 0.632908332530752 
1403	 0.317283553041123 
1404	 0.226202623078879 
1405	 0.299005468111536 
1406	 0.259645240424284 
1407	 0.110241157167302 
1408	 0.152422723731554 
1409	 0.202854566385226 
1410	 6.17999644254154E-02 
1411	-3.71677086165039E-02 
1412	 6.89298298295526E-02 
1413	 8.08568378977154E-02 
1414	-6.79714838330412E-02 
1415	-0.129396473735162 
1416	-0.130894799104635 
1417	-7.30612188501762E-02 
1418	-6.29909282855968E-03 
1419	-0.012506816480861 
1420	 4.06464483836159E-03 
1421	 3.10415931883407E-02 
1422	 2.86593677717504E-02 
1423	 1.39712037699863E-02 
1424	 3.69414378681652E-03 
1425	 1.78595635190922E-02 
1426	 3.43156334326675E-02 
1427	 2.37477179886831E-02 
1428	 1.45334885809659E-02 
1429	 2.09805196223884E-02 
1430	 1.61067700984233E-02 
1431	 4.39771986971759E-03 
1432	 7.37342369985224E-04 
1433	 1.26193284917903E-02 
1434	 2.57213405857008E-02 
1435	 2.18382762227634E-02 
1436	 2.75041618101606E-02 
1437	 3.50711203917798E-02 
1438	 0.019396695892826 
1439	 1.30461217548127E-02 
1440	 2.51780144594891E-02 
1441	 2.78046836172523E-02 
1442	 0.014739639133272 
1443	-4.43214879613492E-04 
1444	-9.36478742959835E-04 
1445	-1.21014773765585E-03 
1446	 4.10078812901389E-04 
1447	 0.013346807188699 
1448	 1.37688588196844E-02 
1449	 7.3508495037152E-03 
1450	 9.14044585697392E-03 
1451	 7.2940275783596E-03 
1452	 4.54760360522117E-03 
1453	 5.88085930545172E-03 
1454	 6.1606898317179E-03 
1455	 5.1249295666179E-03 
1456	 4.24099357154091E-03 
1457	 4.42318105739612E-03 
1458	 4.47571076778915E-03 
1459	 2.6415317545273E-03 
1460	 2.8533686995575E-03 
1461	 5.78237957510764E-03 
1462	 6.62819603770814E-03 
1463	 6.75949733595571E-03 
1464	 6.98841389303809E-03 
1465	 6.5232115735302E-03 
1466	 6.10618190386835E-03 
1467	 5.76109727679083E-03 
1468	 5.50012686276679E-03 
1469	 4.99992697972999E-03 
1470	 4.8549557066212E-03 
1471	 4.52151203422363E-03 
1472	 5.11916001635646E-03 
1473	 7.04751959032093E-03 
1474	 6.76304029439532E-03 
1475	 5.82611351668605E-03 
1476	 6.00507291661565E-03 
1477	 5.38409936347939E-03 
1478	 0.005167181397177 
1479	 5.35010618541689E-03 
1480	 6.26112555535898E-03 
1481	 8.43223917653902E-03 
1482	 0.00796206327589 
1483	 6.5122409891804E-03 
1484	 6.66993631966448E-03 
1485	 6.38441604826523E-03 
1486	 5.55783038998429E-03 
1487	 5.27859731603883E-03 
1488	 5.49244677923451E-03 
1489	 5.23855632795112E-03 
1490	 5.01461109979427E-03 
1491	 5.36042741708256E-03 
1492	 5.67097728723152E-03 
1493	 5.71619684296771E-03 
1494	 5.55388763871708E-03 
1495	 5.57941653076287E-03 
1496	 5.74125684828394E-03 
1497	 5.52679807865631E-03 
1498	 0.005501797864813 
1499	 6.02336775732443E-03 
1500	 6.1393803459753E-03 
1501	 5.80202450826572E-03 
1502	 5.7894738619731E-03 
1503	 5.9286176403555E-03 
1504	 5.98062516676998E-03 
1505	 6.0551431556275E-03 
1506	 6.28749750669621E-03 
1507	 6.06042961454818E-03 
1508	 5.7127072337005E-03 
1509	 5.86009786051925E-03 
1510	 6.01068419234359E-03 
1511	 6.04035535171813E-03 
1512	 6.21353399968211E-03 
1513	 6.3118514341147E-03 
1514	 6.13941201833025E-03 
1515	 6.29617219987589E-03 
1516	 6.7245448861269E-03 
1517	 6.69421545484247E-03 
1518	 6.49605249530254E-03 
1519	 6.56990287183959E-03 
1520	 6.65297536249263E-03 
1521	 6.72394211168773E-03 
1522	 6.94539567404902E-03 
1523	 6.95712894345405E-03 
1524	 6.83992280517112E-03 
1525	 6.96739023405836E-03 
1526	 7.09872172096959E-03 
1527	 7.05575676093052E-03 
1528	 7.06162049869913E-03 
1529	 7.1847321178399E-03 
1530	 7.17621858084168E-03 
1531	 7.0718506022937E-03 
1532	 7.17545485161639E-03 
1533	 7.22681154760094E-03 
1534	 7.12536956951828E-03 
1535	 7.36164363290625E-03 
1536	 7.61816959153962E-03 
1537	 7.63823319098053E-03 
1538	 7.79228303889678E-03 
1539	 7.73138429096539E-03 
1540	 7.59426323028659E-03 
1541	 7.8364333994467E-03 
1542	 7.98480093062245E-03 
1543	 8.07383885922131E-03 
1544	 8.19268077401496E-03 
1545	 0.00805970923283 
1546	 7.92228234162581E-03 
1547	 8.05370872651951E-03 
1548	 8.33741221491197E-03 
1549	 8.2438743929225E-03 
1550	 7.98844201602978E-03 
1551	 8.3121205475175E-03 
1552	 8.65233012678944E-03 
1553	 8.51671090383731E-03 
1554	 8.54989134310165E-03 
1555	 8.6836000639189E-03 
1556	 8.62519748131869E-03 
1557	 8.86451228198094E-03 
1558	 9.17311671597468E-03 
1559	 8.91311393185117E-03 
1560	 8.58419484643877E-03 
1561	 8.71178375849266E-03 
1562	 8.93545641855102E-03 
1563	 9.17406282556019E-03 
1564	 9.3748066514132E-03 
1565	 9.1908418655213E-03 
1566	 9.08180647509807E-03 
1567	 9.38978417218797E-03 
1568	 9.40646662501854E-03 
1569	 9.10276738635451E-03 
1570	 9.15405837376048E-03 
1571	 9.46676125043325E-03 
1572	 9.57615493359372E-03 
1573	 9.55592311372717E-03 
1574	 9.67509257943128E-03 
1575	 9.68190009598401E-03 
1576	 9.53512783169213E-03 
1577	 9.61809083130726E-03 
1578	 9.82177486902064E-03 
1579	 9.89506194178618E-03 
1580	 9.8940417474367E-03 
1581	 9.94436833550201E-03 
1582	 1.00067831995169E-02 
1583	 1.01158299927714E-02 
1584	 0.010247149391852 
1585	 1.02747063913297E-02 
1586	 1.04055006061527E-02 
1587	 0.010411746535795 
1588	 1.02485085106876E-02 
1589	 1.04339211891495E-02 
1590	 1.06309085640609E-02 
1591	 1.06133416735067E-02 
1592	 1.06617882722065E-02 
1593	 1.05190428087011E-02 
1594	 1.02703950906207E-02 
1595	 1.03250157376781E-02 
1596	 1.04516960713137E-02 
1597	 1.05845396164647E-02 
1598	 1.08496044008914E-02 
1599	 0.010810396584139 
1600	 1.06491629009329E-02 
1601	 1.04990126145247E-02 
1602	 1.02507776271002E-02 
1603	 1.05073553524317E-02 
1604	 1.08652480143842E-02 
1605	 1.09878858619802E-02 
1606	 1.12490988709362E-02 
1607	 1.12810329690585E-02 
1608	 1.10531189626831E-02 
1609	 1.10337912451302E-02 
1610	 1.11046128013847E-02 
1611	 1.10969212044403E-02 
1612	 1.11760100118771E-02 
1613	 0.0112792508886 
1614	 1.12378238480364E-02 
1615	 1.12755258486739E-02 
1616	 1.15375761765761E-02 
1617	 1.14815824373235E-02 
1618	 1.11666858302868E-02 
1619	 1.12269797168021E-02 
1620	 1.12961671008804E-02 
1621	 1.13040185601555E-02 
1622	 1.16445345557923E-02 
1623	 1.17559133225714E-02 
1624	 1.16642337375805E-02 
1625	 1.18264004924608E-02 
1626	 1.18628005662222E-02 
1627	 1.19127105238674E-02 
1628	 1.18235021240587E-02 
1629	 1.12804692854713E-02 
1630	 0.011234514715265 
1631	 1.15490072611394E-02 
1632	 0.011553253065209 
1633	 1.16320030389266E-02 
1634	 1.17859254726348E-02 
1635	 1.16050928274809E-02 
1636	 1.13489769087411E-02 
1637	 1.15521472489742E-02 
1638	 1.18152856217089E-02 
1639	 1.18743092924673E-02 
1640	 1.18916726115396E-02 
1641	 1.16975702973463E-02 
1642	 1.15565751778055E-02 
1643	 1.16086499698679E-02 
1644	 1.17099574230144E-02 
1645	 1.19358057215865E-02 
1646	 1.19124030123472E-02 
1647	 1.17785508403835E-02 
1648	 1.20508722542625E-02 
1649	 1.22906167652138E-02 
1650	 1.21223861420471E-02 
1651	 1.17979112472508E-02 
1652	 1.17418077133665E-02 
1653	 1.19685255492046E-02 
1654	 1.18628253088539E-02 
1655	 1.18489707269175E-02 
1656	 1.18515608355204E-02 
1657	 1.14181075038182E-02 
1658	 1.14673467102157E-02 
1659	 1.20281304887179E-02 
1660	 1.20648132955351E-02 
1661	 1.20050308421632E-02 
1662	 1.20096470397038E-02 
1663	 1.18882640348626E-02 
1664	 1.18532501937632E-02 
1665	 1.16619932386188E-02 
1666	 1.16401277571186E-02 
1667	 1.18482609937634E-02 
1668	 0.011683700228458 
1669	 0.011968033202786 
1670	 1.21968685261986E-02 
1671	 1.19966368535723E-02 
1672	 1.20688427767759E-02 
1673	 1.21877963378874E-02 
1674	 1.19880397770632E-02 
1675	 0.011851505863882 
1676	 0.011937220209452 
1677	 1.20772116832339E-02 
1678	 1.22576100371386E-02 
1679	 1.23114865750079E-02 
1680	 1.24541192007695E-02 
1681	 1.26237501822759E-02 
1682	 1.22305509532912E-02 
1683	 1.19706225489203E-02 
1684	 1.21662160650634E-02 
1685	 1.19109256871028E-02 
1686	 1.16448418057827E-02 
1687	 1.16749611906361E-02 
1688	 1.15174377027596E-02 
1689	 1.18287728498921E-02 
1690	 1.24470397372399E-02 
1691	 1.25538795837591E-02 
1692	 1.23765658328905E-02 
1693	 0.012087485493435 
1694	 1.19554785232675E-02 
1695	 1.21954748880935E-02 
1696	 1.23490376571768E-02 
1697	 1.21945208717475E-02 
1698	 1.19105880159847E-02 
1699	 1.18859649222099E-02 
1700	 1.21395004974407E-02 
1701	 1.20794126100038E-02 
1702	 1.19636197851969E-02 
1703	 1.20323938183088E-02 
1704	 1.18569909617617E-02 
1705	 1.18478590992359E-02 
1706	 1.20836752082915E-02 
1707	 0.011970574240315 
1708	 1.19260158115337E-02 
1709	 1.24437882104805E-02 
1710	 1.25103002405543E-02 
1711	 0.011882428778173 
1712	 1.18711815246377E-02 
1713	 0.011394548626588 
1714	 1.12211841952502E-02 
1715	 1.21162538708687E-02 
1716	 0.012434436521171 
1717	 1.22674295724706E-02 
1718	 1.23741593526501E-02 
1719	 1.18837364864216E-02 
1720	 1.10811187306116E-02 
1721	 0.011092453073614 
1722	 1.15203791883671E-02 
1723	 1.17841453928184E-02 
1724	 1.14998606540714E-02 
1725	 1.12272829318163E-02 
1726	 1.15495213361315E-02 
1727	 1.17195682286853E-02 
1728	 1.16467513940026E-02 
1729	 1.17022862363995E-02 
1730	 1.12936927147807E-02 
1731	 1.09450113526652E-02 
1732	 1.14851069248633E-02 
1733	 1.13688843499273E-02 
1734	 1.05884462904014E-02 
1735	 1.04461486043178E-02 
1736	 0.010645380114046 
1737	 1.09580024752418E-02 
1738	 0.011310642614457 
1739	 1.14773536111849E-02 
1740	 1.08927301899818E-02 
1741	 1.06010699040399E-02 
1742	 1.12067800764071E-02 
1743	 1.08313521447267E-02 
1744	 1.02130594960374E-02 
1745	 1.04126468761051E-02 
1746	 1.02449251072553E-02 
1747	 1.03352311773789E-02 
1748	 1.11382844772345E-02 
1749	 1.10816352780168E-02 
1750	 1.03360970984253E-02 
1751	 1.03957271886818E-02 
1752	 1.06218325802842E-02 
1753	 1.03692130064765E-02 
1754	 1.05200529488293E-02 
1755	 1.03590389230966E-02 
1756	 8.94663451782547E-03 
1757	 9.17654255877924E-03 
1758	 9.92385296015197E-03 
1759	 9.73510218560233E-03 
1760	 1.02518056219159E-02 
1761	 1.03458862541245E-02 
1762	 9.60086041821146E-03 
1763	 9.72849614285333E-03 
1764	 1.00567179454196E-02 
1765	 9.53540114214473E-03 
1766	 8.90611248166999E-03 
1767	 8.89349620596543E-03 
1768	 8.54299798984286E-03 
1769	 8.19989640986822E-03 
1770	 9.00580581956838E-03 
1771	 9.77593522807477E-03 
1772	 9.52602957154775E-03 
1773	 9.04121443109425E-03 
1774	 9.07482436159358E-03 
1775	 9.07872264087757E-03 
1776	 8.91384539047045E-03 
1777	 9.96114462678208E-03 
1778	 1.03999005738596E-02 
1779	 9.1920768428636E-03 
1780	 8.83113388095468E-03 
1781	 9.74393606012113E-03 
1782	 1.01773506507975E-02 
1783	 1.04327532462885E-02 
1784	 9.78833057435242E-03 
1785	 7.81771745899241E-03 
1786	 7.31708234551823E-03 
1787	 7.27477188927585E-03 
1788	 7.5165772625271E-03 
1789	 9.77911283502649E-03 
1790	 9.54237574598017E-03 
1791	 6.88261133830678E-03 
1792	 9.00158169959781E-03 
1793	 0.013535969714115 
1794	 1.54131862115676E-02 
1795	 1.81460285159328E-02 
1796	 1.16836226481404E-02 
1797	 2.15219930138775E-03 
1798	 5.80645869768331E-03 
1799	 0.01234445537506 
1800	 1.95253689709209E-02 
1801	 2.37166886973644E-02 
1802	 5.98501417386216E-03 
1803	-3.02594866574398E-04 
1804	 6.18891668079698E-03 
1805	 1.69970389469479E-02 
1806	 5.49715898238953E-02 
1807	 6.02524665047147E-02 
1808	 4.55483947530659E-02 
1809	 0.028328362359045 
1810	-0.148950870494737 
1811	-0.17412724715129 
1812	 0.10813420962876 
1813	 0.121608469848442 
1814	 0.118906243126298 
1815	 8.65270911769114E-02 
1816	-0.328696036833566 
1817	-0.185140905463836 
1818	-0.143487711324723 
1819	 8.89727063072517E-02 
1820	 9.18207066139445E-02 
1821	-0.245809492138957 
1822	-0.237210506950272 
1823	-0.101793935180666 
1824	-9.43320260578773E-02 
1825	 0.129397133238804 
1826	 0.144989969891821 
1827	-0.276180080894722 
1828	-1.71221464563422 
1829	-5.65978624250166 
1830	-2.35624788799516 
1831	 1.21536026305592 
1832	 0.64572917062705 
1833	 4.71948660698037E-02 
1834	-0.136430131607764 
1835	-0.881043682929587 
1836	-1.22024390775479 
1837	-1.40468455130425 
1838	-1.87842631496161 
1839	-3.08424608585651 
1840	-2.21729315010505 
1841	-14.7716331715987 
1842	 2.28806340326959 
1843	 1.94505116937466 
1844	 0.968162802447732 
1845	 0.14098406439839 
1846	 0.296238038227119 
1847	 0.413130145587277 
1848	 0.74679899728003 
1849	 1.70049200271281 
1850	 0.618453386348557 
1851	 1.40892875071486 
1852	 3.60422522752759 
1853	-11.1688909005364 
1854	 53.3431098089707 
1855	 1.85700125790129 
1856	 0.560884705863026 
1857	-1.11182401923407 
1858	-0.974999912671201 
1859	 0.951804528486181 
1860	-94.8049606162491 
1861	-28.0379137406647 
1862	-1.42005407772593 
1863	 0.374875503007414 
1864	 1.43150989015518 
1865	 1.27844690452768 
1866	 0.578582997771626 
1867	 0.606840415118732 
1868	 0.720655960232796 
1869	 0.843493347427497 
1870	 2.19760884265518 
1871	 2.38653217871231 
1872	 0.351583579065332 
1873	 0.581758428145931 
1874	 0.697522740608682 
1875	 0.673049408974402 
1876	 1.40105354834094 
1877	-0.704495652167546 
1878	-0.296805398876286 
1879	 0.232805942662999 
1880	 0.405686013572319 
1881	 0.789326890649148 
1882	 0.516137456736353 
1883	-0.821525806583294 
1884	 1.91624925238767 
1885	 1.1140975696603 
1886	 0.922416755019963 
1887	 0.568879076268866 
1888	 7.56247730013924E-02 
1889	-3.39619216604063E-03 
1890	 0.110154079406121 
1891	 0.325331092989554 
1892	 1.06747096230534 
1893	 2.0231451629903 
1894	 3.12088292254115 
1895	-7.68435924528006 
1896	-3.68449202021704 
1897	-6.65248914673906 
1898	-3.30577368122277 
1899	 19.8567025214275 
1900	 3.36885787584693 
1901	 1.03550159544684 
1902	 0.641681159545674 
1903	-0.119219865236995 
1904	 0.130352330451353 
1905	 0.546487107206792 
1906	 0.226977373709792 
1907	 0.106364690090115 
1908	-0.254664517569501 
1909	-1.8479290218963 
1910	-0.513027372449028 
1911	-1.01057784362715 
1912	-6.29724735428926 
1913	 17.1739744138577 
1914	-0.122444651109804 
1915	-0.566977659218113 
1916	-0.773120548734962 
1917	-0.570395169951007 
1918	-0.866376453510562 
1919	-1.01159949231106 
1920	-1.39914074620925 
1921	 1.41742391604756 
1922	 1.01192090919522 
1923	-19.0700305602487 
1924	 2.9522621533578 
1925	 1.66726759943456 
1926	 1.39140304851085 
1927	 1.62147124649028 
1928	-28.2454876574613 
1929	 5.55861862182587 
1930	 4.74233582967981 
1931	-14.9730519475825 
1932	-1.09390955784919 
1933	-1.28120501407096 
1934	-1.02440425313525 
1935	-0.574494315698143 
1936	-0.481069207493086 
1937	-0.408141765354048 
1938	-0.425334893467595 
1939	-0.340736592390675 
1940	-0.31070620753254 
1941	-0.264574571428397 
1942	-0.266450286151938 
1943	-0.167372846678069 
1944	-0.133329793846343 
1945	-0.151184499773811 
1946	-0.102686625385671 
1947	-9.73149138544168E-02 
1948	-7.83792192353735E-02 
1949	-4.66709111938895E-02 
1950	-2.47821053543079E-02 
1951	-4.15412380306443E-03 
1952	-7.77792583167447E-06 
1953	-1.45282116756214E-02 
1954	-0.015001034520617 
1955	-2.08579512485268E-02 
1956	-3.45406491951691E-02 
1957	-3.74777484020721E-02 
1958	-2.41048956970769E-02 
1959	-1.39416458475041E-02 
1960	-3.31116836263505E-03 
1961	 9.46148560949932E-03 
1962	 5.10824816776563E-03 
1963	-1.90157270653297E-03 
1964	-2.43558905818193E-03 
1965	-7.93879750078365E-04 
1966	-8.6673933950693E-04 
1967	-2.10799244587299E-05 
1968	 1.90849069219478E-03 
1969	 4.00607693438698E-03 
1970	 1.93650603481438E-03 
1971	 1.26379193523874E-03 
1972	 2.53705755474779E-03 
1973	-5.37351341733732E-04 
1974	-2.15090952894857E-03 
1975	-1.8862128643072E-03 
1976	-2.00127351532667E-03 
1977	-5.91984411391708E-04 
1978	 1.58693640345443E-03 
1979	 2.32213800874515E-03 
1980	 2.59066964634841E-03 
1981	 1.11564971535615E-03 
1982	 1.2422288114539E-03 
1983	 1.64729758279091E-03 
1984	 5.16824658152345E-04 
1985	 1.40270746304516E-03 
1986	 2.17374353973852E-03 
1987	 8.17165124796395E-04 
1988	 5.61337694688406E-04 
1989	 1.93657211507318E-03 
1990	 1.69258117127621E-03 
1991	 9.30215427717702E-04 
1992	 1.79121668827127E-03 
1993	 1.30023930015369E-03 
1994	 1.07345281255836E-03 
1995	 8.28773837680917E-04 
1996	 2.98288695122355E-03 
1997	 3.46638124164074E-03 
1998	 1.93920873520113E-03 
1999	 1.64759108289476E-03 
2000	 1.67896960557533E-03 
2001	-8.15057736054488E-04 
2002	-4.69635440739472E-03 
2003	-8.74464534518075E-03 
2004	-1.43885252781606E-02 
2005	-1.57476669276672E-02 
2006	-8.24327884673618E-03 
2007	-6.11891986538796E-04 
2008	 2.87972128669266E-03 
2009	 3.90446383479494E-03 
2010	-2.67380788734662E-03 
2011	-3.93976880564188E-03 
2012	-4.76291749695669E-03 
2013	-3.78224083631043E-03 
2014	-1.31467231499907E-03 
2015	 2.85838908895281E-03 
2016	 3.2267109706059E-03 
2017	 2.03248087614089E-03 
2018	 1.87769881793588E-03 
2019	 5.39163479682707E-04 
2020	 2.02870513208267E-04 
2021	 3.76637239437902E-04 
2022	 1.39909760249283E-03 
2023	 2.80981433672874E-03 
2024	 3.17242769918094E-03 
2025	 3.93391608500426E-03 
2026	 3.83023716028945E-03 
2027	 3.00893380719282E-03 
2028	 1.6917408865066E-03 
2029	 1.54972228372293E-03 
2030	 1.88348930444784E-03 
2031	 2.12872132195349E-03 
2032	 1.95766863660365E-03 
2033	 1.66827797696062E-03 
2034	 1.61799333120757E-03 
2035	 1.65492057123586E-03 
2036	 1.95981242312127E-03 
2037	 3.16602153711654E-03 
2038	 4.08537708502969E-03 
2039	 4.07790242950689E-03 
2040	 3.9706016809895E-03 
2041	 3.70983525351264E-03 
2042	 1.57419512377699E-03 
2043	 8.53348011475898E-04 
2044	 7.60798659676296E-04 
2045	 1.16980206989626E-03 
2046	 2.10387479096525E-03 
2047	 3.07224414196678E-03 
2048	 3.68089918099924E-03 
2049	 3.72658952886162E-03 
2050	 2.70228720768702E-03 
2051	 2.78186575960021E-03 
2052	 4.25950639357739E-03 
2053	 4.96888999287266E-03 
2054	 4.9260404183612E-03 
2055	 3.44835507009204E-03 
2056	 2.81422289650352E-03 
2057	 1.18848089109898E-03 
2058	 8.66482514518703E-04 
2059	 2.27085950595094E-03 
2060	 2.79171569682413E-03 
2061	 3.07176351833886E-03 
2062	 3.04460664005994E-03 
2063	 3.27612264324469E-03 
2064	 4.12693307682835E-03 
2065	 4.9239254689174E-03 
2066	 3.6550598514171E-03 
2067	 3.26726402440418E-03 
2068	 2.97449107264893E-03 
2069	 1.81827231649469E-03 
2070	 1.72072503761563E-03 
2071	 1.5603645124961E-03 
2072	 1.5231762429288E-03 
2073	 1.74659303970878E-03 
2074	 2.87029658105375E-03 
2075	 3.00151240036558E-03 
2076	 2.69946708387205E-03 
2077	 2.59819229323339E-03 
2078	 2.17787047569364E-03 
2079	 2.01530823017701E-03 
2080	 2.08089822705145E-03 
2081	 2.14481691087836E-03 
2082	 1.7817794816815E-03 
2083	 1.87567960440133E-03 
2084	 2.66383172963699E-03 
2085	 3.29668580475583E-03 
2086	 3.23840034878274E-03 
2087	 3.10044331522744E-03 
2088	 3.33942399096005E-03 
2089	 3.3073079644344E-03 
2090	 3.66834082942285E-03 
2091	 3.93342869257233E-03 
2092	 4.01795046552444E-03 
2093	 3.68085579505593E-03 
2094	 3.5172226635735E-03 
2095	 3.46625910009139E-03 
2096	 3.38549656063546E-03 
2097	 2.97249115289595E-03 
2098	 2.8699045985484E-03 
2099	 2.77594147096113E-03 
2100	 2.96448211760874E-03 
2101	 4.03244770067657E-03 
2102	 4.88822406295241E-03 
2103	 4.34703061180983E-03 
2104	 3.91413935233764E-03 
2105	 3.21749986997982E-03 
2106	 1.82178621851739E-03 
2107	 1.97663533627191E-03 
2108	 3.15822313124628E-03 
2109	 3.18701521550831E-03 
2110	 3.3010923156353E-03 
2111	 3.66438707982632E-03 
2112	 2.47959325226325E-03 
2113	 2.45907404420365E-03 
2114	 3.45091548219429E-03 
2115	 3.87764681342167E-03 
2116	 4.54208990417727E-03 
2117	 4.95947279354364E-03 
2118	 5.10425327602614E-03 
2119	 4.92538860412238E-03 
2120	 4.49048924202394E-03 
2121	 3.64694835842828E-03 
2122	 3.46253983748667E-03 
2123	 3.76888992065983E-03 
2124	 3.72267786619992E-03 
2125	 3.5318867301431E-03 
2126	 3.54300405291713E-03 
2127	 3.16446010085933E-03 
2128	 2.21326861309102E-03 
2129	 2.34171836060114E-03 
2130	 2.73566528124267E-03 
2131	 2.13730572982198E-03 
2132	 2.81930755940027E-03 
2133	 3.79901436882317E-03 
2134	 3.75305773931066E-03 
2135	 2.70281205554654E-03 
2136	 2.73255634122113E-03 
2137	 2.93528079691329E-03 
2138	 2.85665345327979E-03 
2139	 3.11841793253156E-03 
2140	 3.4088839412624E-03 
2141	 3.03716323035319E-03 
2142	 3.18633120707164E-03 
2143	 4.05023561177084E-03 
2144	 4.7989933368556E-03 
2145	 5.06598676191114E-03 
2146	 5.47421701483954E-03 
2147	 5.33889788452005E-03 
2148	 4.77565370911602E-03 
2149	 4.54824102716254E-03 
2150	 3.54397970117864E-03 
2151	 3.15488256175316E-03 
2152	 4.49548042296485E-03 
2153	 4.40346845813362E-03 
2154	 3.98569956003463E-03 
2155	 3.86056371266942E-03 
2156	 2.38811590958983E-03 
2157	 2.54223424128025E-03 
2158	 4.69236715627957E-03 
2159	 5.13483639785796E-03 
2160	 5.08721439144691E-03 
2161	 5.35835609553983E-03 
2162	 5.15276973284047E-03 
2163	 4.95659829265422E-03 
2164	 5.08835533998944E-03 
2165	 5.17573485409491E-03 
2166	 4.63532705221964E-03 
2167	 4.43408234286978E-03 
2168	 4.74556119198573E-03 
2169	 5.16375483046293E-03 
2170	 5.89878506409318E-03 
2171	 6.01879106837725E-03 
2172	 6.54071854218589E-03 
2173	 6.7527199700384E-03 
2174	 5.41320870179278E-03 
2175	 5.1237783802281E-03 
2176	 6.39796070545893E-03 
2177	 5.83719327860753E-03 
2178	 6.15050283232698E-03 
2179	 6.82164687645274E-03 
2180	 5.09863238574348E-03 
2181	 4.33176778802434E-03 
2182	 4.7449411436716E-03 
2183	 4.34434982085389E-03 
2184	 4.57615868719853E-03 
2185	 5.23088887265789E-03 
2186	 4.83170119175337E-03 
2187	 2.96538190489289E-03 
2188	 2.60421437498293E-03 
2189	 2.71728018144392E-03 
2190	 2.95984758995325E-03 
2191	 4.4621740056842E-03 
2192	 4.77066303715474E-03 
2193	 3.27457718364331E-03 
2194	 3.42215583506289E-03 
2195	 4.85848225140598E-03 
2196	 5.04436594150881E-03 
2197	 6.45755867786205E-03 
2198	 6.29035167764818E-03 
2199	 3.91609341345382E-03 
2200	 1.3433766665407E-03 
2201	 5.39588704792207E-04 
2202	 5.96430989540358E-04 
2203	 1.71937398364944E-03 
2204	 3.69844776216208E-03 
2205	 5.44523084977278E-03 
2206	 4.40537379053384E-03 
2207	 1.56469242933577E-03 
2208	 1.16502763422735E-03 
2209	 6.35173413565757E-04 
2210	 4.50610132905594E-04 
2211	 1.87970615018854E-03 
2212	 2.1188070072837E-03 
2213	 1.26171991870088E-03 
2214	 1.10731816751505E-06 
2215	-4.84427958544249E-05 
2216	 1.05202498272562E-04 
2217	 4.2124915023938E-04 
2218	 2.43966039880236E-03 
2219	 2.49356161549801E-03 
2220	 1.14709805723567E-03 
2221	 6.11850307194126E-04 
2222	-7.3925674405086E-04 
2223	-6.02899033516168E-04 
2224	 3.7968186276411E-04 
2225	 9.00189209521633E-04 
2226	 2.65748645419042E-03 
2227	 2.90639991686539E-03 
2228	 1.89924711435524E-03 
2229	 2.22745380224911E-03 
2230	 2.61935690737859E-03 
2231	 2.39638454821724E-03 
2232	 3.07804700057478E-03 
2233	 2.61437511881053E-03 
2234	 5.92995516862099E-04 
2235	-6.86149711468195E-04 
2236	-1.08824969842041E-03 
2237	 7.86444962374168E-05 
2238	 2.76543203301058E-03 
2239	 4.18871795416686E-03 
2240	 4.59096230890256E-03 
2241	 4.68746645428371E-03 
2242	 2.86227257787005E-03 
2243	 7.69116670805365E-04 
2244	-1.3078089581917E-04 
2245	-1.15630204946687E-03 
2246	-6.08376166813573E-04 
2247	 1.13948803108411E-03 
2248	 4.70813801567155E-04 
2249	 3.85420171594366E-04 
2250	 5.93503428223348E-04 
2251	-1.73610631970265E-03 
2252	 1.42771596572105E-06 
2253	 1.81171752497977E-03 
2254	 2.79097902001161E-04 
2255	 1.8301285470571E-03 
2256	 2.1940633262114E-03 
2257	 3.32076689616946E-04 
2258	 6.94983807881186E-05 
2259	 1.56496316682407E-04 
2260	 4.48264246102672E-04 
2261	 8.30214567262823E-04 
2262	 4.32372906675384E-04 
2263	 3.21230945725355E-04 
2264	 4.17026104595999E-04 
2265	-9.16021901619446E-04 
2266	-5.42502858042144E-04 
2267	 2.03049001569601E-03 
2268	 2.6680685159245E-03 
2269	 1.59505904243696E-03 
2270	 2.16801280530992E-03 
2271	 3.42542035061905E-03 
2272	 4.07029107931885E-03 
2273	 6.97795984662646E-03 
2274	 8.14142260298981E-03 
2275	 6.90850512738633E-03 
2276	 6.13904986031819E-03 
2277	 3.40221455748237E-03 
2278	 2.07705903911752E-03 
2279	 3.21306043823176E-03 
2280	 3.65401282241732E-03 
2281	 4.24855392560419E-03 
2282	 4.62709869719674E-03 
2283	 5.05065944242587E-03 
2284	 3.56695202794175E-03 
2285	 1.45748064626125E-03 
2286	 9.47600392094847E-04 
2287	 2.25259228129849E-03 
2288	 1.83002245995649E-03 
2289	 2.68207603474722E-03 
2290	 3.31368313766429E-03 
2291	 1.42696990053606E-04 
2292	-2.19608449020588E-03 
2293	-2.48724828656432E-03 
2294	-1.28278926818692E-03 
2295	-7.65663336094483E-04 
2296	-3.61068244975919E-03 
2297	-4.20218184098924E-03 
2298	-1.0781465798853E-03 
2299	 1.97402700429001E-03 
2300	 5.85652279068041E-03 
2301	 8.14499233247486E-03 
2302	 5.19071749864986E-03 
2303	-6.46068097454111E-04 
2304	-1.46557423268199E-03 
2305	-5.60068711954844E-04 
2306	-0.003414181677974 
2307	 5.17601389002525E-04 
2308	 6.15566685001825E-03 
2309	 6.05650434880177E-03 
2310	 4.2130982704497E-03 
2311	 1.01024691309223E-03 
2312	-5.71942274372726E-04 
2313	-4.80410884324388E-03 
2314	-5.89792718918186E-03 
2315	-1.78477627306055E-03 
2316	-4.74886984969646E-03 
2317	-6.23918129177919E-03 
2318	-3.5258849640504E-03 
2319	-4.23732781851998E-03 
2320	-3.17660018592597E-03 
2321	 2.29455302052031E-03 
2322	 3.70031046448957E-03 
2323	 5.13781021727146E-04 
2324	 1.29918265289086E-03 
2325	 2.98280407622657E-03 
2326	 5.64308354039053E-03 
2327	 9.00646500037033E-03 
2328	 5.4967511977913E-03 
2329	-2.71286675078632E-03 
2330	-9.94441494425358E-03 
2331	-1.37220259787278E-02 
2332	-8.5365695621333E-03 
2333	 5.67590928939668E-04 
2334	 1.49605425700221E-03 
2335	 1.87197339593253E-03 
2336	 2.18677341053919E-03 
2337	-4.3108437391334E-04 
2338	 7.46745008612429E-03 
2339	 1.26114768586424E-02 
2340	 7.09160958233427E-05 
2341	-1.29925317456526E-02 
2342	-1.76282312460749E-02 
2343	-1.77572888688523E-02 
2344	-1.17042758284186E-02 
2345	-3.51976054710705E-03 
2346	-1.1371411341296E-03 
2347	-5.60168315007795E-03 
2348	-1.00199633882684E-02 
2349	-8.38114187011486E-03 
2350	-8.70861554084777E-03 
2351	-3.95361617661778E-03 
2352	 6.11767826599104E-03 
2353	 1.21467480644311E-02 
2354	 2.02362920626739E-02 
2355	 1.09339640980725E-02 
2356	-2.09461761990564E-03 
2357	 4.41897925554381E-04 
2358	-3.11592853530025E-03 
2359	-8.7596236260276E-03 
2360	-6.23623402601185E-03 
2361	-4.57398080945307E-03 
2362	-7.67795753376159E-03 
2363	-3.57957573005365E-03 
2364	 5.77642358723065E-03 
2365	 5.04214493730548E-04 
2366	-0.013976343612739 
2367	-1.80863044668387E-02 
2368	-1.90989957490703E-02 
2369	-2.35288130869212E-02 
2370	-2.35782541265376E-02 
2371	-2.85052000180758E-02 
2372	-3.17504279703411E-02 
2373	-2.48401219123893E-02 
2374	-1.68380029673802E-02 
2375	-0.014505370099206 
2376	-2.53448391915529E-02 
2377	-3.17368742623175E-02 
2378	-2.20273366253449E-02 
2379	-8.97450766718052E-03 
2380	-6.6899367648244E-03 
2381	-1.86007036695496E-02 
2382	-2.78550033979466E-02 
2383	-3.55968112098978E-02 
2384	-3.24525466577936E-02 
2385	-1.47975551008362E-02 
2386	-9.60274057608026E-03 
2387	-2.08706378554825E-02 
2388	-3.60407665278025E-02 
2389	-0.027361975567366 
2390	-1.10254028187842E-02 
2391	 0.010145739073658 
2392	 0.027474533407774 
2393	 4.32011082015524E-03 
2394	-8.10745566971737E-03 
2395	-3.09395219285051E-02 
2396	-5.65427111305271E-02 
2397	-3.11708708706667E-02 
2398	-3.34793068052834E-02 
2399	-2.27942505387575E-02 
2400	 2.91042859208489E-02 
2401	 2.26665304218417E-02 
2402	 1.81444673153364E-02 
2403	 1.82722659396902E-02 
2404	-8.11629631264759E-03 
2405	-2.91234870088403E-02 
2406	-7.54417168490746E-02 
2407	-9.70814111070795E-02 
2408	-0.113809216340691 
2409	-0.150379066284043 
2410	-7.38963352681966E-02 
2411	-4.26110490659501E-02 
2412	-0.128802573244856 
2413	-6.24362444992554E-02 
2414	 1.92032988744701E-03 
2415	-7.79704540463514E-02 
2416	-7.48018612811208E-02 
2417	-7.48269866698625E-02 
2418	-0.181406796602386 
2419	-0.254062950870488 
2420	-0.260763450473997 
2421	-0.170838741662145 
2422	-0.138676621024884 
2423	-0.129435091417101 
2424	-9.04643072944604E-02 
2425	-9.70806815896162E-02 
2426	-7.18397246241897E-02 
2427	-2.51662365408515E-02 
2428	 1.50121028882958E-02 
2429	-4.26539780948749E-02 
2430	-0.165305973970457 
2431	-0.15409311297347 
2432	-0.160010827835298 
2433	-0.141752600248184 
2434	-7.87683850509854E-02 
2435	-0.144592405704632 
2436	-0.165732555929939 
2437	-0.19288523738568 
2438	-0.225591799474735 
2439	-0.260978090604822 
2440	-0.256910942270554 
2441	-0.149974157591258 
2442	-8.99134714454549E-02 
2443	-7.74359454753313E-02 
2444	-0.153740181011824 
2445	-0.240297811184351 
2446	-0.312335406167 
2447	-0.390593541174076 
2448	-0.479385690236642 
2449	-1.14240980297223 
2450	-1.19777529706107 
2451	-0.781598080095636 
2452	-2.25372522875738 
2453	-0.70239622371004 
2454	-0.645295076570976 
2455	-0.963984091186872 
2456	 0.037826230630884 
2457	-0.219046004245941 
2458	-0.302973527336921 
2459	-9.14256716769409E-03 
2460	-6.32311945362421E-02 
2461	-0.303880343479729 
2462	-0.216251911255905 
2463	-6.39074430472281E-03 
2464	-3.24253786058622E-02 
2465	 0.209207796902584 
2466	 0.154823655987414 
2467	-0.312441912227047 
2468	-1.03507226351823 
2469	-0.906893414060213 
2470	-0.820495308253694 
2471	-0.78737234204018 
2472	-0.235175859592174 
2473	 0.025736834169554 
2474	-0.27566938525611 
2475	-0.779086164270845 
2476	 10.7687340926879 
2477	 3.5388921659322 
2478	-7.27452208568961 
2479	-6.16389272202846 
2480	 2.35497917447972 
2481	 1.33196938921611 
2482	 0.513715554173024 
2483	 3.93258172931914E-02 
2484	 0.127286895890508 
2485	 0.307347814130024 
2486	 0.545661928280481 
2487	 0.847998969110164 
2488	-31.8773883101222 
2489	-6.99121901774476 
2490	-5.70284705332996 
2491	-0.547940170910406 
2492	 0.288262223126407 
2493	-0.43897887860441 
2494	 0.276661587680705 
2495	 0.362346878045265 
2496	 1.08540468891679 
2497	-15.3749804377703 
2498	 3.56093151593142E-02 
2499	 0.944674093486117 
2500	 0.224786010677673 
