Wavelength	rt0716a00001.asd
350	 0.084252607273728 
351	 8.49510043433975E-02 
352	 8.46609126973773E-02 
353	 8.40175495137939E-02 
354	 8.38709466625087E-02 
355	 8.48600914845028E-02 
356	 8.46356437174079E-02 
357	 8.42544205754935E-02 
358	 0.085004992036385 
359	 8.43152120634632E-02 
360	 8.41586684680959E-02 
361	 8.49620991279978E-02 
362	 8.59064310692477E-02 
363	 0.085999313871638 
364	 8.55689392919089E-02 
365	 8.51185573847119E-02 
366	 8.50957913261217E-02 
367	 8.54837809813328E-02 
368	 8.58107762841127E-02 
369	 8.57490719454432E-02 
370	 8.59350467403016E-02 
371	 8.58359463640931E-02 
372	 8.55454377261209E-02 
373	 8.54844868858855E-02 
374	 8.54093760915926E-02 
375	 8.55841535567131E-02 
376	 8.60138488170254E-02 
377	 8.63041852911716E-02 
378	 0.085795695180017 
379	 8.55691577340185E-02 
380	 8.62177723295289E-02 
381	 8.54698314203774E-02 
382	 8.56581567643227E-02 
383	 8.63382394424993E-02 
384	 8.60070532491335E-02 
385	 8.58449659764942E-02 
386	 8.61642037409308E-02 
387	 8.66451870011966E-02 
388	 8.64185413508003E-02 
389	 8.61082786612547E-02 
390	 8.60550968297277E-02 
391	 0.086273829730841 
392	 8.62021650601807E-02 
393	 8.59693753978739E-02 
394	 8.59178961675332E-02 
395	 8.62270175647581E-02 
396	 8.58477262352556E-02 
397	 0.085661846347627 
398	 8.58211380634671E-02 
399	 8.57814164227177E-02 
400	 0.085480888069616 
401	 8.53766327958511E-02 
402	 8.56057310977903E-02 
403	 8.54611065785762E-02 
404	 8.51892801892842E-02 
405	 8.49782533021181E-02 
406	 8.49451429533296E-02 
407	 8.48968617886567E-02 
408	 0.084753540346143 
409	 8.45532109666231E-02 
410	 8.44321760211651E-02 
411	 8.43537783688403E-02 
412	 8.43442413452297E-02 
413	 8.43569655859681E-02 
414	 8.41108506171928E-02 
415	 8.41891314471469E-02 
416	 8.43405835142407E-02 
417	 8.41252838145302E-02 
418	 8.41991693055836E-02 
419	 8.42688863111087E-02 
420	 8.42100467841958E-02 
421	 8.41510178275347E-02 
422	 8.42699494976108E-02 
423	 8.44564172364163E-02 
424	 8.45852104783847E-02 
425	 8.46608666276354E-02 
426	 8.48471005902617E-02 
427	 8.51352675325729E-02 
428	 8.54288865294135E-02 
429	 8.57197599375597E-02 
430	 8.59529325153634E-02 
431	 8.61728141006062E-02 
432	 8.65370015485527E-02 
433	 8.68850715375691E-02 
434	 8.71170659652631E-02 
435	 8.72461714278658E-02 
436	 8.75754107815701E-02 
437	 0.087753703198056 
438	 8.78741523784568E-02 
439	 8.82106494621367E-02 
440	 8.83398892536055E-02 
441	 8.84337789060594E-02 
442	 8.85802726657542E-02 
443	 8.86515505358943E-02 
444	 8.86610779368919E-02 
445	 8.86458673172084E-02 
446	 8.86533072412077E-02 
447	 8.87450013533825E-02 
448	 8.87546776146337E-02 
449	 8.86874383287841E-02 
450	 0.088672721295336 
451	 8.86771042132203E-02 
452	 8.86434774917744E-02 
453	 8.85276952919788E-02 
454	 8.82978062479942E-02 
455	 8.82631110349944E-02 
456	 8.82683188101108E-02 
457	 8.80664382868622E-02 
458	 8.79283289049359E-02 
459	 8.77713556466327E-02 
460	 8.75858934418698E-02 
461	 8.74511708670956E-02 
462	 8.74075201697899E-02 
463	 8.72798102144163E-02 
464	 8.69944781796688E-02 
465	 8.68655317167438E-02 
466	 8.67626634588029E-02 
467	 8.66283658144889E-02 
468	 8.64515114567673E-02 
469	 8.63240686744808E-02 
470	 0.086215379818925 
471	 8.60987915098676E-02 
472	 8.59699266058973E-02 
473	 8.58649001253849E-02 
474	 8.58218522663859E-02 
475	 8.58301269154733E-02 
476	 8.57189359312346E-02 
477	 8.55933077472145E-02 
478	 8.55193008744522E-02 
479	 8.55240046644209E-02 
480	 8.55576954187706E-02 
481	 0.085564617280806 
482	 0.085557368968683 
483	 8.56894818674536E-02 
484	 8.57939481285184E-02 
485	 8.58772163273337E-02 
486	 8.59892331960131E-02 
487	 8.60416450942472E-02 
488	 8.61255423945562E-02 
489	 0.086272539009887 
490	 8.64468563535493E-02 
491	 8.65851575046449E-02 
492	 8.67832811121076E-02 
493	 8.70842193353305E-02 
494	 8.73115210587546E-02 
495	 8.75057754391944E-02 
496	 8.77136538681592E-02 
497	 8.79708860042912E-02 
498	 8.81611611108157E-02 
499	 8.83350507621433E-02 
500	 8.85303971926217E-02 
501	 8.87364617547239E-02 
502	 8.89956167533677E-02 
503	 8.92715812103685E-02 
504	 8.95231542757544E-02 
505	 8.97753690722684E-02 
506	 9.01022816966221E-02 
507	 9.04436579476666E-02 
508	 0.09065535598062 
509	 9.10349099865152E-02 
510	 9.13671022311992E-02 
511	 9.15401949496579E-02 
512	 9.18656625280781E-02 
513	 9.22871819173394E-02 
514	 9.27337157535367E-02 
515	 9.31353747950382E-02 
516	 9.36101628693786E-02 
517	 0.094032705302708 
518	 9.44092913390949E-02 
519	 9.49277752251382E-02 
520	 9.55305082423155E-02 
521	 9.61568376802495E-02 
522	 9.67492217758131E-02 
523	 9.72291011278076E-02 
524	 9.78462465053963E-02 
525	 9.86236974253546E-02 
526	 9.94255402090949E-02 
527	 0.100312314469765 
528	 0.101185653393299 
529	 0.101989239075211 
530	 0.102779210814949 
531	 0.103604002977 
532	 0.104558998781076 
533	 0.105688766215723 
534	 0.106698988408578 
535	 0.107706531528946 
536	 0.108758215517323 
537	 0.109784275894112 
538	 0.110926762930378 
539	 0.112067988529838 
540	 0.113103993848445 
541	 0.114176321837628 
542	 0.115310494166681 
543	 0.116456792718664 
544	 0.117533171254602 
545	 0.118606046032442 
546	 0.119676001172981 
547	 0.120739214983525 
548	 0.121810361515964 
549	 0.122801786126601 
550	 0.123744428061435 
551	 0.124703891955023 
552	 0.125651686390909 
553	 0.126637722395211 
554	 0.127610627644812 
555	 0.128405060094928 
556	 0.129348185788256 
557	 0.130299608884358 
558	 0.131104595901524 
559	 0.131978324824815 
560	 0.132885668851229 
561	 0.133775920060537 
562	 0.134601455810166 
563	 0.135422710143593 
564	 0.136235354554726 
565	 0.137046807690299 
566	 0.137913918202202 
567	 0.138727196519622 
568	 0.139439085315129 
569	 0.140063106017134 
570	 0.140803134298231 
571	 0.141530275379413 
572	 0.142161729292987 
573	 0.142690439015854 
574	 0.143249023998692 
575	 0.14385472576172 
576	 0.144475179916859 
577	 0.145041536817909 
578	 0.145573071804875 
579	 0.146088776624806 
580	 0.146604365311383 
581	 0.147088727771321 
582	 0.147524781725928 
583	 0.147921767218453 
584	 0.148329737535737 
585	 0.148726808113657 
586	 0.149023663883144 
587	 0.149159158028212 
588	 0.149369787578996 
589	 0.149709030737994 
590	 0.150099102781212 
591	 0.150380271757495 
592	 0.150679704715575 
593	 0.150978287756768 
594	 0.151246137694497 
595	 0.151537717901675 
596	 0.151795651236737 
597	 0.152021640945362 
598	 0.152238915048728 
599	 0.152332044167481 
600	 0.152526825134683 
601	 0.152873214839101 
602	 0.153060646981218 
603	 0.153156954520267 
604	 0.153269479066844 
605	 0.153479402774393 
606	 0.153622476444215 
607	 0.153800179415517 
608	 0.154032450984361 
609	 0.154242712934867 
610	 0.154451431698628 
611	 0.154615701911213 
612	 0.154715786555695 
613	 0.154818125210972 
614	 0.154998035993273 
615	 0.155167728710689 
616	 0.155185714287313 
617	 0.155367813562728 
618	 0.155529464671497 
619	 0.155604651589007 
620	 0.155806325262017 
621	 0.155907615778198 
622	 0.155986291720581 
623	 0.156168645679055 
624	 0.156319005273655 
625	 0.156405221328467 
626	 0.156461580672216 
627	 0.156579055858665 
628	 0.156769020881193 
629	 0.15692028603199 
630	 0.156978507719311 
631	 0.157086051300847 
632	 0.157224977428891 
633	 0.157381494098542 
634	 0.157540452108529 
635	 0.157691660482868 
636	 0.157852433939365 
637	 0.15801701000638 
638	 0.158144417392676 
639	 0.158287486604516 
640	 0.158350059040655 
641	 0.158288702693817 
642	 0.158451630213805 
643	 0.158508542034661 
644	 0.158476932991537 
645	 0.15864145036551 
646	 0.158592622217666 
647	 0.158544773343648 
648	 0.15866694995133 
649	 0.158753076598375 
650	 0.158844187369047 
651	 0.158910530855161 
652	 0.158915327259735 
653	 0.158930861011747 
654	 0.15898865883739 
655	 0.159053186177537 
656	 0.159000088334516 
657	 0.159015608762145 
658	 0.159042003650705 
659	 0.159014386130208 
660	 0.159003420968148 
661	 0.158975626226583 
662	 0.158905646215892 
663	 0.158794503283922 
664	 0.158843537680443 
665	 0.158894397795137 
666	 0.158844357277021 
667	 0.158757107568069 
668	 0.158879203212976 
669	 0.159037861706003 
670	 0.159018746885054 
671	 0.159190915225358 
672	 0.15930068966686 
673	 0.15930785697577 
674	 0.159391565597001 
675	 0.159522036021218 
676	 0.159675575169863 
677	 0.159848270367969 
678	 0.160096745839959 
679	 0.160333180177593 
680	 0.160542866038098 
681	 0.160755136690949 
682	 0.161031664461866 
683	 0.161351517677327 
684	 0.161660498325919 
685	 0.161894660999199 
686	 0.162097958812537 
687	 0.162372963499078 
688	 0.16276446215917 
689	 0.163169030027496 
690	 0.163434105650568 
691	 0.163601769182986 
692	 0.16383086330621 
693	 0.164136910606849 
694	 0.1643830496236 
695	 0.164570254177593 
696	 0.164985621394121 
697	 0.165119462671243 
698	 0.165040451500964 
699	 0.164989305584481 
700	 0.165103543098449 
701	 0.165241967668169 
702	 0.165332480338399 
703	 0.165384029427232 
704	 0.165427107046903 
705	 0.165394483241136 
706	 0.165299281083417 
707	 0.165373529589481 
708	 0.165323179071397 
709	 0.165195119817776 
710	 0.165122201446471 
711	 0.164963367440242 
712	 0.164718454223971 
713	 0.164377526455904 
714	 0.163903179786244 
715	 0.163391675312622 
716	 0.162892276088623 
717	 0.162449978622282 
718	 0.161821577814463 
719	 0.161401159358783 
720	 0.161114066683234 
721	 0.160681510022727 
722	 0.160251451760088 
723	 0.15961738515984 
724	 0.158869637256811 
725	 0.158364653431541 
726	 0.157731099323248 
727	 0.156952365594235 
728	 0.156084163336956 
729	 0.155129608045406 
730	 0.154028113230963 
731	 0.153005330305788 
732	 0.152234216496722 
733	 0.151348802344137 
734	 0.150489322225707 
735	 0.149804850279954 
736	 0.149402245419732 
737	 0.149033962508688 
738	 0.148704156238921 
739	 0.148485543108482 
740	 0.148440361559234 
741	 0.148440180356992 
742	 0.148433004654621 
743	 0.148424337064082 
744	 0.148502089268717 
745	 0.148578615818186 
746	 0.148614491245696 
747	 0.148659151331824 
748	 0.148729197476486 
749	 0.148767249375119 
750	 0.148756884537213 
751	 0.148884854183224 
752	 0.148969327145214 
753	 0.149028453314667 
754	 0.14917000631577 
755	 0.149253110080039 
756	 0.149306633361277 
757	 0.149322127866284 
758	 0.149167200265694 
759	 0.148661499063718 
760	 0.148235783006945 
761	 0.148691394608181 
762	 0.149195798431516 
763	 0.149235481966944 
764	 0.149285263088071 
765	 0.149828620792285 
766	 0.150161290274206 
767	 0.150363453396511 
768	 0.150528747259708 
769	 0.150730316570725 
770	 0.150885210748405 
771	 0.151045642368448 
772	 0.151246099796331 
773	 0.151399967579362 
774	 0.151559475375836 
775	 0.151771665363175 
776	 0.152059887404424 
777	 0.152321813006285 
778	 0.152543957352157 
779	 0.152762377915873 
780	 0.153049960081955 
781	 0.15330665958492 
782	 0.153550488083739 
783	 0.153790147604678 
784	 0.153946218043782 
785	 0.154314796916286 
786	 0.154617270331811 
787	 0.154564810920161 
788	 0.155006442395159 
789	 0.155359283083393 
790	 0.155481235291694 
791	 0.155663867153886 
792	 0.156073370443453 
793	 0.156382148369515 
794	 0.156472331601831 
795	 0.156665216598901 
796	 0.156840049606248 
797	 0.157075596862233 
798	 0.157404843126505 
799	 0.157507239105142 
800	 0.157636742649593 
801	 0.15786678978907 
802	 0.158130750361684 
803	 0.158220310123415 
804	 0.158274714790718 
805	 0.15834870086752 
806	 0.158372375969899 
807	 0.158471462876604 
808	 0.158439204954549 
809	 0.158174522366456 
810	 0.158018790664957 
811	 0.15782327887065 
812	 0.157670813103628 
813	 0.157646411383668 
814	 0.157246309589297 
815	 0.15688239872662 
816	 0.156650666600472 
817	 0.156322296311747 
818	 0.155934839385613 
819	 0.15556072350616 
820	 0.155157934279497 
821	 0.154567594967002 
822	 0.153748871608537 
823	 0.152900257258608 
824	 0.152117962143255 
825	 0.150995725366904 
826	 0.149960826574913 
827	 0.148835853007126 
828	 0.147397197698961 
829	 0.146109562906191 
830	 0.144875074764098 
831	 0.14374130743977 
832	 0.142873200920536 
833	 0.141957805156738 
834	 0.141232604512676 
835	 0.140750088578478 
836	 0.140264109172088 
837	 0.139802361711168 
838	 0.1394822817645 
839	 0.139312788126648 
840	 0.138988791833972 
841	 0.138562280609553 
842	 0.138124213318604 
843	 0.137772800061106 
844	 0.137501486627751 
845	 0.137309349366136 
846	 0.137158150308798 
847	 0.136962294151176 
848	 0.136450548749772 
849	 0.136063772038535 
850	 0.135945500517165 
851	 0.135747996955318 
852	 0.135229964615005 
853	 0.134932182517531 
854	 0.135028126828003 
855	 0.134568048951277 
856	 0.13413193428686 
857	 0.13393311179115 
858	 0.133889790604517 
859	 0.133251692368093 
860	 0.132935593864918 
861	 0.132981368490803 
862	 0.132923009454781 
863	 0.132350286234097 
864	 0.132017149131125 
865	 0.131982614803369 
866	 0.131647286796348 
867	 0.131424312279198 
868	 0.131205357691734 
869	 0.130952896892403 
870	 0.130797571009609 
871	 0.130277294346259 
872	 0.129757252350146 
873	 0.129505178366573 
874	 0.129166048986403 
875	 0.128651773362004 
876	 0.128282357739133 
877	 0.128200768023005 
878	 0.127431837686939 
879	 0.126806564347377 
880	 0.126396170817081 
881	 0.125948282230709 
882	 0.125732797856306 
883	 0.125358722418826 
884	 0.124809652230593 
885	 0.124354327096672 
886	 0.123847344562065 
887	 0.123412672069873 
888	 0.123087639990615 
889	 0.122778941346022 
890	 0.122373505894927 
891	 0.122050970664976 
892	 0.121790765733779 
893	 0.121089787634639 
894	 0.120676238056807 
895	 0.120242888415646 
896	 0.119532214786731 
897	 0.119512783471601 
898	 0.119093933714234 
899	 0.118633593171445 
900	 0.118564857466668 
901	 0.117716418450172 
902	 0.116679322070672 
903	 0.116116724358744 
904	 0.116351750741234 
905	 0.116116643334123 
906	 0.115614577557793 
907	 0.114912366897381 
908	 0.114046936226131 
909	 0.113461927353717 
910	 0.113066318150275 
911	 0.11239470278548 
912	 0.110974378946484 
913	 0.110789519303605 
914	 0.110291645283028 
915	 0.108864024493331 
916	 0.107521656466701 
917	 0.107011010949777 
918	 0.106142875514819 
919	 0.104704499419467 
920	 0.104015395873735 
921	 0.103063337955483 
922	 0.101814549518192 
923	 0.100478702183237 
924	 9.94212665401553E-02 
925	 9.74237159543876E-02 
926	 9.55231136545887E-02 
927	 9.47695701115112E-02 
928	 9.30470809751979E-02 
929	 9.10437544092552E-02 
930	 8.99626134586825E-02 
931	 9.05556384849906E-02 
932	 8.69467695006099E-02 
933	 8.26924964840767E-02 
934	 8.09430562000394E-02 
935	 8.12157884190556E-02 
936	 7.64605481242499E-02 
937	 7.49030619894323E-02 
938	 7.39070301723072E-02 
939	 7.03236544868704E-02 
940	 7.22821881404577E-02 
941	 7.25073408398061E-02 
942	 7.02462380978483E-02 
943	 6.80888883119317E-02 
944	 6.61680975715063E-02 
945	 6.90492309052938E-02 
946	 7.02767201290854E-02 
947	 6.14384409472518E-02 
948	 5.84491339100961E-02 
949	 5.88803964516713E-02 
950	 5.85596039437825E-02 
951	 5.48368260389363E-02 
952	 5.47588385224344E-02 
953	 5.78654367223494E-02 
954	 5.97225432516051E-02 
955	 5.54658929035363E-02 
956	 4.97018718550925E-02 
957	 4.94849694487645E-02 
958	 5.25853476692086E-02 
959	 5.17632137830876E-02 
960	 5.03921421486423E-02 
961	 5.06613777493671E-02 
962	 5.19471665289361E-02 
963	 5.20728787653186E-02 
964	 5.15704826767359E-02 
965	 5.03823225301921E-02 
966	 4.94628937422571E-02 
967	 0.04993952623936 
968	 4.86596007038372E-02 
969	 4.88486967735218E-02 
970	 4.99408336173531E-02 
971	 4.83789438744061E-02 
972	 4.73537247691081E-02 
973	 0.047778228306296 
974	 4.86933571204138E-02 
975	 4.80716765470564E-02 
976	 4.88684773788009E-02 
977	 4.92899455279676E-02 
978	 4.91653301199124E-02 
979	 4.97724345708384E-02 
980	 4.83918787907005E-02 
981	 4.87009302911805E-02 
982	 5.00242536692688E-02 
983	 4.86499772407794E-02 
984	 4.87645374520068E-02 
985	 4.89259274252608E-02 
986	 4.88247876930679E-02 
987	 4.93241244195823E-02 
988	 5.00425596588609E-02 
989	 4.98735898584638E-02 
990	 4.91874118099763E-02 
991	 4.92865426826777E-02 
992	 4.94883151196453E-02 
993	 0.049766331077847 
994	 5.06375218131348E-02 
995	 5.22973055912016E-02 
996	 5.10719475255343E-02 
997	 5.07448401327436E-02 
998	 5.14344563866622E-02 
999	 0.051062145727285 
1000	 5.13613320432246E-02 
1001	 5.38000126507406E-02 
1002	 5.39211209138001E-02 
1003	 0.054104755893482 
1004	 0.054554290068641 
1005	 5.48714446453087E-02 
1006	 5.49954980265675E-02 
1007	 5.51295348105029E-02 
1008	 5.55152745328016E-02 
1009	 0.055968933686088 
1010	 5.64268227842327E-02 
1011	 5.68219168106679E-02 
1012	 5.74512246594925E-02 
1013	 5.82389670972316E-02 
1014	 5.86630317052738E-02 
1015	 5.88804938059514E-02 
1016	 5.93377161414864E-02 
1017	 5.95268503549161E-02 
1018	 6.00044027741159E-02 
1019	 6.09858946716621E-02 
1020	 6.16943674176145E-02 
1021	 6.23928052473106E-02 
1022	 6.28999082847877E-02 
1023	 6.34248850459074E-02 
1024	 6.40554031589227E-02 
1025	 6.44588108179391E-02 
1026	 6.51595677944881E-02 
1027	 6.58169102676898E-02 
1028	 6.63937452214496E-02 
1029	 6.70632975901048E-02 
1030	 6.78409849065748E-02 
1031	 6.86225863978062E-02 
1032	 6.95209121507979E-02 
1033	 7.02750457600346E-02 
1034	 7.11278789866563E-02 
1035	 7.17858768073716E-02 
1036	 0.072039216324282 
1037	 7.26751377780921E-02 
1038	 7.37138553769853E-02 
1039	 7.41223105757088E-02 
1040	 7.50203743273893E-02 
1041	 7.57710777712303E-02 
1042	 7.63310320872766E-02 
1043	 7.65724044078453E-02 
1044	 0.077176352832119 
1045	 7.77927948722114E-02 
1046	 7.84912682804724E-02 
1047	 7.94720951071962E-02 
1048	 8.01966073865639E-02 
1049	 8.07786200553898E-02 
1050	 8.14310400583811E-02 
1051	 8.21096043480792E-02 
1052	 8.26855860002954E-02 
1053	 8.32398139338257E-02 
1054	 8.37753236088169E-02 
1055	 8.42088647535717E-02 
1056	 8.46199482726021E-02 
1057	 8.50181723529783E-02 
1058	 8.54710152516883E-02 
1059	 8.57896914879576E-02 
1060	 8.59551281976394E-02 
1061	 8.62780291178148E-02 
1062	 8.65155886221568E-02 
1063	 8.69873640781978E-02 
1064	 8.80145649611615E-02 
1065	 8.82420001414344E-02 
1066	 8.80455928902824E-02 
1067	 8.81054830237829E-02 
1068	 0.087577005373563 
1069	 8.75356126464925E-02 
1070	 8.84045649869632E-02 
1071	 8.85803192979571E-02 
1072	 8.84989402333912E-02 
1073	 8.82528603644517E-02 
1074	 8.80733562471873E-02 
1075	 8.75075404206989E-02 
1076	 8.72629715661823E-02 
1077	 0.087391379053957 
1078	 8.70865145889551E-02 
1079	 8.63952914655873E-02 
1080	 8.61668856785816E-02 
1081	 8.60307474058572E-02 
1082	 8.58366323895353E-02 
1083	 8.62191278278965E-02 
1084	 8.58980089637756E-02 
1085	 8.48060279518448E-02 
1086	 8.42113023020839E-02 
1087	 0.083538687203653 
1088	 8.29331850720912E-02 
1089	 0.082799193046093 
1090	 8.23627010623535E-02 
1091	 8.17438693413882E-02 
1092	 8.07634148478451E-02 
1093	 8.01290881438205E-02 
1094	 7.95147668218499E-02 
1095	 0.078944353425479 
1096	 7.84597991542852E-02 
1097	 7.80200024365734E-02 
1098	 7.77711974166756E-02 
1099	 7.71028384977828E-02 
1100	 7.63017712829841E-02 
1101	 7.55526282480395E-02 
1102	 7.40868368410302E-02 
1103	 7.32759558731752E-02 
1104	 7.30185375421537E-02 
1105	 0.072792924340936 
1106	 7.24522212029581E-02 
1107	 7.22124653894993E-02 
1108	 0.071769671971408 
1109	 0.071368520919237 
1110	 7.10115859782494E-02 
1111	 7.08899540099413E-02 
1112	 7.05559156193699E-02 
1113	 0.070218173641865 
1114	 6.93346324954046E-02 
1115	 6.70925350851392E-02 
1116	 0.066365424197047 
1117	 6.65733510795786E-02 
1118	 6.65328334721741E-02 
1119	 7.06054910680337E-02 
1120	 0.071122195836958 
1121	 6.84462279045572E-02 
1122	 6.01726269138074E-02 
1123	 5.44115370958439E-02 
1124	 5.70445873339917E-02 
1125	 5.93974788954062E-02 
1126	 6.22133570592192E-02 
1127	 6.17029191747116E-02 
1128	 5.42256163419174E-02 
1129	 5.18549113146791E-02 
1130	 5.20368503088441E-02 
1131	 5.04454543607407E-02 
1132	 0.049001023699716 
1133	 4.82876124701573E-02 
1134	 4.69610530610511E-02 
1135	 4.59201852529682E-02 
1136	 4.54573976267497E-02 
1137	 4.49822015218892E-02 
1138	 4.41992319886645E-02 
1139	 4.41202506825368E-02 
1140	 4.25937093556967E-02 
1141	 4.12683718494559E-02 
1142	 4.03817117058498E-02 
1143	 4.00233722123283E-02 
1144	 4.11100095346681E-02 
1145	 4.10320474257448E-02 
1146	 3.97584815520131E-02 
1147	 3.94040520723064E-02 
1148	 3.99167955243378E-02 
1149	 4.05447807738279E-02 
1150	 3.98761481417599E-02 
1151	 3.84146955965478E-02 
1152	 3.74779202219739E-02 
1153	 3.63225792712911E-02 
1154	 3.57908137470695E-02 
1155	 3.56394865761612E-02 
1156	 3.58153257680904E-02 
1157	 3.65184020707821E-02 
1158	 3.69637200060445E-02 
1159	 3.72042550749776E-02 
1160	 0.036965998640788 
1161	 3.63094277862468E-02 
1162	 3.59363245973339E-02 
1163	 3.59180706049936E-02 
1164	 3.64123659041366E-02 
1165	 3.66277322820561E-02 
1166	 3.61056902725914E-02 
1167	 3.59514215995811E-02 
1168	 3.61860985077973E-02 
1169	 3.60863464885842E-02 
1170	 3.62170200723269E-02 
1171	 3.62775529503281E-02 
1172	 3.58954376781481E-02 
1173	 3.58143257038065E-02 
1174	 3.60253672859286E-02 
1175	 3.62665543115006E-02 
1176	 3.57951818141526E-02 
1177	 3.58154103347484E-02 
1178	 3.60141791697413E-02 
1179	 3.56613873898355E-02 
1180	 3.57151403777172E-02 
1181	 3.58716474223369E-02 
1182	 3.54979972730752E-02 
1183	 3.52581219489874E-02 
1184	 3.55071780491842E-02 
1185	 3.54942898631424E-02 
1186	 3.50896284630234E-02 
1187	 3.52196275285013E-02 
1188	 3.55566359213772E-02 
1189	 3.55216999417591E-02 
1190	 3.55711459898127E-02 
1191	 3.54266185191794E-02 
1192	 3.53474947192489E-02 
1193	 3.48830637029296E-02 
1194	 3.50674339122094E-02 
1195	 3.52987543762281E-02 
1196	 3.51529333029594E-02 
1197	 0.035240046325155 
1198	 3.51345706257981E-02 
1199	 3.49987365791633E-02 
1200	 0.035171447224251 
1201	 3.49842153508092E-02 
1202	 3.48247765639967E-02 
1203	 3.49289944101632E-02 
1204	 3.49774100679736E-02 
1205	 3.51097949001131E-02 
1206	 0.035058680955462 
1207	 3.47981452359998E-02 
1208	 3.46769615048492E-02 
1209	 3.48525111504281E-02 
1210	 3.50038729741203E-02 
1211	 0.034925034605589 
1212	 3.48286629278887E-02 
1213	 3.47056562854362E-02 
1214	 3.47647123287807E-02 
1215	 0.034904064698763 
1216	 3.51092210980846E-02 
1217	 3.50539417338002E-02 
1218	 3.51375251994567E-02 
1219	 0.03513874831694 
1220	 3.48985401466343E-02 
1221	 3.50644339676573E-02 
1222	 3.53226569242273E-02 
1223	 3.52108682752756E-02 
1224	 3.50507126402052E-02 
1225	 3.51176715030084E-02 
1226	 3.52023255433757E-02 
1227	 3.50426417070015E-02 
1228	 3.50862100145406E-02 
1229	 3.54562695799924E-02 
1230	 3.55356004585858E-02 
1231	 3.53072380398376E-02 
1232	 3.52879997611199E-02 
1233	 3.53033660511183E-02 
1234	 3.51076516983342E-02 
1235	 3.50132211515982E-02 
1236	 3.52441497166131E-02 
1237	 3.52785319014461E-02 
1238	 0.035132075293243 
1239	 3.50165907173659E-02 
1240	 3.50582590942205E-02 
1241	 3.51266796286428E-02 
1242	 3.51174340457955E-02 
1243	 3.52634692456663E-02 
1244	 3.54257502323872E-02 
1245	 3.53559022656832E-02 
1246	 3.53336699196614E-02 
1247	 3.53536329072181E-02 
1248	 3.52118513986845E-02 
1249	 3.53376935230866E-02 
1250	 3.55199957304583E-02 
1251	 3.53509564550908E-02 
1252	 3.53417115105111E-02 
1253	 3.54030049028301E-02 
1254	 3.53484289350327E-02 
1255	 3.53373850727867E-02 
1256	 3.54127242103715E-02 
1257	 0.035712699405689 
1258	 0.035673218551084 
1259	 0.035381624999909 
1260	 3.53643755169233E-02 
1261	 3.52887862242693E-02 
1262	 3.51835208257358E-02 
1263	 0.035149472922857 
1264	 0.035497442240567 
1265	 3.53687129255251E-02 
1266	 3.48884832865457E-02 
1267	 3.48256508963135E-02 
1268	 3.48883599057762E-02 
1269	 0.034923570770539 
1270	 3.51927032076717E-02 
1271	 3.54434322349092E-02 
1272	 3.52638249054638E-02 
1273	 3.48918305871039E-02 
1274	 3.48696054397096E-02 
1275	 3.50005665750414E-02 
1276	 3.49081052623209E-02 
1277	 3.50674375115975E-02 
1278	 0.03524656814538 
1279	 3.50118033300983E-02 
1280	 0.034835895961804 
1281	 3.47375410353523E-02 
1282	 3.46379034704153E-02 
1283	 3.44720508393793E-02 
1284	 3.42550328189205E-02 
1285	 3.42592527250511E-02 
1286	 3.44677961953298E-02 
1287	 3.43439574315292E-02 
1288	 0.034084076138218 
1289	 3.41005870785247E-02 
1290	 0.034097321206066 
1291	 3.39515386204479E-02 
1292	 3.39381436309672E-02 
1293	 0.03395185739232 
1294	 3.36867988278169E-02 
1295	 3.34189973368861E-02 
1296	 3.32921324587096E-02 
1297	 3.32263298347601E-02 
1298	 3.31111233404584E-02 
1299	 0.032977599653606 
1300	 3.30367022217605E-02 
1301	 3.30149755796942E-02 
1302	 3.29736833119168E-02 
1303	 3.27331784668693E-02 
1304	 3.23335287227205E-02 
1305	 3.25391868641907E-02 
1306	 0.032453240497257 
1307	 3.22420459833773E-02 
1308	 0.031961531852976 
1309	 3.14026297002131E-02 
1310	 3.12715255521756E-02 
1311	 3.14993388728142E-02 
1312	 3.13635605921393E-02 
1313	 3.13798730638286E-02 
1314	 3.13850714157748E-02 
1315	 3.10260396721184E-02 
1316	 3.07169428750752E-02 
1317	 3.06013028568275E-02 
1318	 3.04699792108951E-02 
1319	 3.00618684423021E-02 
1320	 2.96890851400528E-02 
1321	 2.94441887843016E-02 
1322	 2.94665698647515E-02 
1323	 2.88835009128336E-02 
1324	 2.88281476229033E-02 
1325	 2.91668105055384E-02 
1326	 2.89962088082931E-02 
1327	 0.02882595413673 
1328	 2.86190158281831E-02 
1329	 2.78493159604647E-02 
1330	 2.73312903704849E-02 
1331	 2.76796607992761E-02 
1332	 2.82757692697481E-02 
1333	 2.83681036971657E-02 
1334	 2.80590398441691E-02 
1335	 0.028154992554696 
1336	 2.77536924213115E-02 
1337	 2.73210684324248E-02 
1338	 0.027382534537384 
1339	 2.73708096694745E-02 
1340	 2.66491373601357E-02 
1341	 2.61022433825894E-02 
1342	 2.61578194030007E-02 
1343	 2.59384709186737E-02 
1344	 2.47836525225209E-02 
1345	 2.41802421824056E-02 
1346	 2.42236899134306E-02 
1347	 0.024749311745537 
1348	 2.75433594101212E-02 
1349	 2.78260219250904E-02 
1350	 2.39095577076658E-02 
1351	 2.43588561678745E-02 
1352	 2.80350861061543E-02 
1353	 2.49570946827082E-02 
1354	 1.64269426242051E-02 
1355	 2.91443367253101E-02 
1356	 2.76971503189593E-02 
1357	-2.83250144666753E-02 
1358	-8.66148385671295E-02 
1359	-6.26675822842531E-02 
1360	-3.99255282989993E-02 
1361	-4.34891036041893E-02 
1362	 1.54905728406831E-02 
1363	 3.04893714434564E-02 
1364	-7.5767924784966E-03 
1365	-1.72652315573711E-02 
1366	-5.95786998059654E-03 
1367	-3.45854211549313E-02 
1368	-1.05824141261719E-02 
1369	-3.97028081103658E-02 
1370	 8.81679367309956E-03 
1371	 0.217454294376539 
1372	 0.260601116534427 
1373	 0.313852030850834 
1374	 0.253969490625515 
1375	-7.51511635466302E-02 
1376	-0.125024595347533 
1377	-0.16592260025343 
1378	-0.23045236245345 
1379	-9.63177905146519E-02 
1380	 0.11635651839891 
1381	 0.82054034020031 
1382	 0.669751974054008 
1383	 1.63180298775476E-02 
1384	-3.32881085972533E-02 
1385	-0.37804677351898 
1386	-0.526174779588911 
1387	-1.81355464874807E-02 
1388	 0.174061514723674 
1389	 5.8370372351266E-03 
1390	-8.85243664585687E-02 
1391	 5.73853168282408E-02 
1392	-0.173355280538587 
1393	-0.530475696927681 
1394	-0.190902844693144 
1395	 9.10946018551941E-02 
1396	 0.309938511650732 
1397	 0.533467059612347 
1398	 0.358651146361053 
1399	 0.187433553102378 
1400	 6.35834084013965E-02 
1401	 2.01574105950227E-02 
1402	 1.75562718898881E-02 
1403	 3.82486338721383E-02 
1404	 8.60974663431578E-02 
1405	 3.41498273714885E-02 
1406	-0.262701129456498 
1407	-0.312478347217786 
1408	-0.200702392598172 
1409	-0.241297809638884 
1410	-0.359169690665398 
1411	-0.277720990071556 
1412	-0.132865317995714 
1413	-0.123472374476286 
1414	-8.45525641111465E-02 
1415	-6.36986747022979E-02 
1416	-0.163970950687336 
1417	-0.127417804023748 
1418	 2.78603549432343E-02 
1419	 2.77616744584497E-02 
1420	-2.00163655626134E-02 
1421	-7.46346500295755E-03 
1422	-8.02116026639467E-03 
1423	-1.11357931008541E-02 
1424	 5.60987939525452E-03 
1425	 9.55183741461963E-03 
1426	-9.3576228284882E-03 
1427	-6.31989519053515E-03 
1428	 2.07491766192962E-02 
1429	 2.16846222470174E-02 
1430	 1.13520569994038E-02 
1431	 0.00833629883275 
1432	-2.93363058488701E-03 
1433	-7.91721184981454E-03 
1434	-6.25899606194349E-03 
1435	-6.0719321388563E-03 
1436	-4.11698825362031E-03 
1437	-5.12495903385303E-03 
1438	-1.21606640205767E-02 
1439	 2.0316347174204E-03 
1440	 9.93078713393886E-03 
1441	 3.61419462016698E-03 
1442	-2.15353076580922E-04 
1443	-5.8685348068726E-03 
1444	-4.9765985243164E-03 
1445	-1.72729049320998E-03 
1446	 2.24619639517517E-04 
1447	 3.58146363197079E-03 
1448	 5.14458106987426E-03 
1449	 5.00896003593416E-03 
1450	 5.58824188184304E-03 
1451	 6.55951700242157E-03 
1452	 6.31623102279416E-03 
1453	 7.43237550687401E-03 
1454	 6.79034906196217E-03 
1455	 5.0286808822627E-03 
1456	 5.43655724971105E-03 
1457	 6.19287993275104E-03 
1458	 5.96029892386129E-03 
1459	 6.90941059718376E-03 
1460	 7.01301543953143E-03 
1461	 5.79019008142664E-03 
1462	 5.05849372567613E-03 
1463	 4.01226114840816E-03 
1464	 3.95457438205194E-03 
1465	 4.37294872620566E-03 
1466	 4.01298559282935E-03 
1467	 4.04193855564837E-03 
1468	 5.24175192659457E-03 
1469	 6.45364276420192E-03 
1470	 6.65881425811325E-03 
1471	 8.20442748217402E-03 
1472	 8.75587498486217E-03 
1473	 6.35234866047203E-03 
1474	 6.59723690825112E-03 
1475	 9.32194571494516E-03 
1476	 9.81551440878986E-03 
1477	 1.00324323017133E-02 
1478	 9.56192483174649E-03 
1479	 7.2849033477217E-03 
1480	 7.16255452965755E-03 
1481	 8.79508717786139E-03 
1482	 7.98629600932766E-03 
1483	 5.86928424543322E-03 
1484	 6.01307559023672E-03 
1485	 6.54979308697561E-03 
1486	 6.04375843862008E-03 
1487	 6.08568837594534E-03 
1488	 6.6842043773472E-03 
1489	 6.82042450088455E-03 
1490	 6.3706637881432E-03 
1491	 5.87515831983775E-03 
1492	 6.52032765720544E-03 
1493	 7.46506050543777E-03 
1494	 7.44469728987718E-03 
1495	 7.87253990117492E-03 
1496	 8.22870983130708E-03 
1497	 7.43129062161365E-03 
1498	 0.007195991087324 
1499	 7.8337755118312E-03 
1500	 8.10596609862589E-03 
1501	 8.04609605922984E-03 
1502	 8.19927912784195E-03 
1503	 8.58866669245333E-03 
1504	 8.69879774846441E-03 
1505	 8.4902238334584E-03 
1506	 8.66239275733136E-03 
1507	 8.59714440099919E-03 
1508	 8.43434322367217E-03 
1509	 8.44244800103119E-03 
1510	 8.41826813782089E-03 
1511	 8.4464435021154E-03 
1512	 8.67745276464679E-03 
1513	 8.96850062536259E-03 
1514	 9.04981133964263E-03 
1515	 9.05156579613506E-03 
1516	 9.27245548324152E-03 
1517	 9.3117666218283E-03 
1518	 9.16519119068079E-03 
1519	 9.45919662833842E-03 
1520	 9.68714966916486E-03 
1521	 9.66715658974833E-03 
1522	 9.82335845807134E-03 
1523	 9.82265707809967E-03 
1524	 9.87790249735264E-03 
1525	 1.01403966994066E-02 
1526	 1.02822963580026E-02 
1527	 1.03598846566458E-02 
1528	 1.03060303849166E-02 
1529	 1.03251004388252E-02 
1530	 1.06264945290235E-02 
1531	 0.010635859157836 
1532	 1.04369496534292E-02 
1533	 1.06410353110881E-02 
1534	 1.09246834639612E-02 
1535	 1.11853094900092E-02 
1536	 1.13642862312407E-02 
1537	 0.011027458400301 
1538	 1.07510655090497E-02 
1539	 1.09474488684359E-02 
1540	 1.12592671600989E-02 
1541	 1.15585871224375E-02 
1542	 1.16898725310573E-02 
1543	 1.16387192618317E-02 
1544	 1.16109601264874E-02 
1545	 1.16491842407468E-02 
1546	 1.18226649359769E-02 
1547	 1.19069952162212E-02 
1548	 1.18831586700108E-02 
1549	 1.21595772811258E-02 
1550	 1.22629932088623E-02 
1551	 1.20903287078515E-02 
1552	 1.22066606819837E-02 
1553	 1.23831569645189E-02 
1554	 1.24174685474957E-02 
1555	 1.24893157359681E-02 
1556	 1.25802388833209E-02 
1557	 1.26424105648686E-02 
1558	 1.27595872152598E-02 
1559	 0.012822305919403 
1560	 1.28256224654904E-02 
1561	 1.29500933608381E-02 
1562	 1.29939084390175E-02 
1563	 1.28752969568176E-02 
1564	 1.30229964437132E-02 
1565	 1.32718666058495E-02 
1566	 1.31617533902075E-02 
1567	 1.33000848832716E-02 
1568	 1.36723101776408E-02 
1569	 1.34270077229984E-02 
1570	 0.013296958221799 
1571	 1.36643036833433E-02 
1572	 1.36749695383068E-02 
1573	 1.36005437939263E-02 
1574	 1.37961269628258E-02 
1575	 1.39921400954665E-02 
1576	 1.40579082943661E-02 
1577	 1.40250236119433E-02 
1578	 0.014274502017834 
1579	 1.46052966364317E-02 
1580	 1.46139512137555E-02 
1581	 1.46824029745643E-02 
1582	 1.47865543732135E-02 
1583	 1.46468170962583E-02 
1584	 1.45737790656847E-02 
1585	 0.014677950072684 
1586	 1.48736539543771E-02 
1587	 1.50213860998858E-02 
1588	 1.48707801521919E-02 
1589	 1.47976305974554E-02 
1590	 0.014924135219157 
1591	 1.49298493931503E-02 
1592	 1.49574455172195E-02 
1593	 1.50208844507768E-02 
1594	 1.50328932808415E-02 
1595	 1.49527002687028E-02 
1596	 1.49365347056143E-02 
1597	 1.51858802742159E-02 
1598	 0.01530712649781 
1599	 0.015355338891711 
1600	 1.56271700347746E-02 
1601	 1.56825514344131E-02 
1602	 1.54714173796586E-02 
1603	 1.55533493295437E-02 
1604	 1.56945573851168E-02 
1605	 1.56168460925694E-02 
1606	 1.57352754251744E-02 
1607	 1.57324330938663E-02 
1608	 1.55313535077372E-02 
1609	 1.55747288995892E-02 
1610	 1.57633572403476E-02 
1611	 1.59018393666899E-02 
1612	 1.59692601711202E-02 
1613	 1.61276645472847E-02 
1614	 1.62441224394156E-02 
1615	 1.62554012600182E-02 
1616	 1.62549372069452E-02 
1617	 1.61686211915059E-02 
1618	 1.62097612616622E-02 
1619	 1.64484207494296E-02 
1620	 1.65311359037548E-02 
1621	 1.64118214912656E-02 
1622	 1.62755781662511E-02 
1623	 1.62052089246464E-02 
1624	 1.62121393258538E-02 
1625	 1.62496800319402E-02 
1626	 1.62885720751052E-02 
1627	 1.61438128256075E-02 
1628	 1.61001384667279E-02 
1629	 1.64316794136412E-02 
1630	 1.66505904634421E-02 
1631	 1.65399141985995E-02 
1632	 1.64602026704298E-02 
1633	 1.67860869269013E-02 
1634	 1.69054333062696E-02 
1635	 1.66939340671516E-02 
1636	 1.70155407081222E-02 
1637	 0.017113239727396 
1638	 1.66856660822056E-02 
1639	 1.66657880802799E-02 
1640	 1.66972512008649E-02 
1641	 1.64416208928801E-02 
1642	 1.64779420301239E-02 
1643	 1.70259783285448E-02 
1644	 0.017333840732894 
1645	 1.71801012294162E-02 
1646	 1.71157186724772E-02 
1647	 1.69548852092389E-02 
1648	 1.68096191173435E-02 
1649	 0.016915328602138 
1650	 1.71686359683226E-02 
1651	 1.74657952964856E-02 
1652	 1.75254217459664E-02 
1653	 1.75268753473344E-02 
1654	 1.74770942416144E-02 
1655	 1.73010829472215E-02 
1656	 1.73382922260389E-02 
1657	 1.75779296863022E-02 
1658	 1.74830621368812E-02 
1659	 0.017124185402954 
1660	 1.71101866489946E-02 
1661	 1.71880845053709E-02 
1662	 1.71047895367043E-02 
1663	 1.71695961950018E-02 
1664	 1.71577642304109E-02 
1665	 1.68694059627486E-02 
1666	 1.68047786190772E-02 
1667	 0.01692774632936 
1668	 1.72119137182638E-02 
1669	 1.72828323998682E-02 
1670	 1.69913512861279E-02 
1671	 1.71440230428028E-02 
1672	 1.75701678377008E-02 
1673	 1.73664009359936E-02 
1674	 1.70752318249955E-02 
1675	 0.017255595636989 
1676	 1.72426385621188E-02 
1677	 0.017140437559353 
1678	 1.73073572322917E-02 
1679	 1.73741496805529E-02 
1680	 1.71913927895484E-02 
1681	 1.71046519648419E-02 
1682	 1.72302639614664E-02 
1683	 0.017242444231902 
1684	 1.72972843996182E-02 
1685	 1.72417589766552E-02 
1686	 1.71175675412609E-02 
1687	 1.75634480567995E-02 
1688	 1.76928268730189E-02 
1689	 1.72353312419192E-02 
1690	 1.72081042278503E-02 
1691	 1.73304667777083E-02 
1692	 1.74421481536113E-02 
1693	 1.79062969305474E-02 
1694	 1.79753180293103E-02 
1695	 1.75291916710856E-02 
1696	 1.73378873249913E-02 
1697	 1.71820184648656E-02 
1698	 1.69713302735149E-02 
1699	 1.68707131001861E-02 
1700	 1.69086288482651E-02 
1701	 1.71844236832826E-02 
1702	 1.75291716477238E-02 
1703	 1.77338919628852E-02 
1704	 1.76931572582622E-02 
1705	 1.75155893668692E-02 
1706	 1.72731463419138E-02 
1707	 1.69312054807042E-02 
1708	 1.67470896169464E-02 
1709	 1.67968255483911E-02 
1710	 1.69097625672113E-02 
1711	 1.74697205720513E-02 
1712	 1.75113467037042E-02 
1713	 1.66118306804006E-02 
1714	 1.66179704464635E-02 
1715	 1.68496682190589E-02 
1716	 1.68149883595183E-02 
1717	 1.69381283765918E-02 
1718	 1.68672328476353E-02 
1719	 0.016072053264185 
1720	 0.015809299363765 
1721	 1.66721454504374E-02 
1722	 1.68428682212057E-02 
1723	 1.66903961135913E-02 
1724	 1.68901077923915E-02 
1725	 1.63679426898309E-02 
1726	 1.60560853461785E-02 
1727	 1.65881604248776E-02 
1728	 1.66656913363404E-02 
1729	 1.63446986097284E-02 
1730	 1.62578220661252E-02 
1731	 1.61057875442289E-02 
1732	 1.58669151956722E-02 
1733	 1.60710942048634E-02 
1734	 1.65640180177877E-02 
1735	 1.68400853398989E-02 
1736	 1.66310443689287E-02 
1737	 1.60585555512922E-02 
1738	 1.57533252465682E-02 
1739	 0.015475131122978 
1740	 1.55050134184322E-02 
1741	 0.016012412968273 
1742	 1.60976296417806E-02 
1743	 1.58580061572794E-02 
1744	 0.015441251130555 
1745	 1.54846278103475E-02 
1746	 0.014918779611947 
1747	 1.45595685908855E-02 
1748	 1.48275412158471E-02 
1749	 1.48665055749306E-02 
1750	 1.47521974280894E-02 
1751	 1.48547559851683E-02 
1752	 1.51561284787514E-02 
1753	 1.49684408911947E-02 
1754	 0.014677627826964 
1755	 1.46491530358765E-02 
1756	 0.014399469966501 
1757	 1.45756918492149E-02 
1758	 1.39530883370973E-02 
1759	 1.35001348166369E-02 
1760	 0.014142418418027 
1761	 1.48319808634515E-02 
1762	 0.015746326149413 
1763	 1.55947294929895E-02 
1764	 1.43236283103358E-02 
1765	 1.30921054553882E-02 
1766	 1.23142633842457E-02 
1767	 1.33463170038758E-02 
1768	 1.43321774113337E-02 
1769	 1.40880354669241E-02 
1770	 1.36847836149338E-02 
1771	 1.21556501362057E-02 
1772	 1.15343700628655E-02 
1773	 0.013265191925053 
1774	 1.37456435402128E-02 
1775	 1.20865997928326E-02 
1776	 1.19090089130437E-02 
1777	 1.13069636176442E-02 
1778	 1.14033078572443E-02 
1779	 1.42779829465257E-02 
1780	 1.50692264345336E-02 
1781	 0.014473464406332 
1782	 1.39295744056757E-02 
1783	 1.18608468133823E-02 
1784	 1.14805028670106E-02 
1785	 1.21618015598854E-02 
1786	 1.12516340839008E-02 
1787	 1.00293547442782E-02 
1788	 9.65036622101024E-03 
1789	 8.10082361697867E-03 
1790	 8.85699217728148E-03 
1791	 1.31687713383772E-02 
1792	 1.65014775774117E-02 
1793	 1.63653990354856E-02 
1794	 1.57192794484518E-02 
1795	 1.01880458132593E-02 
1796	 6.66516973520653E-03 
1797	 7.20558352235969E-03 
1798	 9.46408699734687E-03 
1799	 1.75846229147936E-02 
1800	 1.15726670322866E-02 
1801	 1.18098369710014E-02 
1802	 2.13538866975364E-02 
1803	 1.84699345178516E-02 
1804	 2.56881632336817E-03 
1805	 1.16947738845066E-03 
1806	-3.2109238448674E-03 
1807	-6.62669342690854E-03 
1808	 4.42739038623317E-02 
1809	 4.19215265220775E-02 
1810	-9.45844515876456E-02 
1811	-0.158643640092839 
1812	-0.173880721279994 
1813	-0.153250561938652 
1814	 8.17912179252358E-02 
1815	 9.77208793221867E-02 
1816	 2.29320769231622E-02 
1817	-0.109078361412958 
1818	-0.363730391033896 
1819	-0.178524295684405 
1820	-2.43799563574618E-02 
1821	 0.38850148800795 
1822	 0.583779438702511 
1823	-3.25032958606522E-02 
1824	-4.79746944848671E-02 
1825	 0.153163200091155 
1826	 0.246787287861724 
1827	 1.26417110457194 
1828	 3.2547806736896 
1829	 3.26280119001577 
1830	 1.32094542557812 
1831	-1.96803475379745 
1832	-1.42471124591538 
1833	-0.782578547203986 
1834	-0.536118859381272 
1835	-4.96806962148308E-02 
1836	 0.225516949671164 
1837	 0.961356757786511 
1838	 1.59345792345105 
1839	 2.70589764934556 
1840	 1.12259098915378 
1841	 6.86588726576849 
1842	-0.990313412163287 
1843	-0.217030146610924 
1844	 2.62603404897473 
1845	 3.90015525278463 
1846	-1.36330064893073 
1847	-1.11231324615135 
1848	-1.29595872053464 
1849	-2.09474002387187 
1850	-1.22927204001327 
1851	 6.16939121974815 
1852	 0.808410361640124 
1853	-7.70740499740065 
1854	 50.6268364800528 
1855	-0.510007234998374 
1856	-2.12433490190792 
1857	-1.34269506160768 
1858	-1.20321047967304 
1859	-1.70318362244057 
1860	 58.7436851362068 
1861	-2.6172594636392 
1862	-1.20076945216133 
1863	-0.369377231931981 
1864	 3.72891567355324 
1865	 2.08696989791659 
1866	 0.585255106759778 
1867	 0.476045517274567 
1868	-1.64405556734759E-02 
1869	-0.373813067688873 
1870	-1.67738312153969 
1871	-2.15458299240749 
1872	-7.81367604650265E-02 
1873	 9.41404171341251E-03 
1874	 0.272102157974189 
1875	 0.700279436513229 
1876	 1.20082149154551 
1877	 1.06322356345793 
1878	 0.576078791541616 
1879	-0.90602033865453 
1880	-1.24205075027802 
1881	-1.93718156199493 
1882	-1.81796569461378 
1883	-1.38652237828682 
1884	-1.11709268343766 
1885	-0.206786062126994 
1886	 0.620416073064205 
1887	 1.66607675488083 
1888	 2.11057776898235 
1889	 2.12164960362428 
1890	 1.02652662101103 
1891	 0.656872453644248 
1892	-0.26608655998128 
1893	-0.405030913466408 
1894	 5.64137924695359E-02 
1895	 0.661363315895938 
1896	 1.50957033928535 
1897	 1.98600196500266 
1898	-2.81775548942813E-02 
1899	 1.70647076479941 
1900	 0.572356029506963 
1901	 0.752855314373739 
1902	 0.84165049963199 
1903	 0.595708195994653 
1904	-0.195391190356386 
1905	-2.5285911692717 
1906	-0.398986758287793 
1907	-0.207492989400449 
1908	-4.24224535385849E-02 
1909	 5.41904266581842 
1910	-1.51149549205342 
1911	-1.26081965425028 
1912	-7.13859242543095 
1913	 18.1715026724846 
1914	 0.294262748330005 
1915	-0.261108430827069 
1916	-0.522948668325206 
1917	-0.48872907466753 
1918	-0.658885534525759 
1919	 0.212673001097052 
1920	 0.11778105580332 
1921	 1.61511748195006 
1922	 0.574539297282771 
1923	 4.40932816963319 
1924	 0.956424358776372 
1925	-0.898680548611137 
1926	-2.40892743767323 
1927	-4.84693821585892 
1928	 41.8137785769892 
1929	-86.5344990760611 
1930	 28.6484515480329 
1931	 13.3947648946611 
1932	 1.26157077096922 
1933	 1.17098522601184 
1934	 1.16977000921538 
1935	 0.178009837934798 
1936	-0.301085710843696 
1937	-0.418262011683046 
1938	-0.287077125874052 
1939	-0.108773324060093 
1940	 9.65430465452824E-02 
1941	 0.110153263622471 
1942	 0.190691614288528 
1943	 0.183860492337341 
1944	 0.04284055457747 
1945	 5.47454507548063E-04 
1946	 7.03299041481987E-03 
1947	-5.82942216058832E-02 
1948	-0.103152222190108 
1949	-7.05175708161795E-02 
1950	-5.79474415663112E-02 
1951	-6.09340099448392E-02 
1952	-3.91847989015157E-02 
1953	 2.59096689073383E-02 
1954	 0.026606078529063 
1955	 7.37582031466175E-03 
1956	 3.43291804926245E-02 
1957	 3.37742953812621E-02 
1958	 3.16389232657042E-02 
1959	 3.23249481722429E-02 
1960	 1.97784260770162E-02 
1961	 2.20582624860412E-03 
1962	-1.06011432495481E-02 
1963	-1.02263661251981E-02 
1964	-1.79954198985074E-03 
1965	 3.1293176975225E-03 
1966	 4.86947438907555E-03 
1967	 7.86161740582637E-03 
1968	 7.56687955107361E-03 
1969	 5.36737307743271E-03 
1970	 5.47825896231561E-03 
1971	 5.93554357970209E-03 
1972	 4.73698943052023E-03 
1973	 1.54937867512856E-03 
1974	 1.20699241052214E-03 
1975	 2.43630968671089E-03 
1976	 6.71290376283387E-04 
1977	-8.80197503290508E-05 
1978	-1.33452270741752E-04 
1979	 3.04688093563257E-04 
1980	 5.89768750771854E-04 
1981	 2.93904719724779E-03 
1982	 3.44587085236783E-03 
1983	 2.18017208062253E-03 
1984	 1.76693723633683E-03 
1985	 2.1725910189666E-03 
1986	 2.70854326043464E-03 
1987	 3.04037432480808E-03 
1988	 2.33393789110803E-03 
1989	 1.10486437885451E-03 
1990	 8.68721967767789E-04 
1991	 1.87053168198844E-03 
1992	 2.20486252802497E-03 
1993	 2.04449573958811E-03 
1994	 2.39995670381109E-03 
1995	 3.4823826182943E-03 
1996	 2.77985722082715E-03 
1997	 1.08386278449798E-03 
1998	 1.89741679290951E-03 
1999	 1.99249401853648E-03 
2000	 7.5370928845247E-04 
2001	 2.68428349882131E-03 
2002	 3.18755848104063E-03 
2003	 1.78511637877375E-03 
2004	 3.22721786945557E-03 
2005	 3.06794661429189E-03 
2006	 7.53420878393584E-04 
2007	-5.2359313982365E-04 
2008	 1.98824554629023E-03 
2009	 3.07828338480483E-03 
2010	 7.20675255084896E-03 
2011	 8.88892558381177E-03 
2012	 9.72217460241897E-03 
2013	 6.54333186340511E-03 
2014	 5.00198248896075E-03 
2015	 4.27543692206259E-03 
2016	 4.54666086085513E-03 
2017	 6.16431350572282E-03 
2018	 5.94847588245497E-03 
2019	 5.81498588146464E-03 
2020	 4.71073448711871E-03 
2021	 1.55045859560441E-03 
2022	 1.60688546403855E-04 
2023	-1.21521781886698E-04 
2024	 4.24173290066178E-04 
2025	 2.56094710519254E-03 
2026	 3.25358468098598E-03 
2027	 4.02228428722857E-03 
2028	 4.11436498278981E-03 
2029	 4.02770849901923E-03 
2030	 3.22023589315915E-03 
2031	 3.25185621875553E-03 
2032	 4.39122735620858E-03 
2033	 4.8630395340695E-03 
2034	 4.41131947107843E-03 
2035	 3.97963296912572E-03 
2036	 3.88286101170116E-03 
2037	 3.41959154367198E-03 
2038	 3.00707778920509E-03 
2039	 2.79252485694144E-03 
2040	 2.65483665024647E-03 
2041	 2.36016854316835E-03 
2042	 2.03119637932871E-03 
2043	 1.87830413181834E-03 
2044	 1.88070059108566E-03 
2045	 1.53955423993571E-03 
2046	 1.27466441259117E-03 
2047	 2.31206537751015E-03 
2048	 2.72069010450042E-03 
2049	 2.27131208353178E-03 
2050	 2.4274340366313E-03 
2051	 2.24175610455455E-03 
2052	 2.6734197832906E-03 
2053	 3.51009401005431E-03 
2054	 3.62627713991681E-03 
2055	 3.41104569690685E-03 
2056	 3.61217029184505E-03 
2057	 4.27291954736727E-03 
2058	 4.48807628087361E-03 
2059	 4.54304133070002E-03 
2060	 4.34330990691662E-03 
2061	 3.91679694419823E-03 
2062	 2.4462642822519E-03 
2063	 2.07782029443852E-03 
2064	 3.28714644304094E-03 
2065	 4.11849647817549E-03 
2066	 5.0553010676755E-03 
2067	 4.9476295735772E-03 
2068	 4.30991196692531E-03 
2069	 4.94184172056247E-03 
2070	 5.39993434172069E-03 
2071	 4.93085782717815E-03 
2072	 5.51660763887245E-03 
2073	 5.94713748816763E-03 
2074	 5.79605089816827E-03 
2075	 5.55783367583435E-03 
2076	 5.80382915267677E-03 
2077	 5.6458104255236E-03 
2078	 4.74558038029364E-03 
2079	 4.55535386794914E-03 
2080	 4.81401703960383E-03 
2081	 5.00805391425747E-03 
2082	 4.90869800117217E-03 
2083	 4.8792482682815E-03 
2084	 4.67331321247106E-03 
2085	 4.90140059457073E-03 
2086	 5.06434087819695E-03 
2087	 5.27039472120591E-03 
2088	 6.36700034758874E-03 
2089	 6.61877665978359E-03 
2090	 5.85031736247141E-03 
2091	 5.4578161303074E-03 
2092	 5.14245176175983E-03 
2093	 4.04365012643149E-03 
2094	 3.4910578629445E-03 
2095	 3.73162415342911E-03 
2096	 3.71184994495184E-03 
2097	 3.32076764135571E-03 
2098	 3.22719241413346E-03 
2099	 3.5528828350146E-03 
2100	 3.72857900925744E-03 
2101	 3.88713925238475E-03 
2102	 4.30871986455185E-03 
2103	 4.78502747172411E-03 
2104	 4.54664965442297E-03 
2105	 4.28320628420495E-03 
2106	 4.29334901360134E-03 
2107	 3.96332826274416E-03 
2108	 4.54622030451356E-03 
2109	 5.60450410749128E-03 
2110	 6.06552071067862E-03 
2111	 5.99055385919885E-03 
2112	 5.8185175888085E-03 
2113	 5.87246786112917E-03 
2114	 5.35866980605599E-03 
2115	 5.15670049519151E-03 
2116	 5.48920600421403E-03 
2117	 0.00580038034855 
2118	 6.2223188808056E-03 
2119	 6.17014357887275E-03 
2120	 6.36902103557081E-03 
2121	 5.72346921643843E-03 
2122	 5.09688879178372E-03 
2123	 4.7664137834732E-03 
2124	 4.81306371270464E-03 
2125	 5.90077500963832E-03 
2126	 6.53912453369268E-03 
2127	 6.3468079002625E-03 
2128	 6.02066440222179E-03 
2129	 6.18695067952473E-03 
2130	 6.24187984449975E-03 
2131	 5.1482027031302E-03 
2132	 4.54808129843362E-03 
2133	 4.77969880807736E-03 
2134	 4.99200294374641E-03 
2135	 6.00939296158277E-03 
2136	 6.34726978857944E-03 
2137	 6.3105123709607E-03 
2138	 6.14049501417997E-03 
2139	 5.05548849139081E-03 
2140	 5.33649314022811E-03 
2141	 6.82392627779343E-03 
2142	 7.41897171489029E-03 
2143	 8.12359813524605E-03 
2144	 9.27435427403716E-03 
2145	 8.68999572791209E-03 
2146	 7.92183521659438E-03 
2147	 8.18959046051442E-03 
2148	 7.24195991911115E-03 
2149	 6.49874687415172E-03 
2150	 6.47716938906233E-03 
2151	 7.17793518603173E-03 
2152	 7.72732338191769E-03 
2153	 6.60337591340523E-03 
2154	 6.66780866213586E-03 
2155	 6.68058056756308E-03 
2156	 5.69426463656681E-03 
2157	 5.81461554196314E-03 
2158	 7.97996921219729E-03 
2159	 7.78291556883154E-03 
2160	 5.81230667045412E-03 
2161	 5.99199171574431E-03 
2162	 6.8199380220093E-03 
2163	 6.80078162457244E-03 
2164	 7.84420828159042E-03 
2165	 8.12115479836477E-03 
2166	 6.77353068106257E-03 
2167	 5.84223448523412E-03 
2168	 4.84017838164954E-03 
2169	 4.7939379981846E-03 
2170	 4.90913270284062E-03 
2171	 5.5567208277578E-03 
2172	 6.06327563183077E-03 
2173	 6.83400967415272E-03 
2174	 6.54366467236946E-03 
2175	 5.85539181537356E-03 
2176	 6.19557017458799E-03 
2177	 6.04946663015911E-03 
2178	 5.42263099730407E-03 
2179	 0.005246603590128 
2180	 4.68298480863316E-03 
2181	 4.18819695558911E-03 
2182	 4.52334954510123E-03 
2183	 4.08731516210821E-03 
2184	 4.73946057989515E-03 
2185	 6.05655106554487E-03 
2186	 6.37205257136817E-03 
2187	 6.04161464348043E-03 
2188	 6.14991376047678E-03 
2189	 5.82529380440377E-03 
2190	 5.74053927828905E-03 
2191	 6.07968184341709E-03 
2192	 5.95661117405848E-03 
2193	 0.005083827263042 
2194	 5.32945271323352E-03 
2195	 6.87428233074923E-03 
2196	 6.65118887885871E-03 
2197	 6.03205419912052E-03 
2198	 5.41719670311096E-03 
2199	 2.68385629762459E-03 
2200	 2.05845801410515E-03 
2201	 2.91324663591868E-03 
2202	 3.13107703851334E-03 
2203	 4.60712809414033E-03 
2204	 5.22796114277933E-03 
2205	 4.6608610930958E-03 
2206	 6.4944633135803E-03 
2207	 8.49853606644757E-03 
2208	 7.87782965054008E-03 
2209	 8.35708984336203E-03 
2210	 8.44694499058635E-03 
2211	 6.68608338266992E-03 
2212	 6.96119317932504E-03 
2213	 7.45017307998172E-03 
2214	 6.66329187019271E-03 
2215	 6.0506718648925E-03 
2216	 5.58185573465287E-03 
2217	 5.83120445740977E-03 
2218	 6.82256497937585E-03 
2219	 6.71843438599186E-03 
2220	 6.37574661166495E-03 
2221	 6.49672657611736E-03 
2222	 6.20265208577522E-03 
2223	 5.78426616540253E-03 
2224	 6.52118054855104E-03 
2225	 5.91921714067345E-03 
2226	 2.80388803692502E-03 
2227	 2.26645134468301E-03 
2228	 2.71742599950088E-03 
2229	 3.6001582225786E-03 
2230	 6.61768867114706E-03 
2231	 8.17077411847115E-03 
2232	 9.61481298210229E-03 
2233	 9.84396099576838E-03 
2234	 9.21732386786677E-03 
2235	 7.72213926170544E-03 
2236	 6.40356197112594E-03 
2237	 7.80523147753167E-03 
2238	 9.21208042319888E-03 
2239	 9.86691548529549E-03 
2240	 8.66320562022886E-03 
2241	 5.07267329427964E-03 
2242	 4.44981889888969E-03 
2243	 4.06883774374575E-03 
2244	 3.25012237263414E-03 
2245	 6.06382648190412E-03 
2246	 6.37402197506936E-03 
2247	 4.10227350585567E-03 
2248	 4.83299405287449E-03 
2249	 6.49282517907063E-03 
2250	 7.53875017211384E-03 
2251	 8.88701961449458E-03 
2252	 1.10979660306736E-02 
2253	 1.13191346991933E-02 
2254	 6.86824891337526E-03 
2255	 4.69406692326425E-03 
2256	 4.36624716274714E-03 
2257	 1.89906625633262E-03 
2258	 3.76964952223429E-03 
2259	 6.23692574064206E-03 
2260	 6.3825689768589E-03 
2261	 4.11119733950924E-03 
2262	 3.57753530332561E-03 
2263	 2.41403150496476E-03 
2264	 2.53205587889922E-03 
2265	 4.43606860027375E-03 
2266	 4.13040941570451E-03 
2267	 3.21500045171399E-03 
2268	 2.69773540058732E-03 
2269	 1.40719412693444E-05 
2270	 1.90553308936774E-04 
2271	 3.6753286654172E-03 
2272	 3.6200769832324E-03 
2273	 3.16554562112429E-03 
2274	 2.74022884887402E-03 
2275	-8.60234756137281E-04 
2276	-1.57754992825512E-03 
2277	-8.00251262498063E-04 
2278	 5.27332994387975E-04 
2279	 5.49238582295129E-03 
2280	 5.88378246379608E-03 
2281	 3.74418167683764E-03 
2282	 3.1510066903376E-03 
2283	 2.5992028895393E-03 
2284	 2.10367812342398E-03 
2285	 3.84976609697976E-03 
2286	 5.35006509545189E-03 
2287	 3.96428481799652E-03 
2288	 1.26680738467361E-03 
2289	 1.20169561087871E-03 
2290	 1.91781852402558E-03 
2291	 1.2699145294275E-03 
2292	 5.24250250117259E-04 
2293	-7.79634205189219E-04 
2294	-1.27228599860448E-03 
2295	 6.46198351038703E-05 
2296	 1.32501365383106E-03 
2297	 2.25815504801553E-03 
2298	 1.21618199880201E-03 
2299	-1.1239791910744E-03 
2300	 3.83597664671636E-04 
2301	 0.004063425242397 
2302	 6.11834855228919E-03 
2303	 0.004440742630316 
2304	 1.88860398139787E-04 
2305	-8.32440474109564E-04 
2306	 4.41217981389105E-04 
2307	 2.68716820999733E-03 
2308	 0.006105709837615 
2309	 4.48210749181533E-03 
2310	 2.06307958801908E-05 
2311	 3.57308519971472E-04 
2312	 1.40161474529297E-04 
2313	-5.94137922740876E-04 
2314	 2.14317768895928E-03 
2315	 4.9304155719576E-03 
2316	 7.35990980673146E-03 
2317	 7.17805406781686E-03 
2318	 7.1051050296688E-03 
2319	 0.004622589061962 
2320	 7.6210575792598E-04 
2321	 6.97361257523107E-03 
2322	 8.42344322320442E-03 
2323	 2.66220576859941E-03 
2324	 5.51781312855758E-03 
2325	 5.03926031543302E-03 
2326	-2.52262150803035E-03 
2327	-5.62548003760561E-03 
2328	-9.1780425433281E-03 
2329	-0.015072558201586 
2330	-1.56462904243148E-02 
2331	-1.12092414613101E-02 
2332	-8.97645574128007E-03 
2333	-8.92809342636126E-03 
2334	-5.66791076141289E-03 
2335	-1.2357702486465E-03 
2336	 2.82826989402973E-03 
2337	 3.45462944003023E-03 
2338	 3.70036798534435E-04 
2339	-2.74262789641506E-03 
2340	-7.3312782020186E-03 
2341	-1.77693849348012E-03 
2342	 8.77792510354108E-03 
2343	 5.91048068137813E-03 
2344	 9.70271395242576E-04 
2345	-1.66963050016754E-03 
2346	 3.33963491878384E-03 
2347	 0.017883245535177 
2348	 2.48520197008445E-02 
2349	 2.10118393723337E-02 
2350	 4.92527133687827E-03 
2351	-5.75654262427728E-03 
2352	 6.81969552504283E-03 
2353	 2.46247169383362E-02 
2354	 2.42749379242331E-02 
2355	 7.01490630826569E-03 
2356	-6.82225445110779E-03 
2357	-1.22376240519062E-02 
2358	-9.21376889505601E-03 
2359	-3.52646125171902E-03 
2360	-8.6955406853576E-03 
2361	-1.10353351980073E-02 
2362	-6.72153389852212E-03 
2363	-7.93546482501972E-03 
2364	 3.29678191486953E-03 
2365	 6.22029232754343E-04 
2366	-0.020837037411139 
2367	-1.49295422956853E-02 
2368	-7.0118245965874E-03 
2369	-3.15731693939114E-03 
2370	 3.81636862664539E-03 
2371	 0.002420749540185 
2372	-1.33561540497887E-03 
2373	-9.81093605642626E-03 
2374	-1.08957999023198E-02 
2375	-2.09311576845047E-02 
2376	-4.15532728496057E-02 
2377	-4.12245605563109E-02 
2378	-2.96488734429845E-02 
2379	-2.42445685975653E-02 
2380	-0.022627538660234 
2381	-3.04092520107531E-02 
2382	-4.07626837507124E-02 
2383	-5.56641141509266E-02 
2384	-7.22523479908498E-02 
2385	-6.13909013200343E-02 
2386	-5.98854631312638E-02 
2387	-4.88119002559471E-02 
2388	-2.18952473682973E-02 
2389	-3.13165541674066E-02 
2390	-4.97533122966633E-02 
2391	-6.08234182122997E-02 
2392	-5.81644796154863E-02 
2393	-4.78880138329098E-02 
2394	-3.05933921056213E-02 
2395	-3.16981178389829E-02 
2396	-5.62984587571098E-02 
2397	-3.10952871121354E-02 
2398	-1.46392301005863E-02 
2399	-5.01682429293194E-02 
2400	-5.01406248373395E-02 
2401	-5.16096816299001E-02 
2402	-6.51918596457911E-02 
2403	-8.76718279084229E-03 
2404	 4.22438633793611E-02 
2405	 1.04407958450658E-02 
2406	-7.04016431103846E-02 
2407	-9.50770445883129E-02 
2408	-9.63919566180012E-02 
2409	-0.102038700256203 
2410	-1.67364171089522E-02 
2411	 7.21919888906662E-03 
2412	-7.40187746244332E-02 
2413	-7.07990396402905E-02 
2414	-7.15173039626543E-02 
2415	-0.114785152318083 
2416	-0.160596740166 
2417	-0.22935312097201 
2418	-0.232080664661536 
2419	-0.22076754360661 
2420	-0.223740637212609 
2421	-0.201626367028403 
2422	-0.205299611468853 
2423	-0.192489765918199 
2424	-0.151991867320016 
2425	-9.25826394217676E-02 
2426	-0.063134739935766 
2427	-0.100637874358636 
2428	-0.122271456387411 
2429	-0.15360018528056 
2430	-0.223354732814556 
2431	-0.15810711335022 
2432	-9.77545238053159E-02 
2433	-0.194985859760659 
2434	-0.305787282271017 
2435	-0.344103915322137 
2436	-0.321673647685161 
2437	-0.204182395789281 
2438	-5.95613847915746E-02 
2439	-5.86585743667019E-02 
2440	-0.225032970496785 
2441	-0.352787696651484 
2442	-0.387333073819194 
2443	-0.273315593141186 
2444	-0.41009907251119 
2445	-0.501830914310619 
2446	-0.395194870834314 
2447	-8.28604506060763E-02 
2448	 0.259701144243401 
2449	 0.709584536770259 
2450	 0.646659455713532 
2451	-0.190055220222634 
2452	-1.14612359987664 
2453	-1.59999419319723 
2454	-0.953484969540176 
2455	-1.2749380082656 
2456	-0.306277768194307 
2457	-3.35816392638419E-02 
2458	-0.166422317314005 
2459	 0.080755844183267 
2460	 0.144269384114625 
2461	 0.320328986086634 
2462	 0.832129173805517 
2463	 0.527191674889212 
2464	 0.250198382426295 
2465	-7.14372310872808E-02 
2466	-0.65768426610352 
2467	-0.532592155072417 
2468	-0.35463384252563 
2469	-0.357535563571709 
2470	-0.104103710556087 
2471	-3.63366516956873E-02 
2472	-0.302944992805128 
2473	-0.671919192481608 
2474	-1.76999470053038 
2475	-2.78305080363676 
2476	 11.0751525565722 
2477	 0.876902941395733 
2478	-1.88302924489 
2479	-1.80431646674607 
2480	 0.88750992877131 
2481	 0.7648683262271 
2482	 0.61681735254592 
2483	 0.263085325784323 
2484	 0.330839633626075 
2485	 0.983723538998503 
2486	 0.811045003366088 
2487	 1.10886488438531 
2488	-65.0852073878717 
2489	-15.5157234071609 
2490	-17.7890317671941 
2491	-3.18334420690181 
2492	-1.84175483899467 
2493	 4.30676454320748 
2494	 0.629443955012355 
2495	 0.994648384151738 
2496	 1.56188251158445 
2497	-34.0576714531358 
2498	-1.78234065879322 
2499	-2.77933537090283 
2500	 0.963404844544681 
