Wavelength	rt0716a200000.asd
350	 6.16394021704222E-02 
351	 6.23137406314683E-02 
352	 6.12547462274618E-02 
353	 6.03843937083642E-02 
354	 0.060834155333983 
355	 6.09410205244842E-02 
356	 6.13587044723204E-02 
357	 6.14785558687354E-02 
358	 6.08559794729408E-02 
359	 0.061138249974875 
360	 0.061590537899331 
361	 6.20209265729629E-02 
362	 6.25789360907923E-02 
363	 6.23872400275256E-02 
364	 6.21924887541267E-02 
365	 6.22656463180593E-02 
366	 6.18570259052464E-02 
367	 6.20738053622584E-02 
368	 6.26249875282149E-02 
369	 6.29207191098729E-02 
370	 6.27103301236361E-02 
371	 6.25416226169347E-02 
372	 6.24851086320456E-02 
373	 0.062357102894432 
374	 0.062485396028271 
375	 6.24567140253608E-02 
376	 6.23814497490268E-02 
377	 6.31284814989673E-02 
378	 6.25184678065016E-02 
379	 6.19841823589845E-02 
380	 6.27743716742371E-02 
381	 6.28712359619193E-02 
382	 6.31588891024151E-02 
383	 6.34333234765638E-02 
384	 6.31421050902935E-02 
385	 0.062996386295364 
386	 6.27251802315555E-02 
387	 6.25408103489816E-02 
388	 6.31903627142391E-02 
389	 6.33713972817267E-02 
390	 6.31512606484534E-02 
391	 6.29565112971377E-02 
392	 6.34176376983359E-02 
393	 6.32580469674927E-02 
394	 6.29204610321134E-02 
395	 6.31830422030985E-02 
396	 6.29719561191244E-02 
397	 6.28045428423456E-02 
398	 6.28231037418823E-02 
399	 6.27773289122738E-02 
400	 6.26255355552229E-02 
401	 6.24312671624486E-02 
402	 6.23148544688867E-02 
403	 6.25158426504881E-02 
404	 6.26084515822171E-02 
405	 6.24779397373076E-02 
406	 6.21966507755616E-02 
407	 6.21121807252593E-02 
408	 6.20294112799279E-02 
409	 6.18737485721457E-02 
410	 6.17261358598312E-02 
411	 6.17018312047374E-02 
412	 6.17132074776543E-02 
413	 0.061688372681754 
414	 6.16964943385896E-02 
415	 0.061622358194701 
416	 6.14798461971034E-02 
417	 6.13475487346957E-02 
418	 6.13241482803105E-02 
419	 6.13279944127856E-02 
420	 0.061351588905947 
421	 6.14749059579934E-02 
422	 6.14871551772024E-02 
423	 6.15715473923271E-02 
424	 6.18030816254086E-02 
425	 6.17047575390188E-02 
426	 6.17999447408211E-02 
427	 6.20691856568116E-02 
428	 6.22485798996402E-02 
429	 6.24064501560329E-02 
430	 6.25799942360188E-02 
431	 6.28051563378082E-02 
432	 6.31157260874913E-02 
433	 0.063474904834146 
434	 6.37041469154505E-02 
435	 6.37568122050846E-02 
436	 6.40496718786613E-02 
437	 6.42663450920512E-02 
438	 6.44058294363129E-02 
439	 6.46126667544527E-02 
440	 0.064678678348941 
441	 6.47742632417544E-02 
442	 6.49537069651894E-02 
443	 6.50492638967736E-02 
444	 6.50294969818591E-02 
445	 6.50224608625824E-02 
446	 6.51224489592789E-02 
447	 0.065104996863616 
448	 6.51109316600724E-02 
449	 6.51414341327941E-02 
450	 6.51013847769893E-02 
451	 6.51191465335675E-02 
452	 6.50313147291915E-02 
453	 6.48141009510632E-02 
454	 6.48088023375851E-02 
455	 6.47977314928772E-02 
456	 6.47578081855566E-02 
457	 6.47117646777202E-02 
458	 6.45646765419162E-02 
459	 6.43856196666109E-02 
460	 6.42512563588749E-02 
461	 6.42272593561385E-02 
462	 6.41478240135759E-02 
463	 0.064053697139236 
464	 0.06398760878541 
465	 6.38806101649184E-02 
466	 6.37310922144221E-02 
467	 6.35875371127455E-02 
468	 6.35149707923881E-02 
469	 6.34960881357617E-02 
470	 6.34319461501025E-02 
471	 0.063286058141206 
472	 6.31126410887759E-02 
473	 6.30273390631812E-02 
474	 6.30433491866939E-02 
475	 6.31107575678492E-02 
476	 6.30968018653358E-02 
477	 0.063022187020566 
478	 6.29337827815577E-02 
479	 6.28962973042727E-02 
480	 6.29616316433052E-02 
481	 6.30488957904197E-02 
482	 6.31051288230857E-02 
483	 0.063163162616052 
484	 6.33066243538339E-02 
485	 0.063493794279704 
486	 6.36264794014609E-02 
487	 6.35987923167266E-02 
488	 6.36544842886841E-02 
489	 6.38426434797541E-02 
490	 6.40120738363525E-02 
491	 6.42178568355352E-02 
492	 6.44755191812722E-02 
493	 6.47591986192857E-02 
494	 6.49491985354675E-02 
495	 6.51407900143772E-02 
496	 6.53908923626707E-02 
497	 0.065709530849946 
498	 6.58922887176162E-02 
499	 0.066082496993153 
500	 6.63631298707839E-02 
501	 6.66713204803523E-02 
502	 6.69019972281076E-02 
503	 6.71289752780643E-02 
504	 6.74343113555122E-02 
505	 6.76955851293584E-02 
506	 6.79519155519188E-02 
507	 6.82515886976533E-02 
508	 0.068634262538217 
509	 6.89582362059305E-02 
510	 0.069213362125385 
511	 6.94429507305785E-02 
512	 6.97412885939908E-02 
513	 0.070211700518814 
514	 7.07238774594015E-02 
515	 0.071083689923203 
516	 7.15362035894774E-02 
517	 0.07200296308544 
518	 7.24395333696422E-02 
519	 7.28795893557568E-02 
520	 7.33616171559024E-02 
521	 7.39366421969809E-02 
522	 7.46038912857703E-02 
523	 7.51779491523176E-02 
524	 7.57623470567966E-02 
525	 7.64566636847436E-02 
526	 7.73178202083281E-02 
527	 7.79195322755677E-02 
528	 7.86279673255138E-02 
529	 7.95877644401522E-02 
530	 8.02824956795023E-02 
531	 8.10722937460532E-02 
532	 8.19863762694367E-02 
533	 8.29327764477003E-02 
534	 8.38644056511873E-02 
535	 8.48240554322519E-02 
536	 8.58123123060592E-02 
537	 8.67697978667955E-02 
538	 8.78224377689818E-02 
539	 0.088877788954617 
540	 8.98475079756866E-02 
541	 9.08280964407114E-02 
542	 9.18458554608832E-02 
543	 9.28406240683028E-02 
544	 9.37282335553882E-02 
545	 9.47403364003596E-02 
546	 9.57469933366788E-02 
547	 9.66769414575693E-02 
548	 9.76729128184009E-02 
549	 9.85842023303093E-02 
550	 9.94127526719502E-02 
551	 0.100222523460454 
552	 0.101075102917554 
553	 0.101947681883856 
554	 0.102786273081681 
555	 0.103510067341177 
556	 0.10432264385246 
557	 0.10516831661615 
558	 0.105963199349668 
559	 0.106792891999969 
560	 0.107547773955609 
561	 0.108275774953078 
562	 0.109102372144628 
563	 0.109805142228103 
564	 0.110513379422372 
565	 0.111281533932616 
566	 0.111927659967233 
567	 0.112622938138553 
568	 0.113319891306578 
569	 0.113915230473998 
570	 0.114486808362463 
571	 0.115055788474097 
572	 0.115622767815691 
573	 0.116166563320815 
574	 0.116559965986025 
575	 0.116996750809465 
576	 0.117602048989953 
577	 0.11804853507948 
578	 0.118485821730475 
579	 0.118934505571245 
580	 0.119340848479009 
581	 0.119729357954364 
582	 0.120073420111603 
583	 0.120390779770389 
584	 0.120800149779523 
585	 0.12106695995269 
586	 0.121185092822633 
587	 0.121263383362527 
588	 0.12151559638214 
589	 0.121791325708704 
590	 0.122008297930661 
591	 0.122213974688297 
592	 0.122429738045101 
593	 0.122619232948005 
594	 0.122763928417674 
595	 0.122959239910682 
596	 0.123118677403778 
597	 0.123194602867866 
598	 0.123185676448005 
599	 0.123297967903914 
600	 0.123413761073441 
601	 0.123485416855645 
602	 0.123665739612944 
603	 0.123706176603081 
604	 0.123732580044302 
605	 0.123924888890192 
606	 0.124081392347148 
607	 0.124197781408976 
608	 0.124279924426296 
609	 0.124341384015906 
610	 0.12456619507218 
611	 0.124783005023955 
612	 0.124845205474772 
613	 0.124890757633356 
614	 0.125058878595696 
615	 0.125219228672575 
616	 0.125141386900797 
617	 0.125239950322909 
618	 0.125363893778294 
619	 0.125424333046539 
620	 0.125529955241689 
621	 0.125677626065255 
622	 0.125773552901617 
623	 0.125756346810032 
624	 0.125881185255374 
625	 0.12597074646572 
626	 0.125985188970858 
627	 0.126032962470601 
628	 0.126196813639519 
629	 0.126344070134165 
630	 0.126393887778659 
631	 0.12650464198171 
632	 0.126665901174996 
633	 0.12677903308111 
634	 0.12674332708633 
635	 0.126797716843485 
636	 0.126951734451772 
637	 0.127134813749489 
638	 0.127201333129118 
639	 0.127273359133516 
640	 0.127323237329073 
641	 0.127316601378838 
642	 0.127376962185038 
643	 0.127320916427243 
644	 0.127255756456892 
645	 0.127488958085203 
646	 0.127388529950938 
647	 0.127233598392631 
648	 0.127296977045297 
649	 0.12744264512028 
650	 0.127425835879476 
651	 0.127358896089563 
652	 0.127438430861857 
653	 0.127346550305423 
654	 0.127326373332951 
655	 0.127370500542559 
656	 0.127090803738337 
657	 0.127020788212772 
658	 0.127093527510838 
659	 0.127113879371386 
660	 0.126871894304389 
661	 0.126674769638405 
662	 0.126585316656102 
663	 0.126514496453243 
664	 0.126493600222689 
665	 0.126437745690162 
666	 0.126334788095007 
667	 0.126329677936587 
668	 0.126245166205442 
669	 0.126175313252044 
670	 0.126254918274151 
671	 0.12636323258554 
672	 0.126357621552116 
673	 0.12628834668738 
674	 0.126379000452466 
675	 0.1266470082899 
676	 0.126796800000174 
677	 0.126719095597548 
678	 0.126910990642694 
679	 0.127183570493476 
680	 0.127427724227075 
681	 0.127602980066816 
682	 0.127952070155724 
683	 0.128283778699804 
684	 0.128534193823027 
685	 0.128886911271274 
686	 0.129059656700555 
687	 0.129276261210475 
688	 0.129743963310083 
689	 0.130101532635805 
690	 0.130321404973452 
691	 0.130524270560495 
692	 0.130889221344985 
693	 0.131049517382883 
694	 0.131233065126258 
695	 0.131522458632437 
696	 0.131663862919069 
697	 0.13181285208144 
698	 0.131813166004482 
699	 0.131538646163212 
700	 0.131518940524522 
701	 0.131662232711552 
702	 0.131771766821386 
703	 0.131634044978191 
704	 0.131431087378296 
705	 0.131243258777906 
706	 0.131121487902516 
707	 0.131099795323044 
708	 0.130944145753694 
709	 0.130630194566608 
710	 0.130241701938491 
711	 0.129932622922228 
712	 0.129596947855281 
713	 0.129135697569555 
714	 0.128465337543653 
715	 0.127812531453108 
716	 0.127208172358818 
717	 0.126614541486122 
718	 0.125577199382485 
719	 0.124895734062 
720	 0.12445746308181 
721	 0.123764201166319 
722	 0.123118024949348 
723	 0.122300027172293 
724	 0.121385161204618 
725	 0.120642574947677 
726	 0.119872345758668 
727	 0.118827312604393 
728	 0.117464146897064 
729	 0.116317149554328 
730	 0.11495169306994 
731	 0.113619689611269 
732	 0.112647074592156 
733	 0.111519035592227 
734	 0.11047201804408 
735	 0.109664967038946 
736	 0.109080327516372 
737	 0.108622851709279 
738	 0.108252601167341 
739	 0.107970260504838 
740	 0.107822884244049 
741	 0.107707295895863 
742	 0.107635547118768 
743	 0.107674126732105 
744	 0.107819320105733 
745	 0.107904914057595 
746	 0.107874367686845 
747	 0.107837802542896 
748	 0.107796817528096 
749	 0.107821415961415 
750	 0.107934466150394 
751	 0.107969861510024 
752	 0.108012281059163 
753	 0.108091250802356 
754	 0.108185197235966 
755	 0.108123118572718 
756	 0.108140435489896 
757	 0.108241710482928 
758	 0.107973949653606 
759	 0.107620067901882 
760	 0.107403972677349 
761	 0.107567028960665 
762	 0.108040847295889 
763	 0.108221115853095 
764	 0.108354478292368 
765	 0.10877620090978 
766	 0.108951924020481 
767	 0.109101426358549 
768	 0.109332625289056 
769	 0.109631167851854 
770	 0.109677283765486 
771	 0.109762511588827 
772	 0.110083086393472 
773	 0.110237849453431 
774	 0.110356720410154 
775	 0.110547263294066 
776	 0.110868331989851 
777	 0.111100347139777 
778	 0.111390274706876 
779	 0.111704287342231 
780	 0.111826483535804 
781	 0.112044070150215 
782	 0.112373712750938 
783	 0.112716897862064 
784	 0.112818365515603 
785	 0.113117585172337 
786	 0.113499119337387 
787	 0.113715579069948 
788	 0.114011617553862 
789	 0.114260434663693 
790	 0.114502265721342 
791	 0.114896239814128 
792	 0.115199961192509 
793	 0.115441986570944 
794	 0.115683601351656 
795	 0.115964828816261 
796	 0.116172059583297 
797	 0.11641150789933 
798	 0.116762527480178 
799	 0.116971908058168 
800	 0.117111618916525 
801	 0.117295633563808 
802	 0.117603849823357 
803	 0.117699533616975 
804	 0.117740212532164 
805	 0.117768344585761 
806	 0.117664797324888 
807	 0.11780723715416 
808	 0.117919755541656 
809	 0.117777509236383 
810	 0.117644337717156 
811	 0.117406181499358 
812	 0.117196839552453 
813	 0.117158094603678 
814	 0.116777159003194 
815	 0.116381830458704 
816	 0.116028635377893 
817	 0.115545573838675 
818	 0.115378186491776 
819	 0.114966219729719 
820	 0.11420780352025 
821	 0.113670744258144 
822	 0.112783659621585 
823	 0.111849636383314 
824	 0.11108221455336 
825	 0.109865004805571 
826	 0.108556178544577 
827	 0.10716253248519 
828	 0.105690656741205 
829	 0.104280801435158 
830	 0.102902708575485 
831	 0.101647431821698 
832	 0.100698114950815 
833	 9.97881724454149E-02 
834	 9.91225769815013E-02 
835	 0.09873127270972 
836	 9.83723466942922E-02 
837	 9.78412703151406E-02 
838	 9.73769912062537E-02 
839	 9.71369172766409E-02 
840	 9.68265232330979E-02 
841	 9.63664510240967E-02 
842	 9.59542362578638E-02 
843	 9.57917535515051E-02 
844	 9.55557287972832E-02 
845	 9.52595792289269E-02 
846	 9.49979872705228E-02 
847	 9.48683183959569E-02 
848	 0.094542747329126 
849	 9.41761143762277E-02 
850	 9.38889675954157E-02 
851	 0.09367034267627 
852	 9.34019554972473E-02 
853	 9.30976570800767E-02 
854	 9.27920000746638E-02 
855	 9.24744425761471E-02 
856	 9.22922374230383E-02 
857	 9.21412480062518E-02 
858	 9.18722040397517E-02 
859	 9.14204213517918E-02 
860	 9.11580797090605E-02 
861	 9.11302716688664E-02 
862	 9.11330422947002E-02 
863	 9.07077561877296E-02 
864	 9.02480680339384E-02 
865	 8.99917451265832E-02 
866	 8.99212855353689E-02 
867	 8.96834941924761E-02 
868	 8.93442848796659E-02 
869	 0.08905019242407 
870	 8.89466228351228E-02 
871	 8.84332989718743E-02 
872	 0.088011052704351 
873	 8.79580061966784E-02 
874	 8.75202216225605E-02 
875	 8.69362246912147E-02 
876	 8.66080784759613E-02 
877	 8.66329893799589E-02 
878	 8.58196045315208E-02 
879	 8.53829550822024E-02 
880	 0.085205303028781 
881	 8.46618553024112E-02 
882	 8.43145911409508E-02 
883	 8.38263029605829E-02 
884	 0.083301646784023 
885	 8.31387409556604E-02 
886	 8.30304734836893E-02 
887	 8.25046322919166E-02 
888	 8.18276364681761E-02 
889	 8.19809225671095E-02 
890	 8.14737044859345E-02 
891	 8.08739426441491E-02 
892	 8.06524383835796E-02 
893	 8.03736751919934E-02 
894	 8.03700736308056E-02 
895	 7.99554018284891E-02 
896	 7.88341323516255E-02 
897	 7.89186716683063E-02 
898	 7.87813447754478E-02 
899	 7.82389502956463E-02 
900	 7.76286736873942E-02 
901	 7.71920759282582E-02 
902	 7.68575089006658E-02 
903	 7.65426399205198E-02 
904	 7.62127481181048E-02 
905	 7.60999922468805E-02 
906	 7.57124409543495E-02 
907	 7.49195735659493E-02 
908	 7.40221798111577E-02 
909	 7.38607579044281E-02 
910	 7.38091375688108E-02 
911	 0.073252506966418 
912	 7.20020160666683E-02 
913	 0.071931843843679 
914	 7.16204402558669E-02 
915	 7.03427928666481E-02 
916	 6.88176325030339E-02 
917	 6.86451380924409E-02 
918	 6.83680115656169E-02 
919	 0.067177915117334 
920	 6.57061617574487E-02 
921	 6.51738560823752E-02 
922	 0.06453537605438 
923	 6.33305009299837E-02 
924	 6.33501799266999E-02 
925	 6.20077326060889E-02 
926	 6.05325771054028E-02 
927	 6.04780543570923E-02 
928	 5.93895333837118E-02 
929	 5.92819345950764E-02 
930	 5.94130185556159E-02 
931	 5.75197511438838E-02 
932	 5.50875303109109E-02 
933	 5.49292483414278E-02 
934	 5.46158499199523E-02 
935	 5.07893747653055E-02 
936	 4.95660004710648E-02 
937	 4.94254096589248E-02 
938	 4.86905138529905E-02 
939	 4.68262290607102E-02 
940	 0.046714381403644 
941	 4.71635329817689E-02 
942	 0.048256990885076 
943	 4.94131085618666E-02 
944	 4.21941358266624E-02 
945	 4.22516541921911E-02 
946	 4.67837432835725E-02 
947	 4.34918484514399E-02 
948	 3.95584552049621E-02 
949	 3.97969009569824E-02 
950	 4.13505925991885E-02 
951	 3.87832417808539E-02 
952	 4.05106117235013E-02 
953	 3.95024510799575E-02 
954	 0.037658790716807 
955	 4.08880450753552E-02 
956	 3.61712658248829E-02 
957	 3.49615972638341E-02 
958	 0.037096355223648 
959	 0.0350999473108 
960	 3.77299320846649E-02 
961	 3.86390566234222E-02 
962	 0.037607441575314 
963	 3.86089134897744E-02 
964	 3.78993638884722E-02 
965	 3.63565520349315E-02 
966	 3.55499887000526E-02 
967	 3.65373289771037E-02 
968	 3.51821571983798E-02 
969	 3.48554463182047E-02 
970	 3.58210544717553E-02 
971	 3.54248522525828E-02 
972	 3.43441716552083E-02 
973	 0.034807917250231 
974	 3.64082511843012E-02 
975	 3.63701665802789E-02 
976	 3.65882354999487E-02 
977	 3.57804790542773E-02 
978	 3.53609602856192E-02 
979	 3.79557036529198E-02 
980	 3.59006020624874E-02 
981	 3.58347276542553E-02 
982	 3.74449456843302E-02 
983	 3.51722046681309E-02 
984	 3.63202687133432E-02 
985	 3.61480226053207E-02 
986	 3.47353666599952E-02 
987	 3.60246997653606E-02 
988	 3.68809468707281E-02 
989	 3.64396588983431E-02 
990	 3.55935524337456E-02 
991	 3.58892835871642E-02 
992	 3.47235963580309E-02 
993	 3.68252623420738E-02 
994	 3.90399002750862E-02 
995	 3.50908316888219E-02 
996	 0.036380223073039 
997	 3.64667608913523E-02 
998	 3.47638637153475E-02 
999	 0.034909502503277 
1000	 3.74001091680687E-02 
1001	 3.63573320524984E-02 
1002	 3.65232655264235E-02 
1003	 3.67665943361123E-02 
1004	 3.71960587975784E-02 
1005	 3.76143112841444E-02 
1006	 3.81344336797934E-02 
1007	 3.87068905465294E-02 
1008	 3.90559066793622E-02 
1009	 3.90434116252914E-02 
1010	 3.89501587877402E-02 
1011	 3.87301815178169E-02 
1012	 3.84848421288503E-02 
1013	 3.84043101831634E-02 
1014	 3.83177799840112E-02 
1015	 3.81021546863993E-02 
1016	 3.82241160794249E-02 
1017	 3.86290949603226E-02 
1018	 3.89294805000448E-02 
1019	 0.039449610288121 
1020	 3.98076326301759E-02 
1021	 4.00307968016868E-02 
1022	 4.02186942744373E-02 
1023	 4.05742406603594E-02 
1024	 0.041049087961401 
1025	 4.13006623059867E-02 
1026	 4.15435028363745E-02 
1027	 0.041634946533572 
1028	 4.13426941604245E-02 
1029	 4.15323144695566E-02 
1030	 4.17203178727096E-02 
1031	 4.22242395849019E-02 
1032	 4.33688331231607E-02 
1033	 4.38623396287132E-02 
1034	 4.43613368525845E-02 
1035	 4.46391755389234E-02 
1036	 4.43085491677386E-02 
1037	 4.43332595866203E-02 
1038	 4.44388599416922E-02 
1039	 4.45140178748258E-02 
1040	 0.044953308035959 
1041	 4.53522174038584E-02 
1042	 0.045833825021267 
1043	 4.66095657936096E-02 
1044	 4.69777372327867E-02 
1045	 4.71133971937892E-02 
1046	 4.74516740915308E-02 
1047	 4.76332986341647E-02 
1048	 4.80144161694059E-02 
1049	 4.87379004470993E-02 
1050	 4.91668630456646E-02 
1051	 4.95668417170781E-02 
1052	 4.98414731696539E-02 
1053	 4.98284885527027E-02 
1054	 4.99933442627123E-02 
1055	 5.01486757548985E-02 
1056	 5.03379257693274E-02 
1057	 5.05801029070448E-02 
1058	 5.09517865757654E-02 
1059	 0.051240509233771 
1060	 5.15746167312771E-02 
1061	 5.17531766240533E-02 
1062	 5.18119632200144E-02 
1063	 5.19880567261409E-02 
1064	 5.21115282519809E-02 
1065	 5.22572254900735E-02 
1066	 5.25980596052803E-02 
1067	 5.27091229854484E-02 
1068	 5.26110924427841E-02 
1069	 0.052622454189326 
1070	 5.25002967172691E-02 
1071	 5.25368653130726E-02 
1072	 5.29384121344046E-02 
1073	 5.29300418320716E-02 
1074	 5.29596669746202E-02 
1075	 0.053111719598993 
1076	 5.28528753207721E-02 
1077	 5.20791747476866E-02 
1078	 5.18887314465982E-02 
1079	 5.18216883676576E-02 
1080	 5.16435443980827E-02 
1081	 5.18419611347932E-02 
1082	 5.16773739017083E-02 
1083	 5.10705664822222E-02 
1084	 5.06586132925752E-02 
1085	 5.01250078082442E-02 
1086	 0.049833966941948 
1087	 4.99066567883022E-02 
1088	 4.96923032859872E-02 
1089	 4.93661190750021E-02 
1090	 4.92667033818602E-02 
1091	 4.89195754527812E-02 
1092	 4.81625794764525E-02 
1093	 4.77545043300094E-02 
1094	 4.75348359207753E-02 
1095	 4.71455714624903E-02 
1096	 4.66184487303481E-02 
1097	 4.63853660925633E-02 
1098	 4.63970615603068E-02 
1099	 4.60992288973916E-02 
1100	 4.58595298731986E-02 
1101	 0.045584079740562 
1102	 4.48962534970672E-02 
1103	 4.44812209388941E-02 
1104	 4.44691432004923E-02 
1105	 4.41052567312252E-02 
1106	 4.39409426676802E-02 
1107	 4.34104518182729E-02 
1108	 4.27936466889863E-02 
1109	 4.30467629811457E-02 
1110	 4.27643466123041E-02 
1111	 4.22225209674633E-02 
1112	 4.21975950745725E-02 
1113	 4.22961808748815E-02 
1114	 4.21415602014963E-02 
1115	 4.26390685190542E-02 
1116	 4.26723677396149E-02 
1117	 4.17091860271112E-02 
1118	 4.14209545621559E-02 
1119	 4.20864998472121E-02 
1120	 4.18025687799384E-02 
1121	 4.07886233567122E-02 
1122	 3.92083182529784E-02 
1123	 3.96304335184602E-02 
1124	 4.12695558364521E-02 
1125	 4.06359210067435E-02 
1126	 0.039349409772983 
1127	 3.80457551870245E-02 
1128	 3.67149390093439E-02 
1129	 3.68285972598177E-02 
1130	 4.25658463308115E-02 
1131	 3.96683206682682E-02 
1132	 3.02152531576066E-02 
1133	 2.92374740533384E-02 
1134	 2.99627012180905E-02 
1135	 2.99125474857446E-02 
1136	 0.033660729442594 
1137	 3.43253433260916E-02 
1138	 3.25380097435731E-02 
1139	 3.01386852664435E-02 
1140	 3.06738597234181E-02 
1141	 3.14041191184433E-02 
1142	 3.18647618994028E-02 
1143	 3.29518156205635E-02 
1144	 3.16826445558402E-02 
1145	 3.01559924589335E-02 
1146	 3.08643216227787E-02 
1147	 3.06936521501628E-02 
1148	 2.89997037316472E-02 
1149	 2.93802503915501E-02 
1150	 0.029596012068189 
1151	 2.88198261468183E-02 
1152	 2.85077157566688E-02 
1153	 2.98561482724717E-02 
1154	 2.95702112974271E-02 
1155	 2.85614535944755E-02 
1156	 2.77024746395156E-02 
1157	 2.70080605776853E-02 
1158	 2.71951559204098E-02 
1159	 2.76337179415781E-02 
1160	 2.77543982919366E-02 
1161	 2.81411493825961E-02 
1162	 2.75811177718112E-02 
1163	 2.66071039995917E-02 
1164	 2.66011639534439E-02 
1165	 2.68760298060996E-02 
1166	 0.026955632897231 
1167	 2.71147397913598E-02 
1168	 2.70931048636672E-02 
1169	 2.66852347214836E-02 
1170	 2.65319633852462E-02 
1171	 2.64700976636006E-02 
1172	 0.026573492465168 
1173	 2.65722823943437E-02 
1174	 2.67367381267642E-02 
1175	 2.64293973413011E-02 
1176	 2.61937097448755E-02 
1177	 2.61882052762418E-02 
1178	 2.58542607295302E-02 
1179	 2.58735382414889E-02 
1180	 2.62148569285341E-02 
1181	 2.61676414726195E-02 
1182	 2.60220651086487E-02 
1183	 2.60473750425516E-02 
1184	 2.59023868157077E-02 
1185	 0.025654966816039 
1186	 2.58583018775241E-02 
1187	 2.62014025924631E-02 
1188	 2.58952455584052E-02 
1189	 2.54992407921409E-02 
1190	 2.55935666944835E-02 
1191	 2.56911429714585E-02 
1192	 2.56627394926281E-02 
1193	 2.58118403691097E-02 
1194	 2.60061945713587E-02 
1195	 2.58881973076495E-02 
1196	 2.58220299062917E-02 
1197	 2.59582313659613E-02 
1198	 2.60914155191389E-02 
1199	 2.61151468182242E-02 
1200	 2.58427537604102E-02 
1201	 2.55478396468865E-02 
1202	 2.56309253370921E-02 
1203	 2.57557312808357E-02 
1204	 2.57335963869544E-02 
1205	 2.58065570938612E-02 
1206	 2.59115953303379E-02 
1207	 2.59103771000998E-02 
1208	 2.58288473178806E-02 
1209	 2.57394306473574E-02 
1210	 2.57830416024572E-02 
1211	 0.025841842417694 
1212	 2.59367520802567E-02 
1213	 2.60231235036393E-02 
1214	 2.59848891172459E-02 
1215	 2.57113367084372E-02 
1216	 2.55954922055925E-02 
1217	 2.57362044794198E-02 
1218	 2.57597469479556E-02 
1219	 0.02579317727278 
1220	 2.58626476420391E-02 
1221	 2.58956779501698E-02 
1222	 2.60754091963043E-02 
1223	 2.61690672421229E-02 
1224	 2.60935189322787E-02 
1225	 2.60096911990663E-02 
1226	 2.57718916802538E-02 
1227	 2.56840339500094E-02 
1228	 2.59513389950465E-02 
1229	 2.61251633178038E-02 
1230	 2.58613271668204E-02 
1231	 2.57175950837922E-02 
1232	 2.59730177267512E-02 
1233	 2.58573339243355E-02 
1234	 0.025648567509628 
1235	 2.56963453261712E-02 
1236	 2.58249676681436E-02 
1237	 2.58429639152186E-02 
1238	 2.58956770160565E-02 
1239	 2.62222422535571E-02 
1240	 2.61619278711779E-02 
1241	 0.026015012277517 
1242	 2.59669751879381E-02 
1243	 2.60165087155091E-02 
1244	 2.61009953642035E-02 
1245	 2.59956152012913E-02 
1246	 2.59162454773985E-02 
1247	 0.025946129762513 
1248	 2.60298551151654E-02 
1249	 2.62058883598436E-02 
1250	 2.63323329908293E-02 
1251	 2.63098211775542E-02 
1252	 2.62542832381988E-02 
1253	 2.62492820550434E-02 
1254	 2.63014393331552E-02 
1255	 2.63558740287041E-02 
1256	 2.63340592201433E-02 
1257	 0.026294380061752 
1258	 2.62755897553303E-02 
1259	 0.02622087962593 
1260	 2.61611970052618E-02 
1261	 2.61049323472793E-02 
1262	 2.61297281374302E-02 
1263	 2.62009374276143E-02 
1264	 2.60909092588841E-02 
1265	 2.62060054920738E-02 
1266	 0.026349402940765 
1267	 2.62197221080964E-02 
1268	 2.60419305526812E-02 
1269	 2.58525619594003E-02 
1270	 0.025861185535363 
1271	 2.60018374439768E-02 
1272	 2.60424508681214E-02 
1273	 2.60251147786019E-02 
1274	 2.59150047025846E-02 
1275	 2.57757038795991E-02 
1276	 2.57439599263162E-02 
1277	 2.58043322501369E-02 
1278	 2.59000470787429E-02 
1279	 2.60398064656523E-02 
1280	 2.61066551957886E-02 
1281	 2.60352336964522E-02 
1282	 0.025766540240302 
1283	 2.56728483692808E-02 
1284	 2.55516340840667E-02 
1285	 2.54503172318677E-02 
1286	 2.54544763183513E-02 
1287	 2.54480275947689E-02 
1288	 2.54478339904754E-02 
1289	 2.53942443128089E-02 
1290	 2.54334323861445E-02 
1291	 2.52219059287631E-02 
1292	 2.49650431283928E-02 
1293	 2.48993599948906E-02 
1294	 2.48229428868972E-02 
1295	 2.47674263064762E-02 
1296	 2.50486664758843E-02 
1297	 2.50004063318938E-02 
1298	 2.47108200254304E-02 
1299	 2.48343593238626E-02 
1300	 2.46593738506303E-02 
1301	 2.41571660039627E-02 
1302	 2.38456868101538E-02 
1303	 0.023668464295272 
1304	 2.37104856666329E-02 
1305	 2.38198895531395E-02 
1306	 2.38152365378907E-02 
1307	 2.40195935345902E-02 
1308	 2.38901885376388E-02 
1309	 2.31161744864383E-02 
1310	 2.30287356246529E-02 
1311	 2.34988679925728E-02 
1312	 2.35449190405435E-02 
1313	 2.37392030963039E-02 
1314	 2.36406913956868E-02 
1315	 2.28618842178024E-02 
1316	 2.25382746588416E-02 
1317	 2.26320213077117E-02 
1318	 2.24318809573215E-02 
1319	 2.20023417704283E-02 
1320	 0.021911012399266 
1321	 2.18315409533775E-02 
1322	 2.16918930042346E-02 
1323	 2.19592001789564E-02 
1324	 2.20059218195479E-02 
1325	 2.14056307585086E-02 
1326	 2.15276293960628E-02 
1327	 2.21732552676985E-02 
1328	 2.16567042038606E-02 
1329	 2.08151188489997E-02 
1330	 2.11086008380897E-02 
1331	 2.12429725442255E-02 
1332	 2.11507149068204E-02 
1333	 2.13307031152695E-02 
1334	 2.08853544988236E-02 
1335	 0.020423195264892 
1336	 1.93980334956115E-02 
1337	 1.93138545341302E-02 
1338	 0.019932125735569 
1339	 0.019376433489417 
1340	 1.81290021194846E-02 
1341	 1.83525522279823E-02 
1342	 1.87046291474936E-02 
1343	 1.88172055782367E-02 
1344	 2.12892439841184E-02 
1345	 2.25651363619947E-02 
1346	 2.10470464862225E-02 
1347	 2.11557322169825E-02 
1348	 0.023789540285367 
1349	 2.43645730218077E-02 
1350	 2.24677097049302E-02 
1351	 0.022485734923026 
1352	 1.98373042709774E-02 
1353	 1.97075707905364E-02 
1354	 3.11610687031007E-02 
1355	 4.13352019109936E-02 
1356	 5.83547645262633E-02 
1357	 7.14337806227599E-02 
1358	 0.070187849807194 
1359	 0.109811568087016 
1360	 0.159410086268298 
1361	 0.204993673854136 
1362	 0.213809067998486 
1363	 0.117262510846397 
1364	 0.099910917493871 
1365	 0.200764306556361 
1366	 0.303860255678685 
1367	 0.386341761816786 
1368	 0.363978055866493 
1369	 0.156514410100945 
1370	 0.131911466396321 
1371	 0.249040518921265 
1372	 0.183174246414967 
1373	-5.04851326641592E-02 
1374	-8.42598070781126E-02 
1375	-4.04139625030608E-02 
1376	-0.011542601339089 
1377	 0.30159832612976 
1378	 0.465941819017974 
1379	 0.20647899466877 
1380	 0.18783357534878 
1381	 0.331388863673905 
1382	 0.364766030085853 
1383	 0.382497398689479 
1384	 0.378757926486776 
1385	 0.132301731315547 
1386	 0.167743461843031 
1387	 0.500262993108166 
1388	 0.553911169335732 
1389	 0.665597547982294 
1390	 0.675295361254545 
1391	 0.335058542976092 
1392	 0.133569367485733 
1393	 0.498853656640279 
1394	 0.727444973227025 
1395	 0.532386772458643 
1396	 0.347795109848633 
1397	 0.339387287989436 
1398	 4.02117739111705E-02 
1399	 0.120325581871467 
1400	 0.726314977539593 
1401	 0.508036281495879 
1402	 0.339188085372367 
1403	 0.473448728514606 
1404	 0.338775111730475 
1405	 0.304664229536317 
1406	 0.370307594166548 
1407	 0.358125155985829 
1408	 0.236198598962699 
1409	 0.269501735271542 
1410	 0.403440776936668 
1411	 0.330859638778372 
1412	 0.232132116710627 
1413	 0.194886399312022 
1414	 8.41138176343752E-02 
1415	 6.48732885440451E-02 
1416	 0.147964661415409 
1417	 0.117041800255562 
1418	 3.71094076181618E-02 
1419	 2.85504703434323E-02 
1420	 1.46275683571003E-02 
1421	 3.0782719588745E-03 
1422	 1.98256229663234E-02 
1423	 2.02197343901998E-02 
1424	 1.53438713853781E-02 
1425	 1.47292123993127E-02 
1426	 7.03660406894774E-03 
1427	 8.28063531860218E-03 
1428	 2.02393658061698E-02 
1429	 1.57573360104897E-02 
1430	 2.66540791747428E-03 
1431	 6.2686872552728E-03 
1432	 8.16592590934799E-03 
1433	 4.92685399504714E-03 
1434	 1.33896545994477E-02 
1435	 2.27780569254328E-02 
1436	 0.029496891968617 
1437	 2.56410322314476E-02 
1438	 2.39306978979989E-02 
1439	 1.81285138021721E-02 
1440	 9.29986695990085E-03 
1441	 1.72337869692579E-02 
1442	 2.35835396519947E-02 
1443	 1.31266392133774E-02 
1444	 1.15174154042006E-02 
1445	 1.07199989131985E-02 
1446	 3.80652412626857E-03 
1447	 5.45297486865171E-03 
1448	 4.00183108503745E-03 
1449	 1.12110340847427E-04 
1450	 5.34986512455698E-03 
1451	 0.010356612235187 
1452	 8.38405103710986E-03 
1453	 4.10332821685806E-03 
1454	 3.82128098831217E-03 
1455	 3.23022459262833E-03 
1456	 3.00243221081411E-03 
1457	 4.55606335845105E-03 
1458	 4.89115688746995E-03 
1459	 4.20571390330058E-03 
1460	 3.98084779189733E-03 
1461	 3.8524668021832E-03 
1462	 5.00656847395528E-03 
1463	 6.80603337016105E-03 
1464	 6.72891025875373E-03 
1465	 7.51278059283124E-03 
1466	 7.70258971724147E-03 
1467	 5.13008270764211E-03 
1468	 4.42163786656256E-03 
1469	 5.40410896115348E-03 
1470	 5.88228857440475E-03 
1471	 6.39782978822005E-03 
1472	 6.04503760550009E-03 
1473	 5.41827078432855E-03 
1474	 4.83334132874365E-03 
1475	 2.69504561097618E-03 
1476	 3.33834934335293E-03 
1477	 7.24052522010761E-03 
1478	 6.98280314600591E-03 
1479	 4.34536677895588E-03 
1480	 4.8621462032316E-03 
1481	 5.41213610850842E-03 
1482	 5.26081306101224E-03 
1483	 6.92085509820544E-03 
1484	 7.43288926984819E-03 
1485	 6.18515904211013E-03 
1486	 5.64874527187654E-03 
1487	 5.61612265779765E-03 
1488	 5.87526165502337E-03 
1489	 6.31985862090203E-03 
1490	 6.17005670628367E-03 
1491	 6.11075478281119E-03 
1492	 5.98035574991416E-03 
1493	 5.03477877421601E-03 
1494	 4.92044155281816E-03 
1495	 5.64267529126382E-03 
1496	 5.8281111522805E-03 
1497	 5.92902597837308E-03 
1498	 5.9360025835372E-03 
1499	 5.82437611173835E-03 
1500	 5.58515152727361E-03 
1501	 4.90204828432784E-03 
1502	 4.92597703338829E-03 
1503	 5.45952526027603E-03 
1504	 5.49332846066773E-03 
1505	 5.47842333532445E-03 
1506	 5.82217574642175E-03 
1507	 6.15275717452314E-03 
1508	 5.97215003588048E-03 
1509	 5.74810858580246E-03 
1510	 5.81791088747994E-03 
1511	 5.90190874770056E-03 
1512	 5.91726613453546E-03 
1513	 5.91624303565352E-03 
1514	 6.12218575896986E-03 
1515	 6.33336167927239E-03 
1516	 6.18111592161686E-03 
1517	 6.3507467202588E-03 
1518	 6.76653583556491E-03 
1519	 6.64613790677105E-03 
1520	 6.47584065688869E-03 
1521	 6.73035295695484E-03 
1522	 7.0378528808998E-03 
1523	 6.94357623479918E-03 
1524	 6.77576075591669E-03 
1525	 6.84229253643635E-03 
1526	 6.77093120282564E-03 
1527	 6.80253156793292E-03 
1528	 6.99760572865458E-03 
1529	 6.97972422272793E-03 
1530	 7.10850865266369E-03 
1531	 7.31220221600514E-03 
1532	 7.3101768054433E-03 
1533	 7.3676720290658E-03 
1534	 7.29183221079397E-03 
1535	 7.20223108037619E-03 
1536	 7.47112180951831E-03 
1537	 7.72668760150121E-03 
1538	 7.72629140067682E-03 
1539	 7.69151015728745E-03 
1540	 7.73219843265298E-03 
1541	 7.70808054376062E-03 
1542	 7.69112461866169E-03 
1543	 7.96588627214084E-03 
1544	 8.21354828743132E-03 
1545	 8.04210406643258E-03 
1546	 7.94116958099551E-03 
1547	 8.17744971543066E-03 
1548	 8.22400519271429E-03 
1549	 8.10650206087638E-03 
1550	 8.1687554811329E-03 
1551	 8.00510860120547E-03 
1552	 7.73482140148753E-03 
1553	 7.92897423461075E-03 
1554	 8.24428716015652E-03 
1555	 8.41004402545516E-03 
1556	 8.33357643957368E-03 
1557	 8.22622104475329E-03 
1558	 8.51735623339345E-03 
1559	 8.61761085193562E-03 
1560	 8.42613112759351E-03 
1561	 8.39407567298072E-03 
1562	 8.45564144227441E-03 
1563	 8.68367201423553E-03 
1564	 8.88611597345094E-03 
1565	 8.95968107159304E-03 
1566	 9.05010004767818E-03 
1567	 8.89251554946347E-03 
1568	 8.89786114109003E-03 
1569	 9.36300317618318E-03 
1570	 9.32715369038302E-03 
1571	 9.06069454138992E-03 
1572	 9.41377571108994E-03 
1573	 9.56883845716854E-03 
1574	 9.21568720766685E-03 
1575	 9.14184896144666E-03 
1576	 9.3248397130317E-03 
1577	 9.36893248665726E-03 
1578	 9.48018461247113E-03 
1579	 9.89863721634423E-03 
1580	 1.00453804544141E-02 
1581	 9.70251136899366E-03 
1582	 9.50891736660732E-03 
1583	 9.61740915635697E-03 
1584	 9.82974522385319E-03 
1585	 9.8895858138418E-03 
1586	 9.94522476088299E-03 
1587	 1.00648652739431E-02 
1588	 9.98053974373532E-03 
1589	 1.01399832987433E-02 
1590	 1.02865710871814E-02 
1591	 1.00907793033798E-02 
1592	 1.01389573986372E-02 
1593	 1.00804455324483E-02 
1594	 1.00897197997544E-02 
1595	 0.010451605693136 
1596	 1.03490149417648E-02 
1597	 1.00700693165171E-02 
1598	 1.03722354853045E-02 
1599	 1.07967174451973E-02 
1600	 1.06699784738237E-02 
1601	 1.03714722083685E-02 
1602	 1.04793025577944E-02 
1603	 1.08244360078862E-02 
1604	 1.08319269600332E-02 
1605	 1.07044183297191E-02 
1606	 1.06954561028159E-02 
1607	 1.04170196770403E-02 
1608	 1.03436601856317E-02 
1609	 0.010735466909799 
1610	 0.010940463654389 
1611	 1.08152234149157E-02 
1612	 0.010740573294504 
1613	 1.08240076295463E-02 
1614	 1.08355990471864E-02 
1615	 1.06217978838746E-02 
1616	 0.010475064336051 
1617	 1.06849404877695E-02 
1618	 1.08771920432619E-02 
1619	 1.09501452315366E-02 
1620	 1.10909614785163E-02 
1621	 1.11439462602112E-02 
1622	 1.11644801185409E-02 
1623	 1.12442596295285E-02 
1624	 1.11947401009146E-02 
1625	 1.11286408988128E-02 
1626	 1.10556603808256E-02 
1627	 1.10142237050913E-02 
1628	 1.13497768369986E-02 
1629	 1.13189373923786E-02 
1630	 1.09687374229618E-02 
1631	 1.12249032594028E-02 
1632	 1.14666290642779E-02 
1633	 1.14175200300077E-02 
1634	 1.14154900106583E-02 
1635	 0.011455158076836 
1636	 1.14001965737878E-02 
1637	 1.12763259750661E-02 
1638	 1.15085277831383E-02 
1639	 1.15582929695741E-02 
1640	 1.11263082469862E-02 
1641	 1.12913205162174E-02 
1642	 1.17123039971632E-02 
1643	 1.14732987679253E-02 
1644	 1.15313037820854E-02 
1645	 1.19149877535623E-02 
1646	 1.17915111844164E-02 
1647	 1.17678614721356E-02 
1648	 1.18624902717731E-02 
1649	 1.15850218273131E-02 
1650	 1.13294800483853E-02 
1651	 1.14809669324307E-02 
1652	 1.17376022562357E-02 
1653	 1.15819905719908E-02 
1654	 1.15728210346527E-02 
1655	 1.16078059252177E-02 
1656	 1.16742279263105E-02 
1657	 1.18150727406349E-02 
1658	 1.17951059842599E-02 
1659	 1.17269994976719E-02 
1660	 1.18635894693046E-02 
1661	 1.21079192767824E-02 
1662	 1.20640943894302E-02 
1663	 1.19132603875302E-02 
1664	 1.19749538087553E-02 
1665	 1.20012873478254E-02 
1666	 1.18623894566717E-02 
1667	 1.16179014123501E-02 
1668	 1.17994759160712E-02 
1669	 1.21575039020345E-02 
1670	 1.19702257900426E-02 
1671	 1.20412794855251E-02 
1672	 1.21208959460068E-02 
1673	 1.18649815338103E-02 
1674	 1.21395983664356E-02 
1675	 1.24939845707671E-02 
1676	 0.012053292429258 
1677	 1.14737567693764E-02 
1678	 1.16849464239722E-02 
1679	 1.21312298253616E-02 
1680	 1.21310628203401E-02 
1681	 1.20934637648085E-02 
1682	 1.17840204572782E-02 
1683	 1.13485790702893E-02 
1684	 1.15722422013551E-02 
1685	 1.17538608132212E-02 
1686	 1.18511701429046E-02 
1687	 1.20271998985878E-02 
1688	 1.18752989327068E-02 
1689	 1.19638139351324E-02 
1690	 1.20398501537558E-02 
1691	 1.16598707001474E-02 
1692	 1.13781958618861E-02 
1693	 1.14772529716814E-02 
1694	 1.15248854114918E-02 
1695	 1.15570443090852E-02 
1696	 1.19609532588162E-02 
1697	 1.19734425164039E-02 
1698	 1.16384786676336E-02 
1699	 1.17879498574844E-02 
1700	 1.19202273550561E-02 
1701	 1.15770532182838E-02 
1702	 1.15105259116384E-02 
1703	 1.18117484699158E-02 
1704	 1.15201630045865E-02 
1705	 1.13877857910714E-02 
1706	 1.19015078162684E-02 
1707	 1.18413804978819E-02 
1708	 1.15233514617022E-02 
1709	 1.15947735839782E-02 
1710	 1.13715651079335E-02 
1711	 1.12005182116721E-02 
1712	 1.16183439803495E-02 
1713	 1.22923138856633E-02 
1714	 1.21658090088195E-02 
1715	 1.09010046940799E-02 
1716	 1.09584292355234E-02 
1717	 1.11456405241413E-02 
1718	 1.07713332310672E-02 
1719	 1.10677657730653E-02 
1720	 0.011385011083136 
1721	 1.06530022909404E-02 
1722	 1.05203900325338E-02 
1723	 0.011513327640965 
1724	 1.14804484493846E-02 
1725	 1.10405130143947E-02 
1726	 1.13711205964492E-02 
1727	 1.10768999182652E-02 
1728	 1.07806699100188E-02 
1729	 1.13290040775434E-02 
1730	 1.15378710393438E-02 
1731	 1.12280634286073E-02 
1732	 1.10154945282599E-02 
1733	 1.09823052362686E-02 
1734	 1.10011733013089E-02 
1735	 1.13464423902303E-02 
1736	 1.15738796830973E-02 
1737	 1.11425363338024E-02 
1738	 1.06896623662037E-02 
1739	 1.03623924588234E-02 
1740	 1.03331156814012E-02 
1741	 1.06464611725883E-02 
1742	 1.09026580547514E-02 
1743	 1.10381110251645E-02 
1744	 1.05439408476384E-02 
1745	 0.010413875795631 
1746	 1.09454941567403E-02 
1747	 1.07604098047295E-02 
1748	 1.07911722482954E-02 
1749	 1.05016605947715E-02 
1750	 9.10064421061011E-03 
1751	 9.08070779737892E-03 
1752	 9.67257155450662E-03 
1753	 9.65512547843164E-03 
1754	 1.04377108914787E-02 
1755	 1.07366960171627E-02 
1756	 1.01893810781185E-02 
1757	 0.010404681504188 
1758	 1.02521154679491E-02 
1759	 9.96307952201927E-03 
1760	 1.03667603256299E-02 
1761	 1.04391286663056E-02 
1762	 9.99407945620875E-03 
1763	 9.07597982017656E-03 
1764	 8.76825109722421E-03 
1765	 9.97025425626333E-03 
1766	 1.03907867546207E-02 
1767	 9.86402324576683E-03 
1768	 1.02746753397185E-02 
1769	 9.9496827961772E-03 
1770	 8.8094308390507E-03 
1771	 9.50874479294212E-03 
1772	 1.00714593850918E-02 
1773	 8.95082071023804E-03 
1774	 8.92653543389222E-03 
1775	 9.88434731151159E-03 
1776	 9.15505812084905E-03 
1777	 7.33465157059193E-03 
1778	 7.58972282599295E-03 
1779	 7.66750234427007E-03 
1780	 7.61845982027069E-03 
1781	 1.01775309613356E-02 
1782	 1.11023246826017E-02 
1783	 9.79683227906817E-03 
1784	 1.01332345282843E-02 
1785	 1.19581978888311E-02 
1786	 1.18064027767639E-02 
1787	 0.010024747715186 
1788	 9.43549225464179E-03 
1789	 8.40988993314372E-03 
1790	 1.06376483590636E-02 
1791	 1.30111687523041E-02 
1792	 1.40488894119775E-02 
1793	 1.37942873119809E-02 
1794	 1.22755221274794E-02 
1795	 1.11325408893458E-02 
1796	 1.43713625842566E-02 
1797	 1.78704313038472E-02 
1798	 1.84205717176139E-02 
1799	 1.63132168256562E-02 
1800	 7.51490000671853E-03 
1801	 8.18986571890255E-03 
1802	 2.87768824896804E-02 
1803	 4.03112576754123E-02 
1804	 6.35149536266262E-02 
1805	 6.81408904944683E-02 
1806	 1.39070556342901E-02 
1807	-2.07006442436564E-03 
1808	-1.05917202850438E-02 
1809	-1.26933375903707E-02 
1810	 9.79655444710416E-02 
1811	 0.131330090548959 
1812	 5.55610862102914E-02 
1813	 9.11103583379045E-04 
1814	-0.176186597124665 
1815	-0.161562058030976 
1816	 0.017073741237744 
1817	 6.18718577076725E-02 
1818	 0.129455954142973 
1819	 0.111989753942762 
1820	-2.51439701960947E-02 
1821	 8.78323534571501E-03 
1822	 9.96405929128699E-02 
1823	-5.84742989232809E-03 
1824	 3.07558574211927E-02 
1825	 0.30372094471702 
1826	 0.384404640336016 
1827	 0.794062989536903 
1828	 1.38495803560665 
1829	-1.23812974585354E-02 
1830	-0.20713850796617 
1831	 1.17924733109506 
1832	 0.72361823885017 
1833	 0.278117324550613 
1834	 0.178460003904632 
1835	 0.336201450268863 
1836	 0.46793666870054 
1837	 0.4587893908842 
1838	 0.478269424823866 
1839	 1.25590356929804 
1840	 1.22435246447794 
1841	 2.66447291248206 
1842	 0.22409019753932 
1843	 0.414521650704456 
1844	 0.99192761332983 
1845	 1.23511631625059 
1846	 7.46434343604325E-02 
1847	 0.464137973074894 
1848	 1.63730200294503 
1849	 5.1825487584174 
1850	-4.82833907970704 
1851	 13.8937165901601 
1852	 3.83785621056031 
1853	-12.8712354612181 
1854	 58.1446853342506 
1855	 2.78605433262592 
1856	 1.64005015697868 
1857	-0.23192081422699 
1858	-0.403483685097974 
1859	 1.31994611630178E-04 
1860	-59.7183338215607 
1861	-2.95359410959455 
1862	-1.10755246556116 
1863	-0.801307478882599 
1864	 0.796522782179322 
1865	 0.133567789591792 
1866	-0.605956231462758 
1867	-0.68045539218478 
1868	-0.435928526833622 
1869	-0.702662175861459 
1870	-2.7508548610023 
1871	-4.03283751988717 
1872	-1.02438875954722 
1873	-1.08595255896509 
1874	-1.01161909697787 
1875	-1.06083667905512 
1876	-2.41481567500583 
1877	 1.58648727629382 
1878	 1.40353405654306 
1879	 2.66982083297006 
1880	 2.63050503865717 
1881	 2.03976734870726 
1882	 1.83963060711372 
1883	 4.44469589705663 
1884	-2.46115318454758 
1885	-0.396120804599443 
1886	-0.419421150103342 
1887	-0.245459713952983 
1888	-0.281616439780748 
1889	-0.41174562187277 
1890	-0.856601012018561 
1891	-0.831620489058078 
1892	-8.73394734911377E-02 
1893	-0.86207623824981 
1894	-1.8915850754491 
1895	 4.52923499454487 
1896	 4.20194149625346 
1897	 5.8547829761719 
1898	 0.73904677068956 
1899	 0.830278598880275 
1900	 0.686765133936616 
1901	 0.79316302001417 
1902	 0.885861163890699 
1903	 5.65774236350595E-03 
1904	 0.246653866962289 
1905	 0.795931723232602 
1906	 0.228064995765158 
1907	 0.404887832994644 
1908	 0.155473078031977 
1909	-4.1534881148336 
1910	 1.19884961412705 
1911	 1.02290379398748 
1912	 5.68250491361728 
1913	-15.2374167442919 
1914	-0.41633874522732 
1915	 2.83735687346388E-02 
1916	 0.141148007303775 
1917	-8.62622746086958E-03 
1918	-0.467183803081721 
1919	-1.50642019646398 
1920	-1.30604038474464 
1921	-0.406790409098389 
1922	-1.02188285102307 
1923	 24.3921685339654 
1924	-0.501634999977244 
1925	 1.25168561373386 
1926	 2.46311558668609 
1927	 6.40248291460686 
1928	-26.6079902557452 
1929	 20.3904084973156 
1930	-9.90216472711159 
1931	-18.3108417374763 
1932	-1.03732777456744 
1933	-0.58021017257929 
1934	-0.196285170412679 
1935	 0.169944138668831 
1936	 0.482455141735343 
1937	 0.614867028130232 
1938	 0.337150085425425 
1939	 0.178870605422798 
1940	 6.83776711320792E-02 
1941	 6.02655237737107E-02 
1942	 0.052705650289558 
1943	-2.46172155837323E-03 
1944	-8.41683536990518E-02 
1945	-6.25525702743085E-02 
1946	 9.83190605355916E-03 
1947	 2.55003762810512E-02 
1948	 1.12162732958097E-02 
1949	-7.18041966693211E-03 
1950	-4.79369634719382E-02 
1951	-6.20164210017035E-02 
1952	-5.35191886955528E-02 
1953	-1.33288008527822E-02 
1954	 2.99462874233171E-02 
1955	 5.24403012876509E-02 
1956	 5.91865005258463E-02 
1957	 6.24624048698159E-02 
1958	 3.66034393145522E-02 
1959	 1.74375381343869E-02 
1960	 1.40238022225266E-02 
1961	 4.92855220405146E-04 
1962	-1.0846751213982E-03 
1963	 2.91072755967577E-03 
1964	 3.98138185349864E-03 
1965	 0.009179768462385 
1966	 9.42958478774051E-03 
1967	 8.81868055254433E-03 
1968	 6.9353836561466E-03 
1969	 7.9261310587522E-03 
1970	 6.62639354666658E-03 
1971	 6.0753070812811E-03 
1972	 8.30824076684959E-03 
1973	 7.52532018284645E-03 
1974	 4.76903001203029E-03 
1975	 0.00388260019603 
1976	 3.29474834437856E-03 
1977	 3.12850049291178E-03 
1978	 4.36410687855457E-03 
1979	 4.81016284908601E-03 
1980	 6.18276229726416E-03 
1981	 5.99233366189416E-03 
1982	 4.81688351864965E-03 
1983	 4.68558076561165E-03 
1984	 5.10193187122845E-03 
1985	 4.94209860870196E-03 
1986	 4.71209810827221E-03 
1987	 4.11507230727356E-03 
1988	 3.80964216279677E-03 
1989	 3.95905334946598E-03 
1990	 3.46316840786727E-03 
1991	 2.72776752532853E-03 
1992	 2.15597398910959E-03 
1993	 1.84460585771245E-03 
1994	 1.41987608333295E-03 
1995	 1.65465748589749E-03 
1996	 1.27485594244357E-03 
1997	 1.1843778080569E-03 
1998	 2.80958711598485E-03 
1999	 5.50557997519177E-03 
2000	 9.42391754025835E-03 
2001	 1.19358646842519E-02 
2002	 0.010241763379769 
2003	 7.13454480581998E-03 
2004	 6.04969516576794E-03 
2005	 5.33463235486234E-03 
2006	 2.36414351318154E-03 
2007	 1.0796732378496E-03 
2008	-3.68156998527255E-04 
2009	-1.98181401965413E-03 
2010	-4.44402532074845E-03 
2011	-2.94900160839161E-03 
2012	 4.04514479557202E-04 
2013	 2.25713884546945E-03 
2014	 7.02214863096168E-03 
2015	 9.56671914675386E-03 
2016	 6.62982617772552E-03 
2017	 6.00198412827311E-03 
2018	 4.25263971273168E-03 
2019	 1.78167699254069E-03 
2020	 5.61998673765681E-03 
2021	 8.59272351486256E-03 
2022	 8.64496181913046E-03 
2023	 9.10602864214576E-03 
2024	 8.85311287625598E-03 
2025	 6.38368094912892E-03 
2026	 5.44127640472367E-03 
2027	 4.93844663011173E-03 
2028	 5.43383720960952E-03 
2029	 5.44625387486936E-03 
2030	 4.33423475196138E-03 
2031	 3.9156942197581E-03 
2032	 3.53861830882476E-03 
2033	 2.67078547584255E-03 
2034	 2.27827589570913E-03 
2035	 2.25385011280145E-03 
2036	 2.31650099937673E-03 
2037	 2.60844035251893E-03 
2038	 0.003083005222962 
2039	 3.00243129910423E-03 
2040	 2.31452061368273E-03 
2041	 1.81859858771219E-03 
2042	 6.99374082411331E-04 
2043	 7.97869783287019E-04 
2044	 1.74318252025015E-03 
2045	 2.49202270330474E-03 
2046	 3.16987574756423E-03 
2047	 3.27451909812755E-03 
2048	 2.7672410040611E-03 
2049	 3.55062128525097E-03 
2050	 4.84657273377634E-03 
2051	 5.86990819132838E-03 
2052	 6.68110401329571E-03 
2053	 5.62266634182046E-03 
2054	 4.57336868868433E-03 
2055	 4.84607861294617E-03 
2056	 4.86730121785457E-03 
2057	 4.80503664136778E-03 
2058	 4.9672584203905E-03 
2059	 6.03785919981056E-03 
2060	 6.51038303824191E-03 
2061	 6.64624921834897E-03 
2062	 6.81880874991701E-03 
2063	 6.9895021758321E-03 
2064	 5.20757931567176E-03 
2065	 3.59713376165911E-03 
2066	 3.58990620404071E-03 
2067	 4.01394268972771E-03 
2068	 3.99263565290758E-03 
2069	 4.05925932457747E-03 
2070	 4.20492914199043E-03 
2071	 5.32286685288389E-03 
2072	 6.61239608026723E-03 
2073	 6.58578466957167E-03 
2074	 5.99869091851213E-03 
2075	 5.91041011715344E-03 
2076	 5.02485032928407E-03 
2077	 4.22251927516971E-03 
2078	 3.69210568284695E-03 
2079	 3.41093738588686E-03 
2080	 2.73935813104615E-03 
2081	 2.64028233352255E-03 
2082	 2.88371817792527E-03 
2083	 3.53096352467861E-03 
2084	 4.6764253100189E-03 
2085	 5.71959582198754E-03 
2086	 6.47919140630515E-03 
2087	 6.55681370873163E-03 
2088	 5.49892306300975E-03 
2089	 3.89582363448217E-03 
2090	 3.11152331620699E-03 
2091	 3.1023762466977E-03 
2092	 2.93215165973954E-03 
2093	 3.02027415581169E-03 
2094	 3.47983332573938E-03 
2095	 4.16020131803681E-03 
2096	 4.51105037506165E-03 
2097	 5.52300009935947E-03 
2098	 5.89351805948799E-03 
2099	 5.67731879567023E-03 
2100	 5.27124977508224E-03 
2101	 5.64242338296424E-03 
2102	 5.42470051181504E-03 
2103	 4.58042403914948E-03 
2104	 4.47122591847562E-03 
2105	 4.08452058093603E-03 
2106	 3.57349277488337E-03 
2107	 3.47196883039588E-03 
2108	 3.28852623179682E-03 
2109	 3.17965564754454E-03 
2110	 3.21548824326225E-03 
2111	 3.84241110728974E-03 
2112	 4.27039416171951E-03 
2113	 4.63745648208605E-03 
2114	 5.06186503098107E-03 
2115	 5.66145432524759E-03 
2116	 6.60737749891928E-03 
2117	 6.76398048449837E-03 
2118	 6.41131138707949E-03 
2119	 6.10593942763106E-03 
2120	 5.11322029511065E-03 
2121	 4.49887175097766E-03 
2122	 4.5925397348209E-03 
2123	 5.24628607835855E-03 
2124	 5.1659348615264E-03 
2125	 4.84529924369746E-03 
2126	 4.85855400634186E-03 
2127	 4.66634350922638E-03 
2128	 4.58716959852685E-03 
2129	 4.91789575847046E-03 
2130	 4.86815625659125E-03 
2131	 4.76882629388527E-03 
2132	 4.09796700583889E-03 
2133	 3.51505578330391E-03 
2134	 3.89560603942562E-03 
2135	 5.01156999813087E-03 
2136	 5.19256778807546E-03 
2137	 5.99981542427075E-03 
2138	 6.26325886809612E-03 
2139	 5.31159429214296E-03 
2140	 5.1454379518208E-03 
2141	 5.52184663187223E-03 
2142	 5.49430290691962E-03 
2143	 5.2901569277795E-03 
2144	 5.19701048136202E-03 
2145	 4.72826512678711E-03 
2146	 4.65865004150371E-03 
2147	 5.06874757237026E-03 
2148	 4.73278714638436E-03 
2149	 3.33873703083966E-03 
2150	 3.00677135563144E-03 
2151	 3.93194799289914E-03 
2152	 3.91471761855045E-03 
2153	 4.67399907091124E-03 
2154	 6.25701613776179E-03 
2155	 5.19545233464822E-03 
2156	 4.33601343902218E-03 
2157	 4.33848527275317E-03 
2158	 4.83917718820266E-03 
2159	 5.06943735199614E-03 
2160	 5.9531890123295E-03 
2161	 6.01600732413615E-03 
2162	 5.76107051967788E-03 
2163	 5.17610491788297E-03 
2164	 3.53094064546358E-03 
2165	 3.46772264585002E-03 
2166	 4.24440591566551E-03 
2167	 4.17025865094819E-03 
2168	 4.73375126069952E-03 
2169	 4.89728646946271E-03 
2170	 4.05199778361236E-03 
2171	 3.67598430896701E-03 
2172	 3.5573806420679E-03 
2173	 3.69991624303552E-03 
2174	 4.31641780625598E-03 
2175	 3.90622920709468E-03 
2176	 4.47456403766688E-03 
2177	 5.78140347515219E-03 
2178	 5.82653803175005E-03 
2179	 6.0215246227973E-03 
2180	 6.78185807651975E-03 
2181	 6.35515523384358E-03 
2182	 4.92872892896344E-03 
2183	 4.80679121575697E-03 
2184	 4.43040073954275E-03 
2185	 3.8377807817003E-03 
2186	 3.41068749375203E-03 
2187	 3.55030287053983E-03 
2188	 2.96283969143708E-03 
2189	 1.35499803389966E-03 
2190	 1.2126080059825E-03 
2191	 1.88692407561431E-03 
2192	 2.62926904518183E-03 
2193	 5.20599990743314E-03 
2194	 5.3742154124602E-03 
2195	 3.08793488970834E-03 
2196	 2.94799262000157E-03 
2197	 2.58784787851441E-03 
2198	 2.57384017849921E-03 
2199	 3.50399839551824E-03 
2200	 6.37258384513018E-03 
2201	 7.73574026856916E-03 
2202	 7.70093557952112E-03 
2203	 7.58851177639671E-03 
2204	 7.21472767406538E-03 
2205	 5.99036598867662E-03 
2206	 4.36840334589809E-03 
2207	 5.2554068816918E-03 
2208	 5.95445145895987E-03 
2209	 5.48869624881514E-03 
2210	 6.52117215570486E-03 
2211	 6.74820456429489E-03 
2212	 5.11223764878536E-03 
2213	 4.51812989287152E-03 
2214	 5.40798300047075E-03 
2215	 5.23933336272223E-03 
2216	 5.37160435799159E-03 
2217	 5.71228928123532E-03 
2218	 5.74947186054497E-03 
2219	 5.75653818226763E-03 
2220	 6.2809422074902E-03 
2221	 6.3190809959176E-03 
2222	 6.05840032886699E-03 
2223	 6.12173148543371E-03 
2224	 5.96130271325453E-03 
2225	 6.26019437186084E-03 
2226	 6.97665075878943E-03 
2227	 6.9399483997884E-03 
2228	 6.84653654725002E-03 
2229	 7.46571288785969E-03 
2230	 8.23997186082197E-03 
2231	 8.54308328282062E-03 
2232	 9.54277803461649E-03 
2233	 8.77875641037323E-03 
2234	 5.82561226063759E-03 
2235	 4.18722429868336E-03 
2236	 6.15604918218043E-03 
2237	 7.73516804401065E-03 
2238	 7.6139634839587E-03 
2239	 8.14533126297352E-03 
2240	 5.40240399348672E-03 
2241	 3.61144221296979E-03 
2242	 5.03642667914864E-03 
2243	 5.8429551910738E-03 
2244	 6.36762958567005E-03 
2245	 4.70199421837324E-03 
2246	 2.02653625626022E-03 
2247	 2.0637903093288E-03 
2248	 3.1164858053889E-03 
2249	 3.84590963468549E-03 
2250	 6.50037863868314E-03 
2251	 8.82956775950321E-03 
2252	 8.15768506107612E-03 
2253	 7.58505587847948E-03 
2254	 7.78836121094086E-03 
2255	 7.48681536719113E-03 
2256	 7.67103001667299E-03 
2257	 7.96830557202535E-03 
2258	 6.17250625625319E-03 
2259	 5.26967611310829E-03 
2260	 5.49283352558907E-03 
2261	 6.03142625175111E-03 
2262	 5.94048763766849E-03 
2263	 8.19201291128126E-03 
2264	 8.28471611173316E-03 
2265	 6.21481639917289E-03 
2266	 5.3709482919977E-03 
2267	 3.95510246320804E-03 
2268	 3.42445854447457E-03 
2269	 2.64771489181681E-03 
2270	 3.62879669003778E-03 
2271	 7.00464115141142E-03 
2272	 8.52764201646364E-03 
2273	 1.19517952264565E-02 
2274	 1.20904614823278E-02 
2275	 7.95432479334846E-03 
2276	 6.60342204131726E-03 
2277	 5.12653134051361E-03 
2278	 3.05450502465909E-03 
2279	 2.35212607494696E-03 
2280	 1.59991609551706E-03 
2281	-7.21874326203039E-04 
2282	-1.93811788230602E-03 
2283	-1.65777858547411E-03 
2284	-5.1328243982704E-04 
2285	 2.30867014956039E-03 
2286	 3.90198459629732E-03 
2287	 5.53176036608892E-03 
2288	 6.49871581773655E-03 
2289	 6.43247164990607E-03 
2290	 6.13747292642875E-03 
2291	 3.48351647001647E-03 
2292	 2.92283724818233E-03 
2293	 2.02047431712583E-03 
2294	 7.54959625214982E-04 
2295	 3.09922324002522E-03 
2296	 3.83192869794614E-03 
2297	 6.04598847167943E-03 
2298	 8.17392839905186E-03 
2299	 8.89868214203756E-03 
2300	 9.76838188229032E-03 
2301	 8.33660932608842E-03 
2302	 5.65156868060812E-03 
2303	 3.03589977168168E-03 
2304	 1.70313282226548E-03 
2305	 1.64149118186796E-04 
2306	 8.36404792252711E-04 
2307	 1.51278047585545E-03 
2308	-1.72281719463668E-04 
2309	 1.6892949491219E-03 
2310	 2.87695882181908E-03 
2311	 1.9944787281255E-03 
2312	 2.78445735898708E-03 
2313	 7.82901219860411E-04 
2314	 4.05580396040571E-04 
2315	 1.6636656393353E-03 
2316	 9.32850334569568E-04 
2317	 4.29235049167843E-03 
2318	 4.2647187529868E-03 
2319	 1.29697810989602E-03 
2320	 4.45275833838628E-03 
2321	 5.79489768638941E-03 
2322	 5.36815116025732E-03 
2323	 6.67094433189293E-03 
2324	 6.16859109465918E-03 
2325	 9.27970198564187E-03 
2326	 1.40423089664023E-02 
2327	 1.49190792975424E-02 
2328	 1.69477716423123E-02 
2329	 1.56332352291432E-02 
2330	 1.12368596713306E-02 
2331	 1.19172561010268E-02 
2332	 9.74636859808104E-03 
2333	 5.51559426704246E-03 
2334	 4.06127568794672E-03 
2335	-2.30063504280795E-05 
2336	 1.60033044615177E-03 
2337	 7.04721082888514E-03 
2338	 8.47915226616188E-03 
2339	 1.13293053187008E-02 
2340	 7.52744514586056E-03 
2341	-1.77711033225666E-04 
2342	 1.40543531035376E-03 
2343	 5.16162492827006E-03 
2344	 1.58544161128354E-02 
2345	 2.60702950721672E-02 
2346	 1.94965635886261E-02 
2347	 1.42231036299376E-02 
2348	 7.3587553330051E-03 
2349	-1.01948632272962E-03 
2350	 9.68287464273854E-03 
2351	 1.60803574968647E-02 
2352	 8.34295995995391E-03 
2353	 1.07817623368949E-02 
2354	 1.59270351140093E-02 
2355	 0.016600705123812 
2356	 2.29597313185265E-02 
2357	 2.30008843899371E-02 
2358	 1.39399233145691E-02 
2359	 7.05837698282546E-03 
2360	-3.34199144353601E-03 
2361	-6.5535431706065E-03 
2362	-7.26090140966102E-03 
2363	-4.80010766995819E-03 
2364	 5.4604984505687E-03 
2365	 6.98547929300071E-03 
2366	 1.47882666016274E-02 
2367	 1.38501143567817E-02 
2368	 3.27763223802558E-03 
2369	 1.61024676481101E-03 
2370	 1.01731065494838E-03 
2371	 1.79823715404648E-02 
2372	 0.026360712426517 
2373	 1.93631347082467E-02 
2374	 2.15415473936968E-02 
2375	 9.3528522566522E-03 
2376	-2.36459568944432E-03 
2377	 1.52534522263369E-02 
2378	 1.69610682143327E-02 
2379	-9.55158187665634E-03 
2380	-0.018598797273238 
2381	-1.60052435897013E-02 
2382	 0.00420228140101 
2383	 3.64204595656844E-02 
2384	 4.53456380379285E-02 
2385	 4.35524254127736E-02 
2386	 1.55346686951657E-02 
2387	-1.69148740313868E-02 
2388	-2.69345670940821E-03 
2389	 2.67192943097746E-03 
2390	-0.013659549311762 
2391	 0.015160237229663 
2392	 4.47860012875247E-02 
2393	 2.15320668561259E-02 
2394	 9.98375515700716E-03 
2395	 9.46789236558454E-03 
2396	-2.77145466420437E-02 
2397	-1.68070309978627E-02 
2398	 3.09300989880672E-02 
2399	 2.84902382570216E-02 
2400	 4.11934453626287E-02 
2401	 4.79918557560693E-02 
2402	 0.020857961045633 
2403	 0.03637884694377 
2404	 2.11794447675796E-02 
2405	-1.44183226252536E-02 
2406	 2.08985869871092E-02 
2407	 0.056129913415585 
2408	 9.39408546014079E-02 
2409	 0.170260166578537 
2410	 0.212733686205412 
2411	 0.182542097134404 
2412	 0.106168795088344 
2413	 2.70087689488023E-02 
2414	-0.100937544088493 
2415	-0.158446112529004 
2416	-0.102609405600316 
2417	-9.06924781980718E-02 
2418	-8.20996484926184E-02 
2419	-9.17834737894385E-02 
2420	-0.188275624320151 
2421	-0.117262487651556 
2422	 1.81225549556479E-02 
2423	 0.111065953763803 
2424	 0.240609028609435 
2425	 0.188343708931422 
2426	 9.20294986328258E-02 
2427	 4.01438800141028E-02 
2428	 1.04734367512193E-02 
2429	 8.89384297829027E-02 
2430	 0.125684361275637 
2431	 0.154447310007429 
2432	 0.153420109866746 
2433	 3.44896644031487E-02 
2434	-4.14006602743481E-02 
2435	-0.055624477596692 
2436	-0.090715396716371 
2437	-8.61518672268711E-03 
2438	 9.14440157454673E-02 
2439	 5.63438253242503E-02 
2440	 5.59436729064521E-02 
2441	-3.55176861087306E-02 
2442	-0.339663435214291 
2443	-0.293432649616309 
2444	-0.298718649329828 
2445	-0.213854293861902 
2446	 0.367970600267403 
2447	 1.31871419698624 
2448	 1.46996720082776 
2449	 0.482096010291092 
2450	 0.324221469045519 
2451	 0.361433678308837 
2452	 1.92602952839957 
2453	 1.84074687981822 
2454	 0.324197420907143 
2455	-0.565626010720325 
2456	-0.325388607754053 
2457	-0.144444122412576 
2458	-2.54536515070434E-02 
2459	-2.44889495823436E-02 
2460	-0.23150056026116 
2461	-0.311275505793527 
2462	-0.353438322503345 
2463	-0.277435288147677 
2464	-0.316970938547548 
2465	-0.110635091115955 
2466	 0.22585695667231 
2467	 4.43076673638194E-02 
2468	 0.510845289343799 
2469	 0.420732213445917 
2470	-0.47594655483591 
2471	-0.373640582881734 
2472	 4.98452769590309E-03 
2473	-0.418304983964927 
2474	-0.846689435424191 
2475	 0.275408713238606 
2476	 4.63940897629161 
2477	 1.43700882884034 
2478	 1.57254513186308E-02 
2479	-5.89439624634058E-02 
2480	 0.393480474274835 
2481	 1.56034043457535E-02 
2482	-0.418606662169966 
2483	-0.354577817763824 
2484	-0.492861029787788 
2485	-0.5745849329497 
2486	 0.678306137891939 
2487	 0.909240671994479 
2488	-15.4400305081427 
2489	 2.41171123443635 
2490	 6.6776245187093 
2491	 0.700954215547285 
2492	 0.42820281460907 
2493	 0.179152579735827 
2494	-0.436925732468429 
2495	-0.925115998889563 
2496	-1.53593975262333 
2497	 30.5119105932271 
2498	 0.791838987928602 
2499	 1.80692807501636 
2500	-1.00279325853518 
