Wavelength	rt0716clean00004.asd
350	 3.29882360741888E-02 
351	 3.13726558665769E-02 
352	 3.08145641904415E-02 
353	 3.09179600159901E-02 
354	 0.030852497968706 
355	 3.01870995316653E-02 
356	 3.02334707590475E-02 
357	 0.030733146573226 
358	 3.09736262821265E-02 
359	 3.06525413280692E-02 
360	 3.02507486716894E-02 
361	 3.02745834408961E-02 
362	 3.10082693019322E-02 
363	 3.07788850048432E-02 
364	 3.03515262873272E-02 
365	 3.02630716701258E-02 
366	 3.02383811310886E-02 
367	 3.02442440305313E-02 
368	 3.03726615025489E-02 
369	 3.05429863971907E-02 
370	 2.98524259432484E-02 
371	 2.99731801800989E-02 
372	 3.05626615472186E-02 
373	 3.02604837852568E-02 
374	 3.00557128346694E-02 
375	 3.00882816910862E-02 
376	 3.03942364561535E-02 
377	 3.09726221629283E-02 
378	 3.05549284409158E-02 
379	 3.01997970041486E-02 
380	 3.07749432670546E-02 
381	 3.07680629897869E-02 
382	 3.11491777255358E-02 
383	 3.15603831033973E-02 
384	 3.12359634689638E-02 
385	 3.11849348472579E-02 
386	 0.031153087217443 
387	 3.12039494962562E-02 
388	 3.18091651736214E-02 
389	 3.20211020016393E-02 
390	 3.18916574802928E-02 
391	 3.17660147813959E-02 
392	 3.21950600442891E-02 
393	 3.22407995301434E-02 
394	 3.22511632048077E-02 
395	 3.27446585496154E-02 
396	 3.24434224032954E-02 
397	 3.24695765971886E-02 
398	 3.28714672815013E-02 
399	 3.27405724237899E-02 
400	 3.27249074124414E-02 
401	 3.28233196688892E-02 
402	 3.29669786254277E-02 
403	 3.31942305676408E-02 
404	 3.33169245071651E-02 
405	 3.33620848115865E-02 
406	 3.34231623878715E-02 
407	 3.34254970829539E-02 
408	 3.35765050364322E-02 
409	 0.033800450240581 
410	 3.37606810219887E-02 
411	 3.37413044778066E-02 
412	 3.38746554199596E-02 
413	 3.41564772285005E-02 
414	 0.034354818588842 
415	 3.45167196698689E-02 
416	 3.46238725936184E-02 
417	 3.46684507006374E-02 
418	 3.48224560131504E-02 
419	 3.49631386269243E-02 
420	 3.50936649260916E-02 
421	 3.53660124438486E-02 
422	 3.56050394264984E-02 
423	 3.58753670157184E-02 
424	 3.61920958336858E-02 
425	 3.62817079091673E-02 
426	 3.64409895496318E-02 
427	 3.67063829715076E-02 
428	 3.69941344323389E-02 
429	 3.73846182870456E-02 
430	 3.76752081283912E-02 
431	 3.78795050670021E-02 
432	 3.82835887090979E-02 
433	 3.85278793440717E-02 
434	 0.038724967886105 
435	 3.90249558379426E-02 
436	 3.93785233716969E-02 
437	 3.97057532644839E-02 
438	 0.039990629835468 
439	 4.02527818413678E-02 
440	 4.04617536710875E-02 
441	 0.04074763805903 
442	 4.11335447128401E-02 
443	 4.14714236650646E-02 
444	 4.16752772588186E-02 
445	 0.041856643771879 
446	 4.21373836470261E-02 
447	 4.24477243702598E-02 
448	 4.27312663258079E-02 
449	 4.29489869054558E-02 
450	 4.30910739692438E-02 
451	 4.33059659351196E-02 
452	 4.34948328778926E-02 
453	 0.043613525343577 
454	 0.043809125937104 
455	 4.39096327804863E-02 
456	 4.40175492353577E-02 
457	 4.42571256842209E-02 
458	 4.43225141308009E-02 
459	 4.43670640061992E-02 
460	 4.44874595656902E-02 
461	 4.46921278207205E-02 
462	 4.48569919575389E-02 
463	 0.044956822529735 
464	 4.50085308541093E-02 
465	 4.50731187705205E-02 
466	 4.51163428262236E-02 
467	 4.52230086905288E-02 
468	 4.54831383998806E-02 
469	 4.55988700900869E-02 
470	 4.56859296260513E-02 
471	 4.58103979948018E-02 
472	 4.59185316543144E-02 
473	 0.046021975461594 
474	 4.62317083423907E-02 
475	 4.65623136465714E-02 
476	 4.65906379409665E-02 
477	 4.67413817624459E-02 
478	 4.70077344415053E-02 
479	 4.71141052721425E-02 
480	 4.73700764788052E-02 
481	 4.76040509989985E-02 
482	 4.77582683043784E-02 
483	 4.81391375972367E-02 
484	 4.84581680419413E-02 
485	 4.87077481458645E-02 
486	 4.89691361319105E-02 
487	 4.92007680578751E-02 
488	 4.94086389299556E-02 
489	 4.96363323269409E-02 
490	 4.99554788708937E-02 
491	 5.02949196374888E-02 
492	 5.06431863700976E-02 
493	 5.10033286646156E-02 
494	 5.13957919105199E-02 
495	 5.17468778964033E-02 
496	 5.21191048793281E-02 
497	 5.26055499780989E-02 
498	 5.29197267891399E-02 
499	 0.0532542357234 
500	 0.053694081806165 
501	 5.40824749293617E-02 
502	 5.45563621625634E-02 
503	 5.50098078686848E-02 
504	 5.53567303287415E-02 
505	 0.055862244387669 
506	 5.63581122936995E-02 
507	 5.68009379169896E-02 
508	 5.72566850188432E-02 
509	 5.77806030618011E-02 
510	 5.82236989260184E-02 
511	 5.85482880368242E-02 
512	 5.90482965827801E-02 
513	 5.95950374176561E-02 
514	 6.01692076459405E-02 
515	 6.07786982709885E-02 
516	 6.13730207447305E-02 
517	 0.061957250739947 
518	 6.25126626789204E-02 
519	 6.29883549288533E-02 
520	 6.35366403285183E-02 
521	 6.41756421426099E-02 
522	 0.064854828442004 
523	 6.53922228037468E-02 
524	 6.60137400481253E-02 
525	 6.67488371433562E-02 
526	 6.74795816061027E-02 
527	 6.81138250030284E-02 
528	 6.87446685354056E-02 
529	 0.06941329890613 
530	 6.99954039382732E-02 
531	 7.06429794802444E-02 
532	 7.13795027658027E-02 
533	 7.21520551321904E-02 
534	 7.27932765678093E-02 
535	 7.34574017984345E-02 
536	 7.41989437057221E-02 
537	 7.49323372284156E-02 
538	 7.57250364332753E-02 
539	 7.65065281556854E-02 
540	 7.72182423490887E-02 
541	 0.077937714982401 
542	 7.87014895059453E-02 
543	 7.94609086556324E-02 
544	 8.01399854049006E-02 
545	 8.09491312825442E-02 
546	 8.17602992555116E-02 
547	 0.082491606814008 
548	 8.32341446815001E-02 
549	 8.39743988369771E-02 
550	 8.47326269368558E-02 
551	 0.085518896613447 
552	 8.62242219448826E-02 
553	 8.69782591425814E-02 
554	 8.77735230656553E-02 
555	 8.84355637288674E-02 
556	 8.91555199739384E-02 
557	 8.99067866731043E-02 
558	 0.090623541328518 
559	 9.13181631624835E-02 
560	 9.20117084377178E-02 
561	 9.26943413776071E-02 
562	 9.33424931334193E-02 
563	 9.39738329912155E-02 
564	 9.45610518568416E-02 
565	 9.51031817647115E-02 
566	 9.56622605113861E-02 
567	 9.62084105417627E-02 
568	 9.67344542410843E-02 
569	 9.72340982063138E-02 
570	 0.097672676161249 
571	 9.81346457363968E-02 
572	 9.86208548357797E-02 
573	 9.90359421362743E-02 
574	 9.93722011037184E-02 
575	 9.97219669338574E-02 
576	 0.10013944319948 
577	 0.100487903335919 
578	 0.100818275341994 
579	 0.101108025741852 
580	 0.101303607039697 
581	 0.10149273746183 
582	 0.101636164210084 
583	 0.101727695645084 
584	 0.101850341084542 
585	 0.101970840386751 
586	 0.101967356454153 
587	 0.101759723608885 
588	 0.101722592904573 
589	 0.101790025432592 
590	 0.101837320669432 
591	 0.101735555702291 
592	 0.101626273337557 
593	 0.101493046925904 
594	 0.101306502302946 
595	 0.101107313188071 
596	 0.100738205962912 
597	 0.100293557345303 
598	 9.99764790731919E-02 
599	 9.94983052771342E-02 
600	 0.099070829756042 
601	 9.88328606194618E-02 
602	 9.87048407931813E-02 
603	 9.85263897759196E-02 
604	 9.84345127859144E-02 
605	 9.85730333285149E-02 
606	 0.09857798789787 
607	 9.85277925584731E-02 
608	 9.85343242505731E-02 
609	 9.87066753887358E-02 
610	 9.86991365816796E-02 
611	 9.86973406771952E-02 
612	 9.88451533418359E-02 
613	 9.88116107311789E-02 
614	 9.88244943358642E-02 
615	 9.88862529398224E-02 
616	 9.88873923966973E-02 
617	 0.098935877948579 
618	 0.098934604834965 
619	 9.88718288792867E-02 
620	 9.89073057455317E-02 
621	 9.88947019387815E-02 
622	 9.88770572091539E-02 
623	 9.89362518261758E-02 
624	 0.09905068251162 
625	 9.90392877614056E-02 
626	 9.89209547937377E-02 
627	 9.89066073583259E-02 
628	 9.90048903592889E-02 
629	 0.099054499451597 
630	 9.89752717303587E-02 
631	 9.89856249814516E-02 
632	 9.89784472154088E-02 
633	 9.89639939449233E-02 
634	 9.89900192914117E-02 
635	 9.89507172659476E-02 
636	 9.89775189015382E-02 
637	 9.90837303257808E-02 
638	 9.90878375504357E-02 
639	 9.90520441303953E-02 
640	 9.90025323610334E-02 
641	 0.098962612122377 
642	 0.09896733173862 
643	 9.89512332978472E-02 
644	 9.89018691658919E-02 
645	 9.88500362739809E-02 
646	 9.87604436275525E-02 
647	 9.86773311437009E-02 
648	 9.86278130904705E-02 
649	 9.85721283456527E-02 
650	 9.84250811326674E-02 
651	 9.82267291759552E-02 
652	 9.80538241146135E-02 
653	 9.78089375231272E-02 
654	 9.75179435205652E-02 
655	 9.71434549114778E-02 
656	 9.66145923213882E-02 
657	 9.62786386931667E-02 
658	 0.096085564876237 
659	 9.58763669161217E-02 
660	 9.54343446817591E-02 
661	 9.50723999294559E-02 
662	 9.48239388162249E-02 
663	 9.45675018397551E-02 
664	 9.44800673343315E-02 
665	 9.43701377997601E-02 
666	 9.41540587159179E-02 
667	 9.40179691628806E-02 
668	 9.39470294494179E-02 
669	 9.38687837243603E-02 
670	 9.37370965115636E-02 
671	 9.37660008607338E-02 
672	 9.37428703211756E-02 
673	 9.36773006015063E-02 
674	 9.37874160175789E-02 
675	 9.38436687758415E-02 
676	 9.38668684420348E-02 
677	 9.39260150238708E-02 
678	 9.40984070304707E-02 
679	 9.42223050035371E-02 
680	 0.094316546805547 
681	 0.094473002736125 
682	 9.46400541707804E-02 
683	 9.48681233208176E-02 
684	 9.51072664009791E-02 
685	 9.51757290312577E-02 
686	 9.52561653552777E-02 
687	 9.54038489156785E-02 
688	 9.55745791150962E-02 
689	 9.56198075202568E-02 
690	 9.55533411683269E-02 
691	 9.54333655903792E-02 
692	 9.53424497914138E-02 
693	 0.095330110521649 
694	 9.50786692211407E-02 
695	 9.46053916200443E-02 
696	 9.44614113234228E-02 
697	 9.41708624819824E-02 
698	 0.093638742367565 
699	 9.29666911648895E-02 
700	 0.09248119065576 
701	 9.20079208725614E-02 
702	 9.14103052288308E-02 
703	 9.06204115868713E-02 
704	 0.089999846340408 
705	 8.92997460597467E-02 
706	 8.83966570796401E-02 
707	 8.75941649361444E-02 
708	 8.66535969333068E-02 
709	 8.55785335160464E-02 
710	 8.44414559588154E-02 
711	 8.31618720508509E-02 
712	 8.18811395743661E-02 
713	 0.080560355671879 
714	 7.89294152809573E-02 
715	 7.73703366778611E-02 
716	 7.58349966397887E-02 
717	 0.074244486381533 
718	 7.20926970680456E-02 
719	 7.02421160678052E-02 
720	 6.88216768757509E-02 
721	 6.72836782989497E-02 
722	 6.57701357913093E-02 
723	 6.39223802777144E-02 
724	 6.19266410695054E-02 
725	 6.01628893499558E-02 
726	 5.82030676853498E-02 
727	 5.59915593638505E-02 
728	 5.36149159532424E-02 
729	 5.12344412648664E-02 
730	 4.86634864631241E-02 
731	 4.62036696451234E-02 
732	 4.41255986473528E-02 
733	 4.23706380085466E-02 
734	 4.07854054115863E-02 
735	 3.93769149865747E-02 
736	 3.83241045902866E-02 
737	 3.74636448878648E-02 
738	 0.036817715231259 
739	 3.64011777364274E-02 
740	 3.60282172205941E-02 
741	 0.035770566472416 
742	 3.56303072813357E-02 
743	 3.55698150240569E-02 
744	 3.55917773084146E-02 
745	 3.55822197352533E-02 
746	 3.54832272944351E-02 
747	 3.53242194266651E-02 
748	 3.52556399579614E-02 
749	 0.035275799549841 
750	 3.53343769699707E-02 
751	 3.53927513424909E-02 
752	 3.53761730292345E-02 
753	 3.53431398559756E-02 
754	 3.54052139578918E-02 
755	 3.54533551343363E-02 
756	 3.54077573364676E-02 
757	 3.53186036280139E-02 
758	 3.54582754047648E-02 
759	 0.03551443118691 
760	 3.54897462066164E-02 
761	 0.035615047793603 
762	 3.58645982683999E-02 
763	 3.57769809564745E-02 
764	 3.57105310248777E-02 
765	 0.036034331955256 
766	 3.62295136980093E-02 
767	 3.63227240730731E-02 
768	 3.64168353458313E-02 
769	 3.66618260195971E-02 
770	 0.036913164566951 
771	 3.71222463627275E-02 
772	 3.72938086268456E-02 
773	 3.75225004024516E-02 
774	 3.77162382297528E-02 
775	 3.79409229570547E-02 
776	 3.82910374505499E-02 
777	 3.85793698720508E-02 
778	 0.038908691815764 
779	 3.92927530968243E-02 
780	 0.039639914277319 
781	 3.99301316291687E-02 
782	 0.04028477151413 
783	 4.07365365083667E-02 
784	 4.10475222126697E-02 
785	 4.15456573532699E-02 
786	 4.20851091115122E-02 
787	 4.24306990851185E-02 
788	 4.28798831776425E-02 
789	 4.32673541645582E-02 
790	 4.36058367313162E-02 
791	 4.40594764387461E-02 
792	 4.45486686774324E-02 
793	 4.50220464579642E-02 
794	 4.54648374544812E-02 
795	 4.58960282148907E-02 
796	 4.62808404797077E-02 
797	 4.66619608369944E-02 
798	 4.70810667231675E-02 
799	 4.74452231482384E-02 
800	 0.047777189696866 
801	 0.048103061759353 
802	 0.048428599565253 
803	 4.85656675891879E-02 
804	 4.87243531989989E-02 
805	 4.88946342798971E-02 
806	 4.88114702418993E-02 
807	 4.88492813978038E-02 
808	 4.89113486608416E-02 
809	 4.88447018691726E-02 
810	 4.86041582554952E-02 
811	 4.82281321989228E-02 
812	 4.79407108303914E-02 
813	 4.79321758383623E-02 
814	 4.75732800942948E-02 
815	 0.04703263010705 
816	 4.64328749766151E-02 
817	 0.045813253015985 
818	 0.04534754040853 
819	 4.46588957057348E-02 
820	 4.36603770087853E-02 
821	 4.27029638117003E-02 
822	 4.15822376797625E-02 
823	 0.040310416797041 
824	 3.89243000903832E-02 
825	 3.71691009844404E-02 
826	 3.55349694867595E-02 
827	 3.38527829017001E-02 
828	 3.19249136247784E-02 
829	 3.02837407295369E-02 
830	 2.86049801939708E-02 
831	 2.70137977146954E-02 
832	 2.59717920185155E-02 
833	 2.50941342360884E-02 
834	 2.43770129025055E-02 
835	 2.37839001101856E-02 
836	 0.02319846131994 
837	 2.28470466959238E-02 
838	 0.022534161795788 
839	 2.20971458684816E-02 
840	 2.16838715961383E-02 
841	 2.13095873836938E-02 
842	 2.09778546948566E-02 
843	 2.06772374236869E-02 
844	 2.03609279747665E-02 
845	 2.01740602417325E-02 
846	 2.00712993861618E-02 
847	 1.98818917759774E-02 
848	 1.96211522912907E-02 
849	 1.93987220574184E-02 
850	 0.019201345068465 
851	 1.88558985064311E-02 
852	 1.85762168941829E-02 
853	 0.018414452734885 
854	 1.82872183516984E-02 
855	 1.79116640717426E-02 
856	 1.75843846322569E-02 
857	 1.74087775475713E-02 
858	 1.73268564710205E-02 
859	 1.69286897910475E-02 
860	 1.67222357407156E-02 
861	 1.66979703894015E-02 
862	 1.65748027434721E-02 
863	 1.62636750966204E-02 
864	 1.59873475951941E-02 
865	 1.58159524551709E-02 
866	 1.56573694906329E-02 
867	 0.015579673204606 
868	 1.53435271997775E-02 
869	 1.49803976287596E-02 
870	 0.014890305568371 
871	 1.44180478662042E-02 
872	 1.40957385956679E-02 
873	 1.41781589544129E-02 
874	 1.37321437943989E-02 
875	 1.33049080171371E-02 
876	 1.31644323272347E-02 
877	 1.32387824856026E-02 
878	 1.25728182785443E-02 
879	 1.22671229621596E-02 
880	 1.23083392388257E-02 
881	 0.012147833414957 
882	 1.17031371955038E-02 
883	 1.12327678946512E-02 
884	 1.09757146558277E-02 
885	 1.10443587715108E-02 
886	 1.09245258909091E-02 
887	 1.05393528871429E-02 
888	 1.01482807351377E-02 
889	 1.02475415088687E-02 
890	 9.9974240399062E-03 
891	 9.69375474785312E-03 
892	 9.56351452999368E-03 
893	 9.30490287848332E-03 
894	 9.2664502576653E-03 
895	 9.19469280162586E-03 
896	 8.84547478173344E-03 
897	 8.65185831585849E-03 
898	 8.12863476774394E-03 
899	 7.87030297265211E-03 
900	 8.23184691797602E-03 
901	 7.56976725819974E-03 
902	 7.18399176669904E-03 
903	 7.08242457777387E-03 
904	 6.95276436434459E-03 
905	 7.67396925402272E-03 
906	 7.62857074569206E-03 
907	 6.73558818926019E-03 
908	 6.13740331000371E-03 
909	 5.82500671163923E-03 
910	 6.1886309457924E-03 
911	 6.49044479992237E-03 
912	 5.41436958888128E-03 
913	 5.81466217664204E-03 
914	 5.78083925715007E-03 
915	 4.84148191215315E-03 
916	 4.69863495812935E-03 
917	 4.36576393281001E-03 
918	 3.95470172989479E-03 
919	 3.63683564584193E-03 
920	 3.4623270111514E-03 
921	 0.003677583208583 
922	 3.55160262274316E-03 
923	 2.96104163364662E-03 
924	 3.47437044501909E-03 
925	 2.66075145149985E-03 
926	 2.62484460215932E-03 
927	 4.75128429445229E-03 
928	 1.46840453884014E-03 
929	-2.95891091810222E-04 
930	 5.37850638413467E-04 
931	 1.51141596851202E-03 
932	 2.84802307630611E-03 
933	 1.65735511783445E-03 
934	 3.03426380131229E-04 
935	 1.85167264908392E-03 
936	-1.15085474837568E-03 
937	-7.66551054383098E-04 
938	 1.10471313459677E-03 
939	 8.07055740920965E-04 
940	-2.86682092624098E-04 
941	 3.32967098296484E-03 
942	 6.73149830435716E-03 
943	 1.90481462355332E-03 
944	-2.46150457428276E-03 
945	 1.83141079284908E-04 
946	 5.22643534428938E-03 
947	 3.52871021844145E-03 
948	-1.08092214540412E-03 
949	-3.31116979381974E-03 
950	-2.59403751618525E-03 
951	-1.27193011868429E-03 
952	 1.4682369394725E-03 
953	 3.12642959600921E-03 
954	 2.56203423948784E-03 
955	 4.06983282708618E-04 
956	 2.37554255030524E-04 
957	 1.27953414797215E-03 
958	 7.98287386632522E-04 
959	-2.74304481470209E-03 
960	 3.32071943520305E-03 
961	 6.43412435482566E-03 
962	 4.42401400942625E-03 
963	 3.48140829975699E-03 
964	 2.85079529450192E-03 
965	 2.07599258716348E-03 
966	 1.83300895388074E-03 
967	 2.99419789284887E-03 
968	 1.56407060956393E-03 
969	 1.56967806465732E-03 
970	 2.69278802641761E-03 
971	 1.15238987490482E-03 
972	 1.43782287611361E-03 
973	 2.1074891972187E-03 
974	 2.14346471988595E-03 
975	 1.74736333593267E-03 
976	 1.86767506556275E-03 
977	 1.44885500742443E-03 
978	 7.00117472346991E-04 
979	 8.89122123695736E-04 
980	 1.25704672250592E-03 
981	 1.87315554630107E-03 
982	 2.28372805899903E-03 
983	 1.83595765782816E-03 
984	 1.67459891468034E-03 
985	 1.69896481479983E-03 
986	 1.38502595139783E-03 
987	 4.32559712607401E-04 
988	 1.82355970556628E-03 
989	 1.26976542634607E-03 
990	-2.41305352139894E-04 
991	 1.54087685817171E-03 
992	 1.59589878069933E-03 
993	 1.46115730494108E-03 
994	 1.25744159577542E-03 
995	 2.16034637096722E-04 
996	 6.39206686103394E-04 
997	 2.91055721686211E-04 
998	-4.89212356676131E-04 
999	 1.02394048721258E-04 
1000	 1.27778294348819E-03 
1001	 2.08879868012733E-03 
1002	 1.90978610256815E-03 
1003	 1.94140388604609E-03 
1004	 2.16300553832987E-03 
1005	 2.00888325236384E-03 
1006	 1.57030342141982E-03 
1007	 1.37969580150228E-03 
1008	 1.15406255274116E-03 
1009	 9.92587836468769E-04 
1010	 1.18860847596732E-03 
1011	 1.18688043796373E-03 
1012	 1.0324588116756E-03 
1013	 7.43121457874041E-04 
1014	 6.57743428915376E-04 
1015	 7.27495954644549E-04 
1016	 8.24965880316757E-04 
1017	 1.09840655722886E-03 
1018	 1.08252338606656E-03 
1019	 8.19068376088713E-04 
1020	 7.60670968497696E-04 
1021	 5.04767097104943E-04 
1022	 7.15958184842323E-04 
1023	 8.57226752247043E-04 
1024	 1.10691763619528E-03 
1025	 1.36000186707203E-03 
1026	 1.24210182392266E-03 
1027	 1.17802484550217E-03 
1028	 1.04940945186263E-03 
1029	 1.02571922341525E-03 
1030	 8.8056976341053E-04 
1031	 9.37149005877049E-04 
1032	 1.15295505830196E-03 
1033	 1.40198450969324E-03 
1034	 2.01415360375032E-03 
1035	 2.05214311107448E-03 
1036	 1.85421008741609E-03 
1037	 1.6456580590162E-03 
1038	 8.29369748277128E-04 
1039	 4.29847111176809E-04 
1040	 3.67090657583531E-04 
1041	 7.51338009856068E-04 
1042	 9.70518363223083E-04 
1043	 1.42955639089974E-03 
1044	 1.71418572550979E-03 
1045	 2.05343282895513E-03 
1046	 2.08925646214164E-03 
1047	 2.09363763053129E-03 
1048	 1.94962453781217E-03 
1049	 1.26412632667596E-03 
1050	 1.07798893317795E-03 
1051	 1.07125407450317E-03 
1052	 1.05291148737846E-03 
1053	 1.30700183470999E-03 
1054	 1.4221447955266E-03 
1055	 1.51163818207486E-03 
1056	 1.54309170859723E-03 
1057	 1.53116476174319E-03 
1058	 1.46707891289047E-03 
1059	 1.43759826987612E-03 
1060	 1.38839892409802E-03 
1061	 1.27375023516144E-03 
1062	 1.07718816056683E-03 
1063	 0.001047390478117 
1064	 8.78028135613874E-04 
1065	 1.02851460436951E-03 
1066	 1.71815871307167E-03 
1067	 1.91729117405371E-03 
1068	 2.07673824653776E-03 
1069	 2.11445702447595E-03 
1070	 1.65668339017242E-03 
1071	 1.49723663099567E-03 
1072	 1.45901775048181E-03 
1073	 1.51161152631426E-03 
1074	 1.44095385706258E-03 
1075	 1.3707997180579E-03 
1076	 1.42228734520095E-03 
1077	 1.44589128938884E-03 
1078	 1.48970951662312E-03 
1079	 1.78518411671425E-03 
1080	 1.79832919087129E-03 
1081	 1.52008141979727E-03 
1082	 1.50643153033795E-03 
1083	 1.56052480528505E-03 
1084	 1.52253437736076E-03 
1085	 1.64277137070128E-03 
1086	 1.61801037337115E-03 
1087	 1.35012545444437E-03 
1088	 1.23888334410614E-03 
1089	 1.23610232601283E-03 
1090	 9.76472957121265E-04 
1091	 1.11037530163544E-03 
1092	 1.59916829900461E-03 
1093	 1.54700931248607E-03 
1094	 1.35876284179005E-03 
1095	 1.38862762821055E-03 
1096	 1.03101722320133E-03 
1097	 1.12198404186011E-03 
1098	 2.09527871072194E-03 
1099	 2.22292341833911E-03 
1100	 1.5592343705818E-03 
1101	 1.59682961532185E-03 
1102	 2.11626844380079E-03 
1103	 1.93347546132686E-03 
1104	 1.55057034525884E-03 
1105	 1.44888436373686E-03 
1106	 1.07372788665397E-03 
1107	 5.22909929304198E-04 
1108	 1.15578603925435E-03 
1109	 2.33080851968202E-03 
1110	 2.47626994254686E-03 
1111	 1.62174115876215E-03 
1112	 1.63210801089235E-03 
1113	 1.3262952438227E-03 
1114	 1.09035657383234E-03 
1115	 2.07741771955339E-03 
1116	 2.06014786358152E-03 
1117	 5.37184374358743E-04 
1118	 3.72054491543097E-04 
1119	 1.52392733293126E-04 
1120	 1.18095131673965E-04 
1121	 2.13438388490836E-03 
1122	 3.93231392082737E-03 
1123	 7.25473358681472E-04 
1124	 2.10036198170356E-03 
1125	 5.48608575834771E-03 
1126	 4.11823515785339E-04 
1127	-1.2903979923728E-03 
1128	 2.92303665519422E-03 
1129	 2.13126134290906E-03 
1130	-3.33114244988826E-03 
1131	-1.22019961374925E-03 
1132	 4.57966253867538E-03 
1133	 4.24464732302157E-03 
1134	 4.33334326303136E-03 
1135	 3.83832460780916E-03 
1136	-5.60477649540802E-04 
1137	-1.5559669266057E-03 
1138	-7.90802163921934E-04 
1139	 4.96809615433859E-04 
1140	 8.68070683323746E-04 
1141	 1.68188130351961E-04 
1142	 7.25476559502353E-04 
1143	 1.92906139329868E-03 
1144	 1.59483110327478E-03 
1145	 1.97355734944825E-03 
1146	 2.11732480716557E-03 
1147	 5.0801157210551E-04 
1148	 3.93434832683099E-04 
1149	 1.68224334013728E-03 
1150	 1.64745654081908E-03 
1151	 2.18217565385464E-04 
1152	 6.52436859990943E-04 
1153	 1.69702985050647E-03 
1154	 0.001714736929004 
1155	 1.71883303840222E-03 
1156	 2.73551447270499E-03 
1157	 1.45114536766457E-03 
1158	 2.11699708130335E-04 
1159	 4.11207927153652E-04 
1160	 5.32862471651146E-04 
1161	 9.96396174574455E-04 
1162	 1.52379106859844E-03 
1163	 1.1915863754395E-03 
1164	 4.23395686849644E-04 
1165	 3.06622321191706E-04 
1166	 6.91842660165728E-04 
1167	 1.02254305958206E-03 
1168	 1.33278707436431E-03 
1169	 1.13570546993972E-03 
1170	 6.99346105396493E-04 
1171	 5.48254281268275E-04 
1172	 3.87274736609283E-04 
1173	 3.43813637771794E-04 
1174	 4.73138834650165E-04 
1175	 7.23213415877378E-04 
1176	 6.26567786488762E-04 
1177	 6.73069410829319E-04 
1178	 7.43737748985877E-04 
1179	 8.20326508788528E-04 
1180	 1.20315320522329E-03 
1181	 1.02374215572462E-03 
1182	 7.08944003006531E-04 
1183	 7.78173111491851E-04 
1184	 6.24398268472163E-04 
1185	 9.3620099884542E-04 
1186	 1.33088804517109E-03 
1187	 8.71674549872878E-04 
1188	 6.06941731342929E-04 
1189	 8.04019521508189E-04 
1190	 8.58556153587939E-04 
1191	 9.61043386042149E-04 
1192	 1.01374513650241E-03 
1193	 1.03639062080703E-03 
1194	 7.09588298493459E-04 
1195	 5.75008436513447E-04 
1196	 8.80838054203416E-04 
1197	 1.06252641882285E-03 
1198	 1.02830103912795E-03 
1199	 0.001079905574298 
1200	 1.00146764787031E-03 
1201	 9.9014337332166E-04 
1202	 1.05241558906912E-03 
1203	 1.00622871771648E-03 
1204	 9.41116129661417E-04 
1205	 9.6136866239769E-04 
1206	 1.16226072652198E-03 
1207	 0.001171501188551 
1208	 8.97819956642496E-04 
1209	 7.00080510333154E-04 
1210	 7.48144599565958E-04 
1211	 8.17868457535941E-04 
1212	 7.63099583277367E-04 
1213	 9.64344277179261E-04 
1214	 1.08585396320391E-03 
1215	 1.03456323528576E-03 
1216	 7.68628943482347E-04 
1217	 9.13420263021855E-04 
1218	 9.62468322820796E-04 
1219	 8.35606814930099E-04 
1220	 1.05123406166754E-03 
1221	 1.09060669459861E-03 
1222	 9.45202824811879E-04 
1223	 1.03819140489444E-03 
1224	 1.0378574150249E-03 
1225	 9.21532905635472E-04 
1226	 1.06152315575723E-03 
1227	 1.13365087100525E-03 
1228	 8.84790096037197E-04 
1229	 8.23431702754423E-04 
1230	 9.85461662082763E-04 
1231	 8.33011574282905E-04 
1232	 6.86951270783723E-04 
1233	 7.68930437320844E-04 
1234	 6.19920183881544E-04 
1235	 5.92126724345977E-04 
1236	 6.73006456766278E-04 
1237	 7.28635300309425E-04 
1238	 8.23951744128117E-04 
1239	 8.70156391303507E-04 
1240	 7.28391193652839E-04 
1241	 5.48764537417118E-04 
1242	 6.48292824617318E-04 
1243	 8.01903267836172E-04 
1244	 7.76463896882893E-04 
1245	 8.58190882146478E-04 
1246	 1.00008458972172E-03 
1247	 8.62832599603574E-04 
1248	 8.34756629143611E-04 
1249	 1.08823362881813E-03 
1250	 9.63817754953079E-04 
1251	 6.62576140321707E-04 
1252	 8.62089808114705E-04 
1253	 1.11663494949714E-03 
1254	 1.03733964519647E-03 
1255	 9.50197241933483E-04 
1256	 9.02467319073238E-04 
1257	 6.6293883392744E-04 
1258	 5.90985929618584E-04 
1259	 6.67112433833708E-04 
1260	 7.42403744357104E-04 
1261	 8.87815738332463E-04 
1262	 9.41070929486465E-04 
1263	 1.01463254191057E-03 
1264	 1.01893990517258E-03 
1265	 8.40330656519573E-04 
1266	 7.07079723180076E-04 
1267	 6.48154313415719E-04 
1268	 7.06872913206929E-04 
1269	 8.31321743861922E-04 
1270	 8.19351183874301E-04 
1271	 8.09564579392615E-04 
1272	 8.28305430384581E-04 
1273	 7.97401572359876E-04 
1274	 7.76674015551162E-04 
1275	 6.21898696403974E-04 
1276	 7.52224387483183E-04 
1277	 1.14657957506822E-03 
1278	 1.20994579010613E-03 
1279	 1.1358480930221E-03 
1280	 9.97542119263136E-04 
1281	 9.692745382788E-04 
1282	 1.01438856800922E-03 
1283	 8.89827769009355E-04 
1284	 6.73160153465837E-04 
1285	 6.9208841190034E-04 
1286	 6.28022991224933E-04 
1287	 5.58050430997834E-04 
1288	 7.96747988711654E-04 
1289	 8.9188697053974E-04 
1290	 8.05318913894748E-04 
1291	 6.76791028715829E-04 
1292	 7.66929282505513E-04 
1293	 7.98533114694044E-04 
1294	 3.6371885476541E-04 
1295	 2.81048174897735E-04 
1296	 6.1446469264587E-04 
1297	 5.27109565058643E-04 
1298	 6.4751324695603E-04 
1299	 1.06173013387105E-03 
1300	 9.92225414492579E-04 
1301	 6.8534866083889E-04 
1302	 7.30111129936699E-04 
1303	 8.13126823145261E-04 
1304	 5.7656542748121E-04 
1305	 6.24682951817778E-04 
1306	 7.69791842375115E-04 
1307	 9.24494891988282E-04 
1308	 9.38929944385996E-04 
1309	 1.13477684250692E-03 
1310	 1.28213689722186E-03 
1311	 1.22518723732838E-03 
1312	 1.07764617111794E-03 
1313	 1.04082231829114E-03 
1314	 1.08610824879738E-03 
1315	 9.21605645494863E-04 
1316	 6.60700273692258E-04 
1317	 3.51853150410767E-04 
1318	 4.07736921845211E-04 
1319	 6.06843081077906E-04 
1320	 5.91349668327489E-04 
1321	 8.96674672047953E-04 
1322	 1.07259387421193E-03 
1323	 6.63371373014032E-04 
1324	 7.6949763854843E-04 
1325	 1.45117155944014E-03 
1326	 1.59748074644017E-03 
1327	 1.16395582464511E-03 
1328	 1.98253526129027E-04 
1329	 9.81365053441858E-05 
1330	 1.07162987797435E-03 
1331	 9.39880105510303E-04 
1332	 8.53336653909582E-04 
1333	 1.30667580756799E-03 
1334	 9.88742591176748E-04 
1335	 8.34421391319707E-04 
1336	 1.68104797785938E-03 
1337	 1.77002005589621E-03 
1338	 4.50148494379119E-04 
1339	 5.89619509031846E-04 
1340	 2.61672335686932E-03 
1341	 2.68451514137826E-03 
1342	 9.04055420496096E-04 
1343	 1.20081148752963E-03 
1344	 2.1049182471437E-03 
1345	 1.97172696518007E-03 
1346	 4.31006645387855E-03 
1347	 6.51359661483523E-03 
1348	 4.91725922429516E-03 
1349	 3.9881319506065E-03 
1350	 8.41647467215592E-03 
1351	 1.08083895538961E-02 
1352	-5.53261988532599E-03 
1353	-9.90909849717309E-03 
1354	 0.015080717942816 
1355	 5.68429943639061E-02 
1356	 3.74748143925962E-02 
1357	 8.50210388643408E-02 
1358	 0.108613064100659 
1359	-8.06649989029708E-03 
1360	 0.118940002664447 
1361	 0.221596999646204 
1362	 8.93827718793569E-02 
1363	 7.02378868263431E-02 
1364	 0.116285036210576 
1365	 6.97484410307262E-02 
1366	-2.63115115064453E-02 
1367	 4.86044279264453E-02 
1368	 0.220995908333483 
1369	 0.394123076390518 
1370	 0.323692148735713 
1371	 0.167765072722362 
1372	 0.213462945295163 
1373	 9.52633696053535E-02 
1374	-2.51522960523155E-02 
1375	 0.232340400170936 
1376	 0.376735726016962 
1377	 0.389537478523517 
1378	 0.23577790224771 
1379	 0.136094673833934 
1380	 0.175776301232551 
1381	-5.37842980981042E-02 
1382	-0.228728175178041 
1383	 9.34357512913454E-02 
1384	 0.173566434827965 
1385	-0.131990602193647 
1386	-0.115968765131626 
1387	 0.301392021414182 
1388	 0.380092158981175 
1389	 0.268955454519456 
1390	 0.286092227596515 
1391	 0.198140700270246 
1392	 0.268470425729284 
1393	 0.303015690780264 
1394	 0.300807197496284 
1395	 0.605150655827003 
1396	 0.628587071451109 
1397	 0.116109115889926 
1398	 0.121513854485876 
1399	-5.61980563927014E-02 
1400	-0.258651472850344 
1401	 0.153007592898766 
1402	 0.163060749149552 
1403	-0.186741591482744 
1404	-0.103926143589725 
1405	-0.15660599745226 
1406	-0.292743017931682 
1407	-0.347085328373603 
1408	-0.394558618638199 
1409	-0.241164300235857 
1410	 9.79266950459501E-02 
1411	 5.87072095892989E-02 
1412	-6.79647984131645E-02 
1413	-2.67063982046864E-02 
1414	-6.03982100457822E-02 
1415	-8.37793312455434E-02 
1416	 6.20113093819016E-03 
1417	 0.057898596447999 
1418	 4.54285517839839E-02 
1419	 4.53989574420852E-03 
1420	-1.54405267320395E-02 
1421	-1.82305842448405E-04 
1422	-1.42229431505286E-02 
1423	-1.95723841286222E-02 
1424	 1.28950188113504E-03 
1425	 2.31499673856391E-02 
1426	 4.48509974398051E-02 
1427	 4.01197204614616E-02 
1428	 2.56058564482076E-02 
1429	 3.27723137931097E-02 
1430	 4.23902992249423E-02 
1431	 3.56248534284527E-02 
1432	 3.49822127817067E-02 
1433	 0.038803340307548 
1434	 1.68507610484962E-02 
1435	 9.1258986991534E-03 
1436	 1.43173150421122E-02 
1437	 0.04654559251655 
1438	 3.89787233260244E-02 
1439	 9.74500462862062E-03 
1440	 6.31792064293765E-03 
1441	 6.44618158898717E-03 
1442	-6.11761530942259E-04 
1443	 1.69540017386055E-03 
1444	 1.03941645177483E-02 
1445	 9.91518186475003E-03 
1446	-1.71564213273389E-03 
1447	-3.3413297863737E-03 
1448	 3.96332143653268E-03 
1449	 3.02374074623532E-03 
1450	 0.001275128254069 
1451	 4.55821639492082E-03 
1452	 3.60542935715289E-03 
1453	-6.05820030402956E-04 
1454	-1.77587967620668E-03 
1455	 1.90101067920166E-03 
1456	 3.57215301293014E-03 
1457	 3.11862069725255E-03 
1458	 2.58381461351599E-03 
1459	 3.8702700033189E-03 
1460	 3.99439324283363E-03 
1461	 1.52840275883062E-03 
1462	 1.22068422996872E-03 
1463	 2.74033227426386E-03 
1464	 3.31311676344174E-03 
1465	 3.84910132667367E-03 
1466	 3.33622680920733E-03 
1467	 1.90682959799495E-03 
1468	 2.57914704527578E-03 
1469	 4.72179451051805E-03 
1470	 2.93389446049826E-03 
1471	-8.0263149864372E-04 
1472	-3.78999264952143E-04 
1473	-6.34606955779227E-04 
1474	-1.23629725954161E-03 
1475	 1.84800142225786E-03 
1476	 2.49667853832901E-03 
1477	-2.81933048530976E-04 
1478	-6.39306113445678E-04 
1479	 8.49075848315705E-04 
1480	 1.27596649922329E-03 
1481	 1.10886128366794E-03 
1482	 1.32579080179502E-03 
1483	 2.20529149555436E-03 
1484	 2.17105635624179E-03 
1485	 1.43502030088052E-03 
1486	 1.23847268579889E-03 
1487	 1.0121086398634E-03 
1488	 7.8357773762671E-04 
1489	 7.96302564672411E-04 
1490	 8.73599074128018E-04 
1491	 8.94784435957643E-04 
1492	 8.50921225885126E-04 
1493	 6.66020663493619E-04 
1494	 8.29078017388256E-04 
1495	 1.42685285674838E-03 
1496	 1.29858142041798E-03 
1497	 8.2808781600531E-04 
1498	 8.61297601209558E-04 
1499	 8.04726654101286E-04 
1500	 6.6252933196626E-04 
1501	 8.28404640098078E-04 
1502	 8.65457390946506E-04 
1503	 5.46059623445637E-04 
1504	 4.31884652683143E-04 
1505	 5.2924502101823E-04 
1506	 6.59752529020132E-04 
1507	 6.17872464959586E-04 
1508	 5.09621438046893E-04 
1509	 6.58748790445564E-04 
1510	 8.08335791691018E-04 
1511	 7.91508055120403E-04 
1512	 8.74306378582996E-04 
1513	 8.93331581945006E-04 
1514	 7.88062110846675E-04 
1515	 7.51725797068907E-04 
1516	 6.10641660379638E-04 
1517	 3.6087522977587E-04 
1518	 5.84253090806848E-04 
1519	 9.06826169523686E-04 
1520	 8.88060826836534E-04 
1521	 9.02886923412242E-04 
1522	 7.64902057024362E-04 
1523	 5.92099710458902E-04 
1524	 6.71457715204857E-04 
1525	 6.19866286686266E-04 
1526	 4.62067581469217E-04 
1527	 5.32627717918934E-04 
1528	 5.23648851695727E-04 
1529	 3.99632742856173E-04 
1530	 4.66586566126722E-04 
1531	 4.94810122960058E-04 
1532	 4.21795242845034E-04 
1533	 3.99506457261635E-04 
1534	 4.16462990309046E-04 
1535	 4.3099921804309E-04 
1536	 5.03542444934337E-04 
1537	 6.4552391584173E-04 
1538	 7.62120087306305E-04 
1539	 7.87463577234693E-04 
1540	 6.55107612706789E-04 
1541	 6.57015791486347E-04 
1542	 7.83718969998395E-04 
1543	 7.25036259980817E-04 
1544	 7.55405401647639E-04 
1545	 8.30416430500667E-04 
1546	 7.10059208931939E-04 
1547	 6.40843596526176E-04 
1548	 5.65591248651568E-04 
1549	 4.25254643445557E-04 
1550	 3.61227353291527E-04 
1551	 2.07527896169106E-04 
1552	 1.3944556623059E-04 
1553	 2.64885305328192E-04 
1554	 3.54397176112408E-04 
1555	 4.88182126739365E-04 
1556	 4.15196751826551E-04 
1557	 2.2081744760037E-04 
1558	 3.42422523973434E-04 
1559	 4.38155489350837E-04 
1560	 5.37034189915653E-04 
1561	 6.02169403378421E-04 
1562	 4.2246866747991E-04 
1563	 3.041217433059E-04 
1564	 2.10047357785171E-04 
1565	 3.14287876975178E-04 
1566	 4.67543957156358E-04 
1567	 3.20847498803517E-04 
1568	 2.84865475520909E-04 
1569	 3.16290533968101E-04 
1570	 1.8864868531335E-04 
1571	 1.3211537084065E-04 
1572	 2.36696712977154E-04 
1573	 4.85491271119244E-04 
1574	 5.70228738868605E-04 
1575	 2.63625609303749E-04 
1576	 3.0709832777432E-04 
1577	 6.46592814469666E-04 
1578	 5.26326519675384E-04 
1579	 6.66109640253333E-04 
1580	 7.75596673126947E-04 
1581	 2.00338822246877E-04 
1582	 1.60159094427898E-04 
1583	 5.17033639709793E-04 
1584	 4.85544600628528E-04 
1585	 4.50924395590708E-04 
1586	 4.00216693467527E-04 
1587	 2.63086335717549E-04 
1588	 3.01909815597447E-04 
1589	 3.64374090565363E-04 
1590	 3.35797586110433E-04 
1591	 3.14857685932472E-04 
1592	 1.69503742848735E-04 
1593	 1.46319952405406E-04 
1594	 2.98197226077804E-04 
1595	 3.15499939946021E-04 
1596	 4.29940741717495E-04 
1597	 4.63248146423824E-04 
1598	 2.81902709924568E-04 
1599	 3.02686629647104E-04 
1600	 3.07618125988527E-04 
1601	 3.08003585811197E-04 
1602	 5.48208256883657E-04 
1603	 4.32149356862068E-04 
1604	 1.50838525493319E-04 
1605	 4.88754586526585E-04 
1606	 6.29549277819276E-04 
1607	 2.86401298423285E-04 
1608	 4.32961299628673E-04 
1609	 7.48404322830096E-04 
1610	 7.17536803643685E-04 
1611	 7.16686177004479E-04 
1612	 7.98253740389855E-04 
1613	 6.7454679817847E-04 
1614	 5.47483523093379E-04 
1615	 6.34165202214308E-04 
1616	 6.09981921474319E-04 
1617	 4.0181646532125E-04 
1618	 1.30376712154442E-04 
1619	 2.40176862385116E-05 
1620	 3.39982826976672E-04 
1621	 6.63464522792155E-04 
1622	 6.85885531072733E-04 
1623	 5.38895783617245E-04 
1624	 4.86242440321003E-04 
1625	 5.83859194669883E-04 
1626	 5.50037484795886E-04 
1627	 5.6495326689356E-04 
1628	 7.83204163021112E-04 
1629	 6.95574015775886E-04 
1630	 3.9300283893074E-04 
1631	 6.85729674354732E-04 
1632	 9.5693471686085E-04 
1633	 7.46131259466942E-04 
1634	 8.21186208899139E-04 
1635	 9.18783868823492E-04 
1636	 8.71175958263883E-04 
1637	 8.72494695381665E-04 
1638	 8.08198059033306E-04 
1639	 7.62414093130446E-04 
1640	 7.47486156942188E-04 
1641	 7.63426992146144E-04 
1642	 6.72322522934897E-04 
1643	 4.60356497515809E-04 
1644	 3.78163945542617E-04 
1645	 4.04880122025316E-04 
1646	 6.41363750620791E-04 
1647	 9.28921845124687E-04 
1648	 5.74113362466156E-04 
1649	 1.46114178842219E-04 
1650	 6.88353166987337E-04 
1651	 1.22347449013597E-03 
1652	 9.40859542251399E-04 
1653	 5.37674748752519E-04 
1654	 4.57356571993871E-04 
1655	 3.69808102367912E-04 
1656	 5.20731281821829E-04 
1657	 1.1739698106793E-03 
1658	 1.15136804664958E-03 
1659	 6.42535582950884E-04 
1660	 6.11959018321173E-04 
1661	 6.03380569807011E-04 
1662	 6.22321890517329E-04 
1663	 8.61946275567286E-04 
1664	 1.02142041045821E-03 
1665	 1.15131543681529E-03 
1666	 1.0328240997792E-03 
1667	 7.98629262892613E-04 
1668	 6.60924783535271E-04 
1669	 6.1718647327179E-04 
1670	 6.62693551924395E-04 
1671	 9.32520379336955E-04 
1672	 9.93583753450484E-04 
1673	 7.31040826408866E-04 
1674	 8.10657558099192E-04 
1675	 1.00613307856334E-03 
1676	 1.14451719382058E-03 
1677	 1.26072139917459E-03 
1678	 1.10811539291051E-03 
1679	 9.33682357021943E-04 
1680	 8.28506638491109E-04 
1681	 8.69180000303297E-04 
1682	 1.17815935425211E-03 
1683	 1.22959691896245E-03 
1684	 8.23473523578206E-04 
1685	 5.12645951531504E-04 
1686	 5.92257690251696E-04 
1687	 9.5040330379806E-04 
1688	 1.17470526681406E-03 
1689	 7.3897750210056E-04 
1690	 2.40569207748565E-04 
1691	 3.4267603349542E-04 
1692	 6.92788435755585E-04 
1693	 1.20766130420699E-03 
1694	 1.48083168764117E-03 
1695	 9.18796223809119E-04 
1696	 2.9158499470557E-04 
1697	 5.80766828015029E-04 
1698	 1.08662939659344E-03 
1699	 1.01697964085874E-03 
1700	 1.16356579368537E-03 
1701	 1.13840654351289E-03 
1702	 4.43486290508872E-04 
1703	 4.04939263846585E-04 
1704	 5.35774101898027E-04 
1705	 4.01231862072898E-04 
1706	 9.79899847545064E-04 
1707	 1.25876013932594E-03 
1708	 8.90877713884868E-04 
1709	 9.30965655415978E-04 
1710	 1.10980624699413E-03 
1711	 1.14326173067053E-03 
1712	 1.06716870404976E-03 
1713	 5.63756251144197E-04 
1714	 5.89090992368684E-04 
1715	 1.18468135903257E-03 
1716	 1.38100520219828E-03 
1717	 1.11401921351597E-03 
1718	 6.30703799075662E-04 
1719	 7.0620297864058E-04 
1720	 1.09239365197141E-03 
1721	 1.37058843368811E-03 
1722	 1.11818378737776E-03 
1723	 2.88494240510774E-04 
1724	 1.00151060638494E-04 
1725	 3.80089956907395E-04 
1726	 1.67560956260835E-04 
1727	 4.69234489069748E-04 
1728	 8.00570725874927E-04 
1729	 1.6624440457342E-04 
1730	 4.31958293983808E-04 
1731	 1.07928250709357E-03 
1732	 6.59597228675232E-04 
1733	 6.34076979066977E-04 
1734	 8.36081105493618E-04 
1735	 4.80478820239899E-04 
1736	 4.25453387326581E-04 
1737	 5.35415269525676E-04 
1738	 2.88304897354463E-04 
1739	 2.21730375256461E-04 
1740	 4.70814090127278E-04 
1741	 6.59338453852518E-04 
1742	 8.4745848870528E-04 
1743	 7.54554896831165E-04 
1744	 6.57249870238035E-04 
1745	 9.78264534127952E-04 
1746	 7.74622332668289E-04 
1747	 6.83393338832306E-04 
1748	 1.27514551520746E-04 
1749	 8.88284023589293E-05 
1750	 9.70230140886377E-04 
1751	 9.92232177219427E-04 
1752	 7.80795382902805E-04 
1753	 8.8647609012125E-04 
1754	 4.96451666098209E-04 
1755	 2.06617871646981E-04 
1756	 3.68614619238852E-04 
1757	-7.83512181577938E-04 
1758	-1.02339718586329E-03 
1759	-2.72677194753449E-04 
1760	-1.7718867262562E-04 
1761	 3.2895911955966E-04 
1762	 5.39697787353695E-04 
1763	-5.78617700839271E-05 
1764	 3.3380941948835E-04 
1765	 4.45762273251259E-04 
1766	 1.73047903452434E-04 
1767	 2.77368068114662E-04 
1768	 3.77761525164985E-04 
1769	 5.66142268734272E-04 
1770	 1.04403706011347E-03 
1771	 1.24893420003871E-03 
1772	 3.0673768679269E-04 
1773	 1.159258612202E-04 
1774	 5.44098440093403E-04 
1775	 1.58756311199717E-03 
1776	 1.87288497959386E-03 
1777	 1.83480703281567E-03 
1778	 1.71202507404311E-03 
1779	-7.97059831873598E-04 
1780	-7.99759232883335E-04 
1781	 2.5174954964476E-03 
1782	 2.73488080713995E-03 
1783	 3.56381734250784E-03 
1784	 3.68537269809096E-03 
1785	-1.03083046180139E-03 
1786	-1.85264539160813E-03 
1787	-5.83344713469765E-04 
1788	 7.08376883930755E-04 
1789	 6.02244741243889E-03 
1790	 8.57184942076948E-03 
1791	 8.26607847571388E-03 
1792	 3.65837626636031E-03 
1793	-6.12650640190986E-03 
1794	-9.2382429198873E-03 
1795	-9.43782703458143E-03 
1796	-1.36641899221173E-03 
1797	 1.10816578361875E-02 
1798	 8.38243553748865E-03 
1799	 1.13120249336404E-02 
1800	 6.11126337107001E-03 
1801	 7.25204084471653E-04 
1802	-6.2211665446731E-04 
1803	-3.21709674602301E-03 
1804	-7.02284429580557E-03 
1805	-3.69347569803317E-03 
1806	 1.18090947700358E-02 
1807	 2.25642238135918E-02 
1808	 3.64607705215947E-02 
1809	 3.57063621259392E-02 
1810	-1.16449077829928E-02 
1811	 2.99754933717898E-02 
1812	 0.131610306950062 
1813	 0.189753073974647 
1814	 0.331355516916996 
1815	 0.337542174275363 
1816	 0.157595902728321 
1817	 0.045897643548403 
1818	-4.64056448855222E-03 
1819	 0.31727407277059 
1820	 0.319323234325526 
1821	 0.770378984732177 
1822	 0.942037365844283 
1823	 0.430835974754286 
1824	 0.387036042333318 
1825	 0.311083100192274 
1826	 0.37605453698193 
1827	 1.36092980714028 
1828	 3.13396581805134 
1829	 5.38626803660112 
1830	 2.26215967716039 
1831	 2.15404172655434 
1832	 1.5756763346514 
1833	 1.16211302689465 
1834	 0.971741786114389 
1835	 0.647688962590293 
1836	 0.359058136754127 
1837	-0.756218184384479 
1838	-1.47212324855278 
1839	-2.44147474184567 
1840	-0.742529905632259 
1841	-3.30210041372323 
1842	 0.364239125555986 
1843	 0.140326937883913 
1844	 1.02480639567294 
1845	 1.72666573482321 
1846	-0.335955781268912 
1847	-0.139411324539163 
1848	-0.578640757805067 
1849	-1.32584530279682 
1850	-1.37612264670324 
1851	 3.998578415757 
1852	 2.79522323058791 
1853	-4.64066268320159 
1854	 21.7658541459767 
1855	 0.285832650739102 
1856	 0.4584582216092 
1857	 0.701910451157794 
1858	 0.687691254898636 
1859	 1.15295112035212 
1860	-4.80449207248977 
1861	 18.1837707236409 
1862	 2.31902701958532 
1863	 1.45419238049811 
1864	 0.998425000177397 
1865	-0.139765615607166 
1866	-0.63661775248553 
1867	-0.688634786317321 
1868	 2.97641992062976E-02 
1869	 0.235908103974824 
1870	 0.788303600976873 
1871	 0.526224929253744 
1872	-8.08133320437334E-02 
1873	-0.199720912151868 
1874	-0.363124076832263 
1875	-0.877804250141979 
1876	-2.02335373460651 
1877	 0.619947981035333 
1878	 0.306189602389948 
1879	-0.54046423620681 
1880	-0.984782719226003 
1881	-1.23648208445503 
1882	-1.14051826499013 
1883	-1.46008693692031 
1884	-0.789637732574734 
1885	-0.324582547230518 
1886	-0.259004767000494 
1887	-0.285436811382158 
1888	-0.123384001940177 
1889	-0.341795201544703 
1890	-1.43633576002433 
1891	-1.7295904191622 
1892	-1.82091415210085 
1893	-1.66517871868759 
1894	-0.39400584690147 
1895	-3.33243793861643 
1896	-2.82923837248285 
1897	-5.63080331190359 
1898	-1.26767842332783 
1899	-4.06235731039309 
1900	-1.39796036278053 
1901	-1.03801613112686 
1902	-1.31067252381988 
1903	-1.37552311845343 
1904	-0.519948979709038 
1905	 1.45129327269641 
1906	 0.202685877896258 
1907	 0.350240353659526 
1908	 1.16832790741373 
1909	 5.82119135326902 
1910	-0.566338811680083 
1911	-0.315058595873578 
1912	 0.852888297257982 
1913	-3.82713747696037 
1914	 0.763197243347329 
1915	 0.469895463623882 
1916	 2.40442141205005E-02 
1917	-8.54321239496535E-02 
1918	-0.237490048916583 
1919	-0.927356080665681 
1920	-0.315616374983482 
1921	-0.714323950615171 
1922	-0.407463590072493 
1923	-2.37138437763542 
1924	 2.83732181292048 
1925	 4.03532199107222 
1926	 3.9486504779542 
1927	 3.40942474091408 
1928	 25.3353376061656 
1929	-35.9440621628233 
1930	 14.4172534383732 
1931	-35.5077274915337 
1932	 5.09560379386102E-02 
1933	 0.202175591545221 
1934	 0.21511314619334 
1935	 0.289190010591606 
1936	 0.307385590214044 
1937	 7.71030016933176E-02 
1938	-0.190698670433532 
1939	-0.266295393630999 
1940	-0.271979743883073 
1941	-0.27188479688325 
1942	-0.243392229057469 
1943	-8.47050975235703E-02 
1944	 2.59915742379946E-02 
1945	 0.083319064530283 
1946	 8.03542012718187E-02 
1947	 1.31960080513212E-02 
1948	-3.59970847200699E-02 
1949	-4.88766951408112E-02 
1950	-4.84676819730909E-02 
1951	-0.026021753805532 
1952	-1.90782340165938E-02 
1953	-3.42359657853444E-02 
1954	-0.035321317255045 
1955	 0.008388135911735 
1956	 3.01752637050874E-02 
1957	 3.67489565654292E-02 
1958	 3.57778308211305E-02 
1959	 1.49253905696872E-02 
1960	 7.74823759864726E-03 
1961	 9.70950394108649E-03 
1962	 7.08157659474198E-03 
1963	 5.35356074170594E-03 
1964	 8.98055671324864E-04 
1965	-2.25048971824022E-03 
1966	-1.4939304743239E-03 
1967	 1.67691148155144E-03 
1968	 6.19663358906214E-03 
1969	 6.59577979651772E-03 
1970	 2.6166231382033E-03 
1971	-1.10241968659597E-03 
1972	-3.01384347828429E-03 
1973	-1.32800961085161E-03 
1974	 1.44388241927027E-03 
1975	 2.7408809522169E-03 
1976	 3.85527355440446E-03 
1977	 1.61260279023104E-03 
1978	-1.78783232148731E-03 
1979	-2.35740470151745E-03 
1980	-1.83663076807704E-03 
1981	-1.79210264808994E-03 
1982	-7.2793303878141E-04 
1983	 1.28930710037774E-03 
1984	 1.79703656667859E-03 
1985	 1.79374626557799E-03 
1986	 2.41740402902947E-03 
1987	 3.78820297005288E-03 
1988	 4.17305738160054E-03 
1989	 3.36663111796761E-03 
1990	 2.85522779577885E-03 
1991	 2.45837746131427E-03 
1992	 2.46193136189387E-03 
1993	 2.26355369760061E-03 
1994	 1.83245230608111E-03 
1995	 7.18005239829882E-04 
1996	-6.17636583491504E-05 
1997	-6.34187475893418E-04 
1998	 8.45171757171915E-06 
1999	 1.86188214814905E-03 
2000	 4.72007681515251E-05 
2001	-3.59340465023139E-03 
2002	-4.14201250067648E-03 
2003	-4.87510310694946E-03 
2004	-4.14920255635803E-03 
2005	 4.13883225339773E-04 
2006	 2.49103574864234E-04 
2007	 2.61526651291417E-04 
2008	 3.71093026626232E-03 
2009	 3.43727245555369E-03 
2010	 4.08315036996275E-04 
2011	 4.91452682154854E-04 
2012	 4.81016151486307E-04 
2013	-1.11948951758722E-03 
2014	 5.25997663295917E-04 
2015	 3.09062832134759E-03 
2016	 3.06756716132877E-03 
2017	 1.57501573192878E-03 
2018	 1.13842583953817E-03 
2019	 3.38818106063567E-04 
2020	-4.44531706572379E-04 
2021	-1.7727344656259E-04 
2022	 7.22326511072308E-05 
2023	-4.35283491196695E-05 
2024	-5.19560362306987E-04 
2025	-1.85568881097299E-03 
2026	-1.79176930932936E-03 
2027	-1.41283964396319E-03 
2028	-1.0497866029023E-03 
2029	-7.75923299435424E-04 
2030	 6.39136990635585E-04 
2031	 6.57873237348524E-04 
2032	-3.1584139811025E-04 
2033	 3.95654735338264E-04 
2034	 1.3240891741185E-03 
2035	 0.001113460664548 
2036	 1.26119876884921E-03 
2037	 2.13781134892501E-03 
2038	 1.59599455476914E-03 
2039	 1.36104859871477E-03 
2040	 1.7486293351403E-03 
2041	 1.99129827985248E-03 
2042	 1.92348114344009E-03 
2043	 1.70478583625981E-03 
2044	 1.67908995569484E-03 
2045	 1.12303354221125E-03 
2046	 2.7966024533195E-04 
2047	-2.48252785234797E-04 
2048	-4.56048082450205E-04 
2049	-1.03507748878526E-04 
2050	 1.07515830338906E-03 
2051	 1.39211077802781E-03 
2052	 2.05876416597168E-03 
2053	 3.17975264085247E-03 
2054	 2.2698870648614E-03 
2055	 1.03192153726143E-03 
2056	 5.48151852982794E-04 
2057	-4.36912865326136E-04 
2058	-4.4461930667609E-04 
2059	 1.30874250783652E-03 
2060	 1.91665028396181E-03 
2061	 2.41603610474745E-03 
2062	 2.21171158372672E-03 
2063	 2.76718209175467E-03 
2064	 2.57248647615483E-03 
2065	 1.47078273390924E-03 
2066	 1.46724021519167E-03 
2067	 6.16201442111486E-04 
2068	-5.05204385863434E-05 
2069	 9.63019259555391E-04 
2070	 3.76120595009673E-04 
2071	 2.79844464118308E-04 
2072	 1.07955685306191E-03 
2073	 9.44734324831445E-04 
2074	 4.81332916263261E-04 
2075	 6.48492295775376E-04 
2076	 4.0244448712948E-04 
2077	 1.84833346090595E-04 
2078	 6.02440413384662E-04 
2079	 6.55342820152616E-04 
2080	 4.46113669749687E-04 
2081	 8.39003445212536E-05 
2082	 3.63771206534776E-04 
2083	 3.59727639023495E-04 
2084	-4.0438681179709E-04 
2085	-1.86865540745801E-04 
2086	-5.70922425965173E-04 
2087	-2.06620719260643E-03 
2088	-1.69353311326802E-03 
2089	-3.19814051439559E-04 
2090	-1.72304175311616E-04 
2091	-2.94578381053218E-04 
2092	-3.23373069449761E-04 
2093	-1.69488563300359E-03 
2094	-1.95746412606123E-03 
2095	-1.13696739762008E-03 
2096	-4.26671760933005E-04 
2097	 6.04639044917328E-04 
2098	 8.93238935525049E-04 
2099	 8.36889987024418E-04 
2100	 1.33116062867086E-03 
2101	 1.07476258053651E-03 
2102	 9.22081917940745E-04 
2103	 9.97652465089039E-04 
2104	 7.66035806846075E-04 
2105	 1.25068065198383E-04 
2106	-4.32467268494784E-04 
2107	 9.47834986013793E-05 
2108	-1.6827107437057E-04 
2109	-3.42071904395386E-04 
2110	 8.94942647159562E-04 
2111	 1.05649529887347E-03 
2112	 0.001022713466176 
2113	 1.18838543009647E-03 
2114	 1.27653429800357E-03 
2115	 1.08575610623977E-03 
2116	 9.47105235516096E-04 
2117	 8.4084865076732E-04 
2118	 4.71069102079028E-04 
2119	 1.57306387819522E-04 
2120	-5.64815764633368E-05 
2121	-3.71572169619889E-04 
2122	-5.42151942493629E-04 
2123	-1.63288492887833E-04 
2124	-4.40993283863198E-06 
2125	 4.16674896847522E-04 
2126	 1.07200105269526E-03 
2127	 9.13930778700821E-04 
2128	-1.09953367931924E-05 
2129	-6.73533140817337E-04 
2130	-1.00965869073704E-03 
2131	-1.41345575178666E-03 
2132	-8.45220126660618E-04 
2133	 4.86056333606894E-04 
2134	 1.21983392399026E-03 
2135	 1.58952062739968E-03 
2136	 2.17387292319879E-03 
2137	 3.1856360752383E-03 
2138	 3.05214174580784E-03 
2139	 2.06176983121054E-03 
2140	 1.77009228540926E-03 
2141	 8.76757734949828E-04 
2142	 7.21061943462825E-04 
2143	 1.25245427883288E-03 
2144	 2.21239561468235E-03 
2145	 2.43527916759264E-03 
2146	 2.08866468760565E-03 
2147	 2.1829712264105E-03 
2148	 2.34066876281668E-03 
2149	 1.65639890479311E-03 
2150	 9.33464543995166E-04 
2151	 1.39789591971756E-03 
2152	 1.09259753436026E-03 
2153	 3.92822792209307E-04 
2154	 9.42841958707311E-04 
2155	 5.77040342963808E-04 
2156	-1.40371587578333E-03 
2157	-1.57506521184061E-03 
2158	 2.98809966930929E-04 
2159	 1.51150075150393E-04 
2160	-6.84395382798144E-04 
2161	-5.80841370571383E-04 
2162	-1.31535409895567E-03 
2163	-1.61221515563763E-03 
2164	-7.74136039242667E-04 
2165	-3.57490670893728E-04 
2166	 3.81494902636581E-05 
2167	-8.75905719071076E-05 
2168	-4.01560397737083E-04 
2169	-4.61937822836859E-04 
2170	-9.12799804441251E-04 
2171	-1.64605023500302E-03 
2172	-1.28320694058707E-03 
2173	-1.28501589168164E-03 
2174	-9.81839382103362E-04 
2175	 2.17242006980854E-05 
2176	-2.97515569691272E-05 
2177	 4.8702505010001E-04 
2178	 8.57394325544483E-04 
2179	-2.6566821296247E-04 
2180	 2.7067315418918E-04 
2181	 7.70059676582214E-04 
2182	-1.00948668390106E-04 
2183	 6.73642585187756E-04 
2184	 7.84976906346366E-04 
2185	-7.31061846763039E-04 
2186	-7.84702668108471E-04 
2187	 3.75322007284731E-04 
2188	 4.89296264688687E-04 
2189	 6.2875695223454E-04 
2190	 5.78185326323331E-04 
2191	-8.25828730156129E-05 
2192	-7.10225723507534E-04 
2193	-1.77799512238929E-03 
2194	-1.56936678436609E-03 
2195	 9.13839518896242E-06 
2196	-1.70903729759263E-04 
2197	-5.69558356958138E-04 
2198	-1.55537118643105E-03 
2199	-4.20292449829672E-03 
2200	-6.66905378721924E-03 
2201	-7.14408719873526E-03 
2202	-5.27117777772989E-03 
2203	-5.68908989823727E-03 
2204	-6.53021991650453E-03 
2205	-6.24393829224193E-03 
2206	-6.66135274488778E-03 
2207	-4.69660839947486E-03 
2208	-1.54252585360982E-03 
2209	-1.5086123619346E-04 
2210	-1.00890098070609E-04 
2211	-9.23444617484319E-04 
2212	-3.7449577575712E-04 
2213	 1.32468655737309E-03 
2214	 8.73094820412552E-04 
2215	-1.35717449744866E-03 
2216	-3.17535931903186E-03 
2217	-3.57284618177255E-03 
2218	-4.91985915692254E-03 
2219	-4.54021889076891E-03 
2220	-7.75889955581803E-04 
2221	 6.45404460551609E-04 
2222	 4.5199321078926E-04 
2223	 1.3848338056969E-03 
2224	 4.03193348542231E-03 
2225	 3.9204834070305E-03 
2226	 1.61563710621414E-03 
2227	 1.39329527358469E-03 
2228	 6.10996873528813E-04 
2229	 2.7371201459011E-04 
2230	 1.89769898675429E-03 
2231	 2.02081840443239E-03 
2232	 8.43078973848667E-04 
2233	 7.02841108999349E-05 
2234	-1.25828497156893E-03 
2235	-1.16628334399547E-03 
2236	-1.10010132449688E-03 
2237	-8.5077282310455E-04 
2238	-7.69560889856801E-04 
2239	-5.48621752664652E-04 
2240	 1.00569151025873E-03 
2241	 5.58006713858872E-04 
2242	-5.12733556242682E-04 
2243	 5.06077018644227E-05 
2244	 5.15923422841275E-04 
2245	 1.51922255195776E-04 
2246	-9.25418920391675E-04 
2247	-4.35885870632892E-04 
2248	-2.42105819922037E-04 
2249	-6.85515111877455E-04 
2250	 8.94093236001472E-04 
2251	 6.12063822497577E-04 
2252	-9.36485752699716E-04 
2253	-1.85099391880181E-03 
2254	-3.3233767048122E-03 
2255	-2.75249851586956E-03 
2256	-9.43542575930049E-04 
2257	-4.49091183475342E-04 
2258	 3.02280495631335E-05 
2259	 4.66196426591087E-04 
2260	 2.36828679538542E-05 
2261	-2.81887979187962E-03 
2262	-3.22811336694251E-03 
2263	-2.06053295526925E-03 
2264	-2.08399971674789E-03 
2265	-1.80317639842215E-03 
2266	-2.38075776142561E-03 
2267	-4.30380362794755E-03 
2268	-4.94176511614343E-03 
2269	-6.28477948090022E-03 
2270	-5.00877452488023E-03 
2271	-1.06663508591305E-03 
2272	 3.32848573078315E-04 
2273	 3.20108154777153E-03 
2274	 4.06906235169561E-03 
2275	 2.10518403070559E-03 
2276	 1.68588210324111E-03 
2277	 1.00157980167526E-03 
2278	-2.01897473287537E-04 
2279	-2.73992558629588E-03 
2280	-1.98189469597577E-03 
2281	 6.20025975550561E-04 
2282	 2.88190097734795E-03 
2283	 4.2201689114287E-03 
2284	 4.57458326947318E-03 
2285	 3.18363205442164E-03 
2286	 2.38715000176296E-03 
2287	 3.35865603920528E-03 
2288	 3.55311249024699E-03 
2289	 2.81707445467864E-03 
2290	-1.15496300579843E-05 
2291	-1.89083535769399E-03 
2292	-1.61933740855601E-03 
2293	-3.91497384783981E-03 
2294	-5.42736445373538E-03 
2295	-3.02366477773081E-03 
2296	-9.57323808900087E-04 
2297	-2.25165200479262E-03 
2298	-1.97981982963244E-03 
2299	 1.8213304208138E-03 
2300	 2.36161994136691E-03 
2301	 3.3245048438969E-03 
2302	 4.82284842019675E-03 
2303	 2.31674099512992E-04 
2304	-4.18180859699457E-03 
2305	-4.69261161587714E-03 
2306	-4.93294120476827E-03 
2307	-5.12992692590646E-03 
2308	-5.1204179306619E-03 
2309	-6.22557770259741E-03 
2310	-3.46169223320519E-03 
2311	-1.59608673171793E-04 
2312	 8.32896153743266E-04 
2313	 5.59799382157068E-03 
2314	 6.91188873176462E-03 
2315	 5.16045219960604E-03 
2316	 7.85874579581301E-03 
2317	 6.91805718519203E-03 
2318	 1.14019728954705E-03 
2319	-2.51690847359702E-03 
2320	-4.39678345078869E-03 
2321	-8.4703988023619E-04 
2322	 4.62870829345495E-03 
2323	 6.49948214429397E-03 
2324	 7.85005287054749E-03 
2325	 4.78192263732271E-03 
2326	 1.83422312440055E-03 
2327	 2.23890694702663E-03 
2328	-2.00955596521691E-03 
2329	-6.34032591621433E-03 
2330	-6.72810742234683E-03 
2331	-4.42630070117448E-03 
2332	 1.42222321121546E-03 
2333	 4.7438400363553E-04 
2334	-3.67449515791414E-03 
2335	-1.3721957080708E-04 
2336	-5.88749888239958E-03 
2337	-7.72707997312978E-03 
2338	 5.32731964573523E-03 
2339	 5.85459492783799E-03 
2340	 8.13982706475446E-03 
2341	 1.32969671112792E-02 
2342	 6.14244376987935E-03 
2343	 1.63256932589583E-03 
2344	-2.98312485069995E-03 
2345	-5.36492691522048E-03 
2346	 9.57150305710685E-04 
2347	 5.30875665731797E-03 
2348	 2.67046176580931E-03 
2349	-2.39058112745029E-03 
2350	 2.17843672441948E-04 
2351	 4.01096138848724E-03 
2352	 4.48927912349904E-03 
2353	 9.71763861151876E-03 
2354	 8.17449421480003E-03 
2355	-7.54174227496165E-03 
2356	-2.00390697799754E-02 
2357	-1.78165030704382E-02 
2358	-1.22916693837268E-02 
2359	-7.79426086047359E-03 
2360	-2.61401745760197E-03 
2361	-3.32777079324257E-03 
2362	-1.16530916921513E-02 
2363	-0.023633797727629 
2364	-2.09820992070026E-02 
2365	-6.73179961544278E-03 
2366	 7.8420367864004E-03 
2367	 1.82702367060855E-02 
2368	 1.45125027011152E-02 
2369	 1.06643561825598E-02 
2370	-5.35391389487976E-03 
2371	-2.26011890091895E-02 
2372	-9.02296217633275E-03 
2373	-2.10968068430931E-02 
2374	-3.47874022812921E-02 
2375	-1.99579118540425E-02 
2376	-2.98304890189285E-02 
2377	-1.42299971963662E-02 
2378	 1.14897505995803E-02 
2379	-1.26761389070982E-03 
2380	 2.90513840205767E-03 
2381	 4.34180259251317E-03 
2382	-1.24100167730263E-02 
2383	-1.22872388696557E-02 
2384	-1.12496429260791E-02 
2385	-1.85987733357314E-02 
2386	-2.01764385462866E-02 
2387	 2.29855282543694E-02 
2388	 4.73815117329853E-02 
2389	 0.017720044226917 
2390	 2.29938297302365E-02 
2391	-5.9560015640639E-03 
2392	-6.01120487000765E-02 
2393	-6.62483586431044E-02 
2394	-6.92778025986244E-02 
2395	-6.42055715133393E-02 
2396	-4.43689065687643E-02 
2397	-1.90676149546784E-02 
2398	-3.32931307516655E-02 
2399	-6.88665499555379E-02 
2400	-3.39332990065471E-02 
2401	-1.96749645763523E-03 
2402	-4.39209396354692E-04 
2403	 2.11859639918782E-02 
2404	 2.22745870988433E-02 
2405	 1.87973693525153E-02 
2406	 3.60923200948197E-02 
2407	 2.91383354274381E-02 
2408	-1.30958235849435E-02 
2409	-0.059140950339994 
2410	-0.116506444664346 
2411	-0.155521938222269 
2412	-0.157292343006341 
2413	-0.161168756377247 
2414	-0.128925220498991 
2415	-0.084254620007278 
2416	-0.122814931185886 
2417	-0.181967178931299 
2418	-0.161827395943742 
2419	-0.11991070632546 
2420	-8.16598026563947E-02 
2421	-3.82940639702695E-02 
2422	-4.70302755060509E-02 
2423	-4.72134338047333E-02 
2424	-5.54893749165409E-02 
2425	-0.103088570855564 
2426	-0.159613962238054 
2427	-0.227973280944137 
2428	-0.215603538382435 
2429	-0.1237214280197 
2430	-3.51032368654333E-02 
2431	-1.25429733107901E-02 
2432	-1.66212385287509E-02 
2433	-3.84118214383568E-02 
2434	-7.86714186893575E-02 
2435	-1.08075128159583E-02 
2436	 6.84674197527809E-02 
2437	 0.104646553179313 
2438	 0.033795244551509 
2439	-6.26520613582911E-03 
2440	-9.45059588339489E-04 
2441	-4.09109405279365E-02 
2442	 0.215113555154184 
2443	 0.197072617468181 
2444	 3.05928963946981E-02 
2445	-1.54620417028989E-02 
2446	-0.510754166289616 
2447	-1.16668369371964 
2448	-1.19928951299249 
2449	-0.839931997871928 
2450	-0.543644850473951 
2451	 7.69423496034836E-02 
2452	-3.99247893196249E-02 
2453	-0.204040260113024 
2454	-0.338127532512989 
2455	-4.67437516121104E-02 
2456	 0.322909048650681 
2457	 0.141290711780747 
2458	 8.72406303362792E-02 
2459	-0.114803465739143 
2460	-0.405635331253534 
2461	-0.498958792583935 
2462	-0.474602153461642 
2463	-0.515238234406672 
2464	-0.521683303848469 
2465	-0.47749241567271 
2466	-0.254512543762556 
2467	 0.139851238558505 
2468	 0.66105124672813 
2469	 0.494111028609796 
2470	-0.162335144809199 
2471	-0.448818081522552 
2472	-2.35739490168959E-02 
2473	 0.217593161502447 
2474	 0.55126805569756 
2475	-0.362578487375919 
2476	 9.45506216491997 
2477	 2.6126745926832 
2478	-1.87511970029954 
2479	 1.14167328169188 
2480	-1.17546926119879 
2481	-0.649028458679717 
2482	-0.162726093437955 
2483	 0.283306818750812 
2484	 0.499242611166075 
2485	 0.439791294692362 
2486	 0.21069819586391 
2487	 0.718030805778807 
2488	-12.6154878098387 
2489	-1.50149469450288 
2490	-2.84360177912419 
2491	-2.51726054648496E-02 
2492	 0.174513032657707 
2493	-0.405489846595641 
2494	-0.753174690800977 
2495	-0.776845279478253 
2496	-0.827352555927509 
2497	 0.307817628617251 
2498	-0.394437807229648 
2499	 0.43244960851166 
2500	-1.81309343804584 
