Wavelength	rt0716a200004.asd
350	 5.66723897547581E-02 
351	 5.64294741431043E-02 
352	 5.61017923752418E-02 
353	 5.63034414563155E-02 
354	 5.69708866738824E-02 
355	 5.68588312657243E-02 
356	 5.72047106077047E-02 
357	 5.75066740189984E-02 
358	 5.72034385849786E-02 
359	 0.05775329453021 
360	 5.83215236684724E-02 
361	 5.88430827747941E-02 
362	 5.97051673741416E-02 
363	 5.98637732671837E-02 
364	 5.96767090623052E-02 
365	 5.95201807211677E-02 
366	 5.95034744162501E-02 
367	 0.059939019798575 
368	 6.04702115548009E-02 
369	 6.06583728356571E-02 
370	 6.03806057367759E-02 
371	 6.05861869446781E-02 
372	 6.10032408145563E-02 
373	 0.060768316532579 
374	 6.06147480480729E-02 
375	 0.060917277486281 
376	 6.14914827890986E-02 
377	 6.14954165343271E-02 
378	 6.17911266036272E-02 
379	 6.19926090564506E-02 
380	 6.18217575570049E-02 
381	 6.22385033709948E-02 
382	 6.25232094336332E-02 
383	 6.25926160250088E-02 
384	 6.26524372474039E-02 
385	 6.25638991459845E-02 
386	 6.25172525840985E-02 
387	 6.26449287261514E-02 
388	 6.29661986973888E-02 
389	 6.29988843169893E-02 
390	 6.28014835106918E-02 
391	 6.26289228392346E-02 
392	 6.29480466853979E-02 
393	 0.062920914429715 
394	 0.062802807482291 
395	 6.30489917084447E-02 
396	 6.28619961302337E-02 
397	 6.27636176735555E-02 
398	 6.28619571036493E-02 
399	 6.28557448047332E-02 
400	 6.26202609161387E-02 
401	 6.24339400320371E-02 
402	 6.24879646837511E-02 
403	 6.27122077274159E-02 
404	 6.26165664783945E-02 
405	 6.23316832669364E-02 
406	 0.062183828959305 
407	 0.062094691136002 
408	 6.19846227052134E-02 
409	 6.18828096217287E-02 
410	 6.19103603331457E-02 
411	 6.17981357855963E-02 
412	 6.16652009722185E-02 
413	 6.15998126725683E-02 
414	 0.061441782960773 
415	 0.061286734632759 
416	 6.11944668520021E-02 
417	 6.11859356595181E-02 
418	 6.11571926465528E-02 
419	 6.10760594229777E-02 
420	 6.09883843380117E-02 
421	 6.10092829369105E-02 
422	 6.10272698049369E-02 
423	 6.11403082872916E-02 
424	 6.13493710708094E-02 
425	 6.12496107548251E-02 
426	 6.13205384101209E-02 
427	 6.15899012075927E-02 
428	 6.18478644962491E-02 
429	 6.19289442319247E-02 
430	 6.21723207171307E-02 
431	 6.26039605280573E-02 
432	 6.28428747499805E-02 
433	 6.30355093646153E-02 
434	 6.31881816772817E-02 
435	 6.33113332816944E-02 
436	 6.35045894512943E-02 
437	 6.36945726254962E-02 
438	 6.38748462839027E-02 
439	 6.40589462714272E-02 
440	 0.064098182640715 
441	 6.41520576633405E-02 
442	 6.42681169341885E-02 
443	 6.42866847743958E-02 
444	 6.41928002764041E-02 
445	 0.064111613235963 
446	 6.41398221123272E-02 
447	 6.41021347774048E-02 
448	 6.40721914824288E-02 
449	 0.064050992687983 
450	 6.39890343712817E-02 
451	 6.39530074872062E-02 
452	 6.38602180442032E-02 
453	 6.36781776215378E-02 
454	 6.35109684558996E-02 
455	 6.33772630600315E-02 
456	 6.33026659641784E-02 
457	 6.32718283849897E-02 
458	 6.30945187101044E-02 
459	 6.28542506186979E-02 
460	 6.26630764050343E-02 
461	 6.26313697907625E-02 
462	 6.25037407527357E-02 
463	 6.23209366187822E-02 
464	 6.21605957354181E-02 
465	 0.062024066290626 
466	 0.061923477770628 
467	 6.17726807728154E-02 
468	 6.14924604391431E-02 
469	 6.14249492850297E-02 
470	 6.13593283803608E-02 
471	 6.11894676141616E-02 
472	 6.10170979445441E-02 
473	 6.09183265832524E-02 
474	 6.08387878422645E-02 
475	 6.07289752875969E-02 
476	 0.060711959332568 
477	 6.06120059284024E-02 
478	 6.04650374146196E-02 
479	 6.04431287175632E-02 
480	 6.05058548974326E-02 
481	 6.04718653484087E-02 
482	 6.03319680527839E-02 
483	 6.04616841131003E-02 
484	 6.06087128776892E-02 
485	 6.07393260537899E-02 
486	 6.08549601812671E-02 
487	 6.07193139049067E-02 
488	 6.06720528843252E-02 
489	 6.08032465759992E-02 
490	 6.09353747169487E-02 
491	 6.10697655443014E-02 
492	 6.12704012675847E-02 
493	 6.15364372912768E-02 
494	 6.16527914842211E-02 
495	 6.17534856113487E-02 
496	 6.19170377680499E-02 
497	 6.21619844147846E-02 
498	 0.062244367865882 
499	 6.23681955555369E-02 
500	 6.26068455200137E-02 
501	 6.27653726031052E-02 
502	 0.062886527068205 
503	 6.30199704213827E-02 
504	 6.32040797627278E-02 
505	 6.34119029341138E-02 
506	 6.35875627184519E-02 
507	 6.37519549509529E-02 
508	 6.39823842812829E-02 
509	 6.42623269501068E-02 
510	 6.44175190379215E-02 
511	 6.44478748022834E-02 
512	 6.48238441909631E-02 
513	 6.51662320660138E-02 
514	 6.54231638950324E-02 
515	 6.56889259361868E-02 
516	 6.60573873313686E-02 
517	 6.64419759215095E-02 
518	 6.67988858095037E-02 
519	 6.71610515428803E-02 
520	 6.75292663248728E-02 
521	 6.79895146382325E-02 
522	 6.85671127704271E-02 
523	 6.90122305415117E-02 
524	 6.94879277122288E-02 
525	 7.00622003550865E-02 
526	 7.07242412058715E-02 
527	 0.071383481731351 
528	 7.21111054271055E-02 
529	 7.28949734561675E-02 
530	 0.0734997418992 
531	 7.42099557927692E-02 
532	 7.50753961894729E-02 
533	 7.60271934139174E-02 
534	 7.68930689890535E-02 
535	 7.77854694507361E-02 
536	 7.87363120031085E-02 
537	 7.96596794567512E-02 
538	 0.080600760826185 
539	 8.15822843616125E-02 
540	 8.25884983596936E-02 
541	 8.34937477094665E-02 
542	 8.44097757198986E-02 
543	 8.53653851061838E-02 
544	 8.63318140081688E-02 
545	 8.72293192710513E-02 
546	 8.81398216623785E-02 
547	 8.90778688307098E-02 
548	 8.98861221145535E-02 
549	 9.07172852619223E-02 
550	 9.15499072049639E-02 
551	 9.23161029249537E-02 
552	 9.30435997535371E-02 
553	 0.093809405203206 
554	 0.094589611604356 
555	 9.52465779717201E-02 
556	 9.60161514493157E-02 
557	 9.67967782105831E-02 
558	 9.74664330231028E-02 
559	 9.81422123818382E-02 
560	 9.88041847895301E-02 
561	 0.09947019739042 
562	 0.100177330274728 
563	 0.100881184240571 
564	 0.101565196982863 
565	 0.102210434042145 
566	 0.102779090477471 
567	 0.103412674043877 
568	 0.104033587445379 
569	 0.104527764304732 
570	 0.105097385302672 
571	 0.105639454056029 
572	 0.106125018059894 
573	 0.106620054821075 
574	 0.106989840843062 
575	 0.107413143658138 
576	 0.107987675240469 
577	 0.108328987524163 
578	 0.108662873640665 
579	 0.10905891894936 
580	 0.109478563094539 
581	 0.10984317750743 
582	 0.110127075349686 
583	 0.110367568937489 
584	 0.110708065025295 
585	 0.110924841481829 
586	 0.11102341630872 
587	 0.11109902630348 
588	 0.111210837995949 
589	 0.111423243333424 
590	 0.111680614618722 
591	 0.111834150126592 
592	 0.112042786965817 
593	 0.11226238505654 
594	 0.112417970847786 
595	 0.112471923595578 
596	 0.112607580019749 
597	 0.112799042782918 
598	 0.112904713599519 
599	 0.11295243132198 
600	 0.112993326055791 
601	 0.113067742712145 
602	 0.11319577055888 
603	 0.113267047748198 
604	 0.113342703513836 
605	 0.113497187200211 
606	 0.113561932075085 
607	 0.113651142559503 
608	 0.113779233784321 
609	 0.113848434154511 
610	 0.113953933122079 
611	 0.114072656143735 
612	 0.114178079767781 
613	 0.114314148720512 
614	 0.114406396766665 
615	 0.114441972490007 
616	 0.114451209994354 
617	 0.114483000344798 
618	 0.114580873880906 
619	 0.114727436194951 
620	 0.11481451256188 
621	 0.114854297793827 
622	 0.114879715144998 
623	 0.114935499046712 
624	 0.115080404752423 
625	 0.115088007411338 
626	 0.114996893188197 
627	 0.115097620060156 
628	 0.115323020910666 
629	 0.115462435510536 
630	 0.115438618856135 
631	 0.115591852529441 
632	 0.115680522868342 
633	 0.115712072426512 
634	 0.115790616521746 
635	 0.115775733550305 
636	 0.115898394605109 
637	 0.116164270777546 
638	 0.116219801226129 
639	 0.116228592205183 
640	 0.116237584918321 
641	 0.116266362591936 
642	 0.116345003033863 
643	 0.116360217395893 
644	 0.116308564928336 
645	 0.116274535921431 
646	 0.116186504250608 
647	 0.116166165166631 
648	 0.116269125644971 
649	 0.116334514574356 
650	 0.116326894907878 
651	 0.11627068085152 
652	 0.116218180468363 
653	 0.116168728543294 
654	 0.116154661793654 
655	 0.11612062480016 
656	 0.115906380787694 
657	 0.115909068283026 
658	 0.11589864521919 
659	 0.115695020746479 
660	 0.115665477157856 
661	 0.115591465653959 
662	 0.115448488998254 
663	 0.115335862105826 
664	 0.115279431919768 
665	 0.115224504046782 
666	 0.115134375966382 
667	 0.115020251472945 
668	 0.114980289192717 
669	 0.114991055854804 
670	 0.115007279763355 
671	 0.115127046139975 
672	 0.115104973300083 
673	 0.115012714129115 
674	 0.115201163248306 
675	 0.115266837784199 
676	 0.115336220925563 
677	 0.115521418889536 
678	 0.115642407635131 
679	 0.115776065868343 
680	 0.115919058962644 
681	 0.116056184630552 
682	 0.116335007239368 
683	 0.116617189324376 
684	 0.116799071801232 
685	 0.116863585111628 
686	 0.11701749916856 
687	 0.117282420670617 
688	 0.117565337024893 
689	 0.117771053560863 
690	 0.117954228275861 
691	 0.118104074184655 
692	 0.118185063765023 
693	 0.118347087547756 
694	 0.118570957114406 
695	 0.118796218305174 
696	 0.118985530665766 
697	 0.119035132568689 
698	 0.118943062285902 
699	 0.11876951637753 
700	 0.118667595143242 
701	 0.118703156412343 
702	 0.118770287892793 
703	 0.118662242606146 
704	 0.118569334297658 
705	 0.118450699414674 
706	 0.118296691697123 
707	 0.118250647537294 
708	 0.118042662794144 
709	 0.1177280690832 
710	 0.117459200245154 
711	 0.117182519463539 
712	 0.116829252690389 
713	 0.116358254513402 
714	 0.115746763029504 
715	 0.115114019460931 
716	 0.114384740324258 
717	 0.113564730482102 
718	 0.112881927974344 
719	 0.112417386428479 
720	 0.112017958462192 
721	 0.111447616266982 
722	 0.110919709662927 
723	 0.110131541880523 
724	 0.109177975649679 
725	 0.108539008000394 
726	 0.107861652081569 
727	 0.106970991577595 
728	 0.105844465242413 
729	 0.104726669153318 
730	 0.103586538411219 
731	 0.10256035589446 
732	 0.101712836077129 
733	 0.100811319981769 
734	 9.99523552229123E-02 
735	 9.92639742406971E-02 
736	 9.88722386784086E-02 
737	 9.84374862631162E-02 
738	 9.80392442154108E-02 
739	 9.78159015864523E-02 
740	 9.77441546521974E-02 
741	 9.76900069043569E-02 
742	 9.76035302328454E-02 
743	 9.75154287972476E-02 
744	 0.097685978305887 
745	 9.77730020087056E-02 
746	 9.76743517890749E-02 
747	 9.76873514705117E-02 
748	 9.76351873769529E-02 
749	 9.76114576471163E-02 
750	 9.77068448270999E-02 
751	 9.78028241341354E-02 
752	 9.77990907524042E-02 
753	 9.77752332847465E-02 
754	 0.097877877211571 
755	 9.79003359289859E-02 
756	 9.79000389514229E-02 
757	 9.78909169452251E-02 
758	 9.77520186062604E-02 
759	 9.71756255062592E-02 
760	 9.66011454159588E-02 
761	 9.69877527370189E-02 
762	 9.72236815609115E-02 
763	 9.72782799197262E-02 
764	 0.097521417518854 
765	 9.81622330338716E-02 
766	 0.098401038707196 
767	 9.85056059714375E-02 
768	 9.86500087127413E-02 
769	 9.89020530886081E-02 
770	 9.90244812658149E-02 
771	 9.90875492744073E-02 
772	 9.92044538760153E-02 
773	 9.94345915586348E-02 
774	 9.95793722099146E-02 
775	 9.97462487660561E-02 
776	 0.1000948403671 
777	 0.100201976889042 
778	 0.100388254434182 
779	 0.100691447850052 
780	 0.100831508075591 
781	 0.101031662666217 
782	 0.101290291019706 
783	 0.10154519178298 
784	 0.101681349908425 
785	 0.101934778834521 
786	 0.102175240398718 
787	 0.102240907605703 
788	 0.102564743166865 
789	 0.102830483293255 
790	 0.103004159022457 
791	 0.103295654358466 
792	 0.10355758735081 
793	 0.103809228492934 
794	 0.104059641555429 
795	 0.10425396732106 
796	 0.104451670484889 
797	 0.104680746044743 
798	 0.10493772391577 
799	 0.105133462150372 
800	 0.105182175066336 
801	 0.10528639898663 
802	 0.105697376471431 
803	 0.105759215998824 
804	 0.105832487055358 
805	 0.105978455507198 
806	 0.105857635966151 
807	 0.105883092196417 
808	 0.105858911234771 
809	 0.105617226178333 
810	 0.105362640661159 
811	 0.105268448071112 
812	 0.105213713819166 
813	 0.104971570246695 
814	 0.104685318160247 
815	 0.104434562822389 
816	 0.104117675761223 
817	 0.103586855128941 
818	 0.103596111275897 
819	 0.103313561310563 
820	 0.102560263231662 
821	 0.102111198359492 
822	 0.101376836516929 
823	 0.100642626687535 
824	 0.100051999206546 
825	 9.88135487718295E-02 
826	 9.77441333710246E-02 
827	 9.66711340592959E-02 
828	 9.52741182530394E-02 
829	 9.42476574923879E-02 
830	 9.31778719539888E-02 
831	 9.21021299357181E-02 
832	 9.13951657465622E-02 
833	 9.06087458686921E-02 
834	 8.99802727513155E-02 
835	 8.96099302647592E-02 
836	 8.93325819580306E-02 
837	 8.89817184500005E-02 
838	 8.86063840026305E-02 
839	 8.82954901208843E-02 
840	 8.80937485126365E-02 
841	 8.79809340145423E-02 
842	 0.087751658593836 
843	 8.72604614622674E-02 
844	 8.69126220009057E-02 
845	 8.67124352787867E-02 
846	 8.66189643752751E-02 
847	 8.65420535014721E-02 
848	 8.62258239376895E-02 
849	 8.58661138556452E-02 
850	 8.56610526238666E-02 
851	 8.56964506765113E-02 
852	 0.085272620427075 
853	 0.084939756144024 
854	 8.50113980136291E-02 
855	 8.47190114665428E-02 
856	 8.45373723734717E-02 
857	 8.43245404212538E-02 
858	 8.39403161798604E-02 
859	 8.38471554743756E-02 
860	 8.38442101213765E-02 
861	 8.37630914366872E-02 
862	 8.34897927774659E-02 
863	 8.30957216147719E-02 
864	 8.27979482372037E-02 
865	 8.26539314240039E-02 
866	 8.25382892395903E-02 
867	 8.22373530407132E-02 
868	 8.19236095302898E-02 
869	 8.17559616461617E-02 
870	 8.17854781406014E-02 
871	 8.14837831377062E-02 
872	 8.11714718375405E-02 
873	 8.10152631301958E-02 
874	 8.03859782364419E-02 
875	 8.00678201110739E-02 
876	 0.079991332483972 
877	 7.98024558277347E-02 
878	 7.91810526575378E-02 
879	 7.88309056468152E-02 
880	 7.86541000315782E-02 
881	 7.82529497608924E-02 
882	 7.80407391143595E-02 
883	 7.74425082689722E-02 
884	 7.68331409646122E-02 
885	 7.70826433183093E-02 
886	 7.66240960388626E-02 
887	 7.61385971503638E-02 
888	 0.075985814539764 
889	 7.58593108245283E-02 
890	 7.55066752350435E-02 
891	 7.51043743945043E-02 
892	 7.48046909819755E-02 
893	 7.45433845404449E-02 
894	 7.41785505315774E-02 
895	 7.38640955672105E-02 
896	 7.36535950535881E-02 
897	 7.29554210365936E-02 
898	 0.072784594301997 
899	 7.27990731607857E-02 
900	 0.072376582053173 
901	 7.18096050499362E-02 
902	 7.14879309140689E-02 
903	 7.13349534475375E-02 
904	 7.11271739977999E-02 
905	 7.08858659429145E-02 
906	 7.10577029250718E-02 
907	 7.09709267456005E-02 
908	 6.95002952622708E-02 
909	 6.87949003872055E-02 
910	 6.87133006921009E-02 
911	 0.068560212426096 
912	 6.76686114856688E-02 
913	 6.83317225564597E-02 
914	 6.79735343079556E-02 
915	 6.61058940406006E-02 
916	 6.51729569969253E-02 
917	 6.49047592078625E-02 
918	 6.42275246028872E-02 
919	 6.32582680147493E-02 
920	 6.36525460423416E-02 
921	 0.062828300234989 
922	 6.16699429257029E-02 
923	 6.12054773129234E-02 
924	 6.13610488198076E-02 
925	 5.95660075056918E-02 
926	 5.83731562210601E-02 
927	 5.97777908380225E-02 
928	 0.056261815804044 
929	 5.52387453527162E-02 
930	 5.58167107931796E-02 
931	 5.27846972848293E-02 
932	 0.052072668284874 
933	 5.25752945329204E-02 
934	 5.33803577335647E-02 
935	 5.32712118676614E-02 
936	 5.02047270924753E-02 
937	 4.69833842413175E-02 
938	 4.52715147556267E-02 
939	 0.045924577047102 
940	 4.99617783214746E-02 
941	 4.92502996124714E-02 
942	 4.56319860954505E-02 
943	 4.51543848280511E-02 
944	 0.044186491524546 
945	 4.89494569148909E-02 
946	 5.09074248325315E-02 
947	 3.93597779171125E-02 
948	 0.038430360405573 
949	 0.042951044432251 
950	 4.43502720955206E-02 
951	 3.72433567668416E-02 
952	 3.69793605050336E-02 
953	 3.94667810514127E-02 
954	 4.06797976380757E-02 
955	 3.89129376860968E-02 
956	 3.82262096153486E-02 
957	 3.93116969043342E-02 
958	 0.040352605112465 
959	 3.90292360976362E-02 
960	 3.91299391422661E-02 
961	 4.01243386714988E-02 
962	 4.08881539770743E-02 
963	 4.05234296370951E-02 
964	 3.98372356824194E-02 
965	 3.92107085926003E-02 
966	 3.85455118326232E-02 
967	 3.76627145389015E-02 
968	 3.80577395067485E-02 
969	 3.88211886203041E-02 
970	 3.91848400818127E-02 
971	 3.88070732268163E-02 
972	 3.78402972759348E-02 
973	 3.77135012059106E-02 
974	 3.88187438963874E-02 
975	 4.01530265284914E-02 
976	 3.99185281249168E-02 
977	 3.91306888637976E-02 
978	 3.86309504682591E-02 
979	 0.038569094955815 
980	 3.79399798095385E-02 
981	 3.87875090643306E-02 
982	 3.99273448440109E-02 
983	 3.84106950744412E-02 
984	 3.93592833488776E-02 
985	 3.93837562760412E-02 
986	 3.85902370559791E-02 
987	 3.97604095086947E-02 
988	 3.97605762642091E-02 
989	 3.89245221150708E-02 
990	 3.87108998399456E-02 
991	 0.040244594963823 
992	 3.86358395599839E-02 
993	 3.88701426006861E-02 
994	 0.040305812038599 
995	 3.89299766977643E-02 
996	 3.91367529585658E-02 
997	 3.90423966381717E-02 
998	 3.87313577604019E-02 
999	 0.03936985373312 
1000	 3.96111114460206E-02 
1001	 3.28236901564663E-02 
1002	 3.29421239176947E-02 
1003	 3.28611218712214E-02 
1004	 3.25845233397889E-02 
1005	 3.25410864766833E-02 
1006	 3.23364354642872E-02 
1007	 3.24597319241641E-02 
1008	 3.28155587014925E-02 
1009	 3.30781669868275E-02 
1010	 3.35853693311763E-02 
1011	 3.38175829418122E-02 
1012	 3.39253278844648E-02 
1013	 3.40337861820791E-02 
1014	 3.40627633061143E-02 
1015	 3.37874846108301E-02 
1016	 3.38503395707804E-02 
1017	 0.034131645750989 
1018	 3.43003258349769E-02 
1019	 3.44734358463072E-02 
1020	 3.47196166523557E-02 
1021	 3.50367618785633E-02 
1022	 3.50778965200554E-02 
1023	 3.57931234898052E-02 
1024	 3.62263827346289E-02 
1025	 3.62148496349489E-02 
1026	 3.66994039147144E-02 
1027	 3.67587597926788E-02 
1028	 3.63157708892855E-02 
1029	 3.63690272415249E-02 
1030	 3.66099331741816E-02 
1031	 3.67129356200616E-02 
1032	 3.68778475998442E-02 
1033	 3.70947386485038E-02 
1034	 0.037273830702522 
1035	 3.74615077444271E-02 
1036	 3.77435045385768E-02 
1037	 0.038011323745218 
1038	 3.83101251436192E-02 
1039	 3.85098944257689E-02 
1040	 3.85616769366516E-02 
1041	 3.86425417263963E-02 
1042	 3.89711952952037E-02 
1043	 3.93664611899524E-02 
1044	 3.96523278303123E-02 
1045	 4.01808921072743E-02 
1046	 4.05155994242483E-02 
1047	 4.06290277132154E-02 
1048	 4.07551802717534E-02 
1049	 4.08872743200144E-02 
1050	 4.10450926823722E-02 
1051	 4.09863034883857E-02 
1052	 4.11507030616996E-02 
1053	 4.17692450290988E-02 
1054	 4.19705013168649E-02 
1055	 4.19974703468261E-02 
1056	 4.20099345380393E-02 
1057	 0.041904653508564 
1058	 4.13456750931975E-02 
1059	 4.14488137361774E-02 
1060	 4.18532656936852E-02 
1061	 4.21319498087855E-02 
1062	 0.042706711650445 
1063	 4.30443692846939E-02 
1064	 0.043343484168123 
1065	 4.34258532142947E-02 
1066	 0.043297986202747 
1067	 4.33181424445175E-02 
1068	 4.30840498129601E-02 
1069	 0.04307837262457 
1070	 4.34591948307474E-02 
1071	 0.043590751419556 
1072	 4.35246493945613E-02 
1073	 4.37932226561263E-02 
1074	 4.35693805840339E-02 
1075	 4.29585072425901E-02 
1076	 4.27996267730602E-02 
1077	 4.25577738970328E-02 
1078	 4.25003491274669E-02 
1079	 4.28292406654002E-02 
1080	 4.29468138346954E-02 
1081	 4.30274554400528E-02 
1082	 4.30609997460157E-02 
1083	 4.33205323967748E-02 
1084	 4.30894281763824E-02 
1085	 0.042193545454005 
1086	 4.18438941927626E-02 
1087	 4.15426896844315E-02 
1088	 4.12474532638141E-02 
1089	 4.14291433726697E-02 
1090	 4.13133957792171E-02 
1091	 4.11677202664663E-02 
1092	 4.07746837263802E-02 
1093	 4.04073908298244E-02 
1094	 4.00058434019237E-02 
1095	 3.97740857787886E-02 
1096	 0.039433425104735 
1097	 3.93529485818392E-02 
1098	 3.97439530301808E-02 
1099	 3.95713894175738E-02 
1100	 3.91556557925404E-02 
1101	 3.88481038351167E-02 
1102	 3.82070259782131E-02 
1103	 3.79247054346224E-02 
1104	 3.84652693779439E-02 
1105	 3.77092993273715E-02 
1106	 3.70991161654615E-02 
1107	 3.71966678127302E-02 
1108	 3.70884366838286E-02 
1109	 3.73670214692693E-02 
1110	 3.73628027667306E-02 
1111	 3.75420645283319E-02 
1112	 3.70350475266717E-02 
1113	 3.55414610998246E-02 
1114	 3.52685214138034E-02 
1115	 3.52919665949902E-02 
1116	 3.50546237580734E-02 
1117	 3.62943271610394E-02 
1118	 3.63631143113704E-02 
1119	 3.41730369319573E-02 
1120	 3.40108825742633E-02 
1121	 3.64533758458989E-02 
1122	 3.63554840138043E-02 
1123	 0.036926701731205 
1124	 0.037481169189119 
1125	 0.034109388626334 
1126	 3.07377758902921E-02 
1127	 3.16845933739571E-02 
1128	 0.034894678769052 
1129	 3.56239806783171E-02 
1130	 3.84634435849605E-02 
1131	 3.58738010669985E-02 
1132	 2.89247641091048E-02 
1133	 2.73446829577732E-02 
1134	 2.57927406384457E-02 
1135	 2.64676741796909E-02 
1136	 3.10017702594647E-02 
1137	 3.09547559546063E-02 
1138	 2.93871871268623E-02 
1139	 2.81141616904514E-02 
1140	 2.57233340470993E-02 
1141	 2.47351181997161E-02 
1142	 2.50950350008116E-02 
1143	 2.55480359157137E-02 
1144	 2.63072748468175E-02 
1145	 0.026715894692273 
1146	 2.63406452568756E-02 
1147	 0.024551934802525 
1148	 2.38803387046871E-02 
1149	 2.41510316861549E-02 
1150	 2.40640523675931E-02 
1151	 2.52156929900172E-02 
1152	 2.54752134843447E-02 
1153	 0.024744750950817 
1154	 2.44359877121677E-02 
1155	 0.024643219872038 
1156	 2.36900025163305E-02 
1157	 2.34091020561105E-02 
1158	 2.37411439699983E-02 
1159	 2.25544365837694E-02 
1160	 0.022623079344277 
1161	 0.023489955051336 
1162	 2.33713619525334E-02 
1163	 2.39694545710134E-02 
1164	 2.44758351800699E-02 
1165	 0.024044865337021 
1166	 2.42397245530972E-02 
1167	 2.43455494807695E-02 
1168	 2.41720594809652E-02 
1169	 2.44669943971549E-02 
1170	 2.43121558481206E-02 
1171	 2.41692715528578E-02 
1172	 2.41780757008302E-02 
1173	 2.41100687162867E-02 
1174	 2.38139687822272E-02 
1175	 2.36204842255875E-02 
1176	 2.38054812946628E-02 
1177	 2.37838236670313E-02 
1178	 2.37945133488759E-02 
1179	 2.38492546093676E-02 
1180	 0.023796651290122 
1181	 2.38918174348702E-02 
1182	 2.41118581339859E-02 
1183	 2.43900722410581E-02 
1184	 2.43210720944473E-02 
1185	 2.36473644511014E-02 
1186	 2.34117911433565E-02 
1187	 2.36032842178524E-02 
1188	 2.33836786312891E-02 
1189	 0.023283199152983 
1190	 2.33684649017821E-02 
1191	 2.32970425628734E-02 
1192	 2.32553472676835E-02 
1193	 2.33874905812855E-02 
1194	 2.36912148744572E-02 
1195	 2.36786589358912E-02 
1196	 2.35164925424043E-02 
1197	 2.34173887469576E-02 
1198	 2.35563879449969E-02 
1199	 0.023760406589016 
1200	 2.35593179862747E-02 
1201	 2.34172899540837E-02 
1202	 2.34556336819767E-02 
1203	 2.34236803526671E-02 
1204	 2.36811370584706E-02 
1205	 2.39303065331927E-02 
1206	 2.38368389147954E-02 
1207	 2.37143635961597E-02 
1208	 2.36586279042265E-02 
1209	 2.36445081753627E-02 
1210	 2.36223485397048E-02 
1211	 2.36319100586969E-02 
1212	 2.36405333475311E-02 
1213	 0.02356326336653 
1214	 2.35933829157989E-02 
1215	 2.37798249650972E-02 
1216	 2.40008045409941E-02 
1217	 2.39698965216999E-02 
1218	 2.40548340505084E-02 
1219	 2.40799932586981E-02 
1220	 2.37423236722864E-02 
1221	 2.36238752915341E-02 
1222	 2.36353084890526E-02 
1223	 2.35970651527346E-02 
1224	 2.38323717705045E-02 
1225	 2.40228480814099E-02 
1226	 2.40004253703634E-02 
1227	 2.39280098377645E-02 
1228	 2.39650711010549E-02 
1229	 2.41544069887795E-02 
1230	 2.41717406767203E-02 
1231	 2.40315933951184E-02 
1232	 2.40459540963329E-02 
1233	 2.41246806740514E-02 
1234	 2.40910556197453E-02 
1235	 2.40761306387327E-02 
1236	 2.41856951632272E-02 
1237	 2.42057033030213E-02 
1238	 2.40916905205518E-02 
1239	 2.40367052559232E-02 
1240	 2.41336876769782E-02 
1241	 2.41631096743937E-02 
1242	 2.41301279284063E-02 
1243	 2.42251839662264E-02 
1244	 2.43064714851393E-02 
1245	 2.43142173792839E-02 
1246	 0.024442350051514 
1247	 2.44497043843851E-02 
1248	 2.43299540886501E-02 
1249	 2.45183922165029E-02 
1250	 0.024586038810452 
1251	 2.44063718402178E-02 
1252	 2.44252847443565E-02 
1253	 2.42580699143189E-02 
1254	 2.40629230466264E-02 
1255	 2.43810773891236E-02 
1256	 2.44689643841701E-02 
1257	 2.45809931378814E-02 
1258	 0.024564104070294 
1259	 2.43630741516068E-02 
1260	 2.42589898276249E-02 
1261	 2.42100432623156E-02 
1262	 2.42241364841165E-02 
1263	 2.42979321593874E-02 
1264	 2.43010516458437E-02 
1265	 2.44547035678208E-02 
1266	 2.44960053889824E-02 
1267	 0.024493313633289 
1268	 2.44964231930364E-02 
1269	 2.43395013821264E-02 
1270	 2.43809501007581E-02 
1271	 2.43240075591036E-02 
1272	 2.40878990896603E-02 
1273	 0.024114942902859 
1274	 0.024057136602286 
1275	 2.42255855440405E-02 
1276	 0.024517297580798 
1277	 2.42344528564822E-02 
1278	 2.40269985036194E-02 
1279	 2.42320731702007E-02 
1280	 2.42623007637972E-02 
1281	 2.41160848810887E-02 
1282	 2.40276206997417E-02 
1283	 2.39924207166415E-02 
1284	 2.36064026493724E-02 
1285	 2.34912038579903E-02 
1286	 2.38052768358849E-02 
1287	 0.023934831949073 
1288	 2.39980139292833E-02 
1289	 2.38567069381825E-02 
1290	 0.023621598279781 
1291	 2.34245286403446E-02 
1292	 2.31893425478734E-02 
1293	 0.023144593025224 
1294	 2.32858595748441E-02 
1295	 2.33781220409077E-02 
1296	 2.33933743041589E-02 
1297	 2.32461391642258E-02 
1298	 2.29417203190681E-02 
1299	 2.27710985039913E-02 
1300	 2.26619172306691E-02 
1301	 2.24924484532098E-02 
1302	 2.25619851891716E-02 
1303	 0.022689312982495 
1304	 2.26262689541227E-02 
1305	 2.24898587427053E-02 
1306	 2.23083524098445E-02 
1307	 2.21889329139807E-02 
1308	 2.20285994258438E-02 
1309	 2.15685792688824E-02 
1310	 2.13740040217506E-02 
1311	 2.14704480606203E-02 
1312	 2.13091225770203E-02 
1313	 2.10737780611681E-02 
1314	 2.09220241507218E-02 
1315	 2.06933662908722E-02 
1316	 2.04953288353489E-02 
1317	 2.02720885685812E-02 
1318	 2.02392869919092E-02 
1319	 2.06271173381108E-02 
1320	 2.05531574883972E-02 
1321	 2.03148499097004E-02 
1322	 1.99111098168529E-02 
1323	 2.00445590314467E-02 
1324	 1.97273006802841E-02 
1325	 1.92829717989348E-02 
1326	 1.97497748325941E-02 
1327	 1.99709176871085E-02 
1328	 1.95337787119917E-02 
1329	 0.019301642604915 
1330	 1.96365513154355E-02 
1331	 1.93010532160632E-02 
1332	 1.82554637214363E-02 
1333	 0.018150535917535 
1334	 0.01833051444026 
1335	 1.82359308950246E-02 
1336	 1.82708733250537E-02 
1337	 0.01808074397492 
1338	 0.017802505907136 
1339	 1.72785615428929E-02 
1340	 1.58695555513648E-02 
1341	 0.015556975089535 
1342	 1.60912441658844E-02 
1343	 1.56981819755036E-02 
1344	 1.57569048890111E-02 
1345	 1.57464065130321E-02 
1346	 1.37096596728639E-02 
1347	 1.19497469890005E-02 
1348	 1.03223604562554E-02 
1349	 1.06552739819052E-02 
1350	 1.60440553542203E-02 
1351	 1.88480028363261E-02 
1352	 2.34656212150971E-02 
1353	 3.09178486971987E-02 
1354	 3.55269439765118E-02 
1355	 2.44069915237725E-02 
1356	 3.81539642495869E-03 
1357	-1.02566754333703E-02 
1358	-3.17009813917961E-02 
1359	 5.72277399415107E-02 
1360	 0.16233227676914 
1361	 0.138689716595941 
1362	 6.08748672168804E-02 
1363	-6.77683675156094E-02 
1364	-0.114227087624665 
1365	-6.24354953775883E-02 
1366	-5.27867542488732E-02 
1367	-6.56202344546075E-02 
1368	 2.89480037585656E-03 
1369	 0.13279957526233 
1370	 7.14410666604227E-02 
1371	-8.89753985723743E-02 
1372	-0.142622727410547 
1373	-0.358870233425324 
1374	-0.54332027798016 
1375	-0.48427133142434 
1376	-0.491628500508749 
1377	-0.863625662755544 
1378	-0.925958499458237 
1379	-0.221096151884237 
1380	-0.120276897406002 
1381	-0.312132290313785 
1382	-0.269669380717708 
1383	-0.303693552279657 
1384	-0.28690541902995 
1385	 1.42517643269893E-03 
1386	 8.69785495132296E-02 
1387	-0.102015672011623 
1388	-0.097871004968989 
1389	 2.75852030591868E-02 
1390	 9.50947284920127E-02 
1391	 0.1773079288779 
1392	 0.498675667305808 
1393	 0.546207306611087 
1394	 0.186274849382231 
1395	-0.095274135416178 
1396	-0.304942120921148 
1397	 4.05605079748213E-02 
1398	 0.276508450366756 
1399	 0.194512686989863 
1400	-3.11776194141212E-02 
1401	-0.106694539249522 
1402	-0.255718141047014 
1403	-0.11912243803173 
1404	 0.208663517149922 
1405	 0.24580052597418 
1406	 9.25801480785713E-02 
1407	-3.36391021576401E-02 
1408	-0.186453270690435 
1409	-0.199729148130696 
1410	-0.235887189109253 
1411	-0.210807769784303 
1412	-0.114627380014359 
1413	-9.78663964656025E-02 
1414	-0.105555104930847 
1415	-7.02012022932586E-02 
1416	 1.88734237437371E-02 
1417	-1.67866951746241E-03 
1418	-0.135350257727113 
1419	-7.80213897590444E-02 
1420	 4.49778157300566E-02 
1421	 4.21022876810935E-02 
1422	 4.94467536433457E-02 
1423	 0.061002854649039 
1424	 3.38121398492541E-02 
1425	 1.29239279196331E-02 
1426	 2.98212780500981E-03 
1427	 0.01198810335937 
1428	 2.23972897764771E-02 
1429	 1.39264863064983E-02 
1430	 1.65709589542127E-02 
1431	 1.98839480266918E-02 
1432	-1.52275604811765E-03 
1433	-1.24444359215808E-02 
1434	-6.02514880382723E-03 
1435	-2.29926486125809E-03 
1436	-3.1304377463468E-03 
1437	-5.45350742948148E-03 
1438	-4.70983073667435E-03 
1439	 3.19474302173914E-03 
1440	-1.12299585129834E-03 
1441	-5.50473969428454E-03 
1442	 4.26049591686582E-03 
1443	 6.08370117183642E-03 
1444	-7.62634503437988E-03 
1445	-1.24958569936077E-02 
1446	-3.98491980346618E-03 
1447	-8.12597391646855E-04 
1448	-1.58320618915768E-03 
1449	 3.05090488807261E-03 
1450	 6.05087427702371E-03 
1451	 1.96113352848468E-03 
1452	 1.27697481414481E-03 
1453	 4.33309935024051E-03 
1454	 5.13081288478782E-03 
1455	 2.1213813007291E-03 
1456	 2.23277873657287E-03 
1457	 5.36653090345509E-03 
1458	 5.90694448493645E-03 
1459	 5.0593603011742E-03 
1460	 4.75939688913241E-03 
1461	 4.76542069530128E-03 
1462	 4.31393729625762E-03 
1463	 2.63590098296501E-03 
1464	 2.20586169354732E-03 
1465	 2.90177726579361E-03 
1466	 2.50718805940539E-03 
1467	 1.65084952085431E-03 
1468	 1.5308194848297E-03 
1469	 1.18977001921327E-03 
1470	 1.13005783261206E-03 
1471	 2.24903170738424E-03 
1472	 2.68911779297861E-03 
1473	 2.47677683462553E-03 
1474	 2.31120810688548E-03 
1475	 1.59530800632708E-03 
1476	 1.96879710561179E-03 
1477	 3.01922766791714E-03 
1478	 3.70467514485063E-03 
1479	 5.29098956315973E-03 
1480	 5.44984901897362E-03 
1481	 4.39669618906694E-03 
1482	 4.27841289130524E-03 
1483	 4.13771000568778E-03 
1484	 3.97919570593723E-03 
1485	 4.06415894729785E-03 
1486	 4.1029246320021E-03 
1487	 3.94059709435872E-03 
1488	 4.03151509080566E-03 
1489	 4.36746948916997E-03 
1490	 4.57599399390762E-03 
1491	 4.72526834816176E-03 
1492	 4.8243371515316E-03 
1493	 4.94687085045152E-03 
1494	 5.01459975302396E-03 
1495	 5.03722206584608E-03 
1496	 5.08838499815723E-03 
1497	 5.10336014961102E-03 
1498	 5.18973540988146E-03 
1499	 5.35626410228694E-03 
1500	 5.34770922964838E-03 
1501	 5.25901456524643E-03 
1502	 5.25197749643478E-03 
1503	 5.10349773960497E-03 
1504	 5.19159080304554E-03 
1505	 5.55701299296727E-03 
1506	 5.77351652225228E-03 
1507	 5.75768733965646E-03 
1508	 5.75825198399211E-03 
1509	 5.66595467583028E-03 
1510	 5.48719633068441E-03 
1511	 5.65562807189188E-03 
1512	 5.88095640275148E-03 
1513	 5.89544457521542E-03 
1514	 5.90766196373846E-03 
1515	 5.90460873449454E-03 
1516	 5.89453622508227E-03 
1517	 5.9266720206995E-03 
1518	 6.11271405766869E-03 
1519	 6.29849326084233E-03 
1520	 6.27995946844976E-03 
1521	 6.37560293771403E-03 
1522	 6.4111347660608E-03 
1523	 6.39185033103063E-03 
1524	 6.62223454064598E-03 
1525	 6.82790843690731E-03 
1526	 6.84605967259804E-03 
1527	 6.72677645542599E-03 
1528	 6.63382550580613E-03 
1529	 6.62541967374395E-03 
1530	 6.74798794420096E-03 
1531	 6.86252810880519E-03 
1532	 6.8455030648069E-03 
1533	 7.0273748881303E-03 
1534	 7.19694672354295E-03 
1535	 7.0459950095615E-03 
1536	 7.03100220868243E-03 
1537	 7.26483399858483E-03 
1538	 7.25621597316072E-03 
1539	 7.11321220413993E-03 
1540	 7.29166472723346E-03 
1541	 7.50502875155207E-03 
1542	 7.53353887169645E-03 
1543	 7.76784837906373E-03 
1544	 8.00400510646665E-03 
1545	 0.007818710577187 
1546	 7.61202320171755E-03 
1547	 7.79744197604071E-03 
1548	 7.98954303081978E-03 
1549	 7.99927358845082E-03 
1550	 8.05907639981258E-03 
1551	 8.13917342666416E-03 
1552	 8.27446516308251E-03 
1553	 8.37170704878548E-03 
1554	 8.41892528825939E-03 
1555	 8.41072932882657E-03 
1556	 8.28133348809808E-03 
1557	 8.33905555803604E-03 
1558	 8.58464775578199E-03 
1559	 8.78745014328068E-03 
1560	 8.86174908482349E-03 
1561	 8.93226838477822E-03 
1562	 8.96997056015367E-03 
1563	 8.71232623944168E-03 
1564	 8.64061029279251E-03 
1565	 8.9898322328148E-03 
1566	 9.08276677381088E-03 
1567	 8.94646838872812E-03 
1568	 9.03174126711577E-03 
1569	 9.12455512091117E-03 
1570	 9.12211714366072E-03 
1571	 9.30108797721154E-03 
1572	 9.51089254662124E-03 
1573	 9.5589479276854E-03 
1574	 9.5700301848266E-03 
1575	 9.54828049040746E-03 
1576	 9.4182702079594E-03 
1577	 9.45296118092419E-03 
1578	 9.71018777797205E-03 
1579	 9.53616541470338E-03 
1580	 9.29671769947918E-03 
1581	 9.48283799232703E-03 
1582	 9.43136533823599E-03 
1583	 9.32220437114134E-03 
1584	 9.68296353613313E-03 
1585	 9.74211574976387E-03 
1586	 9.36980379336047E-03 
1587	 9.55293881968706E-03 
1588	 9.97603173286549E-03 
1589	 9.95805636692966E-03 
1590	 9.75690828367809E-03 
1591	 9.67896590140552E-03 
1592	 9.78938373605326E-03 
1593	 1.01018087057764E-02 
1594	 1.04616357701711E-02 
1595	 1.06826074895142E-02 
1596	 1.06844043203953E-02 
1597	 1.04834227441292E-02 
1598	 1.03121273473617E-02 
1599	 1.03643017223574E-02 
1600	 1.05357391510061E-02 
1601	 1.06533276907176E-02 
1602	 1.06613432956135E-02 
1603	 1.05726724247561E-02 
1604	 1.04662126713981E-02 
1605	 0.010373326677325 
1606	 1.03883411562953E-02 
1607	 1.04502839388088E-02 
1608	 1.04087018191719E-02 
1609	 1.03118223616953E-02 
1610	 1.04707514950641E-02 
1611	 1.08285005434362E-02 
1612	 1.07551520948525E-02 
1613	 1.05893439780851E-02 
1614	 1.08204099013163E-02 
1615	 1.08918748762197E-02 
1616	 1.07734687763804E-02 
1617	 1.10982615872571E-02 
1618	 1.14432566579326E-02 
1619	 1.11423362249359E-02 
1620	 1.09344852647238E-02 
1621	 1.12499418881948E-02 
1622	 1.13263956372966E-02 
1623	 1.09978041757408E-02 
1624	 1.10574755614443E-02 
1625	 1.12780193447076E-02 
1626	 1.10090653057916E-02 
1627	 0.01105460644728 
1628	 1.15057867669714E-02 
1629	 1.15377761509212E-02 
1630	 1.13175180583329E-02 
1631	 1.13912311915682E-02 
1632	 1.16062392224559E-02 
1633	 0.011431321723148 
1634	 1.12580728611533E-02 
1635	 1.15137432053305E-02 
1636	 1.16141466177894E-02 
1637	 1.15465285159812E-02 
1638	 1.16833257034434E-02 
1639	 1.16703806147614E-02 
1640	 1.16405971847202E-02 
1641	 1.18158595605075E-02 
1642	 1.18689865485069E-02 
1643	 1.18562529760522E-02 
1644	 1.18567087075588E-02 
1645	 1.19482545664579E-02 
1646	 1.20432294345764E-02 
1647	 1.20573837957276E-02 
1648	 1.19137007662427E-02 
1649	 1.16361754508386E-02 
1650	 1.18083477330436E-02 
1651	 1.21216270148521E-02 
1652	 1.21155949194907E-02 
1653	 1.18872789829896E-02 
1654	 1.19715261628394E-02 
1655	 1.19816920377711E-02 
1656	 1.18937720167571E-02 
1657	 1.20853247966035E-02 
1658	 1.20714440227854E-02 
1659	 1.17981841595764E-02 
1660	 1.19041780492487E-02 
1661	 1.21786819360557E-02 
1662	 1.22070313659793E-02 
1663	 1.21128080724724E-02 
1664	 1.21972197291726E-02 
1665	 1.24663136809487E-02 
1666	 1.25078379232951E-02 
1667	 1.25289305945937E-02 
1668	 1.22755834449694E-02 
1669	 1.20730862889909E-02 
1670	 1.19197957150552E-02 
1671	 1.18874914006355E-02 
1672	 1.19323122997531E-02 
1673	 1.18253972768738E-02 
1674	 1.20044517246148E-02 
1675	 0.012230252959111 
1676	 1.20354074731106E-02 
1677	 0.01192974146164 
1678	 1.20533344771259E-02 
1679	 1.20355148731966E-02 
1680	 1.21717366825855E-02 
1681	 1.25090415865984E-02 
1682	 1.24924211328616E-02 
1683	 1.23829771640739E-02 
1684	 0.012413675897718 
1685	 1.25468857607811E-02 
1686	 1.27268373043267E-02 
1687	 1.26255965445341E-02 
1688	 1.25495331413289E-02 
1689	 1.27089050389757E-02 
1690	 1.28397007426424E-02 
1691	 1.27209516189115E-02 
1692	 1.25879780760007E-02 
1693	 1.23698585605307E-02 
1694	 0.011938852835875 
1695	 1.18644263662952E-02 
1696	 1.20195197848454E-02 
1697	 0.012259990704923 
1698	 1.23322232419186E-02 
1699	 1.21756186250624E-02 
1700	 1.21366348964991E-02 
1701	 1.19251570538705E-02 
1702	 1.18212402436049E-02 
1703	 1.20563946800679E-02 
1704	 1.22002591853536E-02 
1705	 1.21067127575718E-02 
1706	 1.19974633996917E-02 
1707	 1.20617970142194E-02 
1708	 1.21335521288514E-02 
1709	 1.22425367577734E-02 
1710	 1.25198316103996E-02 
1711	 1.27308625394428E-02 
1712	 1.25930817639318E-02 
1713	 0.012285190472603 
1714	 1.21798150299864E-02 
1715	 1.19245151462493E-02 
1716	 1.21385120825916E-02 
1717	 1.23511467604057E-02 
1718	 1.21283009813878E-02 
1719	 1.19899770459165E-02 
1720	 0.011909111547088 
1721	 0.011490515540153 
1722	 1.12600885392871E-02 
1723	 1.18263284896088E-02 
1724	 1.23194318479237E-02 
1725	 1.24465919406966E-02 
1726	 1.21975627594802E-02 
1727	 1.15879049007518E-02 
1728	 1.14222045453097E-02 
1729	 0.011863030254166 
1730	 1.19099892264387E-02 
1731	 1.15851064269979E-02 
1732	 1.15328052871152E-02 
1733	 1.08009063316419E-02 
1734	 1.06217244077893E-02 
1735	 1.15223510628398E-02 
1736	 0.011533736498744 
1737	 1.13246519736162E-02 
1738	 1.15379954489386E-02 
1739	 1.14761715258804E-02 
1740	 1.14355346608329E-02 
1741	 0.011629376547187 
1742	 1.13610753141842E-02 
1743	 1.11822827593507E-02 
1744	 1.16832093748457E-02 
1745	 1.19115987571316E-02 
1746	 0.011973817771588 
1747	 1.20620023878011E-02 
1748	 1.17268791756924E-02 
1749	 1.15674888546117E-02 
1750	 1.17736089972381E-02 
1751	 1.17056261916673E-02 
1752	 1.14451828895427E-02 
1753	 1.13781597859623E-02 
1754	 1.12892779075296E-02 
1755	 1.09932432242689E-02 
1756	 1.03704912877402E-02 
1757	 1.04889318853987E-02 
1758	 1.06232445626152E-02 
1759	 9.99120026297006E-03 
1760	 1.05030743494303E-02 
1761	 1.08575411815403E-02 
1762	 1.04982803045934E-02 
1763	 1.07132084750972E-02 
1764	 1.02205818985055E-02 
1765	 9.7913236321477E-03 
1766	 9.92535389326736E-03 
1767	 9.92646895332101E-03 
1768	 0.010391446411109 
1769	 1.03434277138806E-02 
1770	 9.56556158834593E-03 
1771	 9.26941168784237E-03 
1772	 9.70351012431796E-03 
1773	 1.05342878995513E-02 
1774	 1.06656942923906E-02 
1775	 1.01183737016502E-02 
1776	 9.96304435708445E-03 
1777	 8.97725629071555E-03 
1778	 8.1904510108839E-03 
1779	 8.03293657990608E-03 
1780	 8.21970293743983E-03 
1781	 7.38832395154385E-03 
1782	 8.20172728352803E-03 
1783	 1.29039542276161E-02 
1784	 1.31392211073427E-02 
1785	 1.03837423141561E-02 
1786	 9.95983028562197E-03 
1787	 7.54911163833183E-03 
1788	 6.20305874404756E-03 
1789	 8.15929393087351E-03 
1790	 6.73381229620348E-03 
1791	 6.62311016339907E-03 
1792	 8.54866149333693E-03 
1793	 7.88339402782569E-03 
1794	 9.14189220995779E-03 
1795	 7.76053594656246E-03 
1796	 4.62525023385668E-03 
1797	 5.75220632088958E-03 
1798	 1.8614908766649E-03 
1799	-0.00162708531033 
1800	-3.55802918813557E-03 
1801	-5.19024445186775E-03 
1802	-1.06769010787831E-03 
1803	-3.47664707917199E-03 
1804	-2.07203059221186E-02 
1805	-1.36141405241814E-02 
1806	 3.12692128275388E-02 
1807	 3.58272579819368E-02 
1808	 4.03320778730403E-02 
1809	 0.040272145901081 
1810	-0.153298877452362 
1811	-0.190892192353852 
1812	 0.137029775680386 
1813	 0.151195109248911 
1814	 2.67546268811251E-02 
1815	 3.27762413005324E-02 
1816	-0.184641747998585 
1817	-0.136664010457142 
1818	-1.42530184257242E-02 
1819	-0.231516337549219 
1820	-0.19023672633019 
1821	 0.527795638986702 
1822	 0.638853775664802 
1823	 9.45712725859444E-02 
1824	 1.90292682363383E-03 
1825	-0.378251420996819 
1826	-0.490705030079065 
1827	-0.177670803556902 
1828	 0.129482853024384 
1829	 0.428329642872149 
1830	 0.323557122863902 
1831	-0.194866877960733 
1832	 0.113135483643614 
1833	 4.93604066932779E-03 
1834	-0.101038610966154 
1835	-0.306960185064281 
1836	-0.475440488063458 
1837	-1.54133163909156 
1838	-2.10778559349382 
1839	-1.86439541040307 
1840	-1.00842154604721 
1841	-0.816843509876429 
1842	-1.04508342077619 
1843	-0.812148685523511 
1844	 1.652650802044 
1845	 3.08222955330739 
1846	-2.14331591658405 
1847	-1.77704794466646 
1848	-1.69080058469212 
1849	-4.53987832108805 
1850	 2.57755348972067 
1851	 0.68679245030527 
1852	 1.0211109121129 
1853	-3.39197022875571 
1854	 19.6803855080681 
1855	-2.00759691358645 
1856	-2.31407367057741 
1857	-1.04220078560053 
1858	-0.791791764596852 
1859	-0.168958003532008 
1860	-11.6241097357622 
1861	-6.4137496172897 
1862	-0.488380115566329 
1863	-1.55029056446221E-02 
1864	 1.22036592334907 
1865	 0.605258081222126 
1866	-4.91558929038205E-02 
1867	-0.242609350177861 
1868	-0.72285243884084 
1869	-0.948655574482545 
1870	-2.69192894654856 
1871	-4.07007641630647 
1872	-0.866922743205671 
1873	-0.234933204542944 
1874	 0.192346306244471 
1875	 0.250952342587835 
1876	 0.795337329762982 
1877	 0.239624867711673 
1878	 0.231781929586916 
1879	 0.299710825353255 
1880	 0.122315702114755 
1881	-0.346489562794549 
1882	-0.82841888741695 
1883	-0.563630100994592 
1884	-1.53383261104008 
1885	-0.763057831640677 
1886	-0.65198959710723 
1887	-0.500785757258759 
1888	-0.150134292539161 
1889	 0.100977720324267 
1890	 8.38993311616282E-04 
1891	 4.42697566699212E-02 
1892	-4.39231695592418E-02 
1893	 0.479051701950333 
1894	 1.60268592335913 
1895	-2.88098621888386 
1896	 0.131161013418358 
1897	-0.822768001016982 
1898	-0.162450790565884 
1899	-2.74269636822494 
1900	-0.700741293246899 
1901	-0.539282625486248 
1902	-0.425063997583067 
1903	 0.252418363540189 
1904	 0.871117414602981 
1905	 0.577737878251227 
1906	-0.135564759020738 
1907	-0.272144206062611 
1908	-0.331909226456529 
1909	 0.485661791067269 
1910	-0.962523888682086 
1911	-0.521309321365275 
1912	 1.72887982782661 
1913	-7.03583670024072 
1914	-0.63954764006381 
1915	-0.368142382628073 
1916	-0.109888828568848 
1917	 0.442675930151152 
1918	 1.30921000732831 
1919	 2.42229976007706 
1920	 2.64253554502044 
1921	-2.0429662563203 
1922	-1.81389967186435 
1923	 44.7558342776681 
1924	-4.22824039644164 
1925	-2.29994286692501 
1926	-2.39781083116254 
1927	-4.02542402439767 
1928	 31.2719285093865 
1929	 1.97677676065369 
1930	-4.67809473092412 
1931	 34.1822830745234 
1932	 1.57875209845228 
1933	 1.08414063686574 
1934	 0.780514804368334 
1935	 0.835848828828678 
1936	 0.820606019285143 
1937	 0.452468234318757 
1938	 0.412029669553338 
1939	 0.242899765302876 
1940	 9.51501906917876E-02 
1941	-0.060233562467462 
1942	 4.53035639983525E-03 
1943	 8.85472742658541E-02 
1944	 9.35994421489022E-02 
1945	 0.150898308918386 
1946	 0.150587634634812 
1947	 7.05682092439494E-02 
1948	 7.20424117172829E-03 
1949	-2.67949792599664E-03 
1950	-4.11104800503592E-02 
1951	-9.35575110370774E-02 
1952	-9.86313841194237E-02 
1953	-7.46235838305065E-02 
1954	-0.066916013533937 
1955	-8.12218178122898E-02 
1956	-0.06073464428412 
1957	-0.034487678832111 
1958	-2.70826611456984E-02 
1959	-1.87448315478626E-02 
1960	-6.32410367024059E-03 
1961	-2.31565952004101E-03 
1962	-4.22349589558893E-03 
1963	-6.58405005671904E-03 
1964	-1.02423633128722E-02 
1965	-9.41353276265217E-03 
1966	-7.73069455864847E-03 
1967	-5.95549303827465E-03 
1968	-2.64306471055116E-03 
1969	 2.61878833603486E-03 
1970	 1.95340987722528E-03 
1971	 4.4091716822021E-04 
1972	 3.25237105887907E-03 
1973	 4.26364920277344E-03 
1974	 2.91107067060227E-03 
1975	 1.2096543639086E-03 
1976	 5.31663890566662E-04 
1977	-1.58001410336506E-04 
1978	-8.19558766190394E-05 
1979	 2.38432839807287E-06 
1980	 1.63956482262718E-03 
1981	-1.03752104421665E-05 
1982	-1.40543932072032E-03 
1983	-1.36224660940163E-03 
1984	-2.01401640853459E-03 
1985	-6.76470571761616E-04 
1986	 1.33514915883552E-03 
1987	 2.86836822801877E-03 
1988	 3.84810123011134E-03 
1989	 3.2647314603577E-03 
1990	 3.06256368214006E-03 
1991	 2.66247024715265E-03 
1992	 1.18991148305251E-03 
1993	 9.95271285316019E-04 
1994	 1.00962008879722E-03 
1995	 6.88610384746076E-04 
1996	-4.97382566386754E-04 
1997	 1.06042322226802E-03 
1998	 3.14586326096275E-03 
1999	 2.68368846535466E-03 
2000	 1.44148685361893E-03 
2001	-8.41091067179766E-04 
2002	-5.76972467035574E-03 
2003	-7.0188230164356E-03 
2004	-4.45113103056196E-03 
2005	-5.67854512637979E-03 
2006	-4.30521551671999E-03 
2007	 1.00684505186189E-03 
2008	 2.92141816879364E-03 
2009	 3.07745304215093E-03 
2010	 4.59762439200608E-03 
2011	 4.5123445902739E-03 
2012	-7.8208307643438E-04 
2013	-8.23474927305906E-04 
2014	 1.39847462141677E-03 
2015	 2.74272478856844E-03 
2016	 6.21692307288677E-03 
2017	 5.12585140219541E-03 
2018	 3.35918584740212E-03 
2019	 3.45046118638549E-03 
2020	 4.26958465673626E-04 
2021	-2.22678826189267E-03 
2022	-1.61202576084621E-03 
2023	-4.22933334171764E-04 
2024	 4.80897355812575E-04 
2025	 3.45326404351411E-03 
2026	 3.98785725301485E-03 
2027	 3.0729546339824E-03 
2028	 2.63561768739194E-03 
2029	 2.80546634443424E-03 
2030	 3.12811038789612E-03 
2031	 3.53669249893262E-03 
2032	 3.19077221937454E-03 
2033	 2.70245814126793E-03 
2034	 1.9583892144978E-03 
2035	 1.54151513520494E-03 
2036	 1.87883200475624E-03 
2037	 2.04099786704202E-03 
2038	 2.34974009990483E-03 
2039	 2.44667831504102E-03 
2040	 2.28515670207794E-03 
2041	 2.39593530611894E-03 
2042	 2.71434984833377E-03 
2043	 2.69613269093222E-03 
2044	 2.6627935263408E-03 
2045	 2.58342899004522E-03 
2046	 2.67943277366762E-03 
2047	 2.99805012490257E-03 
2048	 2.94308493316672E-03 
2049	 2.78947654194883E-03 
2050	 2.92212763502671E-03 
2051	 2.92165688552577E-03 
2052	 2.96880084811386E-03 
2053	 2.97604187687033E-03 
2054	 2.19449724798989E-03 
2055	 9.56769071246524E-04 
2056	 3.35245903809953E-04 
2057	-3.97304873966706E-05 
2058	 4.78350100670838E-04 
2059	 1.62251928664934E-03 
2060	 2.73025588017276E-03 
2061	 4.72205893524636E-03 
2062	 5.90615415504497E-03 
2063	 6.76621187974501E-03 
2064	 7.08775823719084E-03 
2065	 6.03365606031887E-03 
2066	 5.78589542919785E-03 
2067	 4.90675041256142E-03 
2068	 0.003964465198098 
2069	 4.32745160016028E-03 
2070	 3.45484190109398E-03 
2071	 1.50505356341508E-03 
2072	 8.67487502333633E-04 
2073	 1.02413635501036E-03 
2074	 1.54817804457915E-03 
2075	 1.64358609799602E-03 
2076	 2.80335832598522E-03 
2077	 3.07787564254069E-03 
2078	 1.89891643107084E-03 
2079	 2.09555000453384E-03 
2080	 2.88967922467156E-03 
2081	 4.27879885362655E-03 
2082	 5.40636901905183E-03 
2083	 5.39772574897596E-03 
2084	 4.89549193595645E-03 
2085	 5.04252143140471E-03 
2086	 4.47432063197882E-03 
2087	 3.68459866177161E-03 
2088	 3.71929647586433E-03 
2089	 3.32022898490745E-03 
2090	 3.15476931832976E-03 
2091	 3.35402609268505E-03 
2092	 2.93713914255318E-03 
2093	 1.7023544292435E-03 
2094	 1.55198694290032E-03 
2095	 1.67531674930648E-03 
2096	 1.69942526562915E-03 
2097	 2.60040449286423E-03 
2098	 2.7928469644989E-03 
2099	 2.09533441795476E-03 
2100	 2.27727804999891E-03 
2101	 1.99118260040299E-03 
2102	 2.28738187017372E-03 
2103	 2.96221424361622E-03 
2104	 2.26995250784786E-03 
2105	 2.5748402024019E-03 
2106	 3.09268504966168E-03 
2107	 3.92104582011925E-03 
2108	 5.1233083986139E-03 
2109	 4.73197856820317E-03 
2110	 4.27811972764871E-03 
2111	 3.36906368515046E-03 
2112	 1.81100600877438E-03 
2113	 1.5292589657628E-03 
2114	 2.83745850752309E-03 
2115	 2.93916420447048E-03 
2116	 3.18092857466421E-03 
2117	 3.39255472084927E-03 
2118	 2.48103479605086E-03 
2119	 2.55020780713961E-03 
2120	 3.65940160086901E-03 
2121	 3.94370828266544E-03 
2122	 3.36338753215237E-03 
2123	 3.86611546309449E-03 
2124	 3.54663497248798E-03 
2125	 2.85505760644864E-03 
2126	 2.92125768774954E-03 
2127	 2.47017846353907E-03 
2128	 2.18206919062334E-03 
2129	 2.65748646426599E-03 
2130	 2.48272326840909E-03 
2131	 2.43761844133647E-03 
2132	 2.96811530229388E-03 
2133	 3.15420532389629E-03 
2134	 3.24779985737241E-03 
2135	 3.62782861275996E-03 
2136	 3.99748173856858E-03 
2137	 4.00796772780566E-03 
2138	 3.95288530863303E-03 
2139	 4.14538777457537E-03 
2140	 4.18242491527513E-03 
2141	 3.88232759475532E-03 
2142	 3.74059084977663E-03 
2143	 3.34188033837963E-03 
2144	 3.94943384425706E-03 
2145	 4.66766570967118E-03 
2146	 4.03509688924535E-03 
2147	 4.34044758694495E-03 
2148	 4.54012260078531E-03 
2149	 3.93127889502606E-03 
2150	 4.09607340017971E-03 
2151	 4.00368222114654E-03 
2152	 3.17409494884573E-03 
2153	 2.81070899268047E-03 
2154	 3.26788273498192E-03 
2155	 2.85097421051413E-03 
2156	 3.19110221855023E-03 
2157	 3.74053984949538E-03 
2158	 4.30955687894316E-03 
2159	 4.63103555602458E-03 
2160	 5.72143895735053E-03 
2161	 5.53004763647619E-03 
2162	 4.1027178687589E-03 
2163	 3.38831177230105E-03 
2164	 2.51587846920696E-03 
2165	 2.28838918815525E-03 
2166	 2.2871684719646E-03 
2167	 2.34432460788564E-03 
2168	 2.92695420631882E-03 
2169	 3.3488129289458E-03 
2170	 3.33802102285501E-03 
2171	 4.55029526896123E-03 
2172	 6.33439750727414E-03 
2173	 5.79574291411789E-03 
2174	 5.60393156385863E-03 
2175	 6.29991720340641E-03 
2176	 5.70729071692984E-03 
2177	 5.28102028950512E-03 
2178	 5.57033735921383E-03 
2179	 4.6896799812108E-03 
2180	 3.65357850979827E-03 
2181	 4.20990476421255E-03 
2182	 4.54082013669637E-03 
2183	 4.24608901552771E-03 
2184	 3.87143887766012E-03 
2185	 3.77359322012816E-03 
2186	 3.79534424904304E-03 
2187	 3.51800940001542E-03 
2188	 3.57845393673628E-03 
2189	 5.0289124782047E-03 
2190	 4.31008227214767E-03 
2191	 1.70378210212717E-03 
2192	 6.28936954459397E-04 
2193	-1.58200908618998E-03 
2194	-1.69737155405322E-03 
2195	 2.73153827040866E-04 
2196	 2.06339656369073E-03 
2197	 6.46699686331906E-03 
2198	 7.59999915949605E-03 
2199	 7.16393767048952E-03 
2200	 6.48837316457357E-03 
2201	 4.55360061018379E-03 
2202	 2.70733022230917E-03 
2203	 3.29825656580159E-03 
2204	 3.83736705089895E-03 
2205	 2.8015348862376E-03 
2206	 2.27171151710871E-03 
2207	 2.1188389085398E-03 
2208	 1.84728950581272E-03 
2209	 3.72939346918647E-03 
2210	 6.73026734587205E-03 
2211	 7.48074083130121E-03 
2212	 8.38121715899125E-03 
2213	 9.53410916017231E-03 
2214	 8.70525851181157E-03 
2215	 8.16023816628041E-03 
2216	 7.46566121370743E-03 
2217	 6.36862165243742E-03 
2218	 3.95120156675918E-03 
2219	 3.26816574480561E-03 
2220	 2.8713964815612E-03 
2221	 3.4976182967517E-03 
2222	 6.26146602274924E-03 
2223	 7.17646167462476E-03 
2224	 7.35559234402427E-03 
2225	 7.64149107162605E-03 
2226	 7.48064788702115E-03 
2227	 7.31519261127957E-03 
2228	 7.51842073285306E-03 
2229	 7.38746877542329E-03 
2230	 6.85942594895632E-03 
2231	 5.80602431183115E-03 
2232	 3.95141494809724E-03 
2233	 3.35168885326446E-03 
2234	 3.3957065328939E-03 
2235	 2.22377760585805E-03 
2236	 2.13844728298049E-03 
2237	 2.59179056643746E-03 
2238	 3.0713728810814E-03 
2239	 3.70817286473134E-03 
2240	 5.72958823674556E-03 
2241	 7.94706899169526E-03 
2242	 7.61473743184504E-03 
2243	 5.89221998953584E-03 
2244	 4.93615526755637E-03 
2245	 3.52141385163697E-03 
2246	 6.12137437150196E-04 
2247	 1.66369633435783E-04 
2248	 1.31509986041509E-03 
2249	 5.30386076692309E-04 
2250	 2.34563293674065E-03 
2251	 4.70292030183012E-03 
2252	 2.66532895487272E-03 
2253	 9.2432507879639E-04 
2254	-8.20746418530494E-05 
2255	-1.8724273650176E-03 
2256	-1.07465410884893E-03 
2257	 1.05900740152078E-03 
2258	 9.66075042349434E-04 
2259	 4.39791690660094E-04 
2260	 5.4811817970367E-04 
2261	-3.29436864816746E-04 
2262	-3.86533087034955E-05 
2263	 1.65933512870926E-03 
2264	 2.45598854438514E-03 
2265	 3.34624366113242E-03 
2266	 3.69595117738775E-03 
2267	 3.9337090153244E-03 
2268	 3.89342639493455E-03 
2269	 2.86203620931939E-03 
2270	 3.01179720163516E-03 
2271	 3.51402054942966E-03 
2272	 3.82487525407153E-03 
2273	 4.71105935653105E-03 
2274	 4.82672243225003E-03 
2275	 4.05230012314583E-03 
2276	 4.17781882734364E-03 
2277	 5.70190965705732E-03 
2278	 5.70796480618049E-03 
2279	 4.64270099565553E-03 
2280	 4.12226484548202E-03 
2281	 3.63598100222087E-03 
2282	 1.35905258295475E-03 
2283	-1.10996294325296E-03 
2284	-6.7387954995537E-04 
2285	-2.56655458279429E-03 
2286	-3.67351778800872E-03 
2287	 4.67638971800825E-04 
2288	 2.43308960337789E-03 
2289	 2.85983909055793E-03 
2290	 6.04091472540506E-03 
2291	 7.19649563246381E-03 
2292	 6.66577212331967E-03 
2293	 7.18759846658354E-03 
2294	 6.56819304324442E-03 
2295	 3.10754942615728E-03 
2296	-4.65065631421346E-03 
2297	-8.28555533447149E-03 
2298	-7.40778051608369E-03 
2299	-9.75601424901933E-03 
2300	-6.27433164580361E-03 
2301	-4.50950035680996E-04 
2302	-3.31490076501937E-03 
2303	-5.87097285130723E-03 
2304	-1.66307316679429E-03 
2305	-5.02357799446844E-04 
2306	-2.49858972697483E-03 
2307	 8.79756046449433E-04 
2308	 2.55479107486867E-03 
2309	-4.6145556607365E-04 
2310	-1.24417340856324E-03 
2311	 2.00005882705457E-03 
2312	 4.24416431092418E-03 
2313	 3.65364150941275E-03 
2314	 3.47540205202289E-03 
2315	 4.1677956226994E-03 
2316	 3.95746007595993E-03 
2317	 2.61454229339262E-03 
2318	 4.46912592129789E-03 
2319	 2.43836903728891E-03 
2320	-4.89759364305222E-03 
2321	-3.91096018823474E-03 
2322	-1.76616815023973E-03 
2323	-5.22186652037008E-04 
2324	 7.09922404004646E-03 
2325	 6.63329440771553E-03 
2326	 4.28768116400173E-03 
2327	 5.83050935519649E-03 
2328	 2.67002470488834E-04 
2329	-3.27101742282239E-03 
2330	-3.14530133969207E-03 
2331	-2.70875458886121E-03 
2332	-9.06649261129961E-04 
2333	 0.004526041895092 
2334	 5.62604576946113E-03 
2335	 2.20033254983983E-04 
2336	 8.11136773970039E-04 
2337	 1.95254700281048E-03 
2338	 3.3051999165101E-03 
2339	 5.25059027113011E-03 
2340	 5.29551908676958E-03 
2341	 6.92538526283944E-03 
2342	 2.84988647916374E-03 
2343	-4.42501429394592E-03 
2344	-8.08800638696049E-03 
2345	-1.57956672681545E-02 
2346	-1.36773391695484E-02 
2347	-1.76522164528046E-03 
2348	-3.62628578889738E-03 
2349	-3.65443445816401E-03 
2350	-5.78921118499004E-03 
2351	-1.16776144883923E-02 
2352	-1.02536062948055E-02 
2353	-1.28777625139817E-02 
2354	-1.51431992252519E-02 
2355	-2.54374464738985E-02 
2356	-2.95866921225882E-02 
2357	-2.00793064619659E-02 
2358	-2.01377432965217E-02 
2359	-2.21936994400338E-02 
2360	-2.41563772836506E-02 
2361	-2.63786708833623E-02 
2362	-2.82953428596359E-02 
2363	-2.88585315166452E-02 
2364	-1.15245859734168E-02 
2365	-8.76247888640605E-04 
2366	-6.94306060281375E-03 
2367	-3.08018738822659E-03 
2368	-6.81951862174731E-03 
2369	-2.48357763841962E-02 
2370	-2.79405565500588E-02 
2371	-1.70343524313295E-02 
2372	-1.44227860716451E-02 
2373	-1.18472491500043E-02 
2374	-6.34495936376278E-03 
2375	-9.34578333602642E-03 
2376	-1.64354222141889E-02 
2377	-2.11508202557679E-02 
2378	-7.9782949225732E-03 
2379	 2.05106722909423E-03 
2380	 2.32263001807918E-03 
2381	 1.18187274842132E-02 
2382	 5.56570660890881E-03 
2383	 6.4257540838739E-03 
2384	 5.00011636606238E-02 
2385	 7.14930661392717E-02 
2386	 4.60577842123734E-02 
2387	 3.31139891299191E-02 
2388	 3.03526283397243E-03 
2389	-1.75657354316165E-02 
2390	 5.14732807324577E-03 
2391	 2.22153658666178E-02 
2392	 2.28414555828902E-02 
2393	 6.70053813203223E-03 
2394	-5.17209988480198E-03 
2395	-2.08459840977639E-02 
2396	-1.74363986926662E-02 
2397	 6.08552256519667E-03 
2398	 3.22254512233515E-03 
2399	-9.11696728706202E-03 
2400	-0.022924635600944 
2401	-2.89095176601127E-02 
2402	-1.77731625208458E-02 
2403	-1.52091204928554E-02 
2404	-1.08608001409808E-02 
2405	-7.43229860848895E-03 
2406	 8.49561827086323E-03 
2407	 5.24077649298366E-02 
2408	 0.090335450690592 
2409	 9.56233390793771E-02 
2410	 2.76221520991742E-02 
2411	-4.25633066378057E-02 
2412	-5.21872852993521E-02 
2413	-6.20813549106267E-02 
2414	-5.17581716631018E-02 
2415	-1.22452755987237E-02 
2416	-1.88367337048885E-02 
2417	-0.026545728115743 
2418	-2.69544886679559E-02 
2419	-0.107097244489243 
2420	-0.238530811133825 
2421	-0.336801907696647 
2422	-0.348481171259091 
2423	-0.232671158637612 
2424	-0.126102190910281 
2425	-0.110422903441659 
2426	 4.1142984398813E-03 
2427	 0.107432127691509 
2428	 3.83519251833255E-02 
2429	 1.05577679109337E-02 
2430	-8.41307797406408E-02 
2431	-0.263435614096635 
2432	-0.335993600027611 
2433	-0.328317563755727 
2434	-0.307862942585131 
2435	-0.278853851786822 
2436	-0.115686450643838 
2437	 7.05317774162115E-03 
2438	-4.32035755976953E-03 
2439	 8.63677057685882E-03 
2440	-6.37610615326061E-02 
2441	-0.154245243503006 
2442	-0.162962449636246 
2443	-0.231213377529514 
2444	-0.130779609024289 
2445	-0.208894837822217 
2446	-0.496152533826832 
2447	 0.209662994149117 
2448	 0.276319630518213 
2449	 0.503209103476014 
2450	 0.607769233606997 
2451	-0.211191163331136 
2452	-0.82027773437138 
2453	-0.26188451825459 
2454	-0.166764828902037 
2455	-0.408531826229596 
2456	-0.250663201424019 
2457	-0.147097959255511 
2458	-2.86478250157546E-02 
2459	 0.127010152906615 
2460	 0.222648611657726 
2461	 7.05617797002023E-02 
2462	-0.271116531165108 
2463	-0.31705599447028 
2464	-0.518726406238929 
2465	-0.731276074741332 
2466	-0.398526169294276 
2467	-0.58924053435961 
2468	-0.748927393334667 
2469	-0.506294467576704 
2470	-1.02143078349726 
2471	-0.970083490262402 
2472	-0.585526006719362 
2473	-1.08830397768236 
2474	-2.43819706281933 
2475	-2.20939183822873 
2476	 13.9127102650589 
2477	 3.09771949962763 
2478	-3.60275234212857 
2479	-3.05374159726111 
2480	 1.48194465912747 
2481	 0.714317558206455 
2482	 0.39805412147031 
2483	 8.37738024995879E-02 
2484	 0.177099390723588 
2485	 0.493500875771233 
2486	-0.246591805164104 
2487	-0.56664550453402 
2488	 25.8876311615832 
2489	 5.74812112140645 
2490	 1.36770852703007 
2491	-0.304050735433081 
2492	-0.455438647501534 
2493	 0.387518757113593 
2494	-4.92175773719499E-03 
2495	 3.16660748290249E-03 
2496	 0.890056652903152 
2497	-15.3386540594604 
2498	 0.238190513128855 
2499	-0.266106735219272 
2500	 1.29908471676225 
