Wavelength	rt0716a200002.asd
350	 5.54717494236331E-02 
351	 5.54397226034229E-02 
352	 5.55041814780747E-02 
353	 5.52483697600071E-02 
354	 0.054772767677464 
355	 5.56292531866426E-02 
356	 5.62192747125703E-02 
357	 5.60494150850195E-02 
358	 5.53821198874906E-02 
359	 5.58936967590076E-02 
360	 5.63235716072909E-02 
361	 5.64655763296719E-02 
362	 5.68448448788424E-02 
363	 0.057058873511014 
364	 5.70437591318897E-02 
365	 5.70109257222384E-02 
366	 5.75214437641395E-02 
367	 5.76235757392826E-02 
368	 5.74233524635819E-02 
369	 5.72574633616782E-02 
370	 5.71285248008519E-02 
371	 5.75062131028373E-02 
372	 5.79853839116909E-02 
373	 5.77940615645922E-02 
374	 5.77225344945848E-02 
375	 5.78575281530072E-02 
376	 5.81316452857075E-02 
377	 5.83752550910262E-02 
378	 5.81896819072042E-02 
379	 0.058109818474337 
380	 5.84674564399962E-02 
381	 5.82095171714704E-02 
382	 5.86348441071368E-02 
383	 5.92017732273145E-02 
384	 5.88088005506785E-02 
385	 5.90362203306813E-02 
386	 5.93510102547483E-02 
387	 5.94835127955805E-02 
388	 5.96431183583017E-02 
389	 5.97620347898199E-02 
390	 5.97663618396759E-02 
391	 5.97233337873993E-02 
392	 6.00988743995821E-02 
393	 5.99126807262401E-02 
394	 5.95877147906869E-02 
395	 5.97988425529308E-02 
396	 5.95783911944273E-02 
397	 5.96281919735284E-02 
398	 5.99903875122489E-02 
399	 6.00961298106885E-02 
400	 5.99337895882061E-02 
401	 5.97334766405711E-02 
402	 5.96550173112645E-02 
403	 5.96333684024644E-02 
404	 0.059598720777883 
405	 0.059532065173588 
406	 5.94325892558011E-02 
407	 5.92239529174396E-02 
408	 5.92898943102981E-02 
409	 5.95490104260154E-02 
410	 5.94780377715591E-02 
411	 5.92953325486138E-02 
412	 5.92046354643598E-02 
413	 5.92884819945976E-02 
414	 5.93850998087086E-02 
415	 5.93238734099742E-02 
416	 5.92024179048048E-02 
417	 5.92098965002654E-02 
418	 5.93302402457092E-02 
419	 0.059335469503662 
420	 0.059224109838196 
421	 5.92434559221278E-02 
422	 5.93803008243186E-02 
423	 5.96280042373178E-02 
424	 5.99081436581132E-02 
425	 5.99435576041387E-02 
426	 6.00875951476546E-02 
427	 0.060354924411426 
428	 6.06059682258571E-02 
429	 6.09037029945118E-02 
430	 6.12394651322074E-02 
431	 6.16199306308373E-02 
432	 6.20780840664813E-02 
433	 6.23806891921213E-02 
434	 6.26048459641246E-02 
435	 6.28542990334914E-02 
436	 6.30816976398449E-02 
437	 6.33266348036533E-02 
438	 6.36150737824114E-02 
439	 6.39310054593891E-02 
440	 6.39854782485364E-02 
441	 6.40800029763803E-02 
442	 6.43139287382785E-02 
443	 6.43995338504059E-02 
444	 6.45242706922184E-02 
445	 0.064594348488405 
446	 0.064555036508134 
447	 6.48142586670313E-02 
448	 6.48720456248222E-02 
449	 6.47391803593975E-02 
450	 6.47951844914573E-02 
451	 0.064897003145349 
452	 6.48985885256972E-02 
453	 6.47702368540936E-02 
454	 6.47118292322806E-02 
455	 6.46931938028841E-02 
456	 6.47013885212273E-02 
457	 6.47013983378191E-02 
458	 6.45545169324788E-02 
459	 6.44380861628416E-02 
460	 6.43842681045746E-02 
461	 6.42715888932796E-02 
462	 6.42609885197073E-02 
463	 6.42073643075079E-02 
464	 6.40279543127246E-02 
465	 6.39791554549897E-02 
466	 6.38689610138461E-02 
467	 6.37354368987873E-02 
468	 6.37014534909214E-02 
469	 6.36351519106738E-02 
470	 6.35706168401275E-02 
471	 0.063520876403619 
472	 6.34523423152479E-02 
473	 6.33309583159925E-02 
474	 6.32591532908881E-02 
475	 6.33092579007548E-02 
476	 6.33353172995088E-02 
477	 6.32646972245778E-02 
478	 6.32154849953247E-02 
479	 6.33916679677827E-02 
480	 6.34047847546914E-02 
481	 6.34195024482843E-02 
482	 6.35507374114534E-02 
483	 6.36652450879704E-02 
484	 6.37389993577766E-02 
485	 6.38379548982839E-02 
486	 6.40216288374824E-02 
487	 0.064092379174988 
488	 6.42540007116879E-02 
489	 6.45010787914022E-02 
490	 6.46235783066507E-02 
491	 6.48373307064834E-02 
492	 6.51732882620078E-02 
493	 6.55591159110199E-02 
494	 0.065750168736895 
495	 6.59415546525291E-02 
496	 6.62162241198331E-02 
497	 6.65680304210184E-02 
498	 6.67432533420521E-02 
499	 6.70199617934369E-02 
500	 6.74498909403442E-02 
501	 6.76560273287302E-02 
502	 6.79563624664001E-02 
503	 6.83205724587207E-02 
504	 0.068654289197935 
505	 6.90342172574018E-02 
506	 6.93156163324819E-02 
507	 6.95850164154382E-02 
508	 7.00792748756177E-02 
509	 7.03653996592298E-02 
510	 7.06524406314159E-02 
511	 0.071082693509029 
512	 7.13859357323495E-02 
513	 7.18156731835387E-02 
514	 7.23661910146914E-02 
515	 7.29094860373328E-02 
516	 0.073360418597847 
517	 7.38500376359765E-02 
518	 7.44229175843976E-02 
519	 7.49931486891436E-02 
520	 7.56111967619943E-02 
521	 7.63028963337016E-02 
522	 7.70382751082552E-02 
523	 7.75833324843236E-02 
524	 0.078248780912035 
525	 7.90964909396566E-02 
526	 7.99998426955667E-02 
527	 8.08687340374607E-02 
528	 8.17832985047103E-02 
529	 8.27362693034237E-02 
530	 8.34804502280973E-02 
531	 8.43113603944796E-02 
532	 8.53254111454281E-02 
533	 8.64950549861595E-02 
534	 8.75839720982083E-02 
535	 8.86784413055619E-02 
536	 8.98089634039947E-02 
537	 9.09107201994123E-02 
538	 9.20454449911199E-02 
539	 9.32106340594881E-02 
540	 9.43792384497394E-02 
541	 9.54877348365683E-02 
542	 9.66761413102822E-02 
543	 9.78791381028776E-02 
544	 0.098933605798031 
545	 0.100046024850932 
546	 0.101154887112125 
547	 0.102214593222144 
548	 0.1032826775279 
549	 0.104323843498431 
550	 0.105302275726352 
551	 0.106208186458625 
552	 0.107156082471098 
553	 0.108169520135305 
554	 0.109158585047961 
555	 0.109918655403814 
556	 0.11080997378667 
557	 0.111744732637464 
558	 0.112590385047344 
559	 0.11348297431128 
560	 0.114341989929764 
561	 0.115155375403611 
562	 0.115960693941002 
563	 0.116777603488294 
564	 0.117609122153539 
565	 0.118434241574677 
566	 0.119193480102878 
567	 0.119954210872596 
568	 0.120660575527743 
569	 0.121252897430821 
570	 0.121925325772465 
571	 0.122588804457672 
572	 0.123185225364491 
573	 0.123709458647676 
574	 0.124185679139587 
575	 0.124730515229873 
576	 0.125369505514863 
577	 0.125784431203786 
578	 0.12624830770771 
579	 0.126759384772714 
580	 0.127161629225175 
581	 0.127580083093789 
582	 0.127946497090291 
583	 0.128246675257231 
584	 0.128607295422223 
585	 0.128913341921683 
586	 0.129122313775976 
587	 0.129242367364129 
588	 0.129392297430632 
589	 0.129666769707104 
590	 0.12998754876685 
591	 0.130139053217219 
592	 0.130321984484252 
593	 0.130552130566345 
594	 0.130779727784221 
595	 0.130893065732791 
596	 0.130989100891265 
597	 0.13109854260273 
598	 0.131210515508712 
599	 0.131321672013029 
600	 0.131370791192371 
601	 0.131384606555383 
602	 0.131555573192896 
603	 0.131661036282486 
604	 0.131757731981957 
605	 0.13194755049062 
606	 0.132087564212676 
607	 0.13215266730488 
608	 0.132224064799695 
609	 0.132470763299901 
610	 0.132564777222656 
611	 0.13266292665765 
612	 0.13287805913336 
613	 0.132861643115803 
614	 0.132991203087827 
615	 0.133190564963769 
616	 0.133178616102035 
617	 0.133346285643071 
618	 0.133487880189199 
619	 0.133515367333882 
620	 0.133628806071098 
621	 0.133712410364441 
622	 0.133763913959674 
623	 0.133824254835459 
624	 0.133977450964051 
625	 0.134029536221781 
626	 0.134020448531867 
627	 0.134209421799164 
628	 0.134470106854055 
629	 0.134616678570761 
630	 0.134592008920221 
631	 0.134682397198695 
632	 0.13476291578029 
633	 0.134813430723707 
634	 0.134860423454023 
635	 0.134903854172177 
636	 0.13501266605289 
637	 0.135163216939818 
638	 0.135196819264394 
639	 0.1351793986948 
640	 0.135174405777126 
641	 0.135222011512335 
642	 0.135269338075943 
643	 0.135238814073088 
644	 0.135165717379375 
645	 0.135167013099633 
646	 0.135076228503572 
647	 0.134970999914319 
648	 0.134947234225691 
649	 0.135054209782596 
650	 0.134985365891193 
651	 0.134854529919658 
652	 0.134888438049243 
653	 0.134834662002976 
654	 0.134785336916076 
655	 0.134741248372429 
656	 0.134562444240495 
657	 0.134422973156156 
658	 0.13432987787684 
659	 0.134240059979179 
660	 0.134095861761132 
661	 0.13387955471727 
662	 0.133656898986245 
663	 0.133537250623411 
664	 0.133443365931097 
665	 0.133322083035912 
666	 0.133155422127339 
667	 0.13297176138659 
668	 0.132966278779492 
669	 0.133019503255336 
670	 0.132972279803551 
671	 0.133069268041251 
672	 0.13307270476099 
673	 0.133004560281093 
674	 0.133134343772505 
675	 0.133344790941134 
676	 0.133524782433518 
677	 0.13363606294851 
678	 0.133807787836358 
679	 0.134086093074964 
680	 0.134403226409848 
681	 0.134663655292123 
682	 0.135001859032776 
683	 0.135469419751371 
684	 0.135985407878458 
685	 0.136341434627007 
686	 0.136806802326795 
687	 0.137362864910083 
688	 0.137893423171181 
689	 0.138473527207119 
690	 0.138961815536799 
691	 0.139375868353818 
692	 0.139829063744745 
693	 0.140321433768733 
694	 0.140812938724825 
695	 0.14127361759698 
696	 0.141764261591789 
697	 0.142114138761319 
698	 0.142284832979282 
699	 0.142314611702695 
700	 0.142504200047681 
701	 0.142803340862961 
702	 0.143070300801268 
703	 0.143143872817667 
704	 0.143164449746102 
705	 0.143167107849897 
706	 0.143172191600866 
707	 0.143221987089375 
708	 0.143152258406893 
709	 0.142990949375272 
710	 0.142815126111611 
711	 0.142523157751598 
712	 0.142175290795802 
713	 0.141732287691034 
714	 0.141035647385747 
715	 0.140456489185936 
716	 0.139908916892857 
717	 0.139245699586594 
718	 0.138368021527764 
719	 0.137604797407318 
720	 0.13701591746449 
721	 0.136385687633291 
722	 0.135764375261196 
723	 0.134876569403079 
724	 0.133796764293507 
725	 0.132877150355622 
726	 0.131859806700723 
727	 0.130669797101612 
728	 0.12930029733075 
729	 0.127769902967385 
730	 0.126187407274597 
731	 0.12469926564715 
732	 0.12332403528445 
733	 0.121969983710327 
734	 0.120786432066943 
735	 0.119860929122017 
736	 0.119156545969745 
737	 0.118587390140801 
738	 0.11816901699668 
739	 0.117910369922367 
740	 0.117687243457858 
741	 0.117540963318711 
742	 0.117493115760513 
743	 0.117542140755055 
744	 0.117619327871342 
745	 0.117692296566377 
746	 0.117723562550933 
747	 0.117663752018395 
748	 0.117667194845584 
749	 0.11773259772892 
750	 0.117822255637958 
751	 0.117940366929837 
752	 0.118013320373735 
753	 0.118040385319037 
754	 0.118072591458253 
755	 0.118195721091706 
756	 0.11832381134297 
757	 0.11837743270231 
758	 0.118267158652146 
759	 0.117908099226731 
760	 0.117628998113005 
761	 0.117964822126981 
762	 0.118214425043836 
763	 0.118370171689777 
764	 0.118638834636882 
765	 0.119138943832452 
766	 0.119402259892319 
767	 0.119613514524253 
768	 0.119844327628607 
769	 0.120044082214549 
770	 0.120188636277732 
771	 0.120397815476053 
772	 0.120718862831546 
773	 0.120927647890142 
774	 0.121157279622531 
775	 0.121455895019834 
776	 0.121815406944529 
777	 0.122118214453392 
778	 0.12238546943107 
779	 0.122668686942575 
780	 0.123033755120794 
781	 0.123410389377458 
782	 0.12375193272741 
783	 0.124051763224909 
784	 0.12436946833919 
785	 0.124838796098808 
786	 0.125293634703388 
787	 0.125545592658984 
788	 0.125945762981551 
789	 0.126314740332781 
790	 0.126623923415744 
791	 0.126990747537472 
792	 0.127438531094071 
793	 0.127855246070431 
794	 0.128175628294401 
795	 0.12842019256026 
796	 0.128716718636106 
797	 0.129141730155594 
798	 0.129666387817068 
799	 0.129959440142689 
800	 0.130103626563725 
801	 0.130278553124165 
802	 0.130649007585927 
803	 0.130841168238363 
804	 0.130968301759532 
805	 0.131070648877695 
806	 0.131066608485144 
807	 0.131118556005447 
808	 0.131154691913833 
809	 0.131078996471967 
810	 0.13084261235654 
811	 0.130741076753791 
812	 0.130591263402134 
813	 0.130116036067263 
814	 0.129962812860714 
815	 0.129543408208527 
816	 0.128965032136403 
817	 0.128828279375744 
818	 0.128375157447713 
819	 0.127868041521522 
820	 0.127305770342076 
821	 0.126261595073637 
822	 0.125135904952058 
823	 0.124145466690481 
824	 0.123202227562643 
825	 0.121567280994628 
826	 0.120053759751968 
827	 0.118493604096798 
828	 0.116577967054061 
829	 0.114830353015701 
830	 0.113190449647116 
831	 0.11171400054571 
832	 0.110564676869756 
833	 0.109437525322203 
834	 0.108576347483345 
835	 0.107992234515288 
836	 0.107347709238975 
837	 0.106936227906112 
838	 0.106508727752601 
839	 0.105912617801415 
840	 0.105509523334999 
841	 0.105306457207735 
842	 0.105018442296565 
843	 0.10441508403853 
844	 0.104051393779705 
845	 0.10376531949502 
846	 0.103500129012676 
847	 0.103252023932239 
848	 0.102662432692593 
849	 0.102312786856561 
850	 0.102294551410358 
851	 0.101959064690972 
852	 0.101373270584195 
853	 0.101025758960357 
854	 0.101041078627554 
855	 0.100582922351058 
856	 0.100193610764754 
857	 9.99385359183124E-02 
858	 9.97159866780676E-02 
859	 9.93246904757057E-02 
860	 9.90421371455591E-02 
861	 9.89018203786191E-02 
862	 0.098762079840191 
863	 9.83100838200717E-02 
864	 9.80648736041734E-02 
865	 9.79270292021317E-02 
866	 9.72911040381726E-02 
867	 9.69401938290105E-02 
868	 9.68136994557396E-02 
869	 9.66278366137356E-02 
870	 9.60092885140044E-02 
871	 9.54609702129643E-02 
872	 9.51090643773602E-02 
873	 9.48337060028655E-02 
874	 9.41511238392236E-02 
875	 9.38692122389511E-02 
876	 9.37440576594571E-02 
877	 9.32820672131463E-02 
878	 9.23420420352113E-02 
879	 9.19373918506226E-02 
880	 9.17439697887812E-02 
881	 9.10026355743923E-02 
882	 9.05785483179978E-02 
883	 9.00051705291359E-02 
884	 8.94220631152325E-02 
885	 8.93294917925314E-02 
886	 8.88379803771028E-02 
887	 8.82273485731001E-02 
888	 8.78244281457735E-02 
889	 8.77765062470371E-02 
890	 0.086991273507049 
891	 8.61907767701033E-02 
892	 8.59145465664086E-02 
893	 8.56923645047239E-02 
894	 8.52903343684617E-02 
895	 8.47964298657291E-02 
896	 8.43259852213386E-02 
897	 8.36564571214577E-02 
898	 8.32263595394703E-02 
899	 8.28904066722761E-02 
900	 8.24300767733336E-02 
901	 8.21932380156588E-02 
902	 8.18533855367902E-02 
903	 8.14269347156307E-02 
904	 8.10201581922304E-02 
905	 8.04589423827959E-02 
906	 8.00074087902135E-02 
907	 7.93108234603147E-02 
908	 7.78725075583964E-02 
909	 7.75856725675977E-02 
910	 0.077731545146557 
911	 7.72148418053383E-02 
912	 7.53302906425382E-02 
913	 7.52165689073667E-02 
914	 7.52813445532008E-02 
915	 7.39959606161353E-02 
916	 7.11645513848661E-02 
917	 7.11356120912915E-02 
918	 7.05381508509805E-02 
919	 6.84294422530512E-02 
920	 6.82315136436383E-02 
921	 6.72686727948285E-02 
922	 6.59258463138616E-02 
923	 6.49015548260811E-02 
924	 6.43712224925915E-02 
925	 6.23343870064389E-02 
926	 6.11354459774929E-02 
927	 6.23362075492416E-02 
928	 0.058280245337714 
929	 5.62846298252654E-02 
930	 5.73169848624922E-02 
931	 5.75188863278349E-02 
932	 5.09482504325437E-02 
933	 5.12770459740477E-02 
934	 5.38492550878951E-02 
935	 4.71268591505807E-02 
936	 4.48949652516306E-02 
937	 4.37822615698408E-02 
938	 4.57803438800301E-02 
939	 5.05885760569877E-02 
940	 4.28589287824584E-02 
941	 3.94815128049468E-02 
942	 4.18356262203614E-02 
943	 4.31502726378283E-02 
944	 4.03163093926089E-02 
945	 4.04040985139426E-02 
946	 4.01866320360578E-02 
947	 3.30322429663812E-02 
948	 3.11072781853933E-02 
949	 3.34411201520783E-02 
950	 3.59335128758977E-02 
951	 3.44789781073418E-02 
952	 3.18652393988374E-02 
953	 3.14782664650978E-02 
954	 3.25241123908917E-02 
955	 3.18918979882381E-02 
956	 3.10142684658699E-02 
957	 2.92642228967935E-02 
958	 2.78527478447375E-02 
959	 2.86336816596347E-02 
960	 2.92557276249513E-02 
961	 2.96929582559202E-02 
962	 2.92795159690253E-02 
963	 2.75117495373147E-02 
964	 2.82185652974884E-02 
965	 2.93642641295608E-02 
966	 2.90671472551492E-02 
967	 2.67191946039055E-02 
968	 2.69425531476236E-02 
969	 2.71432841406851E-02 
970	 2.67775750077276E-02 
971	 0.027337979088534 
972	 0.027265311706792 
973	 2.68371363064746E-02 
974	 2.64588876131921E-02 
975	 0.02647098578175 
976	 2.74461145571546E-02 
977	 0.028104258146864 
978	 2.79214978984627E-02 
979	 2.73249841911855E-02 
980	 2.66306612321152E-02 
981	 2.71132054813283E-02 
982	 2.76125621992977E-02 
983	 0.025969333782716 
984	 0.027657509487567 
985	 2.80211061908051E-02 
986	 2.69052083468315E-02 
987	 2.77851530485826E-02 
988	 0.027855391152251 
989	 2.79660601526139E-02 
990	 2.83842109784492E-02 
991	 2.86638972794398E-02 
992	 0.028315156963572 
993	 2.85854991155523E-02 
994	 2.90027135162549E-02 
995	 2.82193376212222E-02 
996	 2.78215814222436E-02 
997	 2.72593788592277E-02 
998	 2.72915244607918E-02 
999	 2.89060386638844E-02 
1000	 2.96848138260727E-02 
1001	 2.65066317541282E-02 
1002	 2.62786997197089E-02 
1003	 2.62051959812395E-02 
1004	 2.63106014987591E-02 
1005	 2.61868663888736E-02 
1006	 2.58503970130034E-02 
1007	 0.025904042624545 
1008	 2.56481281263308E-02 
1009	 2.56381601197394E-02 
1010	 2.61938203119084E-02 
1011	 2.64892841624133E-02 
1012	 2.69740969949092E-02 
1013	 2.70877755538485E-02 
1014	 2.72230756384279E-02 
1015	 2.71311813348233E-02 
1016	 2.73617760690688E-02 
1017	 2.75618928916358E-02 
1018	 2.80076252907249E-02 
1019	 2.87349744101375E-02 
1020	 2.92715929007688E-02 
1021	 2.98239821897696E-02 
1022	 0.030582749501799 
1023	 3.08510166361726E-02 
1024	 3.09691186870322E-02 
1025	 0.031336328873841 
1026	 0.031320124062163 
1027	 3.13772790515033E-02 
1028	 3.14695892122463E-02 
1029	 3.15915344959029E-02 
1030	 0.031403069594994 
1031	 3.17844421523828E-02 
1032	 3.26501745890063E-02 
1033	 3.32488131570891E-02 
1034	 3.39657850015877E-02 
1035	 3.45890812275003E-02 
1036	 3.49972332492137E-02 
1037	 3.55437385277372E-02 
1038	 3.62121058930604E-02 
1039	 3.70070113625722E-02 
1040	 3.70811982009043E-02 
1041	 3.75743181982827E-02 
1042	 3.80445780239847E-02 
1043	 3.83695217558727E-02 
1044	 3.87934878123598E-02 
1045	 3.95100832050539E-02 
1046	 3.99418774875337E-02 
1047	 4.00184732718792E-02 
1048	 4.04872372582828E-02 
1049	 4.11859413747288E-02 
1050	 4.17735929079697E-02 
1051	 4.26157568725736E-02 
1052	 4.31382448903801E-02 
1053	 4.33164970261044E-02 
1054	 0.043701992703083 
1055	 4.40650186585793E-02 
1056	 4.44165518544765E-02 
1057	 4.48017537380099E-02 
1058	 0.045372156099225 
1059	 0.045676050804624 
1060	 4.58109197742392E-02 
1061	 4.60480845564066E-02 
1062	 4.61734448099195E-02 
1063	 4.64656562875419E-02 
1064	 4.70137565858263E-02 
1065	 4.72258953130292E-02 
1066	 4.74560644669747E-02 
1067	 4.74604383298456E-02 
1068	 4.68548768514326E-02 
1069	 4.67853649062737E-02 
1070	 4.70537241485694E-02 
1071	 4.70771736873059E-02 
1072	 4.73508490026854E-02 
1073	 4.73901566613652E-02 
1074	 4.73374488989866E-02 
1075	 4.69886269164452E-02 
1076	 4.67421411876885E-02 
1077	 4.64884475751269E-02 
1078	 4.62478355682245E-02 
1079	 4.58980683502026E-02 
1080	 4.56351292540158E-02 
1081	 4.53732290534355E-02 
1082	 4.52662234728382E-02 
1083	 4.55388800691679E-02 
1084	 4.52514436494313E-02 
1085	 4.45826141754916E-02 
1086	 0.044255510107532 
1087	 4.35958758928867E-02 
1088	 4.31875244973934E-02 
1089	 4.32505630220871E-02 
1090	 4.33754880178015E-02 
1091	 4.32144528264372E-02 
1092	 4.29582855717796E-02 
1093	 4.25603049289532E-02 
1094	 4.18697695648069E-02 
1095	 4.13672718165865E-02 
1096	 4.08101192396322E-02 
1097	 4.02673342643237E-02 
1098	 3.98675960214334E-02 
1099	 3.93876958937431E-02 
1100	 3.86391328607688E-02 
1101	 3.81082823666693E-02 
1102	 3.76348067490576E-02 
1103	 0.037332712859451 
1104	 3.73652974448715E-02 
1105	 3.74072189467474E-02 
1106	 3.69078830930551E-02 
1107	 3.60202204382475E-02 
1108	 3.56714308246208E-02 
1109	 3.55821274325824E-02 
1110	 3.52456492567055E-02 
1111	 3.55877627432793E-02 
1112	 3.55342020713856E-02 
1113	 0.03460020811462 
1114	 3.40170905702429E-02 
1115	 3.42083189724453E-02 
1116	 3.37726807176264E-02 
1117	 3.14995486694029E-02 
1118	 3.07699800474703E-02 
1119	 3.29647091432036E-02 
1120	 3.22387046720963E-02 
1121	 2.91105103021568E-02 
1122	 2.97242257996269E-02 
1123	 2.49684960786496E-02 
1124	 1.98159005152586E-02 
1125	 2.82766852427278E-02 
1126	 3.24940058162985E-02 
1127	 2.74069747608272E-02 
1128	 0.023324777038517 
1129	 2.31317867095693E-02 
1130	 2.07264365136372E-02 
1131	 1.97480365762536E-02 
1132	 2.43903717640543E-02 
1133	 2.41679395956532E-02 
1134	 1.84307319494186E-02 
1135	 1.73999356307363E-02 
1136	 1.98763767972294E-02 
1137	 2.01567679963723E-02 
1138	 2.08965226351277E-02 
1139	 1.93841756261179E-02 
1140	 1.79517453450548E-02 
1141	 1.67358781509596E-02 
1142	 1.80828291383109E-02 
1143	 2.01885483813188E-02 
1144	 2.01577859125264E-02 
1145	 1.89726165227579E-02 
1146	 0.016523660681089 
1147	 1.36600865695899E-02 
1148	 1.27948244655478E-02 
1149	 1.44298504033392E-02 
1150	 1.49853637752694E-02 
1151	 1.57667135760444E-02 
1152	 1.55599815080181E-02 
1153	 1.50810529212427E-02 
1154	 1.47322969381941E-02 
1155	 1.37346833391972E-02 
1156	 1.39086399810366E-02 
1157	 0.014755083179695 
1158	 1.39302585941972E-02 
1159	 1.35865439378346E-02 
1160	 1.41919703203382E-02 
1161	 0.013774684635758 
1162	 1.42034297872966E-02 
1163	 1.50642938629054E-02 
1164	 1.44795365611772E-02 
1165	 0.014358978178068 
1166	 1.44451887911774E-02 
1167	 0.013987471012339 
1168	 1.42634761779133E-02 
1169	 1.45128682802602E-02 
1170	 1.42614043210229E-02 
1171	 1.42049690666548E-02 
1172	 1.41202749751548E-02 
1173	 1.41329943820008E-02 
1174	 0.014149261716337 
1175	 1.43073790041339E-02 
1176	 1.47440676515204E-02 
1177	 1.46035427196072E-02 
1178	 1.41674121991975E-02 
1179	 1.42386993798864E-02 
1180	 1.41714148134266E-02 
1181	 1.39027538456542E-02 
1182	 1.40941448911101E-02 
1183	 1.40624591213749E-02 
1184	 0.013501086185584 
1185	 1.35689773103007E-02 
1186	 1.40422209933537E-02 
1187	 1.40206046712263E-02 
1188	 1.39206315021992E-02 
1189	 1.41245742884278E-02 
1190	 1.41837716729176E-02 
1191	 1.42224504853018E-02 
1192	 1.42035247736031E-02 
1193	 0.014471529525459 
1194	 1.42092482984718E-02 
1195	 1.37487068571881E-02 
1196	 0.013874612245316 
1197	 0.014207911775335 
1198	 1.42886669889794E-02 
1199	 1.43509819152426E-02 
1200	 1.42557313489404E-02 
1201	 1.42109791560478E-02 
1202	 1.45531572048425E-02 
1203	 0.014749134560732 
1204	 1.46888708749115E-02 
1205	 1.45445168003072E-02 
1206	 1.44444143284124E-02 
1207	 1.44850604881887E-02 
1208	 1.45695120220221E-02 
1209	 1.47731239786904E-02 
1210	 1.49291392292992E-02 
1211	 1.49577704617148E-02 
1212	 1.49166622449131E-02 
1213	 0.014741929084802 
1214	 1.47054975757452E-02 
1215	 1.46021946500843E-02 
1216	 1.47449229867846E-02 
1217	 1.48558580460489E-02 
1218	 1.50112831374255E-02 
1219	 1.52254026624008E-02 
1220	 1.51286085269002E-02 
1221	 1.51946259200249E-02 
1222	 1.53481432937085E-02 
1223	 0.015173181877644 
1224	 1.49930863807723E-02 
1225	 1.49784222805619E-02 
1226	 1.48327893123576E-02 
1227	 1.47023291340417E-02 
1228	 1.48023576725063E-02 
1229	 1.47961073220246E-02 
1230	 1.48459095992565E-02 
1231	 1.50126014493636E-02 
1232	 1.49740305651934E-02 
1233	 1.47270620705214E-02 
1234	 1.45948421819061E-02 
1235	 1.45755301990726E-02 
1236	 1.45873377894094E-02 
1237	 1.46212315282387E-02 
1238	 1.48367891219332E-02 
1239	 1.49402954965445E-02 
1240	 1.48960350995276E-02 
1241	 1.47739888546326E-02 
1242	 1.46744837060015E-02 
1243	 1.46892911879656E-02 
1244	 1.45739227298232E-02 
1245	 1.44947808520538E-02 
1246	 1.45365356942028E-02 
1247	 1.44389903160002E-02 
1248	 1.43846058929201E-02 
1249	 0.014514818509661 
1250	 1.46076967889349E-02 
1251	 1.44851818083111E-02 
1252	 1.42700049305923E-02 
1253	 1.42408137502809E-02 
1254	 1.44786590368098E-02 
1255	 1.46194413363831E-02 
1256	 1.45797832150948E-02 
1257	 1.44870587887752E-02 
1258	 1.44921104959798E-02 
1259	 1.42700082995712E-02 
1260	 1.41796315497967E-02 
1261	 1.43637415434456E-02 
1262	 1.44411570184837E-02 
1263	 0.014346469703107 
1264	 0.014438465665373 
1265	 1.44647342869306E-02 
1266	 1.42232047118069E-02 
1267	 1.40870182418662E-02 
1268	 1.41195918300908E-02 
1269	 1.43676944868019E-02 
1270	 1.45962197713312E-02 
1271	 1.45049535227992E-02 
1272	 1.44343688504389E-02 
1273	 1.44669666223652E-02 
1274	 1.42531355198262E-02 
1275	 1.39636989072339E-02 
1276	 1.39163842127953E-02 
1277	 0.013896868606621 
1278	 0.013964134167199 
1279	 1.41044745797004E-02 
1280	 1.39172251705313E-02 
1281	 1.39195449855602E-02 
1282	 1.38128833152492E-02 
1283	 1.38131319643972E-02 
1284	 1.41157334412367E-02 
1285	 1.41266948045339E-02 
1286	 1.37795553025457E-02 
1287	 1.36879167564095E-02 
1288	 1.38151954223529E-02 
1289	 1.37540931400697E-02 
1290	 1.36225084752251E-02 
1291	 1.34960760587604E-02 
1292	 1.36435237523311E-02 
1293	 1.35809727524326E-02 
1294	 1.34743279955183E-02 
1295	 1.35590393805344E-02 
1296	 1.36336945584086E-02 
1297	 1.34714221158266E-02 
1298	 1.30956762745259E-02 
1299	 1.31414285741827E-02 
1300	 1.32687275178039E-02 
1301	 1.31304807861223E-02 
1302	 1.32354131837298E-02 
1303	 1.36209450584411E-02 
1304	 1.42063829943309E-02 
1305	 1.43694356499087E-02 
1306	 1.42763958226938E-02 
1307	 1.42580379033001E-02 
1308	 1.41835969207613E-02 
1309	 1.33736458428914E-02 
1310	 1.30710534790463E-02 
1311	 1.34224806597172E-02 
1312	 1.32606014369435E-02 
1313	 1.26077209187544E-02 
1314	 1.23450060083192E-02 
1315	 1.21471461672092E-02 
1316	 1.20993372794464E-02 
1317	 1.23569010598152E-02 
1318	 1.24100199268414E-02 
1319	 1.27339046554032E-02 
1320	 1.28408639442675E-02 
1321	 0.012867997745282 
1322	 1.21385082669721E-02 
1323	 0.012365012189235 
1324	 1.25605333651202E-02 
1325	 1.20763500941328E-02 
1326	 1.23399055557787E-02 
1327	 1.20607858550872E-02 
1328	 1.06988354379409E-02 
1329	 1.06643831429665E-02 
1330	 0.011726204104452 
1331	 1.19450259505732E-02 
1332	 0.011563131545974 
1333	 1.11932414539743E-02 
1334	 1.06952144627549E-02 
1335	 1.01449809226002E-02 
1336	 1.00910376089969E-02 
1337	 9.72770375786593E-03 
1338	 8.5066898988952E-03 
1339	 8.14588267061135E-03 
1340	 0.008749516087309 
1341	 8.85731718855351E-03 
1342	 8.85162812500206E-03 
1343	 9.44044011388335E-03 
1344	 0.010616372490781 
1345	 1.06235375077323E-02 
1346	 1.04797186547285E-02 
1347	 0.010386720749452 
1348	 8.08255631615139E-03 
1349	 6.61043221665952E-03 
1350	 6.96653128277316E-03 
1351	 6.75967080244003E-03 
1352	 2.4178147750946E-03 
1353	 6.47774068175658E-04 
1354	 1.44248014768734E-02 
1355	 0.02929170063867 
1356	-4.86855101390727E-03 
1357	 1.00493068956307E-02 
1358	 0.034478822560168 
1359	-5.44193887314905E-02 
1360	-1.72050620199101E-02 
1361	 0.101204530345857 
1362	 0.112587891366464 
1363	 5.56130343656203E-02 
1364	 4.04458670506072E-02 
1365	 2.56504743740424E-02 
1366	-4.14094404135141E-02 
1367	-8.71035238940052E-02 
1368	-7.77184038243922E-02 
1369	-0.102185889566245 
1370	-6.79601215376756E-02 
1371	 0.174344659310668 
1372	 0.154159857162101 
1373	-3.66635432974337E-02 
1374	-6.21512128990486E-02 
1375	-0.100620712250153 
1376	-0.215938065086696 
1377	-0.297842085862219 
1378	-0.301029383653972 
1379	-0.437689758100101 
1380	-0.429260625276675 
1381	 3.41076476544104E-02 
1382	 7.40020111972599E-02 
1383	-0.344460381995607 
1384	-0.319742913742222 
1385	-0.136690043546926 
1386	-0.158021309959196 
1387	-0.131622595942015 
1388	-6.09228580772545E-02 
1389	-0.15536418643778 
1390	-0.223884673983618 
1391	-0.254597088865919 
1392	-2.49835620953291E-02 
1393	 0.218923462779799 
1394	-4.62551046065283E-02 
1395	-5.35735786078072E-02 
1396	 0.408527857147084 
1397	 0.41519937226348 
1398	 0.313029017603281 
1399	 0.398473658219379 
1400	 0.192004521100782 
1401	-4.00832422703537E-02 
1402	-0.252780844515561 
1403	-0.119768678571974 
1404	 6.36982012578082E-03 
1405	-0.119809249887566 
1406	-0.365154862542469 
1407	-0.195697225294422 
1408	-1.90175667768254E-02 
1409	-4.09706401506752E-02 
1410	 0.127382697516175 
1411	 0.149796708960715 
1412	-8.69594533012113E-02 
1413	-0.108133478042894 
1414	 4.06686551571771E-02 
1415	 7.27077163285422E-02 
1416	 6.53900497832637E-02 
1417	 3.58815731973274E-02 
1418	-3.09812891312444E-02 
1419	-0.017403698724064 
1420	 2.99770628398793E-02 
1421	 4.1319871590113E-03 
1422	-4.01969488580239E-02 
1423	-2.17998052974638E-02 
1424	 0.004117025228724 
1425	-9.09490448917252E-03 
1426	-0.013564271286025 
1427	 4.32822139985428E-04 
1428	-1.86301046793227E-03 
1429	-8.18261039994748E-03 
1430	 1.27006598178822E-02 
1431	 1.83444829243693E-02 
1432	-7.67465204904192E-03 
1433	-2.05957126729043E-02 
1434	-2.28600708775623E-02 
1435	-2.39570785627714E-02 
1436	-3.22420613975943E-02 
1437	-2.67597709077174E-02 
1438	-2.44118068021758E-02 
1439	-1.50310312299392E-02 
1440	-0.012556550500955 
1441	-1.87518809830764E-02 
1442	-1.20455935933205E-02 
1443	-9.17022949254518E-03 
1444	-1.24360852658811E-02 
1445	-5.07326413852301E-03 
1446	 5.84069631129462E-03 
1447	 5.56843387475714E-03 
1448	-3.57220864960007E-04 
1449	-1.63644613492331E-03 
1450	 5.69968402181537E-04 
1451	 3.39472678300349E-04 
1452	 6.88655738375811E-04 
1453	 3.10537458324145E-03 
1454	 4.17514394227403E-03 
1455	 2.50883227599765E-03 
1456	 2.52045308814415E-03 
1457	 4.42442007132425E-03 
1458	 4.54680264913716E-03 
1459	 2.94419707821172E-03 
1460	 3.15100381326179E-03 
1461	 4.85408620170712E-03 
1462	 4.58262146184751E-03 
1463	 3.09016843910371E-03 
1464	 3.57801914010308E-03 
1465	 4.41496860613817E-03 
1466	 4.07256305702493E-03 
1467	 5.20982515281327E-03 
1468	 5.65598210113431E-03 
1469	 3.1717462506835E-03 
1470	 2.49492353144358E-03 
1471	 5.14009281124944E-03 
1472	 3.9048153357093E-03 
1473	-1.22577551930581E-03 
1474	-1.62323909650677E-03 
1475	-7.33063365666759E-04 
1476	-1.45957647760642E-04 
1477	 0.002748496494916 
1478	 3.65577699250123E-03 
1479	 0.003812614020637 
1480	 3.07168662580661E-03 
1481	 3.63808295400753E-05 
1482	 5.78385931945571E-04 
1483	 3.45824013593489E-03 
1484	 3.24722154065293E-03 
1485	 2.68086772170253E-03 
1486	 3.11962021746688E-03 
1487	 2.4847118667114E-03 
1488	 2.11783129156469E-03 
1489	 2.76721126795009E-03 
1490	 3.09911151994894E-03 
1491	 2.95054706625389E-03 
1492	 2.87836162160199E-03 
1493	 3.30271573614998E-03 
1494	 3.22801178405795E-03 
1495	 2.53491370290033E-03 
1496	 2.25173852061747E-03 
1497	 1.84249517886315E-03 
1498	 0.001883634340373 
1499	 2.54349951980084E-03 
1500	 2.70408217290846E-03 
1501	 2.69885521793016E-03 
1502	 2.84028574664252E-03 
1503	 2.87335535324735E-03 
1504	 2.83376380729816E-03 
1505	 2.73223352391837E-03 
1506	 3.04955020501538E-03 
1507	 3.08473927577496E-03 
1508	 2.68198017858029E-03 
1509	 2.57933283294387E-03 
1510	 2.71585152051962E-03 
1511	 2.90974034010578E-03 
1512	 3.07466600729265E-03 
1513	 3.24752692869094E-03 
1514	 3.44112152541209E-03 
1515	 3.29530984500595E-03 
1516	 3.10992388275545E-03 
1517	 3.22972312273001E-03 
1518	 3.28603797012446E-03 
1519	 3.18697293888287E-03 
1520	 3.27699705195547E-03 
1521	 3.42529630995663E-03 
1522	 3.43759347934041E-03 
1523	 3.38916404800904E-03 
1524	 3.42488842868925E-03 
1525	 3.52170511682867E-03 
1526	 3.50759904794815E-03 
1527	 3.55722606842949E-03 
1528	 3.68546844853747E-03 
1529	 3.83978337604639E-03 
1530	 3.93917848230262E-03 
1531	 3.85680337352124E-03 
1532	 3.84509394349372E-03 
1533	 3.87657634851713E-03 
1534	 3.74704690011498E-03 
1535	 3.71864643299157E-03 
1536	 3.86447291753591E-03 
1537	 3.91697724267402E-03 
1538	 3.81581545949152E-03 
1539	 3.79520261767747E-03 
1540	 3.94411587488104E-03 
1541	 3.97422507082132E-03 
1542	 3.94594831266864E-03 
1543	 4.00667497075218E-03 
1544	 3.98957755349967E-03 
1545	 3.97210400637734E-03 
1546	 4.08797182224337E-03 
1547	 4.14793544358008E-03 
1548	 4.19918651589526E-03 
1549	 4.39746237789784E-03 
1550	 4.31877319040314E-03 
1551	 4.09114467107441E-03 
1552	 4.1558300769075E-03 
1553	 4.15113579906111E-03 
1554	 4.11612676560645E-03 
1555	 4.34432541214256E-03 
1556	 4.42717054956331E-03 
1557	 4.17812517331983E-03 
1558	 4.07534884836679E-03 
1559	 4.12855581021611E-03 
1560	 4.0699612022496E-03 
1561	 4.18778954821619E-03 
1562	 4.41044283516619E-03 
1563	 4.37316924898686E-03 
1564	 4.3448830634143E-03 
1565	 4.57227006005823E-03 
1566	 4.64089215589171E-03 
1567	 4.43191688223678E-03 
1568	 4.4332893964754E-03 
1569	 4.53928256142769E-03 
1570	 4.43035793073204E-03 
1571	 4.40383743012932E-03 
1572	 4.54294474715698E-03 
1573	 4.64144592443172E-03 
1574	 4.68621187300682E-03 
1575	 4.60530833807046E-03 
1576	 4.5905740355996E-03 
1577	 4.70234827894563E-03 
1578	 4.57422274503442E-03 
1579	 4.65477461011846E-03 
1580	 5.09986096221795E-03 
1581	 5.00618247420607E-03 
1582	 4.60041652210314E-03 
1583	 4.80431088819617E-03 
1584	 4.9611452153907E-03 
1585	 4.5855792137145E-03 
1586	 4.61975814656741E-03 
1587	 4.83898515363721E-03 
1588	 4.74500349526441E-03 
1589	 4.9113843428749E-03 
1590	 5.26273014064057E-03 
1591	 5.33242750819175E-03 
1592	 5.15045035847037E-03 
1593	 5.08755145094025E-03 
1594	 5.23801143881078E-03 
1595	 5.27086461154354E-03 
1596	 5.2676957276899E-03 
1597	 5.27869848707848E-03 
1598	 5.09055066553963E-03 
1599	 4.92135859780411E-03 
1600	 5.00594045721406E-03 
1601	 5.37597624987951E-03 
1602	 5.59269366728022E-03 
1603	 5.37967109465223E-03 
1604	 5.17198054459239E-03 
1605	 5.27084229141862E-03 
1606	 5.47638654229641E-03 
1607	 5.40095125927491E-03 
1608	 5.37660607579552E-03 
1609	 5.56953037584665E-03 
1610	 5.26799762623039E-03 
1611	 5.03015906327159E-03 
1612	 5.63268654157953E-03 
1613	 5.96419901524755E-03 
1614	 5.83083269375372E-03 
1615	 6.16793101252254E-03 
1616	 6.33416580012795E-03 
1617	 5.69035874131842E-03 
1618	 5.39966209928821E-03 
1619	 0.005903311290821 
1620	 6.06016191914537E-03 
1621	 5.81961001064965E-03 
1622	 5.99403809605835E-03 
1623	 5.98873333576111E-03 
1624	 5.49815513008153E-03 
1625	 5.46630195962433E-03 
1626	 5.51365552829503E-03 
1627	 5.29102488061742E-03 
1628	 5.36825692789447E-03 
1629	 5.51721569610462E-03 
1630	 5.68136586043026E-03 
1631	 5.83653615803919E-03 
1632	 5.73682969853909E-03 
1633	 5.8549525176936E-03 
1634	 6.02273536017405E-03 
1635	 5.95463441458393E-03 
1636	 6.06691545614082E-03 
1637	 6.05307675179029E-03 
1638	 5.90511080896674E-03 
1639	 5.87314487424713E-03 
1640	 5.80981758057695E-03 
1641	 5.86093527036699E-03 
1642	 5.90297648798646E-03 
1643	 5.87302892743488E-03 
1644	 5.83138600351117E-03 
1645	 5.66465923940086E-03 
1646	 5.56700083762312E-03 
1647	 5.46787869646093E-03 
1648	 5.39513327146522E-03 
1649	 5.69219797543962E-03 
1650	 5.93387360012154E-03 
1651	 5.82592777100565E-03 
1652	 6.05043698143659E-03 
1653	 5.98711948525574E-03 
1654	 5.89167634818516E-03 
1655	 6.16344387575101E-03 
1656	 6.14452090865634E-03 
1657	 5.70443470204026E-03 
1658	 5.75685710740117E-03 
1659	 5.98469151610462E-03 
1660	 5.88447677041859E-03 
1661	 5.83990426865702E-03 
1662	 6.00645979173293E-03 
1663	 6.07444654898516E-03 
1664	 6.0270203641856E-03 
1665	 6.28947096113082E-03 
1666	 6.41668401834105E-03 
1667	 6.09755616159565E-03 
1668	 6.22428040556748E-03 
1669	 6.19200361972757E-03 
1670	 5.89115324640663E-03 
1671	 5.89399365972949E-03 
1672	 6.13752374632489E-03 
1673	 6.2363798188065E-03 
1674	 6.20110866067486E-03 
1675	 6.1074423470053E-03 
1676	 5.64212532825399E-03 
1677	 5.41490196476877E-03 
1678	 5.68851114340222E-03 
1679	 5.92375122665754E-03 
1680	 6.03429590242105E-03 
1681	 6.17280492017209E-03 
1682	 6.08969787062411E-03 
1683	 5.69595387941728E-03 
1684	 5.84016747118607E-03 
1685	 6.03088425708819E-03 
1686	 5.77092981721769E-03 
1687	 5.8646883720499E-03 
1688	 6.08741991202135E-03 
1689	 6.11101248190235E-03 
1690	 6.10937793951995E-03 
1691	 6.25298358893418E-03 
1692	 6.1971355707218E-03 
1693	 5.78398629245725E-03 
1694	 6.03682558320219E-03 
1695	 6.39985628114735E-03 
1696	 6.1342714418565E-03 
1697	 6.17267610795815E-03 
1698	 6.09204202710933E-03 
1699	 5.91368786912584E-03 
1700	 6.35958116390499E-03 
1701	 6.51783911637318E-03 
1702	 6.26682542514025E-03 
1703	 6.2544457552803E-03 
1704	 5.89813162247828E-03 
1705	 5.64348857661593E-03 
1706	 5.90344313977733E-03 
1707	 5.66219551773055E-03 
1708	 5.64668885477997E-03 
1709	 5.95857979109864E-03 
1710	 5.84036354867541E-03 
1711	 5.89199753440192E-03 
1712	 5.7579217116419E-03 
1713	 5.63794425049001E-03 
1714	 5.82989299054258E-03 
1715	 6.21281790411308E-03 
1716	 6.2048501224363E-03 
1717	 6.08303373870339E-03 
1718	 5.98098068274595E-03 
1719	 5.67496824745967E-03 
1720	 5.51470119880966E-03 
1721	 5.79762018637007E-03 
1722	 5.66267712329902E-03 
1723	 5.29109236260266E-03 
1724	 5.49527615347328E-03 
1725	 5.60985290648982E-03 
1726	 5.51495666503167E-03 
1727	 5.93253015064344E-03 
1728	 5.92412825688508E-03 
1729	 5.26511602566567E-03 
1730	 5.50689831739849E-03 
1731	 5.9305714909772E-03 
1732	 5.78938442900235E-03 
1733	 6.08475433999647E-03 
1734	 5.92258022736331E-03 
1735	 4.82198298843193E-03 
1736	 4.43900765137785E-03 
1737	 4.96375317360655E-03 
1738	 5.45420119075136E-03 
1739	 5.96516298092468E-03 
1740	 5.72670294453248E-03 
1741	 4.81742501221056E-03 
1742	 4.72711285129636E-03 
1743	 4.89179200789533E-03 
1744	 5.45593496799577E-03 
1745	 6.28229488942972E-03 
1746	 4.87920508434779E-03 
1747	 4.62298572160426E-03 
1748	 4.93044293439832E-03 
1749	 4.88717490960701E-03 
1750	 5.70204327264251E-03 
1751	 5.91131953975613E-03 
1752	 4.89457818870489E-03 
1753	 4.65683023785785E-03 
1754	 4.56024336309806E-03 
1755	 4.44363620921273E-03 
1756	 5.31880218704505E-03 
1757	 5.38412036649501E-03 
1758	 4.75159356173969E-03 
1759	 4.66002300482907E-03 
1760	 3.88257500262349E-03 
1761	 3.54603515065028E-03 
1762	 4.16480397318646E-03 
1763	 4.84092615361457E-03 
1764	 5.54109647201248E-03 
1765	 5.84924666417727E-03 
1766	 5.13036980358275E-03 
1767	 3.46216733832894E-03 
1768	 2.00106302261259E-03 
1769	 2.17951115805391E-03 
1770	 3.49254445603318E-03 
1771	 4.74622024925452E-03 
1772	 5.49558566450515E-03 
1773	 4.9679352553404E-03 
1774	 3.94033705727291E-03 
1775	 3.73241152743294E-03 
1776	 3.60454293808896E-03 
1777	 4.03247721942986E-03 
1778	 3.87603477218311E-03 
1779	 3.30746328915267E-03 
1780	 3.30424550870873E-03 
1781	 3.30315127494594E-03 
1782	 3.38262252468783E-03 
1783	 4.07234607949142E-03 
1784	 3.98515513379574E-03 
1785	 2.93271336876444E-03 
1786	 2.71730882996576E-03 
1787	 2.91470391834958E-03 
1788	 2.73112391857614E-03 
1789	 2.82189807993086E-03 
1790	 5.3058035007319E-03 
1791	 5.14180844495651E-03 
1792	 3.79329960985509E-03 
1793	 2.7988467731729E-03 
1794	 1.42440920300116E-03 
1795	 1.60929812444982E-03 
1796	 4.28149374158081E-03 
1797	 5.34926360679927E-03 
1798	-5.45441485685311E-03 
1799	-0.016419940087177 
1800	-7.94236344247217E-03 
1801	-7.63483481608302E-03 
1802	 8.38966736981591E-03 
1803	 1.76424003887477E-02 
1804	-1.69652863806787E-04 
1805	-5.48689528874508E-03 
1806	-2.07576399124474E-03 
1807	-6.41224664451191E-03 
1808	-2.66876087741286E-02 
1809	-3.59125180396535E-02 
1810	-8.96245213903762E-03 
1811	 6.90128438465914E-03 
1812	 3.31553129179775E-02 
1813	 4.35504239172338E-02 
1814	-1.90028650388291E-02 
1815	-4.28220308021771E-02 
1816	-3.40376690120422E-02 
1817	-0.101819620109258 
1818	-0.11932076596424 
1819	 0.124839556327908 
1820	 0.257669132670186 
1821	 1.05875898517128 
1822	 1.01490247066119 
1823	-0.222494163756615 
1824	-0.400204568273382 
1825	-0.596037210561672 
1826	-0.588238783369265 
1827	 0.793938875144068 
1828	 3.2575092541494 
1829	 4.59263215615046 
1830	 1.93854505587289 
1831	 2.46653746761011 
1832	 1.83357325481453 
1833	 0.427898582084682 
1834	 0.41431772941201 
1835	 0.677256877061545 
1836	 0.909678863267835 
1837	 2.26961002493802 
1838	 3.21239952072952 
1839	 5.31176350505525 
1840	 2.4631080693873 
1841	 11.9268756070645 
1842	-1.57739756521525 
1843	-0.808271565205161 
1844	 0.482969033780364 
1845	 0.553081255843401 
1846	 0.208988645487944 
1847	-6.12905187928801E-02 
1848	 0.15839971514398 
1849	 0.148793511414065 
1850	 3.82522591323176 
1851	-16.7819464800637 
1852	-7.96878388700662 
1853	 10.7532574632047 
1854	-43.4442773657759 
1855	-0.989751334351237 
1856	-0.5338084399916 
1857	-0.851615462301712 
1858	-0.936211224862202 
1859	-1.2046292638665 
1860	 38.7662197891361 
1861	 11.8719061126285 
1862	 1.4293445182666 
1863	 2.26155288156111 
1864	 7.92178175722952 
1865	 3.86989823590221 
1866	 1.35571530811993 
1867	 1.06225404376572 
1868	 5.25217459639992E-02 
1869	-0.266821095867009 
1870	-0.892860786194061 
1871	-1.41396089475267 
1872	-7.36201449621037E-03 
1873	 0.111438946489895 
1874	-0.161223977759554 
1875	-1.30156443210362 
1876	-3.70704871654133 
1877	 1.02934476766623 
1878	 0.306025622551449 
1879	-1.6140919812286 
1880	-2.05701291563701 
1881	-2.1608948872645 
1882	-1.33365020549606 
1883	-0.757114550001299 
1884	 1.49743082073445E-03 
1885	-0.246078641598218 
1886	-0.431748849424011 
1887	-0.593631721821908 
1888	-1.10620325745662 
1889	-1.04506668780446 
1890	 0.462581990811627 
1891	 0.720534687065093 
1892	 0.516682154197979 
1893	-7.76409741894175E-02 
1894	-0.621096052302783 
1895	 2.36804042367349 
1896	 1.44877875305269 
1897	 1.55124736125025 
1898	-9.0385258305043E-03 
1899	-2.14957323848446 
1900	-0.263834305841878 
1901	 0.648899639557943 
1902	 0.906249274247776 
1903	 0.86948142570609 
1904	 0.399433068579483 
1905	 0.850847009487246 
1906	 0.278244120784512 
1907	 0.216083838701802 
1908	 0.894996212485319 
1909	 7.01227819939806 
1910	-1.10028024959647 
1911	-1.00987073009353 
1912	-5.13456363531069 
1913	 15.7867525345097 
1914	 2.63376165448001 
1915	 1.71180142226503 
1916	 1.31202391584479 
1917	 0.995090610281344 
1918	 1.02793745462988 
1919	 1.12027722952291 
1920	 1.82983447135983 
1921	-0.601691740062426 
1922	-0.308189748441595 
1923	 20.8632629716036 
1924	 3.99976142346672 
1925	 4.27355122076428 
1926	 5.29855748217189 
1927	 10.4215441389914 
1928	-118.285496224577 
1929	 62.1007601535412 
1930	-7.28410617552975 
1931	 27.4737167402845 
1932	 0.45248875725846 
1933	 0.292537386858138 
1934	 0.331458567165625 
1935	-3.89960051756348E-02 
1936	-0.547208790701995 
1937	-0.594665545610839 
1938	-0.621880208257298 
1939	-0.474992754318836 
1940	-0.290140875836817 
1941	-0.03949221315723 
1942	 2.84327468251411E-02 
1943	 4.61579707663408E-02 
1944	 9.42602135430455E-02 
1945	 6.42158820532931E-02 
1946	 4.67772666292708E-02 
1947	 1.54149597136002E-02 
1948	-3.99333649782804E-02 
1949	-0.044280313629929 
1950	-3.38089401982021E-02 
1951	-1.00288007009133E-02 
1952	 6.97048099770175E-03 
1953	 5.27280899188141E-02 
1954	 5.36709690425176E-02 
1955	 2.66246196063816E-02 
1956	 3.03953137595073E-02 
1957	 2.89321785967057E-02 
1958	 1.82519326856049E-02 
1959	 2.25872812730666E-02 
1960	 1.67470314161702E-02 
1961	 3.4423290817141E-03 
1962	 5.26559253697211E-03 
1963	 2.91841215100653E-03 
1964	-4.05197840501539E-04 
1965	 3.60385596431349E-03 
1966	 3.9075224471185E-03 
1967	 3.19528610807373E-03 
1968	 3.18243556776365E-03 
1969	 1.39774942113356E-03 
1970	-6.00628991434844E-04 
1971	-6.46301799204044E-04 
1972	-2.81352695113564E-04 
1973	 1.94179872200771E-03 
1974	 1.40600720488228E-03 
1975	-4.88083926999553E-04 
1976	-5.14360698365642E-04 
1977	 5.33336343341284E-04 
1978	 1.97395347871616E-03 
1979	 2.27453137114328E-03 
1980	 3.23477053306467E-03 
1981	 2.40797818762592E-03 
1982	 1.19089996823731E-03 
1983	 1.0977107271222E-03 
1984	 9.14607486276332E-04 
1985	 8.89387200787536E-04 
1986	 7.08404447888376E-04 
1987	 4.1682464483624E-04 
1988	 9.68144653397233E-04 
1989	 1.39673997332353E-03 
1990	 1.48659942391976E-03 
1991	 1.25289525132615E-03 
1992	 3.5751496993771E-04 
1993	 8.20636703542443E-04 
1994	 1.50340254885582E-03 
1995	 2.96006061209379E-03 
1996	 3.59329686133654E-03 
1997	 5.42375967348888E-03 
1998	 6.30433923132951E-03 
1999	 5.71984511889487E-03 
2000	 6.15635508823754E-03 
2001	 7.21810628260417E-03 
2002	 5.95037063790255E-03 
2003	 3.99728418542908E-03 
2004	 1.79152172443413E-03 
2005	-2.65414383065673E-03 
2006	 5.68839191746698E-04 
2007	 1.53358287007262E-03 
2008	-3.6929042633065E-03 
2009	-3.14869480643722E-03 
2010	-9.15844491080094E-04 
2011	-6.7283690317838E-04 
2012	 2.49124114542721E-04 
2013	 5.96215169912483E-03 
2014	 7.36873192827357E-03 
2015	 2.82852930050288E-03 
2016	 1.50977522476555E-03 
2017	 1.37007280174056E-03 
2018	-3.39668374211596E-04 
2019	 8.51044390038665E-04 
2020	 1.46258008755789E-03 
2021	 8.16539873439285E-04 
2022	 9.61982252514722E-04 
2023	 9.79215960005814E-04 
2024	 9.50093497847891E-04 
2025	 9.67873206047648E-04 
2026	 1.0586460225367E-03 
2027	 9.96767770905638E-04 
2028	 1.27507700008172E-03 
2029	 1.7782799133229E-03 
2030	 2.34619087335441E-03 
2031	 3.55741466284358E-03 
2032	 3.46634880394331E-03 
2033	 2.57289846421073E-03 
2034	 2.51300524348822E-03 
2035	 2.58825959658661E-03 
2036	 2.96707812865496E-03 
2037	 4.05027375976902E-03 
2038	 4.73911430015923E-03 
2039	 4.94062037298485E-03 
2040	 4.63292621688893E-03 
2041	 4.56386276678369E-03 
2042	 3.67293337450533E-03 
2043	 3.48197879778237E-03 
2044	 3.87013960204299E-03 
2045	 4.1446099903173E-03 
2046	 3.26968919894135E-03 
2047	 3.50521287873924E-03 
2048	 3.3604875879756E-03 
2049	 2.40650666245606E-03 
2050	 3.05233172812011E-03 
2051	 3.47205749331761E-03 
2052	 3.0037386736418E-03 
2053	 3.10293633610991E-03 
2054	 2.69536413223505E-03 
2055	 3.26846270363925E-03 
2056	 3.55157389735091E-03 
2057	 3.86308321913164E-03 
2058	 3.88269435653894E-03 
2059	 4.34646015501044E-03 
2060	 3.99771631966541E-03 
2061	 2.85223280652944E-03 
2062	 2.66363157151471E-03 
2063	 2.87178319372104E-03 
2064	 1.58071098072494E-03 
2065	 1.42824542017518E-03 
2066	 2.56868835731296E-03 
2067	 2.79453774953278E-03 
2068	 2.96755593480351E-03 
2069	 4.17724491902602E-03 
2070	 4.0608324633044E-03 
2071	 2.49796010015398E-03 
2072	 2.78196539407655E-03 
2073	 2.80014787951321E-03 
2074	 2.36323912200075E-03 
2075	 2.32497789642712E-03 
2076	 3.14379697256052E-03 
2077	 2.82785935424586E-03 
2078	 1.49742905770804E-03 
2079	 1.36766823326732E-03 
2080	 1.83944844720011E-03 
2081	 1.49674111849209E-03 
2082	 2.01028387678542E-03 
2083	 2.70488128890906E-03 
2084	 1.94529981605693E-03 
2085	 2.16465893974081E-03 
2086	 2.6561239198755E-03 
2087	 2.44092301650351E-03 
2088	 2.89048941236558E-03 
2089	 3.56157107404979E-03 
2090	 3.20253029919747E-03 
2091	 2.08717672137398E-03 
2092	 1.60974559484636E-03 
2093	 6.25431312868778E-04 
2094	 7.93377022907688E-04 
2095	 2.21000803218696E-03 
2096	 2.72444144462109E-03 
2097	 3.26914478007445E-03 
2098	 3.68975518008426E-03 
2099	 3.70448904465296E-03 
2100	 3.97144806405444E-03 
2101	 3.90780474787183E-03 
2102	 3.43332309506212E-03 
2103	 2.50036546158193E-03 
2104	 1.74101562838823E-03 
2105	 1.20635112323335E-03 
2106	 1.12511358395016E-03 
2107	 1.08400861298372E-03 
2108	 7.31718947357997E-04 
2109	 1.08866133783791E-03 
2110	 1.27580341196737E-03 
2111	 1.38313757771069E-03 
2112	 1.53954160220519E-03 
2113	 1.87017933100733E-03 
2114	 2.66066162230143E-03 
2115	 2.89395119480217E-03 
2116	 2.90707256231932E-03 
2117	 2.96870315092343E-03 
2118	 2.75248812585527E-03 
2119	 2.35369508276663E-03 
2120	 1.84151594578758E-03 
2121	 1.32838133335842E-03 
2122	 1.69869491783966E-03 
2123	 1.40498533237769E-03 
2124	 1.17779597976379E-03 
2125	 1.94768749982562E-03 
2126	 1.13525992815237E-03 
2127	 3.03515657541576E-04 
2128	 1.3912769196676E-03 
2129	 2.38828072543283E-03 
2130	 2.66990077889054E-03 
2131	 3.79038578764401E-03 
2132	 4.17904494315213E-03 
2133	 3.40363924434339E-03 
2134	 3.3975026131909E-03 
2135	 4.32151131047338E-03 
2136	 4.13294275476819E-03 
2137	 3.17149643009873E-03 
2138	 3.13498942761823E-03 
2139	 2.9015927612168E-03 
2140	 2.75760158393746E-03 
2141	 3.27655629849053E-03 
2142	 3.5405955290694E-03 
2143	 3.36511744714363E-03 
2144	 4.1540360019522E-03 
2145	 4.25170037643895E-03 
2146	 3.63830443442366E-03 
2147	 3.31346823662551E-03 
2148	 2.99547992272065E-03 
2149	 2.71219987847944E-03 
2150	 2.70167858524384E-03 
2151	 3.14485655702895E-03 
2152	 2.89695596032923E-03 
2153	 2.41361372491864E-03 
2154	 2.9580082216699E-03 
2155	 3.11519095032322E-03 
2156	 2.41076199185494E-03 
2157	 2.55891605878757E-03 
2158	 4.14008588718684E-03 
2159	 3.90352510672783E-03 
2160	 2.46329550780944E-03 
2161	 2.27776127364807E-03 
2162	 1.75170898622539E-03 
2163	 1.38010134323814E-03 
2164	 1.85550440195718E-03 
2165	 2.09795786414783E-03 
2166	 2.18633534960456E-03 
2167	 2.20061599376988E-03 
2168	 2.11238802445937E-03 
2169	 2.61888126368798E-03 
2170	 4.01305182241089E-03 
2171	 3.4336193855696E-03 
2172	 2.49193010021035E-03 
2173	 3.05874214145836E-03 
2174	 2.40928972776585E-03 
2175	 1.74374808387791E-03 
2176	 2.70779930720124E-03 
2177	 3.46521676408263E-03 
2178	 3.52191140633571E-03 
2179	 4.27148052501451E-03 
2180	 3.90153788823884E-03 
2181	 2.19079217980749E-03 
2182	 1.14086304994792E-03 
2183	-5.46379119661572E-04 
2184	-1.44962938084494E-03 
2185	-1.27803682405315E-03 
2186	-3.76399014321033E-04 
2187	 2.3915230757356E-03 
2188	 3.26203355440123E-03 
2189	 4.30703387350153E-03 
2190	 4.22900483905713E-03 
2191	 1.83821785742555E-03 
2192	 8.65885729935056E-04 
2193	 2.96692626157776E-04 
2194	-1.59851935276806E-04 
2195	-4.87298322335235E-04 
2196	-6.33999548233465E-04 
2197	-5.86287701537237E-04 
2198	 1.28837110592326E-04 
2199	 2.23697460064563E-03 
2200	 2.54734619552824E-03 
2201	 2.34916832054825E-03 
2202	 2.82516168790898E-03 
2203	 2.22296943019033E-03 
2204	 1.82576021521482E-03 
2205	 3.53473116095299E-03 
2206	 4.70204048639495E-03 
2207	 4.32079358643043E-03 
2208	 4.50246213994743E-03 
2209	 4.10560497739058E-03 
2210	 1.62279705267484E-03 
2211	 1.49891041282403E-03 
2212	 2.93403153803555E-03 
2213	 3.75638622818107E-03 
2214	 3.60610051736978E-03 
2215	 1.00747305140372E-03 
2216	 2.98426444107095E-04 
2217	 2.73131451460174E-04 
2218	 4.6710695312124E-04 
2219	 1.30698975825877E-03 
2220	 4.03394035417626E-03 
2221	 4.88783926853507E-03 
2222	 6.02352577138534E-03 
2223	 5.33283426739232E-03 
2224	 2.47786398939982E-03 
2225	 1.63031676862781E-03 
2226	-2.8947772319506E-05 
2227	-7.656942517623E-04 
2228	 6.51712630403267E-04 
2229	 1.07970404076772E-03 
2230	 2.90005762343285E-04 
2231	 3.3041529610739E-04 
2232	 1.65674355267757E-03 
2233	 1.98778063854192E-03 
2234	 1.5294412206381E-03 
2235	 2.05892478634058E-03 
2236	 2.43254439587522E-03 
2237	 2.31268847962583E-03 
2238	 2.5933227065858E-03 
2239	 2.89314229676456E-03 
2240	 2.28438147243816E-03 
2241	 8.66111159186863E-04 
2242	-1.06792435551701E-03 
2243	-2.43509113110485E-03 
2244	-2.29848104518834E-03 
2245	-2.05907285292277E-03 
2246	-2.93474995656808E-03 
2247	-3.21245155121117E-03 
2248	-2.3225270924537E-03 
2249	-1.42993096068477E-03 
2250	-2.00170981641245E-04 
2251	 1.12484671857889E-03 
2252	 1.76574185141978E-03 
2253	 1.89175518933985E-03 
2254	 2.90272596863964E-03 
2255	 4.89820041561476E-03 
2256	 4.47225494797951E-03 
2257	 4.30345582508474E-03 
2258	 5.54644544932751E-03 
2259	 3.85737716026721E-03 
2260	 3.80033998797749E-03 
2261	 5.83365715554191E-03 
2262	 6.05657885634835E-03 
2263	 5.94941967549399E-03 
2264	 4.85394594262296E-03 
2265	 1.15244990040717E-03 
2266	 7.56881266486579E-04 
2267	 1.31032254958997E-03 
2268	 1.81585048456427E-03 
2269	 5.46039951033732E-03 
2270	 6.64475038051402E-03 
2271	 5.61106885943343E-03 
2272	 5.08668154883747E-03 
2273	 4.73250377518067E-03 
2274	 3.75719069366813E-03 
2275	 1.27602342906011E-03 
2276	 6.40521678311517E-04 
2277	 3.15464174070188E-04 
2278	-4.1240067785949E-04 
2279	 2.22827472649515E-03 
2280	 1.84332204194243E-03 
2281	-1.90657510266955E-03 
2282	-3.74304297147996E-03 
2283	-1.33219691749518E-03 
2284	-3.48474849649218E-03 
2285	-2.42745356150929E-03 
2286	 2.92363486187375E-03 
2287	 3.34874066453585E-03 
2288	 8.75340353976029E-05 
2289	-3.67769940807503E-03 
2290	-6.51500401133007E-03 
2291	-6.70865267416729E-03 
2292	-5.22438085590484E-03 
2293	-2.10141667448369E-03 
2294	 3.11581418593056E-04 
2295	 1.21416306077133E-03 
2296	 8.16501516625547E-04 
2297	 2.29719647857636E-04 
2298	 1.11277955327223E-03 
2299	 2.06739242892038E-03 
2300	 3.88363334053553E-03 
2301	 6.64974322316944E-03 
2302	 8.77071905000331E-03 
2303	 9.09023197668439E-03 
2304	 6.91254911246161E-03 
2305	 2.51449383658691E-03 
2306	-2.82374546528896E-04 
2307	-4.59068681096813E-03 
2308	-6.08671427738309E-03 
2309	 3.00653106204229E-03 
2310	 6.2685251925423E-03 
2311	 3.88657684149256E-03 
2312	 3.72357388718588E-03 
2313	-4.14451271666618E-03 
2314	-9.33000469486964E-03 
2315	-8.2909967907403E-03 
2316	-9.04054441333147E-03 
2317	-6.13409965414428E-03 
2318	-6.18063321651963E-03 
2319	-9.31492899256047E-03 
2320	-7.4665282783665E-03 
2321	-3.62244771000628E-03 
2322	-3.62158051244288E-03 
2323	-5.81217154270964E-03 
2324	-7.31280229150704E-03 
2325	-1.11436465016378E-02 
2326	-1.05525511561909E-02 
2327	-5.21798705564805E-03 
2328	 2.5902227898849E-04 
2329	 3.44538790854775E-03 
2330	 1.35253845523395E-04 
2331	 3.47942043513755E-03 
2332	 8.26581312982111E-03 
2333	 1.53282029447643E-03 
2334	 1.01252797129159E-03 
2335	-2.16106611005281E-03 
2336	-1.36206207809866E-02 
2337	-1.34897316076602E-02 
2338	-0.011134168730703 
2339	-1.11205634623513E-02 
2340	-7.87511351836181E-03 
2341	-3.16125685035209E-03 
2342	 3.90505963615722E-03 
2343	 4.3516547115436E-03 
2344	 5.52786246236228E-03 
2345	 8.94653380134433E-03 
2346	-8.59746896828165E-04 
2347	-7.75626090604854E-03 
2348	-1.26300916430537E-02 
2349	-1.87461898213546E-02 
2350	-1.79103542054384E-02 
2351	-1.96410023236106E-02 
2352	-2.15756212907548E-02 
2353	-2.84259990212508E-02 
2354	-3.95019178810044E-02 
2355	-0.033356631479097 
2356	-1.50780556568097E-02 
2357	-6.61546827923549E-03 
2358	 2.24417265575136E-04 
2359	 7.66783003177945E-03 
2360	 1.03387580853089E-02 
2361	 1.92640192691202E-02 
2362	 1.80836046850931E-02 
2363	 9.00230815783332E-04 
2364	-9.6993128982105E-03 
2365	-1.57820440225392E-02 
2366	-1.74413890054783E-02 
2367	-6.09224399088751E-03 
2368	 7.92704301740833E-03 
2369	 3.14778477402105E-03 
2370	-8.67150126490413E-03 
2371	-1.86514944981092E-03 
2372	-1.92271844050089E-02 
2373	-2.83469211000582E-02 
2374	 2.56343499479297E-03 
2375	-2.97968057294989E-03 
2376	-1.55651289193343E-02 
2377	-2.11774957068298E-02 
2378	-4.08532643236558E-02 
2379	-4.01839828651138E-02 
2380	-4.28883331886306E-02 
2381	-4.85985471473698E-02 
2382	-4.07384246548307E-02 
2383	-3.38932887927245E-02 
2384	-0.018954734963373 
2385	 1.65484702171953E-02 
2386	 4.41960455664376E-02 
2387	 1.24798671986435E-02 
2388	-2.11007494220557E-02 
2389	-1.68020086529846E-02 
2390	-3.29562183019375E-02 
2391	-2.97510307228108E-02 
2392	-6.70430679872448E-03 
2393	-2.12667684243055E-02 
2394	-3.14822916800898E-02 
2395	-1.22771051820005E-02 
2396	-1.23531414033759E-02 
2397	-1.06593732660785E-02 
2398	 2.36900700290593E-02 
2399	 3.01711745941096E-02 
2400	 2.27799009056959E-02 
2401	 6.00636826889668E-02 
2402	 6.53751852577422E-02 
2403	 3.53363514174312E-03 
2404	-1.68968359794413E-02 
2405	 1.50760391147402E-02 
2406	-1.71470250238051E-02 
2407	-4.97539658221656E-02 
2408	-4.35269391873259E-03 
2409	-6.46070653796956E-02 
2410	-0.11132308296853 
2411	-1.79246813448959E-02 
2412	 6.37426809489742E-02 
2413	 0.105295764232308 
2414	 9.16911556887572E-02 
2415	 3.55595621128302E-02 
2416	 1.07514930691694E-02 
2417	 0.065531128124551 
2418	 0.145197332305834 
2419	 0.20377337412101 
2420	 0.196225847654304 
2421	 7.14560167012801E-02 
2422	 7.64838116966592E-02 
2423	 8.22840360747295E-02 
2424	 1.80193912869829E-02 
2425	 0.07065953040527 
2426	 7.74255134393511E-02 
2427	 2.25549017814005E-02 
2428	 0.072652470151778 
2429	 7.15359951619652E-02 
2430	 1.37618129517047E-02 
2431	 4.73042569364679E-03 
2432	-5.98787550099443E-02 
2433	-0.203183159600494 
2434	-0.235638080977064 
2435	-0.136930256367021 
2436	-0.059141408824879 
2437	-5.4124194074355E-03 
2438	-1.94545012021371E-03 
2439	-9.17820278196739E-02 
2440	-0.126949122904941 
2441	 4.14478442654246E-02 
2442	 0.161779465577543 
2443	 0.151045469381141 
2444	 0.114886225253807 
2445	-5.00567013952166E-02 
2446	-0.336265696226986 
2447	-0.792682489288964 
2448	-0.868856342567482 
2449	-0.261569026920095 
2450	-0.249341132290318 
2451	-0.23617967519114 
2452	-2.19687570401698 
2453	-3.14801130234894 
2454	-1.04010336932035 
2455	-1.02757575500512 
2456	-0.278301189559421 
2457	 0.217847205153306 
2458	 0.155972058987731 
2459	-0.040629574583282 
2460	 1.67264034605634E-03 
2461	-0.161030493289955 
2462	-0.500704904905909 
2463	-0.33250936522109 
2464	-0.19834582978252 
2465	-0.125378927673549 
2466	 0.487587653950857 
2467	 0.576173247690404 
2468	-0.136681481464048 
2469	-0.333764992957104 
2470	-0.633581113205302 
2471	-0.823971569029594 
2472	-0.282183848916683 
2473	-9.27329649737692E-02 
2474	-0.670976594267134 
2475	-0.523681164122678 
2476	-3.1938181504883 
2477	-0.850788580841225 
2478	 1.84485582338139 
2479	 1.23537347048864 
2480	-8.91225628249005E-02 
2481	-0.25560990341702 
2482	 0.128538264490335 
2483	 0.121435438567934 
2484	-7.59702478025024E-02 
2485	 0.160980434789479 
2486	-0.121300142035203 
2487	-0.278841166897381 
2488	-17.1741038519414 
2489	-4.11571267953218 
2490	 0.812983131267406 
2491	 0.473213744310001 
2492	-0.137973294126016 
2493	 7.12977520681721E-02 
2494	 1.23864229978887 
2495	 1.42736453180959 
2496	 0.516364180595907 
2497	-22.352715063092 
2498	-1.33228139130762 
2499	-0.523767460602203 
2500	 2.01038764880989 
