Wavelength	rt0801far00000.asd
350	 6.14520557267826E-02 
351	 6.26139308400673E-02 
352	 6.26092068994725E-02 
353	 6.15852174798199E-02 
354	 6.05725725742609E-02 
355	 6.15013086232784E-02 
356	 6.13403523167581E-02 
357	 6.12384700862294E-02 
358	 6.25120989051555E-02 
359	 6.13649442167915E-02 
360	 6.03135859615574E-02 
361	 6.04475435691961E-02 
362	 6.14744615623302E-02 
363	 6.14908253941875E-02 
364	 6.13162209705043E-02 
365	 6.12744693476673E-02 
366	 6.03689932261765E-02 
367	 5.99980980271382E-02 
368	 6.05398375116085E-02 
369	 6.16371005317876E-02 
370	 6.15856159227608E-02 
371	 0.061319707981837 
372	 6.12169196759352E-02 
373	 6.12618719556261E-02 
374	 6.11508106035866E-02 
375	 6.13254218978572E-02 
376	 0.061642483981447 
377	 6.11090274590182E-02 
378	 6.17160976223409E-02 
379	 6.24391559706882E-02 
380	 6.22439247677733E-02 
381	 6.24535057897192E-02 
382	 6.18469898569937E-02 
383	 6.13434941927701E-02 
384	 0.062357045441733 
385	 0.062068596502509 
386	 6.22846241939812E-02 
387	 6.30661574816611E-02 
388	 6.22791658038539E-02 
389	 6.28156291091841E-02 
390	 6.33195898083103E-02 
391	 6.27578519277597E-02 
392	 0.062827707454633 
393	 6.33462084011728E-02 
394	 6.37941342701154E-02 
395	 6.37431826927508E-02 
396	 6.40058718817206E-02 
397	 6.40921641189234E-02 
398	 6.40018273333152E-02 
399	 6.41827019975154E-02 
400	 6.42813250367515E-02 
401	 0.064399766650235 
402	 6.45997242080965E-02 
403	 6.46947984283323E-02 
404	 6.47750594792166E-02 
405	 6.48823155169377E-02 
406	 6.50330155214663E-02 
407	 6.52086153526066E-02 
408	 6.53402943077856E-02 
409	 6.53242675824887E-02 
410	 6.50616444828272E-02 
411	 6.53787365944778E-02 
412	 6.57443333813875E-02 
413	 6.57662821233839E-02 
414	 6.60005015357869E-02 
415	 6.61063564506099E-02 
416	 6.61964786850676E-02 
417	 6.65145253555637E-02 
418	 6.69589428352594E-02 
419	 0.067218148566595 
420	 0.067291175964649 
421	 6.75113496158672E-02 
422	 6.77303656438831E-02 
423	 6.79070023447258E-02 
424	 0.068083048382988 
425	 0.068500222080845 
426	 6.87699284797393E-02 
427	 6.89431704534579E-02 
428	 6.92524662561149E-02 
429	 6.95065369357526E-02 
430	 6.99521582283637E-02 
431	 7.05494045819562E-02 
432	 7.08948830689989E-02 
433	 7.09821852082062E-02 
434	 7.11866688678399E-02 
435	 7.17011275221145E-02 
436	 7.19266621178631E-02 
437	 7.22207718442686E-02 
438	 7.26304628881081E-02 
439	 7.30193713929582E-02 
440	 7.32727241454863E-02 
441	 7.34910676584676E-02 
442	 7.38057046492507E-02 
443	 7.43636468722909E-02 
444	 7.47232716223663E-02 
445	 7.49324832666602E-02 
446	 7.51507278745978E-02 
447	 7.53715802671433E-02 
448	 7.55810070733323E-02 
449	 7.58061338075948E-02 
450	 7.60887232449814E-02 
451	 7.62514272760656E-02 
452	 0.076343912632014 
453	 7.64476211223471E-02 
454	 7.66429792412473E-02 
455	 7.67559359598267E-02 
456	 7.68460902104173E-02 
457	 0.077015759955142 
458	 7.71053064972605E-02 
459	 7.71700599346192E-02 
460	 7.72601027137802E-02 
461	 0.077400934861221 
462	 7.74220259471432E-02 
463	 7.74578954690252E-02 
464	 7.75830271265529E-02 
465	 7.75180367396761E-02 
466	 7.75459451284825E-02 
467	 7.77186426195313E-02 
468	 0.077937428721982 
469	 7.79510431652345E-02 
470	 7.79415200336622E-02 
471	 7.80126867701298E-02 
472	 7.81046901363816E-02 
473	 0.078236381673206 
474	 7.84325690245998E-02 
475	 7.86593628403785E-02 
476	 7.86420800399116E-02 
477	 7.88587247962606E-02 
478	 7.92112598072918E-02 
479	 7.92540164657118E-02 
480	 7.94597371338277E-02 
481	 7.96086600798521E-02 
482	 7.96477005943591E-02 
483	 8.00618207716427E-02 
484	 0.080358077116531 
485	 8.06121871936735E-02 
486	 8.10206500779607E-02 
487	 8.12223669451548E-02 
488	 8.14997462908668E-02 
489	 0.081871040874632 
490	 0.082088789063199 
491	 8.25931128608113E-02 
492	 8.29801316189223E-02 
493	 8.30204060884431E-02 
494	 8.34078398131537E-02 
495	 8.37887092800216E-02 
496	 0.084131619009795 
497	 8.45702274713292E-02 
498	 8.52401399270987E-02 
499	 8.56959906873334E-02 
500	 0.085895357153364 
501	 8.65058822886824E-02 
502	 8.67922280389001E-02 
503	 8.70130295568134E-02 
504	 0.087573211882434 
505	 8.82807948503234E-02 
506	 8.87769616241096E-02 
507	 8.91236421292551E-02 
508	 8.96947731306604E-02 
509	 9.02245815004854E-02 
510	 9.07177078527762E-02 
511	 9.12177245479125E-02 
512	 0.091745545411386 
513	 9.24547518993143E-02 
514	 9.31727737343047E-02 
515	 9.36482980339057E-02 
516	 9.42553901950962E-02 
517	 9.49242965612521E-02 
518	 9.55755203056608E-02 
519	 9.61733422641176E-02 
520	 9.67721274470707E-02 
521	 9.73798047289297E-02 
522	 9.80034905262975E-02 
523	 9.86742735785338E-02 
524	 9.93598103084007E-02 
525	 0.10006921110243 
526	 0.10083321013595 
527	 0.101531027491439 
528	 0.102170591837526 
529	 0.102803544287954 
530	 0.103527888596736 
531	 0.104322999068814 
532	 0.105092622116759 
533	 0.105746520380586 
534	 0.106428575450937 
535	 0.107231646619963 
536	 0.108120672274478 
537	 0.108920294593507 
538	 0.109730682577584 
539	 0.110451603650067 
540	 0.111064219488994 
541	 0.111971868778225 
542	 0.112765489731577 
543	 0.11349457462896 
544	 0.114458832431092 
545	 0.115308394182297 
546	 0.11605142688063 
547	 0.116752134579874 
548	 0.11748429094187 
549	 0.118264835277514 
550	 0.119056914636541 
551	 0.119825905752172 
552	 0.120697271639922 
553	 0.121467901443276 
554	 0.122139949640028 
555	 0.122956175931092 
556	 0.123662684339008 
557	 0.124367799994254 
558	 0.125157701765302 
559	 0.125785961318828 
560	 0.126390302109633 
561	 0.12701337952638 
562	 0.12764324156702 
563	 0.128333946815179 
564	 0.128938970581318 
565	 0.129417379885085 
566	 0.129985519778629 
567	 0.13047540528732 
568	 0.130936358188174 
569	 0.131450043373425 
570	 0.131828931044243 
571	 0.132133854635645 
572	 0.132474769837463 
573	 0.132984186502913 
574	 0.133286681464586 
575	 0.133601390561418 
576	 0.134109566009503 
577	 0.134436754475006 
578	 0.134596950861528 
579	 0.134719452106291 
580	 0.134984459430882 
581	 0.135271658188747 
582	 0.135384415183388 
583	 0.13536054839572 
584	 0.135711109208996 
585	 0.135669831066913 
586	 0.135493765099164 
587	 0.135653876230386 
588	 0.135400474383166 
589	 0.135226779245462 
590	 0.135285887637161 
591	 0.13525501397142 
592	 0.13512217200007 
593	 0.134944414072171 
594	 0.13477421910644 
595	 0.134573219395367 
596	 0.134383527932381 
597	 0.134070042457255 
598	 0.133469075699545 
599	 0.133100371763518 
600	 0.132789070393396 
601	 0.132441349347667 
602	 0.132246933265857 
603	 0.132153180767279 
604	 0.132146077745487 
605	 0.132181572628078 
606	 0.132018552551341 
607	 0.131926620812447 
608	 0.131984384790652 
609	 0.132046601127783 
610	 0.132121449491529 
611	 0.132145061611068 
612	 0.132106419345331 
613	 0.132196985317118 
614	 0.132112831051641 
615	 0.131968306508462 
616	 0.132067119973684 
617	 0.13207374073693 
618	 0.132072752700847 
619	 0.132081061058394 
620	 0.131920297993168 
621	 0.131935054664635 
622	 0.131943569214478 
623	 0.131710636938955 
624	 0.131620843221571 
625	 0.1316681321993 
626	 0.131711844908881 
627	 0.131523417842585 
628	 0.131538968599815 
629	 0.131573735756524 
630	 0.1314650107006 
631	 0.131417273708456 
632	 0.13152917974029 
633	 0.13163378286619 
634	 0.131491008907342 
635	 0.131420736292216 
636	 0.131387252431396 
637	 0.13132630144498 
638	 0.131177711991713 
639	 0.131207467982886 
640	 0.131263689636065 
641	 0.131139193884761 
642	 0.130943984461791 
643	 0.130784351327666 
644	 0.13068519787281 
645	 0.130603889883443 
646	 0.130549292740215 
647	 0.130417875615946 
648	 0.130199115238395 
649	 0.130140744750569 
650	 0.129934897544968 
651	 0.129705124864575 
652	 0.129673366842208 
653	 0.129504562790073 
654	 0.129126941570544 
655	 0.128636845557129 
656	 0.128397066733462 
657	 0.128096249859611 
658	 0.127756466870453 
659	 0.127435651713052 
660	 0.127106634565813 
661	 0.126852880728469 
662	 0.126697850255605 
663	 0.126611960982096 
664	 0.126411805338265 
665	 0.126213994566356 
666	 0.126123471768884 
667	 0.126168779633217 
668	 0.126125674359027 
669	 0.12603398039015 
670	 0.125985525981377 
671	 0.12581406225045 
672	 0.12575610981636 
673	 0.125885999810403 
674	 0.126093405641401 
675	 0.125994050783346 
676	 0.126001854230248 
677	 0.126301193777769 
678	 0.126040307956716 
679	 0.126231247031699 
680	 0.126620527569042 
681	 0.126528284727976 
682	 0.126695837626825 
683	 0.127060755316652 
684	 0.127357354054928 
685	 0.127133274677947 
686	 0.127334574981058 
687	 0.127700209154791 
688	 0.127733365952704 
689	 0.127810674955057 
690	 0.12789327951789 
691	 0.127883508448178 
692	 0.127672929482217 
693	 0.127661002388819 
694	 0.127677086478291 
695	 0.127540982972982 
696	 0.127195854193081 
697	 0.126917735244068 
698	 0.126630974134445 
699	 0.126210535032186 
700	 0.125744326374485 
701	 0.125242005558991 
702	 0.124740872973229 
703	 0.124257647438583 
704	 0.123574697519858 
705	 0.122830124977529 
706	 0.122161381189353 
707	 0.121531774806945 
708	 0.120688592620209 
709	 0.119645286177696 
710	 0.118537554208445 
711	 0.117480367101712 
712	 0.116405053488109 
713	 0.115184308310424 
714	 0.11361298272932 
715	 0.112343434137889 
716	 0.110852027292867 
717	 0.108789624284462 
718	 0.10766148056968 
719	 0.105919977372749 
720	 0.104105869666432 
721	 0.102782923017884 
722	 0.101317032839584 
723	 9.95316030006842E-02 
724	 9.76822023977041E-02 
725	 9.58755252745755E-02 
726	 0.093824413845639 
727	 0.091718821057689 
728	 8.96623454126708E-02 
729	 8.71736458582585E-02 
730	 8.46256965915028E-02 
731	 0.08228804863858 
732	 8.01198784344156E-02 
733	 0.078209490049865 
734	 0.076588192894568 
735	 7.52713566521089E-02 
736	 7.41983932720634E-02 
737	 7.36028447157264E-02 
738	 7.31258008301486E-02 
739	 7.24921876387698E-02 
740	 7.19776540744622E-02 
741	 7.19186425787558E-02 
742	 7.20390259379077E-02 
743	 0.071830697519808 
744	 7.17228777023245E-02 
745	 7.16849569859097E-02 
746	 7.16779878106534E-02 
747	 7.17093682974519E-02 
748	 7.17488886758981E-02 
749	 0.071741847748635 
750	 7.16503532903777E-02 
751	 7.14777418419178E-02 
752	 7.14425758597375E-02 
753	 7.16556997446928E-02 
754	 7.20555992499377E-02 
755	 0.071840105411183 
756	 7.16793651036998E-02 
757	 7.18756332668216E-02 
758	 7.20560015136461E-02 
759	 7.20170536989476E-02 
760	 7.16148764236162E-02 
761	 7.13965486486366E-02 
762	 7.19386539831815E-02 
763	 7.21246245678265E-02 
764	 7.21305460889943E-02 
765	 7.24241708326467E-02 
766	 7.27138548550215E-02 
767	 7.28895449537642E-02 
768	 7.30032764870238E-02 
769	 7.32320707097964E-02 
770	 7.35865618131852E-02 
771	 0.073721624618073 
772	 7.35827522357877E-02 
773	 7.41116691105286E-02 
774	 7.44339958486804E-02 
775	 7.45959417831601E-02 
776	 7.49687723115156E-02 
777	 7.52425055665532E-02 
778	 7.54380522110224E-02 
779	 7.56823473808296E-02 
780	 7.61548357003268E-02 
781	 0.076382679564252 
782	 7.66066461936449E-02 
783	 0.077043332281674 
784	 7.75750267984334E-02 
785	 7.78996977143692E-02 
786	 7.81155642696421E-02 
787	 7.84630184229493E-02 
788	 7.89891552203985E-02 
789	 7.94695720467555E-02 
790	 7.98288997931859E-02 
791	 8.01474260737957E-02 
792	 8.03962483037992E-02 
793	 8.09492616990735E-02 
794	 8.17360600874446E-02 
795	 8.18527493018526E-02 
796	 8.20658988336098E-02 
797	 8.24641404516144E-02 
798	 8.29221656282845E-02 
799	 8.32479444513828E-02 
800	 8.35039488045658E-02 
801	 8.37542086976007E-02 
802	 8.40469119209772E-02 
803	 8.42846974161555E-02 
804	 0.084412939670272 
805	 8.45052712672725E-02 
806	 8.47349388722339E-02 
807	 8.44638586800132E-02 
808	 8.40262376582902E-02 
809	 8.38203536910983E-02 
810	 8.38782273118819E-02 
811	 8.37663249498075E-02 
812	 8.33582756552547E-02 
813	 8.27152059706859E-02 
814	 8.20401183136354E-02 
815	 8.14810216928747E-02 
816	 8.11869629852598E-02 
817	 8.11316275501453E-02 
818	 8.05324801776009E-02 
819	 7.93223847690083E-02 
820	 7.78979525004798E-02 
821	 7.71797424005005E-02 
822	 7.59926758682023E-02 
823	 7.44986668911189E-02 
824	 7.31239859217004E-02 
825	 7.18485880931991E-02 
826	 6.99573222020453E-02 
827	 6.77918224471204E-02 
828	 6.61000680560703E-02 
829	 6.39971088948193E-02 
830	 6.22984595481246E-02 
831	 6.11237454293212E-02 
832	 6.00691796924972E-02 
833	 5.88847403286714E-02 
834	 0.05780388578394 
835	 5.69624274941919E-02 
836	 5.63121472012079E-02 
837	 5.56497929830016E-02 
838	 5.52316484831351E-02 
839	 5.52028554741972E-02 
840	 5.52625581642181E-02 
841	 5.47543744410872E-02 
842	 5.42573677813378E-02 
843	 5.43885583434989E-02 
844	 5.35857435389885E-02 
845	 0.053182309940714 
846	 5.31624077270888E-02 
847	 0.0526508836185 
848	 5.25316979566985E-02 
849	 5.24098686014201E-02 
850	 5.20296537258726E-02 
851	 5.15130698885243E-02 
852	 0.05121767742849 
853	 0.051017008870996 
854	 5.07747928469577E-02 
855	 5.05754178600612E-02 
856	 5.04015105178224E-02 
857	 5.01731180579777E-02 
858	 4.99033806941694E-02 
859	 5.00307840549766E-02 
860	 4.97976765421278E-02 
861	 4.93754079883509E-02 
862	 4.92919606676605E-02 
863	 4.90564285588727E-02 
864	 4.87391490144395E-02 
865	 4.83638564490722E-02 
866	 4.79298995657022E-02 
867	 4.78777029754225E-02 
868	 4.79441309694127E-02 
869	 4.76800907751684E-02 
870	 4.66021967266346E-02 
871	 0.04647462374074 
872	 4.65932739414624E-02 
873	 4.61618717016846E-02 
874	 4.54287540504712E-02 
875	 4.51811377676275E-02 
876	 4.49060091947035E-02 
877	 0.044184638946775 
878	 4.46369587805352E-02 
879	 4.43087661777974E-02 
880	 4.33806231572619E-02 
881	 4.29914700539183E-02 
882	 4.30453571509209E-02 
883	 4.29231368980347E-02 
884	 4.25113663955731E-02 
885	 4.20930720174237E-02 
886	 4.14609453845538E-02 
887	 4.10529962296414E-02 
888	 4.09163653067902E-02 
889	 4.06024439528756E-02 
890	 4.02265424545629E-02 
891	 3.99506555735786E-02 
892	 0.039814754428105 
893	 3.95789834567149E-02 
894	 3.92371365523317E-02 
895	 3.87892574659416E-02 
896	 3.83526025160863E-02 
897	 0.038325402004826 
898	 3.84151170701986E-02 
899	 3.79038184457175E-02 
900	 3.66847176553016E-02 
901	 0.036818177809485 
902	 3.64390303725758E-02 
903	 3.62526394524229E-02 
904	 0.037116179489858 
905	 3.54999729285149E-02 
906	 3.49830622347908E-02 
907	 3.51975266539259E-02 
908	 3.33776284187084E-02 
909	 3.46523733504092E-02 
910	 3.57577432357754E-02 
911	 3.50608928537476E-02 
912	 3.34979688976008E-02 
913	 3.26035677582004E-02 
914	 3.30602283876377E-02 
915	 3.36134026946885E-02 
916	 3.17258858634514E-02 
917	 3.20273168867155E-02 
918	 3.24227965388794E-02 
919	 3.13776093682248E-02 
920	 2.93433307081868E-02 
921	 2.96883001541925E-02 
922	 2.94520804420579E-02 
923	 2.73008872548757E-02 
924	 2.81413251302387E-02 
925	 2.80591779980734E-02 
926	 2.63244835212816E-02 
927	 2.41166330675594E-02 
928	 2.61800884955405E-02 
929	 2.71527699537778E-02 
930	 2.81539641678024E-02 
931	 0.03328950373533 
932	 3.16727768692307E-02 
933	 2.67030810319872E-02 
934	 0.019499248395664 
935	 0.013007244474016 
936	 1.75450510779572E-02 
937	 2.55837059671767E-02 
938	 2.91416250904025E-02 
939	 2.57035595289688E-02 
940	 2.97599809816687E-02 
941	 2.59180167753574E-02 
942	 1.99396663172858E-02 
943	 0.024767310065795 
944	 2.23701889524012E-02 
945	 1.76129572966534E-02 
946	 1.82451062222177E-02 
947	 2.80454298613972E-02 
948	 2.92650366204386E-02 
949	 2.68763668891309E-02 
950	 2.46689220407618E-02 
951	 2.46439233645962E-02 
952	 3.03788619578424E-02 
953	 2.26028385646503E-02 
954	 0.014465507856507 
955	 3.11764282592432E-02 
956	 3.38822243285852E-02 
957	 2.46332854395426E-02 
958	 1.43354302323524E-02 
959	 1.49306621490125E-02 
960	 1.85235334681699E-02 
961	 1.90000904902741E-02 
962	 1.81506731360431E-02 
963	 2.13501531669065E-02 
964	 2.47330953026117E-02 
965	 2.41239232536428E-02 
966	 0.019757876104044 
967	 1.52268521569575E-02 
968	 1.72854418476973E-02 
969	 2.08453998340108E-02 
970	 2.26839507846239E-02 
971	 2.23925696129708E-02 
972	 2.11713687016135E-02 
973	 2.04426688220109E-02 
974	 0.020034881081668 
975	 1.85839040356739E-02 
976	 1.87596347384847E-02 
977	 1.93273233622887E-02 
978	 1.97017538746882E-02 
979	 2.03143288541748E-02 
980	 2.17169879745585E-02 
981	 2.13963675413344E-02 
982	 2.03763069419761E-02 
983	 2.16505757495291E-02 
984	 1.99769805158741E-02 
985	 2.07472315794844E-02 
986	 2.18115357186695E-02 
987	 1.69984657939083E-02 
988	 1.85627342332163E-02 
989	 2.12912723578699E-02 
990	 2.20652488797719E-02 
991	 0.021094389503586 
992	 2.05732072714782E-02 
993	 2.15808377474439E-02 
994	 2.28506622618945E-02 
995	 2.21479472180912E-02 
996	 2.10194407475533E-02 
997	 2.01674555001773E-02 
998	 2.12983112401927E-02 
999	 2.47086564165307E-02 
1000	 2.08880265170211E-02 
1001	 1.87300705265425E-02 
1002	 1.87250798450812E-02 
1003	 1.89848646487263E-02 
1004	 1.95052254270042E-02 
1005	 1.98629070217994E-02 
1006	 0.020503368175048 
1007	 2.03482727586262E-02 
1008	 2.01446110079588E-02 
1009	 2.04512420573825E-02 
1010	 1.96144410747561E-02 
1011	 1.94468263286928E-02 
1012	 1.96751642794428E-02 
1013	 1.92086868035392E-02 
1014	 1.92021934761736E-02 
1015	 1.96716892746504E-02 
1016	 1.97535961006664E-02 
1017	 1.97339978965486E-02 
1018	 1.97874609003445E-02 
1019	 1.95477322967838E-02 
1020	 1.96478203509704E-02 
1021	 2.01479454901338E-02 
1022	 2.02997269823247E-02 
1023	 2.03235063570554E-02 
1024	 2.01442166690137E-02 
1025	 2.01413627631014E-02 
1026	 2.00848475254781E-02 
1027	 2.02304230954948E-02 
1028	 2.10107469472255E-02 
1029	 0.021214355565773 
1030	 2.10662505955706E-02 
1031	 2.11442363978214E-02 
1032	 0.021309951448911 
1033	 0.021097595164268 
1034	 2.03369450919007E-02 
1035	 2.02795948754867E-02 
1036	 2.03560250613462E-02 
1037	 2.04649345914793E-02 
1038	 2.07457377653753E-02 
1039	 0.021938030445289 
1040	 2.20252583558769E-02 
1041	 2.19665623713435E-02 
1042	 2.17920601299597E-02 
1043	 2.13235921442023E-02 
1044	 0.021013147910457 
1045	 2.03612245370137E-02 
1046	 2.03836193455113E-02 
1047	 2.07813187772529E-02 
1048	 2.11426188411992E-02 
1049	 2.24628742404665E-02 
1050	 2.25253170220497E-02 
1051	 0.02161281199548 
1052	 0.021304126378361 
1053	 2.01192553243093E-02 
1054	 1.99160785062471E-02 
1055	 2.09284763556232E-02 
1056	 2.14949620789124E-02 
1057	 2.21020992070278E-02 
1058	 2.32014044765642E-02 
1059	 2.33330843278106E-02 
1060	 2.29233734688785E-02 
1061	 2.26505386178902E-02 
1062	 2.16643182503986E-02 
1063	 2.15126223336907E-02 
1064	 2.18477609093733E-02 
1065	 2.19224975860653E-02 
1066	 2.24098633573947E-02 
1067	 2.24668466434899E-02 
1068	 2.18522032948514E-02 
1069	 0.021838817446497 
1070	 2.23092148068701E-02 
1071	 2.23331245228075E-02 
1072	 2.25516457473697E-02 
1073	 2.24087733295225E-02 
1074	 2.23470945238198E-02 
1075	 2.17898118854843E-02 
1076	 2.16880473008819E-02 
1077	 2.20764735477843E-02 
1078	 2.18904568874322E-02 
1079	 2.11947128455327E-02 
1080	 2.11732428005811E-02 
1081	 2.14103129647684E-02 
1082	 2.13637117061349E-02 
1083	 2.18020129184747E-02 
1084	 2.17721863284731E-02 
1085	 0.020701798775694 
1086	 2.04609038976132E-02 
1087	 2.09868817837504E-02 
1088	 0.020951957709661 
1089	 2.06235829738012E-02 
1090	 2.09082262117342E-02 
1091	 0.021002460422108 
1092	 0.020624737073128 
1093	 0.020650920079689 
1094	 0.021345019340469 
1095	 2.14160124324841E-02 
1096	 0.021322439212411 
1097	 0.020936639209953 
1098	 1.98101023471752E-02 
1099	 0.019498952587718 
1100	 1.88366648957307E-02 
1101	 1.90354144498719E-02 
1102	 2.15372182863022E-02 
1103	 2.19664321633749E-02 
1104	 2.10763027489722E-02 
1105	 2.11015832479084E-02 
1106	 2.06197863274592E-02 
1107	 1.97322553997553E-02 
1108	 2.14904642725504E-02 
1109	 2.28354701578725E-02 
1110	 2.25924095623759E-02 
1111	 2.04083507284856E-02 
1112	 1.95502999230245E-02 
1113	 1.64118880074379E-02 
1114	 1.64552455116875E-02 
1115	 2.23217594250699E-02 
1116	 0.023837099117461 
1117	 2.31549123466052E-02 
1118	 2.44162318226673E-02 
1119	 2.44839392782307E-02 
1120	 2.28790797249501E-02 
1121	 0.019375263593481 
1122	 0.023078340183335 
1123	 3.09448543708022E-02 
1124	 2.09763159728014E-02 
1125	 7.3700401322504E-03 
1126	 8.04137507508779E-03 
1127	 8.51487730156157E-03 
1128	 1.62626824107991E-03 
1129	 2.44008875295753E-03 
1130	 0.019115644125161 
1131	 2.11499209476062E-02 
1132	 1.23039129343125E-02 
1133	 1.31289436065159E-02 
1134	 1.77109159549171E-02 
1135	 0.01977850914391 
1136	 2.36517457667964E-02 
1137	 2.48273659291568E-02 
1138	 0.025611443229552 
1139	 0.023250380950544 
1140	 1.77432060435724E-02 
1141	 1.47008366617263E-02 
1142	 0.018080832743588 
1143	 2.27801899419096E-02 
1144	 2.53282823581036E-02 
1145	 2.89519126643752E-02 
1146	 2.13958085611666E-02 
1147	 7.63704968496352E-03 
1148	 7.51682093828546E-03 
1149	 1.03930290595127E-02 
1150	 1.13619522381655E-02 
1151	 1.86136261402556E-02 
1152	 1.96188397569663E-02 
1153	 1.44559265322193E-02 
1154	 1.43608168039934E-02 
1155	 1.65732430922436E-02 
1156	 0.015638763186581 
1157	 1.44077021756698E-02 
1158	 1.46875852051114E-02 
1159	 1.40545213428741E-02 
1160	 1.48693634360991E-02 
1161	 1.68471532461035E-02 
1162	 1.74659743047869E-02 
1163	 1.72217169344014E-02 
1164	 1.77143337777454E-02 
1165	 1.78354396825736E-02 
1166	 1.76154158062212E-02 
1167	 1.77279436364009E-02 
1168	 1.70625251144796E-02 
1169	 1.61699489165495E-02 
1170	 1.58714512870673E-02 
1171	 1.58750394734946E-02 
1172	 1.61093246624317E-02 
1173	 1.65268346895449E-02 
1174	 1.73893744631989E-02 
1175	 1.80996259698716E-02 
1176	 1.80908130010067E-02 
1177	 1.81641496905993E-02 
1178	 1.78889603692971E-02 
1179	 1.66469111112993E-02 
1180	 0.016269707314461 
1181	 1.66321808159194E-02 
1182	 0.016268200391607 
1183	 1.64266926810421E-02 
1184	 1.67724511621359E-02 
1185	 1.63017438187863E-02 
1186	 1.60620712193822E-02 
1187	 1.62601154099739E-02 
1188	 1.61707034872641E-02 
1189	 1.61808651228868E-02 
1190	 1.65833999335639E-02 
1191	 1.67143610787183E-02 
1192	 1.69037426977259E-02 
1193	 1.73413293867069E-02 
1194	 1.74424207974217E-02 
1195	 1.68310949956995E-02 
1196	 1.70116573450275E-02 
1197	 1.67730473457606E-02 
1198	 1.58195015386971E-02 
1199	 1.62060796779301E-02 
1200	 1.64939291739679E-02 
1201	 1.62529055637436E-02 
1202	 1.67167634010448E-02 
1203	 1.68836395102636E-02 
1204	 1.66428389500033E-02 
1205	 1.69215917486452E-02 
1206	 1.71908073115662E-02 
1207	 0.017034333985672 
1208	 1.70656651190488E-02 
1209	 1.68669735868785E-02 
1210	 1.64759428362092E-02 
1211	 1.65113077260485E-02 
1212	 1.66276928305684E-02 
1213	 1.66152292598522E-02 
1214	 1.66641614492743E-02 
1215	 1.69772903120954E-02 
1216	 1.72895741103222E-02 
1217	 1.70734701943148E-02 
1218	 1.69537258519424E-02 
1219	 1.70265347097423E-02 
1220	 1.68084110016149E-02 
1221	 1.70410829740096E-02 
1222	 1.72863465943227E-02 
1223	 1.70893704058271E-02 
1224	 1.72213576292423E-02 
1225	 1.72453828985504E-02 
1226	 0.017161638690099 
1227	 1.71542352956444E-02 
1228	 1.68024804384842E-02 
1229	 1.66253404003022E-02 
1230	 1.68936973168432E-02 
1231	 1.71888306424835E-02 
1232	 1.72241634912885E-02 
1233	 1.69737967787497E-02 
1234	 0.016547478466464 
1235	 1.64275911679236E-02 
1236	 1.65690111547892E-02 
1237	 1.66734178095231E-02 
1238	 1.70107506667077E-02 
1239	 1.70930446671136E-02 
1240	 1.70695126667269E-02 
1241	 1.69110301723598E-02 
1242	 1.67938582230987E-02 
1243	 1.68072560514888E-02 
1244	 1.67871450840918E-02 
1245	 0.016688768368536 
1246	 1.67747933608821E-02 
1247	 1.67183481149603E-02 
1248	 1.65529902033847E-02 
1249	 1.68347844782177E-02 
1250	 1.69163013271805E-02 
1251	 1.67881342662865E-02 
1252	 1.70913869722685E-02 
1253	 1.71094870859605E-02 
1254	 1.68095490296578E-02 
1255	 1.69216568411071E-02 
1256	 1.69907644596282E-02 
1257	 1.67912759850317E-02 
1258	 1.67314463504177E-02 
1259	 1.71040792992381E-02 
1260	 1.71402759145867E-02 
1261	 1.67212121246745E-02 
1262	 1.66600709097399E-02 
1263	 1.67769937936797E-02 
1264	 1.68683772929033E-02 
1265	 1.65619030520429E-02 
1266	 1.67414679072281E-02 
1267	 1.72893328643977E-02 
1268	 1.71105590576306E-02 
1269	 1.71883273202351E-02 
1270	 1.77230416114538E-02 
1271	 1.75990887022309E-02 
1272	 1.68692897794197E-02 
1273	 1.64098574702983E-02 
1274	 1.64919642950852E-02 
1275	 1.70172722417579E-02 
1276	 1.75202418295395E-02 
1277	 1.73336410594406E-02 
1278	 1.73111124979112E-02 
1279	 1.75609207229884E-02 
1280	 1.72369366898123E-02 
1281	 1.68258543456738E-02 
1282	 0.016600802600525 
1283	 1.66703292066376E-02 
1284	 1.62812931959098E-02 
1285	 1.62266721242164E-02 
1286	 1.73410508210587E-02 
1287	 1.73523190263287E-02 
1288	 1.60590956569811E-02 
1289	 0.015898203937391 
1290	 1.62808532797753E-02 
1291	 1.62443435209962E-02 
1292	 1.65873537808487E-02 
1293	 1.68266821768335E-02 
1294	 1.62518003400278E-02 
1295	 1.62766232379938E-02 
1296	 1.65477697158588E-02 
1297	 1.67104239356611E-02 
1298	 1.65648424035574E-02 
1299	 1.61886885079165E-02 
1300	 1.71161281230606E-02 
1301	 1.76697826680054E-02 
1302	 0.016929330165609 
1303	 1.71053104358374E-02 
1304	 1.72364836818134E-02 
1305	 1.62028614562721E-02 
1306	 1.57971986803621E-02 
1307	 0.017029931367839 
1308	 1.74975314622309E-02 
1309	 1.71607520239286E-02 
1310	 1.67805037011484E-02 
1311	 1.67609400209827E-02 
1312	 1.65138353271161E-02 
1313	 1.49900376062465E-02 
1314	 1.44561062969396E-02 
1315	 1.48477529122803E-02 
1316	 1.52635221354155E-02 
1317	 1.64820874493711E-02 
1318	 1.64654756806456E-02 
1319	 1.57040767929538E-02 
1320	 1.59016110095438E-02 
1321	 0.015940602108657 
1322	 0.015303678653178 
1323	 1.51599751772238E-02 
1324	 1.56111960125813E-02 
1325	 1.61832917009249E-02 
1326	 1.71895409320978E-02 
1327	 1.85477342476257E-02 
1328	 1.81009895310974E-02 
1329	 1.61590672178225E-02 
1330	 1.57437232992345E-02 
1331	 1.48412691746051E-02 
1332	 1.39545074284351E-02 
1333	 1.63197431482924E-02 
1334	 1.49437776589614E-02 
1335	 1.48448159128892E-02 
1336	 1.81742678958129E-02 
1337	 0.018591884423017 
1338	 1.48225482807508E-02 
1339	 1.52509921896862E-02 
1340	 1.75266274747067E-02 
1341	 1.77663738843462E-02 
1342	 1.88026577693607E-02 
1343	 2.02930105478454E-02 
1344	 2.22822353839861E-02 
1345	 2.18119760137718E-02 
1346	 1.90606338118628E-02 
1347	 2.05422190104275E-02 
1348	 1.88487228346253E-02 
1349	 1.55697453409367E-02 
1350	 2.52640604881819E-02 
1351	 3.75950564118787E-02 
1352	 3.74421577143636E-02 
1353	 0.04233002860775 
1354	 0.074930869329841 
1355	 0.137483353405606 
1356	 0.108959224033321 
1357	 8.15126051319295E-02 
1358	 0.210590991454846 
1359	 0.264822059140878 
1360	 0.192644389235389 
1361	 0.350290501170602 
1362	 0.338539112484972 
1363	 0.298395260069897 
1364	 0.75593019540916 
1365	 1.41532995872987 
1366	 2.53222372332531 
1367	 2.08343567701481 
1368	 5.27945491544814 
1369	 26.1002290714042 
1370	 1.81378113935868 
1371	 1.22807463709292 
1372	 0.936939825532132 
1373	 0.254569884886916 
1374	 0.258417846319559 
1375	 0.888665225366398 
1376	 1.21145296839054 
1377	 1.67756286388 
1378	 3.99916450758947 
1379	 1.99662801630575 
1380	 2.09452112202846 
1381	 7.30656669375601 
1382	 6.29529954017799 
1383	 1.9629553361492 
1384	 1.50104633790214 
1385	 1.04051921719712 
1386	 0.640712442154695 
1387	 0.434509750373433 
1388	 0.280319400357275 
1389	 0.176134959969493 
1390	 5.33057697168859E-03 
1391	-0.253933833051941 
1392	-1.86690916589437E-02 
1393	 0.220566762118592 
1394	 0.464916024922541 
1395	 0.801240086922785 
1396	 0.757809457005297 
1397	 1.64408673881855 
1398	 1.49771363221447 
1399	 0.785851456421383 
1400	 0.422606432267079 
1401	-0.212426269205242 
1402	-0.131577089442357 
1403	 0.07924690917212 
1404	-4.03223752781538E-02 
1405	 0.12504021929087 
1406	 0.192609078652624 
1407	 0.247380553829622 
1408	 1.33040078198495 
1409	 1.95745022505845 
1410	-0.172668715708035 
1411	-0.103995527640536 
1412	 0.807187673623146 
1413	 1.02669215569073 
1414	 1.43338888458193 
1415	 1.12937760252298 
1416	 0.414554795745137 
1417	 0.126737861524505 
1418	-0.023345719856607 
1419	-5.24197314644354E-02 
1420	 0.114411026755726 
1421	 0.130413504899164 
1422	 0.120376685254352 
1423	 4.36789564457438E-02 
1424	-0.110738440494242 
1425	-0.114545870135161 
1426	-0.13055291051966 
1427	-0.105900358451585 
1428	 1.56738087392467E-02 
1429	 6.24195052986549E-02 
1430	 6.73704465316334E-02 
1431	 0.102108333165374 
1432	 0.162004713973076 
1433	 0.174848142022999 
1434	 0.190348654855031 
1435	 0.184922149947058 
1436	 0.122430955028367 
1437	 0.108126209792442 
1438	 9.79781441906678E-02 
1439	 4.67320575873286E-02 
1440	 4.03754266964664E-02 
1441	 1.38723484244346E-02 
1442	 2.68515472590238E-02 
1443	 8.55950347903263E-02 
1444	 7.91240144419101E-02 
1445	 6.90663327398281E-02 
1446	 5.10396389063192E-02 
1447	 2.50068181142232E-02 
1448	 3.01853095261192E-02 
1449	 4.10331760469536E-02 
1450	 4.92526750259811E-02 
1451	 5.31629542538222E-02 
1452	 3.51193105470134E-02 
1453	 1.93986406061728E-02 
1454	 1.81120304149435E-02 
1455	 1.94601120542062E-02 
1456	 1.47163092651443E-02 
1457	 1.62037590443085E-02 
1458	 0.015291447529293 
1459	 4.5318168966062E-03 
1460	 3.78092247854675E-03 
1461	 1.36205936401573E-02 
1462	 1.36378698296134E-02 
1463	 5.35681009607732E-03 
1464	 1.12575738981515E-02 
1465	 3.00734449609639E-02 
1466	 0.027737210680744 
1467	 1.76876261860076E-02 
1468	 2.09128965744711E-02 
1469	 1.41458250072873E-02 
1470	 8.39635865799887E-03 
1471	 2.34017781880026E-02 
1472	 2.35247130733291E-02 
1473	 1.96638812190516E-03 
1474	-1.49082397927071E-03 
1475	 5.96143436717345E-03 
1476	 7.94660688494233E-03 
1477	 1.00424666982533E-02 
1478	 0.011008868599124 
1479	 1.22770072745137E-02 
1480	 1.23482280548796E-02 
1481	 9.46762047784551E-03 
1482	 1.07997379589466E-02 
1483	 1.54230685196805E-02 
1484	 1.54788950149566E-02 
1485	 1.53108970415985E-02 
1486	 1.45019482610773E-02 
1487	 1.10776423807864E-02 
1488	 9.94263075782531E-03 
1489	 9.32352862819157E-03 
1490	 9.96622942183279E-03 
1491	 0.012224293533986 
1492	 1.19947638280836E-02 
1493	 1.19390640122218E-02 
1494	 1.15005255952583E-02 
1495	 7.94641634706346E-03 
1496	 8.20455880336384E-03 
1497	 1.15052553785682E-02 
1498	 1.20531705080035E-02 
1499	 1.27326167737482E-02 
1500	 1.33097584890548E-02 
1501	 1.23946079580851E-02 
1502	 1.18792629524281E-02 
1503	 1.14010710731297E-02 
1504	 1.19374311626624E-02 
1505	 1.31256627893087E-02 
1506	 1.36908555613971E-02 
1507	 1.38817692979459E-02 
1508	 1.45816048698906E-02 
1509	 1.40596236429742E-02 
1510	 1.28970166250597E-02 
1511	 1.22063096165956E-02 
1512	 1.18557809676696E-02 
1513	 1.19414849432282E-02 
1514	 1.18838081209547E-02 
1515	 1.14214168539672E-02 
1516	 0.011668402662294 
1517	 1.24988892926513E-02 
1518	 1.25710356800236E-02 
1519	 0.012942292518996 
1520	 1.33705206244797E-02 
1521	 1.31421599261235E-02 
1522	 1.28680405617479E-02 
1523	 0.01237981232365 
1524	 1.22008988541842E-02 
1525	 1.21567139600194E-02 
1526	 0.011841468323206 
1527	 1.22454156711231E-02 
1528	 1.29899698239113E-02 
1529	 1.28899482427918E-02 
1530	 1.28371187239848E-02 
1531	 1.29491249474394E-02 
1532	 1.24139451762018E-02 
1533	 1.20973289035253E-02 
1534	 1.21929303138662E-02 
1535	 1.26770405089005E-02 
1536	 0.013350641194905 
1537	 0.013338232668685 
1538	 1.35206906073054E-02 
1539	 1.38081750658868E-02 
1540	 1.32869723922982E-02 
1541	 1.28409096041361E-02 
1542	 1.27652546781676E-02 
1543	 1.27812595375929E-02 
1544	 1.28977130233992E-02 
1545	 1.30687571432634E-02 
1546	 1.32144295092205E-02 
1547	 1.32678687973251E-02 
1548	 1.32217527793032E-02 
1549	 1.29531460932818E-02 
1550	 1.26766545349238E-02 
1551	 1.27155597075661E-02 
1552	 1.31182177844625E-02 
1553	 1.37190733399438E-02 
1554	 1.39175825030736E-02 
1555	 1.37973901410245E-02 
1556	 0.013538904110832 
1557	 0.012928756620526 
1558	 1.30443870665495E-02 
1559	 1.33107871746794E-02 
1560	 1.30069268062542E-02 
1561	 1.35258766831716E-02 
1562	 1.42282256419598E-02 
1563	 1.40805298288309E-02 
1564	 1.38748195062921E-02 
1565	 1.41688468494496E-02 
1566	 1.43250018874905E-02 
1567	 1.41531441959583E-02 
1568	 1.41790913890492E-02 
1569	 1.43361844646133E-02 
1570	 1.41331128581646E-02 
1571	 1.38157532073004E-02 
1572	 1.38805042042711E-02 
1573	 1.38443150958529E-02 
1574	 1.36611049335712E-02 
1575	 1.34439439999593E-02 
1576	 1.34024927420042E-02 
1577	 1.37926122391764E-02 
1578	 1.39027670607865E-02 
1579	 0.013848121666368 
1580	 0.013896283106377 
1581	 1.38541959947093E-02 
1582	 1.35929115709516E-02 
1583	 1.31471395387421E-02 
1584	 1.36405795230104E-02 
1585	 1.43807555329419E-02 
1586	 1.41654669136104E-02 
1587	 1.41938429078313E-02 
1588	 1.50425971210053E-02 
1589	 1.51913437687067E-02 
1590	 1.43200601432413E-02 
1591	 1.45200825388617E-02 
1592	 1.49690128114294E-02 
1593	 1.38195381264824E-02 
1594	 1.31060593562474E-02 
1595	 1.38809763174533E-02 
1596	 1.40211747953051E-02 
1597	 1.33468801193799E-02 
1598	 1.34741659352845E-02 
1599	 1.37976162780437E-02 
1600	 1.32948886712388E-02 
1601	 1.30751672020867E-02 
1602	 1.37663489110585E-02 
1603	 0.014267145721925 
1604	 1.42030981360144E-02 
1605	 1.41756520463992E-02 
1606	 1.42982466499253E-02 
1607	 1.42316368424474E-02 
1608	 1.41282608841179E-02 
1609	 1.44049502013804E-02 
1610	 1.51394352537464E-02 
1611	 1.49352648585523E-02 
1612	 1.35467185284468E-02 
1613	 0.013147702325177 
1614	 1.35335286248549E-02 
1615	 1.39284704979968E-02 
1616	 1.45561923417536E-02 
1617	 1.44407021305438E-02 
1618	 1.40436723962422E-02 
1619	 1.42834752484814E-02 
1620	 1.41668240047303E-02 
1621	 1.41555480737236E-02 
1622	 1.46549923137416E-02 
1623	 1.42244100617943E-02 
1624	 1.39786816110131E-02 
1625	 1.47347755238268E-02 
1626	 1.48759237901531E-02 
1627	 0.014560390617762 
1628	 1.43007161797904E-02 
1629	 1.41186696953572E-02 
1630	 0.014212760536732 
1631	 1.46875315435106E-02 
1632	 1.52759472880394E-02 
1633	 1.49332259268998E-02 
1634	 1.43120469959465E-02 
1635	 0.01437305528294 
1636	 1.42634969204617E-02 
1637	 1.40718307041926E-02 
1638	 1.45362266699844E-02 
1639	 1.50436030425562E-02 
1640	 1.52180819434992E-02 
1641	 1.52549458605749E-02 
1642	 1.50104325479374E-02 
1643	 1.45948187553827E-02 
1644	 1.43384004534855E-02 
1645	 1.46928160035852E-02 
1646	 1.54296538320583E-02 
1647	 1.58261428194486E-02 
1648	 1.54962335433549E-02 
1649	 1.48486753367561E-02 
1650	 1.48269233571757E-02 
1651	 1.44549285063394E-02 
1652	 1.39070222768923E-02 
1653	 1.49240315916662E-02 
1654	 1.49398434849777E-02 
1655	 1.42586556550611E-02 
1656	 1.41767618428825E-02 
1657	 1.39976802835817E-02 
1658	 1.39751242340158E-02 
1659	 1.43131903867356E-02 
1660	 1.44931040284772E-02 
1661	 1.47298266655412E-02 
1662	 1.49996904877659E-02 
1663	 1.54306127042035E-02 
1664	 1.51849358011665E-02 
1665	 1.44113635139702E-02 
1666	 1.42009894785346E-02 
1667	 1.37496822775638E-02 
1668	 1.40163080648013E-02 
1669	 1.44964935194341E-02 
1670	 1.45317367836519E-02 
1671	 1.43824695132434E-02 
1672	 1.43549521668532E-02 
1673	 1.41807677335582E-02 
1674	 1.45009566633461E-02 
1675	 1.50066028401126E-02 
1676	 1.49641372989985E-02 
1677	 1.44866885558887E-02 
1678	 1.42890544448607E-02 
1679	 0.014402631561674 
1680	 1.35651173969854E-02 
1681	 1.39621421107665E-02 
1682	 1.56576651039424E-02 
1683	 1.50381294417705E-02 
1684	 0.014672328206176 
1685	 1.55722440288268E-02 
1686	 1.47492626139235E-02 
1687	 1.40206917648853E-02 
1688	 1.50779246483179E-02 
1689	 1.49818257178016E-02 
1690	 0.013801951851934 
1691	 1.43593182188095E-02 
1692	 1.54537728474627E-02 
1693	 0.016163536146376 
1694	 1.63836534577737E-02 
1695	 1.55861362030766E-02 
1696	 1.44170604204391E-02 
1697	 1.39823322368066E-02 
1698	 1.41159388448663E-02 
1699	 1.40972940344437E-02 
1700	 1.42687520717071E-02 
1701	 1.40916678043941E-02 
1702	 1.44857949940956E-02 
1703	 1.53649433722567E-02 
1704	 1.53697737773432E-02 
1705	 1.56464799387853E-02 
1706	 1.57311511084525E-02 
1707	 1.52486651091641E-02 
1708	 1.56971158046159E-02 
1709	 1.52771308736677E-02 
1710	 1.39224147513886E-02 
1711	 0.014031388164946 
1712	 1.32452503896188E-02 
1713	 1.33379373289263E-02 
1714	 1.35466759267021E-02 
1715	 0.013772590064342 
1716	 1.43393325429137E-02 
1717	 1.32123886606547E-02 
1718	 1.24533566708038E-02 
1719	 1.39867300359885E-02 
1720	 1.44764910303234E-02 
1721	 1.40817570755557E-02 
1722	 1.39727461041599E-02 
1723	 1.28658982344145E-02 
1724	 1.32915978670998E-02 
1725	 1.47421727035386E-02 
1726	 1.46563415350411E-02 
1727	 0.014636126600663 
1728	 1.45701733026483E-02 
1729	 1.43383876502791E-02 
1730	 0.015195819624371 
1731	 1.62002673430653E-02 
1732	 0.01521682192708 
1733	 1.33164889301716E-02 
1734	 0.012958743332713 
1735	 1.30299300997133E-02 
1736	 1.34529463471056E-02 
1737	 1.56661401092199E-02 
1738	 1.69898405888137E-02 
1739	 0.015702317965736 
1740	 1.44579709631641E-02 
1741	 1.40621729622622E-02 
1742	 1.39940821274782E-02 
1743	 1.49470334475223E-02 
1744	 1.59403774506728E-02 
1745	 1.53981807607523E-02 
1746	 1.27428126176549E-02 
1747	 1.19406323765016E-02 
1748	 1.22903868664668E-02 
1749	 1.27303743624676E-02 
1750	 1.48799034593192E-02 
1751	 1.48546970420923E-02 
1752	 1.24413097002521E-02 
1753	 1.28761672066753E-02 
1754	 1.45969762519199E-02 
1755	 1.38136838610755E-02 
1756	 1.39007907633251E-02 
1757	 1.33496975241821E-02 
1758	 0.010963929966323 
1759	 1.13900849989423E-02 
1760	 1.28452575897914E-02 
1761	 1.27190897332544E-02 
1762	 1.15483852604812E-02 
1763	 0.011232238052457 
1764	 9.85355451811965E-03 
1765	 8.56585818040282E-03 
1766	 1.05721429034029E-02 
1767	 1.32039258790448E-02 
1768	 1.44937403170825E-02 
1769	 1.37378516400347E-02 
1770	 1.36694230114413E-02 
1771	 1.46517770660802E-02 
1772	 1.34989321928107E-02 
1773	 1.33786215647409E-02 
1774	 1.34431662094692E-02 
1775	 8.08484922841166E-03 
1776	 7.51384809879482E-03 
1777	 1.05378495570283E-02 
1778	 1.07676709649463E-02 
1779	 1.47083206318592E-02 
1780	 1.47711517813035E-02 
1781	 6.57230269344648E-03 
1782	 5.54467707861443E-03 
1783	 8.70033572454275E-03 
1784	 9.4016753509664E-03 
1785	 1.47753781698171E-02 
1786	 1.72322660579022E-02 
1787	 0.011813203574423 
1788	 1.26767409694014E-02 
1789	 2.22811174484421E-02 
1790	 8.55573243177079E-03 
1791	 2.3735914258633E-03 
1792	 8.37225894685359E-03 
1793	 5.30027624671985E-03 
1794	 7.72869731540329E-03 
1795	 0.019255616556711 
1796	 8.58094700263581E-03 
1797	-5.17541245351019E-03 
1798	 2.04413713590729E-02 
1799	 3.24707711302936E-02 
1800	 1.68802848075524E-02 
1801	 1.36346754415507E-02 
1802	 8.85109112051516E-03 
1803	 1.64366028344602E-02 
1804	 7.79250825352469E-02 
1805	 0.106736716209123 
1806	 6.98717077448309E-02 
1807	 6.87839675994957E-02 
1808	 2.17168765782954E-02 
1809	-1.45996743527767E-02 
1810	 0.117742327657283 
1811	 0.164155251266845 
1812	 8.37667723133568E-02 
1813	 0.112625495689279 
1814	 0.278562563321214 
1815	 0.527767782055219 
1816	-0.720844270104495 
1817	 2.17648164145536 
1818	-1.44486434302454E-02 
1819	 0.063151476044574 
1820	 7.40116233464849E-02 
1821	-5.01466113461839E-02 
1822	-0.061440615002941 
1823	-0.351188092031291 
1824	-0.362393146343228 
1825	-3.70954253617191 
1826	-1.48991218853071 
1827	 5.55950127849859 
1828	 2.8789529419658 
1829	 0.359371813394441 
1830	 0.343448619808771 
1831	-1.81677687362577 
1832	-1.82588892454214 
1833	-1.71454933758193 
1834	-4.76021784328835 
1835	 0.522217894946857 
1836	 0.291617138645331 
1837	 0.471221370541821 
1838	 0.422387764081264 
1839	 0.249685667641417 
1840	 0.392348424570082 
1841	 0.193401003213574 
1842	-0.170602596712506 
1843	-0.225431613733826 
1844	-9.94504685078096E-02 
1845	-6.05577061397054E-02 
1846	 0.266916511191115 
1847	 0.344830572198038 
1848	 0.152017656507163 
1849	 8.40110957648844E-02 
1850	 0.232730941866723 
1851	 0.372435815140549 
1852	 0.646049984292707 
1853	 0.855627406738921 
1854	 0.530176567575988 
1855	-0.165043125688696 
1856	-0.288698769699647 
1857	-0.443454433494843 
1858	-0.518841542725141 
1859	-0.436798689338642 
1860	-0.653916376519308 
1861	-0.609832896667038 
1862	-5.33730183172365E-02 
1863	 0.24115087393202 
1864	 0.747765383061788 
1865	 1.60596576500293 
1866	 2.48584216982217 
1867	 8.96631149070067 
1868	 29.2181595355365 
1869	-6.85624230710575 
1870	-1.9869998023472 
1871	-1.62114502081346 
1872	-1.12457276747689 
1873	-1.23130552386021 
1874	-1.32683298474051 
1875	-1.00538237580639 
1876	-1.00434637477307 
1877	-1.07691383524974 
1878	-0.898527417172019 
1879	-0.702787639270297 
1880	-0.777567411429942 
1881	-0.865082277676574 
1882	-1.03452417306269 
1883	 13.7568401207289 
1884	 1.38710515276886 
1885	 1.23558278152065 
1886	 0.54148332128935 
1887	 0.284781602513474 
1888	-1.13213328179286 
1889	-3.7226471970986 
1890	-4.36423161834855 
1891	 9.34029944682284 
1892	 3.54152169144254 
1893	 3.18172257139709 
1894	 0.347433768008337 
1895	-0.414656387891583 
1896	-0.787717784270406 
1897	-0.949640341912254 
1898	-0.303919363340686 
1899	-6.25623600799614E-02 
1900	-0.101445362601714 
1901	-0.326719731712629 
1902	-0.561824561755992 
1903	-1.59801307200074 
1904	-2.66845424258571 
1905	-2.30101766850157 
1906	 2.21678962483792 
1907	 0.317425136797197 
1908	 0.057568460733178 
1909	 4.94060870756484E-02 
1910	-0.109382355612261 
1911	-0.147698331307927 
1912	 0.136692435516515 
1913	 0.229501032181804 
1914	 0.52718240419354 
1915	 3.31844397452518 
1916	-4.74048635389226 
1917	-2.6053013895501 
1918	-1.61083132287208 
1919	-0.744187848992742 
1920	-7.53739865361544E-02 
1921	 2.94252466668823 
1922	-2.98127038100518 
1923	-0.949824774668592 
1924	-0.698975718685621 
1925	-0.873565511358364 
1926	-0.853442579810804 
1927	-1.12464561224192 
1928	 0.400299173897939 
1929	 0.158431226616203 
1930	-0.463109792463683 
1931	-0.510075655951854 
1932	-22.3557555214619 
1933	 0.858424914426777 
1934	-1.36524690840649 
1935	 0.269477177161561 
1936	 0.510521354236093 
1937	-29.9047604474091 
1938	 1.4610190506067 
1939	 1.88907577367725 
1940	 0.885512226209585 
1941	-0.232725044701764 
1942	 1.99823235655572 
1943	-1.54333682007176 
1944	-0.529532039390868 
1945	 0.486838397705721 
1946	 1.68706232514129 
1947	 2.26457630323569 
1948	 3.67823420258083 
1949	 3.53731848100143 
1950	 1.67825012019955 
1951	 0.840501812493438 
1952	 0.295602804728815 
1953	-2.95398956275639E-02 
1954	 0.056504943819999 
1955	 2.75449348930811E-02 
1956	-3.25149798308159E-02 
1957	-2.90476811952019E-02 
1958	-0.114379401954296 
1959	-9.20728302067145E-02 
1960	-6.88716252221381E-02 
1961	-4.62155752294996E-02 
1962	 3.11552412718159E-03 
1963	 1.10622866828422E-02 
1964	 1.01356236230173E-02 
1965	 8.00965864115433E-03 
1966	 6.26441635585605E-03 
1967	 8.71962726933267E-04 
1968	-6.93413176014719E-03 
1969	-2.11383935253052E-02 
1970	-2.36085160398221E-02 
1971	-1.90294606011182E-02 
1972	-1.76294137792814E-02 
1973	-3.33360292818374E-03 
1974	 9.89947826428803E-03 
1975	 4.20061622020678E-03 
1976	 7.65126350158299E-03 
1977	 1.60907617264593E-02 
1978	 1.69283554894434E-02 
1979	 1.77235102663094E-02 
1980	 2.16837026512758E-02 
1981	 2.04492517505051E-02 
1982	 1.48554447556427E-02 
1983	 1.09421190753389E-02 
1984	 8.67513747028806E-03 
1985	 6.42418743607742E-03 
1986	 5.72985591168243E-03 
1987	 1.31308907725313E-02 
1988	 1.62803142631988E-02 
1989	 0.014631524284901 
1990	 1.63396830952388E-02 
1991	 9.88822400411554E-03 
1992	 1.04461040140386E-02 
1993	 1.83026325513296E-02 
1994	 0.021148862951374 
1995	 2.22110107785309E-02 
1996	 2.73163935442254E-02 
1997	 0.028118645019164 
1998	 2.40327795248511E-02 
1999	 2.18902966554919E-02 
2000	 1.89784404938298E-02 
2001	 7.62498391186246E-03 
2002	-1.52839053790285E-03 
2003	 3.74313526755229E-03 
2004	 5.25074215533296E-03 
2005	 2.88980057466376E-03 
2006	 5.41305660896601E-03 
2007	 9.45347465726138E-03 
2008	 5.05925642588979E-04 
2009	-5.84748890975227E-03 
2010	-9.50181589838058E-03 
2011	-9.27401507039431E-03 
2012	-0.010104129058325 
2013	-1.10703369395748E-02 
2014	-1.87660966321255E-02 
2015	-1.27293693770056E-02 
2016	-7.5185075260493E-03 
2017	-7.53339171854542E-03 
2018	 1.39245728198237E-02 
2019	 1.99904045299308E-02 
2020	 0.013966241576979 
2021	 1.83364564030949E-02 
2022	 2.02804692985608E-02 
2023	 1.66530462970405E-02 
2024	 1.60801331575647E-02 
2025	 1.92991521513624E-02 
2026	 1.82647855936595E-02 
2027	 1.36449319245857E-02 
2028	 1.46215686747901E-02 
2029	 1.56839752497152E-02 
2030	 9.93795880792875E-03 
2031	 6.99814657906786E-03 
2032	 5.52993025557076E-03 
2033	 3.41162747392503E-03 
2034	 4.57015680876684E-03 
2035	 7.53329503019309E-03 
2036	 8.17066860479197E-03 
2037	 7.27298991081794E-03 
2038	 9.58006113455485E-03 
2039	 9.54323190311151E-03 
2040	 6.78660534478737E-03 
2041	 5.60897411520523E-03 
2042	 4.54589888815667E-03 
2043	 3.33049258730007E-03 
2044	 7.14340526567265E-04 
2045	 4.17171226538713E-03 
2046	 7.19364297875022E-03 
2047	 8.62659485290494E-03 
2048	 9.63643216012142E-03 
2049	 9.5796142802246E-03 
2050	 6.10021196277526E-03 
2051	 1.88061641492263E-03 
2052	 3.72392416690638E-03 
2053	 2.7511314324203E-03 
2054	 4.49352293816377E-03 
2055	 1.15004828730401E-02 
2056	 1.37389943313939E-02 
2057	 1.42215107679572E-02 
2058	 0.014138339589598 
2059	 9.56071266920754E-03 
2060	 7.86635530041702E-03 
2061	 5.36121357188717E-03 
2062	 6.93686598419665E-03 
2063	 8.95066223207706E-03 
2064	 9.10453261428758E-03 
2065	 1.03324263166208E-02 
2066	 7.37060532812066E-03 
2067	 3.44963613871569E-03 
2068	 3.58491918508073E-03 
2069	 1.55807717410818E-03 
2070	 8.66034137119223E-04 
2071	 5.91598896910117E-03 
2072	 1.02955539183765E-02 
2073	 1.21823350104145E-02 
2074	 1.47735705350304E-02 
2075	 1.59730209789538E-02 
2076	 1.49901905799053E-02 
2077	 1.26684743104496E-02 
2078	 8.77933568372611E-03 
2079	 7.07810049612415E-03 
2080	 3.71901005280274E-03 
2081	 2.27586637334313E-03 
2082	 5.4268914165602E-03 
2083	 8.12934810680806E-03 
2084	 9.25547492338344E-03 
2085	 1.02455639378513E-02 
2086	 1.25461012971878E-02 
2087	 1.41897753348598E-02 
2088	 1.21603140218149E-02 
2089	 1.07865501308577E-02 
2090	 1.03533931474944E-02 
2091	 1.11841937913976E-02 
2092	 1.16645121729138E-02 
2093	 0.016100983340257 
2094	 1.58679272445144E-02 
2095	 1.09881459418471E-02 
2096	 8.58424561902919E-03 
2097	 5.37232844266687E-03 
2098	 5.11399320995675E-03 
2099	 5.93669249010953E-03 
2100	 9.27754845273782E-03 
2101	 1.51862006501876E-02 
2102	 0.017291538096278 
2103	 1.65589633178705E-02 
2104	 1.41925961713339E-02 
2105	 1.15328705086211E-02 
2106	 9.90752912447778E-03 
2107	 1.01156793978622E-02 
2108	 1.25743213944458E-02 
2109	 1.41436141035135E-02 
2110	 1.36990283637551E-02 
2111	 0.013174435641806 
2112	 1.38920277363429E-02 
2113	 1.35220036770741E-02 
2114	 1.17948999252546E-02 
2115	 1.03926834060779E-02 
2116	 8.66849425618431E-03 
2117	 7.77223054088678E-03 
2118	 5.44840617207295E-03 
2119	 7.35721333643323E-03 
2120	 1.40873036908176E-02 
2121	 1.57782543111545E-02 
2122	 1.72838797595115E-02 
2123	 2.08907032992126E-02 
2124	 1.92172533027035E-02 
2125	 1.69383132092967E-02 
2126	 1.72898216460879E-02 
2127	 1.62370909431891E-02 
2128	 1.27015400202872E-02 
2129	 1.32057876605914E-02 
2130	 1.42057251928786E-02 
2131	 1.22427741673204E-02 
2132	 1.26851032716887E-02 
2133	 1.21516487096514E-02 
2134	 1.19649065241953E-02 
2135	 1.22538415498056E-02 
2136	 1.12779470651688E-02 
2137	 9.39000377710039E-03 
2138	 8.61749654786934E-03 
2139	 6.78655047524422E-03 
2140	 6.36098624675012E-03 
2141	 8.25810989060302E-03 
2142	 8.3579202501126E-03 
2143	 7.49359484953217E-03 
2144	 8.12532212021355E-03 
2145	 5.68565619407237E-03 
2146	 5.4043994301623E-03 
2147	 7.33368232368846E-03 
2148	 6.46338366087668E-03 
2149	 7.44215045907897E-03 
2150	 7.40764111352262E-03 
2151	 8.63525985945746E-03 
2152	 1.07427722451133E-02 
2153	 1.09331763500721E-02 
2154	 1.11863699118724E-02 
2155	 1.17743053872883E-02 
2156	 1.42356094874783E-02 
2157	 0.016253476537022 
2158	 2.26620980675153E-02 
2159	 2.39177509570548E-02 
2160	 2.03906072379026E-02 
2161	 1.87490789873036E-02 
2162	 1.56671560053888E-02 
2163	 1.39493142430892E-02 
2164	 0.012962431011984 
2165	 1.42167513875538E-02 
2166	 2.02171587418494E-02 
2167	 1.97492676713739E-02 
2168	 1.53717626466591E-02 
2169	 1.36447037629196E-02 
2170	 9.15668380240638E-03 
2171	 4.8755693597597E-03 
2172	 6.91113297157945E-03 
2173	 8.12797030911856E-03 
2174	 8.01238656619372E-03 
2175	 9.72859290666402E-03 
2176	 1.22756293193658E-02 
2177	 1.54991074854958E-02 
2178	 1.49907200773213E-02 
2179	 1.47480514949851E-02 
2180	 1.43369020423678E-02 
2181	 1.07863000788075E-02 
2182	 1.28776083267177E-02 
2183	 1.71524571359765E-02 
2184	 1.35956823160635E-02 
2185	 9.26774087233882E-03 
2186	 9.34747881764049E-03 
2187	 8.89693194744917E-03 
2188	 8.59936602538926E-03 
2189	 1.49775369869384E-02 
2190	 1.78717568416746E-02 
2191	 1.64799795845229E-02 
2192	 1.64200185258613E-02 
2193	 1.76351431170081E-02 
2194	 1.57608050530487E-02 
2195	 9.92613557401241E-03 
2196	 8.90804022933303E-03 
2197	 0.010287858195936 
2198	 1.03432474886931E-02 
2199	 1.32781106875722E-02 
2200	 1.36697701435155E-02 
2201	 1.07764177559382E-02 
2202	 1.03759619718328E-02 
2203	 1.23597414126218E-02 
2204	 1.41391171334513E-02 
2205	 1.56175033394019E-02 
2206	 1.55126565777127E-02 
2207	 1.41380831989729E-02 
2208	 0.0134098349551 
2209	 9.69408663039482E-03 
2210	 6.4038187142165E-03 
2211	 9.18199063313789E-03 
2212	 9.20547316149537E-03 
2213	 7.2222945969956E-03 
2214	 1.05311505103099E-02 
2215	 1.29695037085257E-02 
2216	 1.53110304860358E-02 
2217	 1.66618400695583E-02 
2218	 2.10505028641595E-02 
2219	 2.05500012001682E-02 
2220	 1.66556996663434E-02 
2221	 1.33500132043849E-02 
2222	 7.79158666656418E-03 
2223	 4.26570209412778E-03 
2224	-1.03407518534753E-03 
2225	-4.12195279337546E-03 
2226	-5.36900942899473E-03 
2227	-3.19725360406756E-03 
2228	 1.86765238275433E-03 
2229	 5.84437303816555E-03 
2230	 1.74392621711683E-02 
2231	 1.88276771568971E-02 
2232	 9.00364903624211E-03 
2233	 8.22599033009037E-03 
2234	 7.33689587293088E-03 
2235	 6.50647430872568E-03 
2236	 9.24422747244723E-03 
2237	 1.27948199496174E-02 
2238	 1.30921044798199E-02 
2239	 9.0388473589568E-03 
2240	 6.85837555871952E-03 
2241	 6.42868975717503E-03 
2242	 5.52117218074435E-03 
2243	 4.51987391020094E-03 
2244	 6.97847447679444E-03 
2245	 1.10798691395857E-02 
2246	 1.58011425430882E-02 
2247	 2.31187544288588E-02 
2248	 2.31035295595733E-02 
2249	 2.65173984745013E-02 
2250	 3.03678447499069E-02 
2251	 2.30744384619515E-02 
2252	 1.73072924786773E-02 
2253	 1.01174920444044E-02 
2254	 2.40482795813842E-03 
2255	-8.41854813126506E-04 
2256	 1.92689521631701E-03 
2257	 9.59279065070586E-03 
2258	 7.45835436474176E-03 
2259	 2.86612369082284E-03 
2260	 4.09234576212321E-03 
2261	 6.95034126506333E-03 
2262	 5.93417934215765E-03 
2263	 8.56970406867132E-03 
2264	 7.76406188979358E-03 
2265	-4.87816573367104E-04 
2266	-5.29561214849137E-03 
2267	-6.66721719112941E-03 
2268	-7.39972972645687E-03 
2269	-7.24140052669982E-03 
2270	-1.01982824153751E-02 
2271	-1.70879732471284E-02 
2272	-1.72428333165501E-02 
2273	-1.66430897009402E-02 
2274	-1.41196394154846E-02 
2275	-3.92805968507107E-03 
2276	 3.8202708370298E-03 
2277	 1.09327683037961E-02 
2278	 1.44929836084928E-02 
2279	 1.78742712542954E-02 
2280	 2.14187647234247E-02 
2281	 2.31128450242011E-02 
2282	 2.04579816975414E-02 
2283	 2.36693266811151E-02 
2284	 2.21871571160197E-02 
2285	 1.23732456259768E-02 
2286	 8.78396084338814E-03 
2287	 5.11540889594065E-03 
2288	 4.22750556127796E-03 
2289	 8.59105114464398E-03 
2290	 1.33444658874224E-02 
2291	 1.72721717017439E-02 
2292	 1.59796453279043E-02 
2293	 0.01903775891837 
2294	 2.32191836753196E-02 
2295	 0.021308581539411 
2296	 1.61840880608356E-02 
2297	 1.11418092008575E-02 
2298	 3.93122234167255E-03 
2299	 2.62979855148419E-04 
2300	 4.33079673478318E-03 
2301	 2.09409890475476E-03 
2302	 1.49401037971378E-03 
2303	-7.95299217903954E-04 
2304	-6.70472441119017E-03 
2305	-8.18844222136388E-03 
2306	-0.017080066279814 
2307	-3.05877837057739E-02 
2308	-3.52267838226261E-02 
2309	-2.27435942630165E-02 
2310	-8.34714967584511E-03 
2311	-7.24957123897294E-04 
2312	 0.011229546718374 
2313	 9.1647187663816E-03 
2314	 4.82169160839705E-03 
2315	 1.50627046895874E-02 
2316	 2.03581727352929E-02 
2317	 0.022747634068998 
2318	 1.96597983383648E-02 
2319	 1.92148221580149E-02 
2320	 1.77125157767222E-02 
2321	 3.36745462605582E-03 
2322	 1.69225948950972E-02 
2323	 2.83951749175227E-02 
2324	 1.98074897400866E-02 
2325	 2.65580908982951E-02 
2326	 1.67882906798358E-02 
2327	 1.10526495684856E-03 
2328	 9.96911080060841E-03 
2329	 2.73449507459766E-02 
2330	 2.92759133981366E-02 
2331	 2.29413060592125E-02 
2332	 1.83380358535886E-03 
2333	-3.50614683418134E-02 
2334	-4.59842866005825E-02 
2335	-4.77061157918274E-02 
2336	-4.31802112576969E-02 
2337	-1.40856861188622E-02 
2338	 1.94560225685226E-02 
2339	 4.07660235804075E-02 
2340	 5.36479908011821E-02 
2341	 4.20166901755243E-02 
2342	 2.31513687729949E-02 
2343	 7.31421393717183E-03 
2344	 1.49824764979875E-02 
2345	 6.44123098717979E-02 
2346	 7.62242509840792E-02 
2347	 7.04733059106968E-02 
2348	 6.26443067003953E-02 
2349	 2.10590269711593E-02 
2350	-0.013815799329069 
2351	-2.70775830685899E-02 
2352	-3.10171151897598E-02 
2353	-3.85620683088951E-02 
2354	-4.58443647787615E-02 
2355	-2.92743140487568E-02 
2356	-7.84132992040711E-03 
2357	-2.16049790601567E-02 
2358	-0.02930155259755 
2359	-3.87253918028002E-02 
2360	-0.051272479766428 
2361	-4.25928306619414E-02 
2362	-3.21459576988108E-02 
2363	-3.45718442583138E-02 
2364	-2.53998376895932E-02 
2365	-1.00377591417578E-02 
2366	 1.04638945660114E-02 
2367	 9.20585500356579E-03 
2368	-7.57299969275505E-02 
2369	-0.113565391240753 
2370	-0.125782875548181 
2371	-0.164202888985551 
2372	-0.154198451005035 
2373	-0.10153331641054 
2374	-7.96851820464111E-02 
2375	-9.82248421726451E-02 
2376	-8.40157344414796E-02 
2377	-0.147106810235189 
2378	-0.233691159468076 
2379	-0.200672908829266 
2380	-0.236803074960578 
2381	-0.285774562875251 
2382	-0.220224788888201 
2383	-0.210265106093469 
2384	-0.203909247083631 
2385	-0.199597036972689 
2386	-0.183020947223034 
2387	-0.135875616472086 
2388	-0.155042079057288 
2389	-0.302685651045123 
2390	-0.455871244288337 
2391	-0.505900706267413 
2392	-0.32239165910017 
2393	 2.69361356805335E-02 
2394	 0.175108724489085 
2395	 0.205879742115682 
2396	 0.184156251332356 
2397	 0.231998710084576 
2398	 0.251031046994474 
2399	 2.59897338456495E-02 
2400	-0.203087153371557 
2401	-0.431499066825707 
2402	-0.558193232564348 
2403	-0.44999354389072 
2404	-0.342638263948823 
2405	-0.116165158635634 
2406	-0.170702131649462 
2407	-0.620291587915877 
2408	-0.961074821146906 
2409	-2.41786819272128 
2410	-1.27197310819786 
2411	-0.261188795360411 
2412	-0.277939856494854 
2413	-0.218855548053077 
2414	-0.284904394078092 
2415	-0.322697288223492 
2416	-0.192555400280657 
2417	-0.487746714179589 
2418	-2.44500818240909 
2419	 0.527918071362523 
2420	-1.63620184613201E-02 
2421	-0.394765255353865 
2422	-2.83527122017294 
2423	-0.156973184681366 
2424	-0.851535039210227 
2425	-1.10286151968175 
2426	-2.59048576573574 
2427	-1.09759280443657 
2428	-0.519571894383244 
2429	-0.678023023567078 
2430	-0.556302732721317 
2431	-0.414842690731965 
2432	-0.534713368993956 
2433	-0.578141275594628 
2434	-0.587621448911449 
2435	 6.10892804495244 
2436	 1.3780791903228 
2437	 1.01223209471124 
2438	 0.833246531491865 
2439	 0.637472660610344 
2440	 0.447810548339405 
2441	 1.08602909918685 
2442	 2.21233303547746 
2443	 2.33250391085157 
2444	 5.39386591811158 
2445	-16.5361895289393 
2446	 234.954097335477 
2447	-1.09046818724199 
2448	-0.971229928814837 
2449	-1.20705882372262 
2450	-1.88051242938777 
2451	 12.9024216921577 
2452	 1.63596375859767 
2453	 0.725166340865939 
2454	 0.381009100250412 
2455	 0.278635067462287 
2456	 2.08335408568891 
2457	 8.06488769196017 
2458	 0.936903826557489 
2459	 1.23953587932486 
2460	 1.05590326258117 
2461	 1.63148770053906 
2462	 2.11804658143613 
2463	 1.74075383231312 
2464	 1.42823658383395 
2465	 6.67483367283303 
2466	 5.17455926705859 
2467	-0.514597529378256 
2468	-0.408327230557066 
2469	 1.06203306042849 
2470	 0.915495143568233 
2471	 0.143391968203805 
2472	 0.344789357559063 
2473	 0.649389476884128 
2474	 0.716203384652489 
2475	 3.03526562818252 
2476	 5.46430001734679 
2477	 12.5614229520351 
2478	 0.261765922632096 
2479	-4.57685110534689E-02 
2480	 2.1143708502609 
2481	 0.442279434752392 
2482	 0.43635574781863 
2483	 0.264830243769768 
2484	-0.298966503587966 
2485	-0.120939750198485 
2486	 0.638937613610606 
2487	 1.50703784943084 
2488	 3.88451312698849 
2489	 5.4999195078482 
2490	 3.87858300532209 
2491	 1.9249185876344 
2492	 0.920849407336549 
2493	 0.495010130826177 
2494	 0.655044317522318 
2495	 0.890152433636765 
2496	 0.830515509256992 
2497	 0.831013887467973 
2498	-0.516111755885445 
2499	-2.36634447181797 
2500	 4.75449857528906 
