Wavelength	rt0801far00006.asd
350	 7.28747629212492E-02 
351	 7.26219677402617E-02 
352	 7.37622533560666E-02 
353	 7.43225116910243E-02 
354	 7.34366084296222E-02 
355	 7.31049293525808E-02 
356	 7.37518783338385E-02 
357	 7.42685639526347E-02 
358	 7.35932631680738E-02 
359	 7.30761022087427E-02 
360	 7.32922479836996E-02 
361	 7.38069857822758E-02 
362	 7.36568498737925E-02 
363	 7.37345083890915E-02 
364	 7.39003363919447E-02 
365	 7.38997750509687E-02 
366	 7.34993200527491E-02 
367	 7.28726182315275E-02 
368	 7.30337737653669E-02 
369	 7.42639085939597E-02 
370	 7.36097247711318E-02 
371	 7.33327343236882E-02 
372	 7.36144818561901E-02 
373	 7.34905698116299E-02 
374	 7.37350553276826E-02 
375	 7.44163773926797E-02 
376	 7.48990871520435E-02 
377	 7.37859981977845E-02 
378	 7.46462958828269E-02 
379	 7.60627011504758E-02 
380	 7.61637658433748E-02 
381	 7.56168378857285E-02 
382	 0.074824441114808 
383	 7.47357679053267E-02 
384	 7.60028494300107E-02 
385	 7.57903256399658E-02 
386	 7.59919967140211E-02 
387	 7.66986719787942E-02 
388	 0.075737576745807 
389	 7.65454080726819E-02 
390	 0.077493594692949 
391	 7.72687860325949E-02 
392	 7.77343721029017E-02 
393	 7.82840105958144E-02 
394	 7.84636926956842E-02 
395	 7.81120765468296E-02 
396	 7.81328144503153E-02 
397	 7.85772126443303E-02 
398	 7.90711452096428E-02 
399	 7.90058021227732E-02 
400	 7.90850114880168E-02 
401	 0.079138839105989 
402	 0.079101001450843 
403	 0.079456258040314 
404	 7.99128940509605E-02 
405	 8.02452755189523E-02 
406	 8.03061988185507E-02 
407	 8.02282168314597E-02 
408	 8.02099195293743E-02 
409	 0.08039723008306 
410	 8.08545807317572E-02 
411	 8.11218710798781E-02 
412	 8.11889766681799E-02 
413	 8.12385394039367E-02 
414	 0.081720076067371 
415	 8.19318724340779E-02 
416	 8.19480868406134E-02 
417	 0.082165595514857 
418	 8.28324861987972E-02 
419	 8.31805287720571E-02 
420	 8.32141954187037E-02 
421	 8.38030503664396E-02 
422	 8.43292338094446E-02 
423	 8.45462203952518E-02 
424	 8.45421551887008E-02 
425	 8.51192425297158E-02 
426	 8.55657455871439E-02 
427	 8.57832561313599E-02 
428	 8.60115013906081E-02 
429	 8.65550614506758E-02 
430	 0.087109166737052 
431	 8.75948511642222E-02 
432	 8.82670270590873E-02 
433	 8.85423312329136E-02 
434	 8.88342964977348E-02 
435	 8.94559597844774E-02 
436	 8.97405600179092E-02 
437	 9.01364793324448E-02 
438	 0.090639503960517 
439	 9.10267573564401E-02 
440	 9.15198803785373E-02 
441	 0.091992670470834 
442	 9.24064254287795E-02 
443	 9.29038094837963E-02 
444	 9.34058432850822E-02 
445	 9.38146629615289E-02 
446	 9.41011504061997E-02 
447	 9.45201446746435E-02 
448	 9.48820438910171E-02 
449	 9.51582101229767E-02 
450	 9.54393348250681E-02 
451	 9.56306042526952E-02 
452	 9.57909432783883E-02 
453	 0.095990731095903 
454	 9.62884789139044E-02 
455	 9.65101471806996E-02 
456	 9.66867323468535E-02 
457	 9.68784763298009E-02 
458	 0.096833709692376 
459	 9.69910301991328E-02 
460	 9.73484302859811E-02 
461	 9.74436426840005E-02 
462	 9.74590259368712E-02 
463	 9.75638176744327E-02 
464	 9.77995515250776E-02 
465	 9.78545321969559E-02 
466	 9.79427446493898E-02 
467	 0.09811626150303 
468	 9.83350530599807E-02 
469	 9.85168194857896E-02 
470	 9.86141779196706E-02 
471	 9.86624856930035E-02 
472	 9.87946758338888E-02 
473	 9.90332284034648E-02 
474	 9.92895012646921E-02 
475	 9.94800214802293E-02 
476	 9.96567236720064E-02 
477	 9.98416394155022E-02 
478	 0.10009081864912 
479	 0.100451720385377 
480	 0.100611522398663 
481	 0.100812512711314 
482	 0.101189632137896 
483	 0.101505799125495 
484	 0.101855718699685 
485	 0.10229027134893 
486	 0.102804203553597 
487	 0.103197636309535 
488	 0.10342135621513 
489	 0.103664137661967 
490	 0.104297952010464 
491	 0.104900631391033 
492	 0.105294957669911 
493	 0.105544314705177 
494	 0.106232973460722 
495	 0.106845781138138 
496	 0.10728158648718 
497	 0.107687608283784 
498	 0.108376032214249 
499	 0.108983937818297 
500	 0.109426459646583 
501	 0.110156575452331 
502	 0.110770619336293 
503	 0.111245675490896 
504	 0.111725631482574 
505	 0.112562231376797 
506	 0.113184685853284 
507	 0.113626497036217 
508	 0.114381334659789 
509	 0.115046941524822 
510	 0.115697256646555 
511	 0.116415618994804 
512	 0.117127914398142 
513	 0.117952866268965 
514	 0.118742412428167 
515	 0.11931318420566 
516	 0.120161247928813 
517	 0.121017343977171 
518	 0.121792053017188 
519	 0.122703573349013 
520	 0.123552043175213 
521	 0.124340332409938 
522	 0.12512541159527 
523	 0.125949900745627 
524	 0.126796780433614 
525	 0.127731156551399 
526	 0.128837382402809 
527	 0.129671489640821 
528	 0.130443212436576 
529	 0.131335024370743 
530	 0.132297488490049 
531	 0.133246940275094 
532	 0.134183372630136 
533	 0.135135312937352 
534	 0.136098825283745 
535	 0.137020849262933 
536	 0.137968524327889 
537	 0.139133570931665 
538	 0.140078093127803 
539	 0.140999936215221 
540	 0.142109806945857 
541	 0.143130116837605 
542	 0.144118489044426 
543	 0.145128398477538 
544	 0.14620282812463 
545	 0.147273094710614 
546	 0.148263529542522 
547	 0.149192603472049 
548	 0.150274683678045 
549	 0.151190825645555 
550	 0.152087666372331 
551	 0.153189111675434 
552	 0.154146699459731 
553	 0.155020766816713 
554	 0.155931692663925 
555	 0.157026015500033 
556	 0.157869724402289 
557	 0.158752510261504 
558	 0.15989780670516 
559	 0.160746530857906 
560	 0.161646492152625 
561	 0.162527385934415 
562	 0.163122496906932 
563	 0.16396134950132 
564	 0.16481664282362 
565	 0.165524832187953 
566	 0.16623915526359 
567	 0.166995830042236 
568	 0.167732854914975 
569	 0.168350091031722 
570	 0.168815171885095 
571	 0.169301126903397 
572	 0.169848045485116 
573	 0.170338615096758 
574	 0.170815035474503 
575	 0.17122236995208 
576	 0.171530262825459 
577	 0.171854312310851 
578	 0.172176818208858 
579	 0.172484210099219 
580	 0.172760879514183 
581	 0.172964735113071 
582	 0.173124445240615 
583	 0.173273616317528 
584	 0.173441916678304 
585	 0.173512732544925 
586	 0.173630589939073 
587	 0.17393977076547 
588	 0.173939865294723 
589	 0.173818693375411 
590	 0.173746336065536 
591	 0.17377788956452 
592	 0.173572360584346 
593	 0.173240607048444 
594	 0.172919306245147 
595	 0.172508974478407 
596	 0.172019877341188 
597	 0.171439913820139 
598	 0.170765994519332 
599	 0.170134035934287 
600	 0.169572334559177 
601	 0.169113069979364 
602	 0.168825023083409 
603	 0.168602993377009 
604	 0.168523913540629 
605	 0.168629497742626 
606	 0.168457638107212 
607	 0.16841963922466 
608	 0.168580371333204 
609	 0.168608907452901 
610	 0.168554020901864 
611	 0.168602641224006 
612	 0.168799584005525 
613	 0.168661880110939 
614	 0.168616579110954 
615	 0.168689060051078 
616	 0.168681115980239 
617	 0.168592915994797 
618	 0.168572762094098 
619	 0.168637189334755 
620	 0.168564456294458 
621	 0.168535742971495 
622	 0.168486487437252 
623	 0.168344046572698 
624	 0.168377549107157 
625	 0.168450543569043 
626	 0.168472113445233 
627	 0.168419015181735 
628	 0.168425472351061 
629	 0.168444344683653 
630	 0.168413965986302 
631	 0.168320399377094 
632	 0.168325371925806 
633	 0.168330920423849 
634	 0.16816915006995 
635	 0.168198530202382 
636	 0.168237619107433 
637	 0.168163277626551 
638	 0.168005039230272 
639	 0.167918437931531 
640	 0.167913997310755 
641	 0.167910342996713 
642	 0.16765132416726 
643	 0.167559013323218 
644	 0.167697366545322 
645	 0.167814727820523 
646	 0.167746576487618 
647	 0.167606191546147 
648	 0.167467669803596 
649	 0.167124805519739 
650	 0.166897133114919 
651	 0.166718127069917 
652	 0.166411815784851 
653	 0.166090539664937 
654	 0.165641491116382 
655	 0.165062068225066 
656	 0.1645966417265 
657	 0.164141995290238 
658	 0.163680903765075 
659	 0.163222965032993 
660	 0.162858300352701 
661	 0.162483097233436 
662	 0.162142401748339 
663	 0.161960549004652 
664	 0.161777056679876 
665	 0.161577949596897 
666	 0.161402803712852 
667	 0.161358942302092 
668	 0.161322954438416 
669	 0.161273244060437 
670	 0.161215086807263 
671	 0.161107267257062 
672	 0.160966241573305 
673	 0.160935975672817 
674	 0.16124107556181 
675	 0.161355562193139 
676	 0.161478426840735 
677	 0.161723511716141 
678	 0.161570380291713 
679	 0.161776359369061 
680	 0.162194105976679 
681	 0.162333201141344 
682	 0.162494952511912 
683	 0.16285439334365 
684	 0.163293562576029 
685	 0.163333841464479 
686	 0.163887832805388 
687	 0.164419914206672 
688	 0.164315084570483 
689	 0.164500638183649 
690	 0.164778606259383 
691	 0.164975805539158 
692	 0.164938193303407 
693	 0.164895923571828 
694	 0.16471859602004 
695	 0.164319429870639 
696	 0.163672377931918 
697	 0.163294195940207 
698	 0.163087414979422 
699	 0.162771004308258 
700	 0.162092009231266 
701	 0.161337180046675 
702	 0.160568833551806 
703	 0.159632875975283 
704	 0.158935281488804 
705	 0.158029364857839 
706	 0.156748620500298 
707	 0.155709112263789 
708	 0.154540563150563 
709	 0.153159329214223 
710	 0.151618989914748 
711	 0.150116833130189 
712	 0.148483924981037 
713	 0.146707784803201 
714	 0.144920554171274 
715	 0.143604740417149 
716	 0.142181408523304 
717	 0.140084418871683 
718	 0.138042002410493 
719	 0.13524954771331 
720	 0.132667162158742 
721	 0.130696654753955 
722	 0.128571542576378 
723	 0.12630506087984 
724	 0.124207479893161 
725	 0.121868804439614 
726	 0.119206850212559 
727	 0.116253359972494 
728	 0.11307470886553 
729	 0.109735252625068 
730	 0.106019575659998 
731	 0.102453142349262 
732	 9.94273843462188E-02 
733	 9.69904851012106E-02 
734	 9.49650575916113E-02 
735	 9.32300079270995E-02 
736	 9.16613936829304E-02 
737	 9.06587922428169E-02 
738	 8.98435851084901E-02 
739	 8.89436777711111E-02 
740	 8.84685218730949E-02 
741	 8.81737635549598E-02 
742	 8.79761209665195E-02 
743	 8.78607583062781E-02 
744	 8.77024505253699E-02 
745	 8.75976589663289E-02 
746	 8.76135297051798E-02 
747	 8.77455194552938E-02 
748	 8.77809895459587E-02 
749	 8.77338675072921E-02 
750	 8.76706347096618E-02 
751	 8.75873087228508E-02 
752	 8.76093764046343E-02 
753	 8.77141513522812E-02 
754	 8.77875711132131E-02 
755	 8.77320387128408E-02 
756	 0.087712978006025 
757	 8.78245774306144E-02 
758	 8.80903436938672E-02 
759	 8.87559959595106E-02 
760	 8.92080410461875E-02 
761	 8.86658802875052E-02 
762	 8.90354162033375E-02 
763	 8.94062104015031E-02 
764	 8.94386363006785E-02 
765	 8.92106000875104E-02 
766	 8.92083358597261E-02 
767	 8.93645563900544E-02 
768	 8.96060442878124E-02 
769	 8.98567800098216E-02 
770	 8.99888865380405E-02 
771	 9.01687163987343E-02 
772	 9.04901055017136E-02 
773	 0.090672589108517 
774	 9.09548976091563E-02 
775	 9.13619710464181E-02 
776	 9.18303386437061E-02 
777	 9.24139535201392E-02 
778	 9.26273729245268E-02 
779	 9.27082248510008E-02 
780	 9.35659232432234E-02 
781	 9.40240122141698E-02 
782	 9.43844080108363E-02 
783	 9.49359491933168E-02 
784	 9.52804582280133E-02 
785	 9.59646710267581E-02 
786	 9.67688261854905E-02 
787	 9.72809087234851E-02 
788	 9.77819204074781E-02 
789	 0.09834471634709 
790	 9.89313921199856E-02 
791	 9.94369284492507E-02 
792	 9.98762210052754E-02 
793	 0.100510773133319 
794	 0.101306125981911 
795	 0.101654097003988 
796	 0.102226106232133 
797	 0.102827427006098 
798	 0.103201115978271 
799	 0.10365499809627 
800	 0.10391688476289 
801	 0.104188701873402 
802	 0.104810813991203 
803	 0.105023341433211 
804	 0.10503463959132 
805	 0.105033680425576 
806	 0.105075227830121 
807	 0.105090536192105 
808	 0.105065308541127 
809	 0.105028311154427 
810	 0.105133155020264 
811	 0.104805293543795 
812	 0.104262499243089 
813	 0.104033306739748 
814	 0.103824141123439 
815	 0.103158019237956 
816	 0.102268705807628 
817	 0.101808274840928 
818	 0.10075574277901 
819	 9.93469715845888E-02 
820	 9.79150799862518E-02 
821	 9.68814588017884E-02 
822	 9.50955948677974E-02 
823	 9.30759713360703E-02 
824	 9.14027966836391E-02 
825	 8.95224645240476E-02 
826	 8.68483931263871E-02 
827	 8.39222911708567E-02 
828	 0.081752560517146 
829	 7.93287877460784E-02 
830	 0.076984644997191 
831	 7.49928327209914E-02 
832	 7.35453688494506E-02 
833	 7.22782152572196E-02 
834	 7.09429758394634E-02 
835	 6.97172463383188E-02 
836	 6.92671810056011E-02 
837	 6.83393191573223E-02 
838	 6.74530138185994E-02 
839	 6.71570578648718E-02 
840	 6.71523979046179E-02 
841	 6.68333104348453E-02 
842	 6.62946993976781E-02 
843	 6.58207251935987E-02 
844	 6.50521588654997E-02 
845	 6.48682992628422E-02 
846	 6.49093493803735E-02 
847	 0.064150590558542 
848	 6.39716200614645E-02 
849	 6.37312211875749E-02 
850	 6.31393599565578E-02 
851	 6.26428389969091E-02 
852	 6.24221789446324E-02 
853	 6.23071961638238E-02 
854	 6.20650922279792E-02 
855	 6.15240836835292E-02 
856	 6.12431898773095E-02 
857	 6.10376719935794E-02 
858	 6.06634621478541E-02 
859	 6.04579819675244E-02 
860	 6.04026780911572E-02 
861	 6.01559450292742E-02 
862	 5.94247999554655E-02 
863	 5.92350588311543E-02 
864	 5.89294435286965E-02 
865	 5.84372515992979E-02 
866	 5.82733611082621E-02 
867	 5.81141088982504E-02 
868	 5.77718249585756E-02 
869	 5.72159653977986E-02 
870	 5.65978971184882E-02 
871	 0.056407558879118 
872	 5.63763811661272E-02 
873	 5.61124444727093E-02 
874	 0.05535254608137 
875	 5.47483519995222E-02 
876	 5.43263823232725E-02 
877	 5.39832323334535E-02 
878	 5.40286161287361E-02 
879	 5.36576082495019E-02 
880	 0.052950874394067 
881	 5.23960148793587E-02 
882	 5.19119532424032E-02 
883	 5.16735938509969E-02 
884	 5.14153770680531E-02 
885	 0.050667820176999 
886	 5.01647735661932E-02 
887	 4.99309608784771E-02 
888	 4.98326654293167E-02 
889	 4.96598633816992E-02 
890	 4.93367276667942E-02 
891	 4.87915790157157E-02 
892	 4.82151430471893E-02 
893	 4.82895852702256E-02 
894	 4.78192275855436E-02 
895	 4.72608342775292E-02 
896	 4.73253674302392E-02 
897	 4.76094419650992E-02 
898	 4.70548198039876E-02 
899	 0.045885534624665 
900	 4.50433584151856E-02 
901	 4.57769980403986E-02 
902	 0.044893140368521 
903	 4.39236159310058E-02 
904	 4.49776893024378E-02 
905	 4.36124289732087E-02 
906	 4.32111995368375E-02 
907	 4.33958405346542E-02 
908	 4.15072579756802E-02 
909	 4.24617186255367E-02 
910	 4.29557335453759E-02 
911	 4.20323316092052E-02 
912	 4.15429725767855E-02 
913	 4.03957808634647E-02 
914	 4.05674115471999E-02 
915	 0.041228336325616 
916	 3.87561264977582E-02 
917	 3.78987184950306E-02 
918	 3.78337258333311E-02 
919	 3.73138356729013E-02 
920	 3.57588118085507E-02 
921	 3.63201864980231E-02 
922	 3.66255106294437E-02 
923	 3.52313984901447E-02 
924	 3.50367253727793E-02 
925	 3.29938494335207E-02 
926	 3.09115020019007E-02 
927	 3.14793271781904E-02 
928	 3.34765968902251E-02 
929	 3.45781987946713E-02 
930	 3.35641379325947E-02 
931	 3.11795916904443E-02 
932	 3.47058864608428E-02 
933	 3.71047657217803E-02 
934	 3.44431203887994E-02 
935	 2.93084983841122E-02 
936	 2.93349701883672E-02 
937	 2.90096613267647E-02 
938	 3.07025979106168E-02 
939	 3.63717635701361E-02 
940	 3.74128717995349E-02 
941	 3.21217172897999E-02 
942	 2.74581521072813E-02 
943	 3.14059204887371E-02 
944	 2.55875379687917E-02 
945	 2.40064324324886E-02 
946	 2.38659943611501E-02 
947	 1.65295887724712E-02 
948	 2.72084967237708E-02 
949	 2.87974031428397E-02 
950	 0.023584530137064 
951	 2.91626214658088E-02 
952	 3.17740655432923E-02 
953	 2.61743017941289E-02 
954	 2.22839507498135E-02 
955	 3.32406216053046E-02 
956	 0.035075136734763 
957	 2.92140669375081E-02 
958	 2.22715164012065E-02 
959	 2.14561726624258E-02 
960	 2.18993745980782E-02 
961	 2.54792532436392E-02 
962	 2.89169541747872E-02 
963	 2.74213506982404E-02 
964	 2.81703468747722E-02 
965	 2.67134261592737E-02 
966	 2.29113191656069E-02 
967	 2.02101562163582E-02 
968	 2.25155448504418E-02 
969	 0.025507802596695 
970	 2.58771679644087E-02 
971	 2.29303574452714E-02 
972	 2.50727841058586E-02 
973	 2.59370937124055E-02 
974	 2.35217214878954E-02 
975	 2.18074148694606E-02 
976	 2.12270649322044E-02 
977	 2.26832989191271E-02 
978	 2.51008607940617E-02 
979	 2.61935463228204E-02 
980	 0.026729444956121 
981	 2.50799382661876E-02 
982	 2.37739710886504E-02 
983	 2.67067360829742E-02 
984	 2.26407943520581E-02 
985	 2.34520013950835E-02 
986	 2.71501472641522E-02 
987	 2.27812466265893E-02 
988	 2.57644698877158E-02 
989	 2.86598098000721E-02 
990	 2.71878247515964E-02 
991	 2.25083919378656E-02 
992	 2.33566860459988E-02 
993	 2.55189806780938E-02 
994	 2.65687515553394E-02 
995	 2.64669132126163E-02 
996	 0.025899752631999 
997	 2.55972517768618E-02 
998	 2.54456398403371E-02 
999	 2.50032822094106E-02 
1000	 2.52332451517969E-02 
1001	 2.33444068863201E-02 
1002	 2.36863039906357E-02 
1003	 2.34242435619943E-02 
1004	 2.25668462742751E-02 
1005	 0.022670674744311 
1006	 2.28872323417786E-02 
1007	 2.26967195604084E-02 
1008	 2.34094461465012E-02 
1009	 2.42549881724303E-02 
1010	 2.38659201367386E-02 
1011	 0.023306236555506 
1012	 2.29440929691574E-02 
1013	 2.23109396091104E-02 
1014	 2.18256356693382E-02 
1015	 2.07269059352316E-02 
1016	 2.09949749698046E-02 
1017	 2.25422609439498E-02 
1018	 2.29582790616493E-02 
1019	 2.37863367215731E-02 
1020	 2.40472981523319E-02 
1021	 2.34604724960079E-02 
1022	 2.25335876140827E-02 
1023	 2.30198737473266E-02 
1024	 2.31716645752104E-02 
1025	 2.21495663166253E-02 
1026	 2.18469612846875E-02 
1027	 2.19718155414135E-02 
1028	 2.16578714851289E-02 
1029	 2.22511282461793E-02 
1030	 2.47417530755976E-02 
1031	 2.51920327298457E-02 
1032	 2.46854205010265E-02 
1033	 2.46285526242738E-02 
1034	 0.023882150597467 
1035	 0.023536024063711 
1036	 2.36196020934838E-02 
1037	 2.35816927285149E-02 
1038	 2.34341314210423E-02 
1039	 2.32668795489057E-02 
1040	 2.31505683259777E-02 
1041	 0.023725992300696 
1042	 2.41712615109702E-02 
1043	 2.49905066876542E-02 
1044	 2.51922596810556E-02 
1045	 2.55688923740011E-02 
1046	 2.50896405455934E-02 
1047	 2.30949545111154E-02 
1048	 0.022937828303028 
1049	 2.32096747792359E-02 
1050	 0.023556692201263 
1051	 2.55448559960526E-02 
1052	 2.62646434117311E-02 
1053	 2.59775021013362E-02 
1054	 0.026068976918057 
1055	 0.026080189847743 
1056	 0.025942247550314 
1057	 2.57641609624745E-02 
1058	 2.54324335372591E-02 
1059	 0.02571991785035 
1060	 2.63550079112648E-02 
1061	 2.64209026313662E-02 
1062	 2.68449205422278E-02 
1063	 2.67988681498754E-02 
1064	 2.57171611027577E-02 
1065	 2.54814592119639E-02 
1066	 0.025616447857431 
1067	 2.57892965999051E-02 
1068	 2.64235534977817E-02 
1069	 2.66558820442698E-02 
1070	 2.71931255983404E-02 
1071	 2.70525911738667E-02 
1072	 2.60520325893327E-02 
1073	 2.51472725344592E-02 
1074	 2.50283945603659E-02 
1075	 2.50818215873493E-02 
1076	 2.49787048453735E-02 
1077	 2.55316897002994E-02 
1078	 2.57170468357443E-02 
1079	 2.51684372355111E-02 
1080	 0.025241227562461 
1081	 2.62326163148234E-02 
1082	 2.63658207871128E-02 
1083	 2.60744546766285E-02 
1084	 2.58984781331656E-02 
1085	 2.51327418418286E-02 
1086	 2.48958335368485E-02 
1087	 2.50323107117227E-02 
1088	 2.51289929174873E-02 
1089	 2.56862458192042E-02 
1090	 2.58963124681084E-02 
1091	 2.58666245544974E-02 
1092	 0.025686114531041 
1093	 0.025303601194493 
1094	 2.42635720250704E-02 
1095	 2.38232781003323E-02 
1096	 2.34597439787084E-02 
1097	 2.35083040203382E-02 
1098	 2.41359344554253E-02 
1099	 2.45804692263661E-02 
1100	 2.53884833873554E-02 
1101	 2.55605024133387E-02 
1102	 2.55906885311626E-02 
1103	 2.54889870650669E-02 
1104	 2.46822334015873E-02 
1105	 2.41430622361045E-02 
1106	 2.42922079993764E-02 
1107	 2.35373388464826E-02 
1108	 2.39288396660678E-02 
1109	 2.51087133802059E-02 
1110	 0.025044157439335 
1111	 2.46656117767949E-02 
1112	 2.34598150816345E-02 
1113	 0.018617132389286 
1114	 1.80110054530872E-02 
1115	 0.021407477581408 
1116	 2.25203911065998E-02 
1117	 2.74244729103925E-02 
1118	 3.03554153486771E-02 
1119	 2.40447444623715E-02 
1120	 2.36388609438455E-02 
1121	 3.04451994226635E-02 
1122	 4.16820278855406E-02 
1123	 3.37001002562507E-02 
1124	 2.94558678289019E-02 
1125	 3.26096858414685E-02 
1126	 2.15972246162038E-02 
1127	 2.09333572723859E-02 
1128	 2.88795573329167E-02 
1129	 3.00592205370971E-02 
1130	 1.68403759198379E-02 
1131	 1.92810394170392E-02 
1132	 3.62920680188813E-02 
1133	 3.35545482682896E-02 
1134	 0.022337290174724 
1135	 0.022214137167347 
1136	 1.91543286756406E-02 
1137	 1.90284873195344E-02 
1138	 2.62278115916692E-02 
1139	 2.86893557749754E-02 
1140	 0.028391363920052 
1141	 0.028036508053882 
1142	 2.74358883280292E-02 
1143	 3.20420283130305E-02 
1144	 3.75439791823628E-02 
1145	 4.03889503136933E-02 
1146	 4.19457048210824E-02 
1147	 3.53316191176752E-02 
1148	 2.28987984550172E-02 
1149	 1.95032975150614E-02 
1150	 1.88024009119577E-02 
1151	 0.021879596928431 
1152	 2.17966283777364E-02 
1153	 2.29327215429523E-02 
1154	 0.023637695597448 
1155	 2.33284247666791E-02 
1156	 0.023469162827536 
1157	 2.23398762839076E-02 
1158	 2.07184077321568E-02 
1159	 1.83714045013511E-02 
1160	 1.81574258448066E-02 
1161	 1.96647031849596E-02 
1162	 2.00209631790672E-02 
1163	 2.00052433283135E-02 
1164	 1.99723686069826E-02 
1165	 2.03012684373024E-02 
1166	 2.05221382822077E-02 
1167	 1.97659283865247E-02 
1168	 1.93204749767745E-02 
1169	 1.97785918908978E-02 
1170	 1.98991310646875E-02 
1171	 1.97266147833348E-02 
1172	 2.00523403317368E-02 
1173	 2.00499939643581E-02 
1174	 1.93036517740524E-02 
1175	 1.86176551010558E-02 
1176	 1.94534638263332E-02 
1177	 1.97382741239877E-02 
1178	 1.88835919707767E-02 
1179	 1.85229650970085E-02 
1180	 1.84705014335998E-02 
1181	 1.80093320834311E-02 
1182	 1.80145282837672E-02 
1183	 1.88338005853988E-02 
1184	 1.89216795322202E-02 
1185	 1.84728027510221E-02 
1186	 1.84315259164673E-02 
1187	 1.83648536833519E-02 
1188	 1.83992602246936E-02 
1189	 1.83961433988024E-02 
1190	 1.83371551912597E-02 
1191	 0.018391210614565 
1192	 1.84566672084222E-02 
1193	 1.83887730822736E-02 
1194	 1.85170107192679E-02 
1195	 1.85227157663069E-02 
1196	 1.87833519380529E-02 
1197	 1.93442742492301E-02 
1198	 1.90282204206958E-02 
1199	 1.87354152544471E-02 
1200	 1.90140829744254E-02 
1201	 1.87283941409923E-02 
1202	 1.86752642274951E-02 
1203	 1.92755843508645E-02 
1204	 1.92919475317374E-02 
1205	 1.89724556393675E-02 
1206	 1.90575488073432E-02 
1207	 1.93811594259855E-02 
1208	 1.91099881364552E-02 
1209	 0.01858382503036 
1210	 1.86026018106472E-02 
1211	 1.84268007528047E-02 
1212	 1.85741436931277E-02 
1213	 1.91548706006595E-02 
1214	 1.92893843223646E-02 
1215	 1.90312679684403E-02 
1216	 1.89130471771353E-02 
1217	 1.96412045138458E-02 
1218	 2.00854420088087E-02 
1219	 1.97025131655168E-02 
1220	 1.96787042738814E-02 
1221	 1.93394042453831E-02 
1222	 1.82749939340186E-02 
1223	 1.84120119514515E-02 
1224	 1.92620592639123E-02 
1225	 1.90516260885719E-02 
1226	 0.01868520980422 
1227	 1.91014087062904E-02 
1228	 1.93005224851225E-02 
1229	 1.91781830240451E-02 
1230	 1.93991938076816E-02 
1231	 1.93928657453408E-02 
1232	 1.91359303589793E-02 
1233	 1.91051736041907E-02 
1234	 1.90906029499118E-02 
1235	 1.91365058416012E-02 
1236	 0.019261889180504 
1237	 1.91283389184779E-02 
1238	 1.87881189920672E-02 
1239	 1.89580667107676E-02 
1240	 1.88265696587034E-02 
1241	 1.84406281921312E-02 
1242	 1.88966908774998E-02 
1243	 1.92942278334633E-02 
1244	 1.89902640777841E-02 
1245	 1.86854371309798E-02 
1246	 1.85023439127796E-02 
1247	 1.83021949007942E-02 
1248	 1.86728749237861E-02 
1249	 1.90711287746306E-02 
1250	 1.91117380293709E-02 
1251	 1.90574332166017E-02 
1252	 1.86381780265759E-02 
1253	 1.85645349552687E-02 
1254	 1.89062493788898E-02 
1255	 1.91249850717549E-02 
1256	 1.92650690710032E-02 
1257	 1.97753274934759E-02 
1258	 1.98786907825426E-02 
1259	 1.92409860408834E-02 
1260	 1.90880763903417E-02 
1261	 1.92764579317623E-02 
1262	 1.92651466790171E-02 
1263	 1.93360157033173E-02 
1264	 1.93568428932738E-02 
1265	 1.90769965252691E-02 
1266	 1.86170671051978E-02 
1267	 1.84991344310068E-02 
1268	 1.87144897106384E-02 
1269	 1.87560140873885E-02 
1270	 1.87308350962124E-02 
1271	 1.86853153891196E-02 
1272	 1.86618879174898E-02 
1273	 1.87865960758398E-02 
1274	 1.91473645906981E-02 
1275	 1.94686342665695E-02 
1276	 1.92853425975968E-02 
1277	 1.89975658113226E-02 
1278	 1.92599982260923E-02 
1279	 1.93370477522158E-02 
1280	 1.88464904481614E-02 
1281	 1.86157766998308E-02 
1282	 1.83156731161489E-02 
1283	 1.84957234304037E-02 
1284	 1.92680357997582E-02 
1285	 0.019296459127429 
1286	 1.92069067206199E-02 
1287	 1.92585069664368E-02 
1288	 1.89592898778475E-02 
1289	 1.85081267585775E-02 
1290	 1.81683750478291E-02 
1291	 0.017969569527195 
1292	 1.79591072826869E-02 
1293	 1.78087648887511E-02 
1294	 1.84949661638938E-02 
1295	 1.96207976329166E-02 
1296	 1.97431488445776E-02 
1297	 1.93947125139904E-02 
1298	 0.019153482933092 
1299	 1.89878996686738E-02 
1300	 1.90810213956126E-02 
1301	 1.89384302048911E-02 
1302	 1.86901035049024E-02 
1303	 1.83718382743161E-02 
1304	 1.79615120274695E-02 
1305	 1.78997529229673E-02 
1306	 1.78335866999436E-02 
1307	 1.83967552129047E-02 
1308	 1.86288704739007E-02 
1309	 1.84488731848513E-02 
1310	 1.85898762426929E-02 
1311	 1.92097755006177E-02 
1312	 1.89072762275402E-02 
1313	 1.77937837024795E-02 
1314	 1.78782755988306E-02 
1315	 1.83606246275594E-02 
1316	 1.83261373812745E-02 
1317	 1.86863745796645E-02 
1318	 1.91526630088525E-02 
1319	 1.91842703809776E-02 
1320	 1.89017705824324E-02 
1321	 1.87808396442831E-02 
1322	 1.94362123196511E-02 
1323	 0.018957891961958 
1324	 1.82750810242007E-02 
1325	 1.87090663234908E-02 
1326	 1.84327693788289E-02 
1327	 1.77567858807375E-02 
1328	 1.73426338802753E-02 
1329	 1.63250384835986E-02 
1330	 1.62317325777546E-02 
1331	 1.68723522170095E-02 
1332	 1.57423293385793E-02 
1333	 1.48607147665163E-02 
1334	 1.53406167533613E-02 
1335	 1.57291070078118E-02 
1336	 1.44579617569921E-02 
1337	 0.015389846489613 
1338	 0.019814731753853 
1339	 2.12040570465489E-02 
1340	 0.021373364833633 
1341	 2.27268683622091E-02 
1342	 0.023540015478712 
1343	 2.43465880443364E-02 
1344	 2.56144466074852E-02 
1345	 2.74567925595248E-02 
1346	 3.11420427973008E-02 
1347	 3.26293091288628E-02 
1348	 3.49723151087099E-02 
1349	 0.033384680145542 
1350	 2.41000297087353E-03 
1351	-7.00914139016436E-03 
1352	 4.85738571878552E-02 
1353	 5.87368098455999E-02 
1354	 4.18441370739234E-02 
1355	 3.76102251456583E-02 
1356	-7.15009865852146E-02 
1357	-0.210690855907327 
1358	 1.98062300640016E-02 
1359	 0.267930716954966 
1360	 0.590584309597929 
1361	 0.901421745445659 
1362	 0.795411019252735 
1363	 0.633539797539272 
1364	 0.590266270674636 
1365	-0.97344457588575 
1366	-8.24214278493913 
1367	 1.44995924472104 
1368	 5.05436057741364 
1369	 15.9731566244873 
1370	 1.52337533801682 
1371	 1.3151921233113 
1372	 0.734856108448248 
1373	-6.30023705438623E-02 
1374	 2.50815116346114E-02 
1375	 0.521165465541688 
1376	 0.391307844959299 
1377	 1.22255823397032 
1378	 3.87580292550633 
1379	 0.82115416507055 
1380	 0.302556479568709 
1381	 3.44514505508384 
1382	 3.51071763277951 
1383	 0.412447829237815 
1384	 0.468800235376203 
1385	 1.86169204727553 
1386	 1.89892108866172 
1387	 1.60480871244499 
1388	 1.45292004986598 
1389	 0.394735927013846 
1390	 0.131650799435213 
1391	 5.41907744545096E-02 
1392	 0.750543201537757 
1393	 1.22903233585077 
1394	 3.12348609643662 
1395	 8.16230924285599 
1396	 4.41069921879325 
1397	 1.11005991366128 
1398	-1.33017736418054 
1399	-0.362440368232682 
1400	 0.147265931788848 
1401	 1.2811647680993 
1402	 1.43080889505044 
1403	 0.880793195939342 
1404	 0.746999965352633 
1405	 0.55109759160056 
1406	-5.11621931201509E-02 
1407	 0.076296266648607 
1408	 1.61552877680907 
1409	 1.43002724425776 
1410	-0.720860068905286 
1411	-0.224353705804706 
1412	-0.492452113389535 
1413	-0.709482706043992 
1414	 0.505139649949146 
1415	 0.705607116227007 
1416	 0.418504747938397 
1417	 9.90485586745986E-02 
1418	 8.31693557765231E-02 
1419	 0.109696679094356 
1420	 0.189427963774351 
1421	 3.47676878737506E-02 
1422	-0.274260492981311 
1423	-0.168802859908347 
1424	 9.91272355902069E-02 
1425	 6.11839824871989E-02 
1426	 5.52826374101277E-02 
1427	 0.183748046169954 
1428	 0.194970652351942 
1429	 0.121607177083219 
1430	 0.134210890232793 
1431	 0.157177020656228 
1432	 1.39159578402851E-02 
1433	-2.33955057575459E-02 
1434	 0.118930674496704 
1435	 0.169874039396292 
1436	 0.144326352893636 
1437	 0.146446031144263 
1438	 0.217124175398859 
1439	 0.202377009763978 
1440	 0.134400267194057 
1441	 0.151116380624098 
1442	 7.55902434785668E-02 
1443	 1.28222657320167E-02 
1444	 5.65757106018511E-02 
1445	 1.58662826726327E-02 
1446	-2.61103619279187E-02 
1447	 1.43518166491608E-03 
1448	 2.47289799174199E-02 
1449	 3.03451966888199E-02 
1450	 3.64151616297459E-02 
1451	 2.85297584696864E-02 
1452	 1.49872698118192E-02 
1453	 1.00166411053836E-02 
1454	 5.35652031109539E-03 
1455	 7.40075663949712E-03 
1456	 1.18312110908629E-02 
1457	 1.60503804070374E-02 
1458	 1.27299773935289E-02 
1459	 8.52290373949159E-03 
1460	 0.012239456945636 
1461	 1.20917482409646E-02 
1462	 1.47492377621562E-02 
1463	 3.44947129778882E-02 
1464	 3.84357974785801E-02 
1465	 2.65157238589661E-02 
1466	 2.38781997478961E-02 
1467	 2.19348221421874E-02 
1468	 2.07702028492979E-02 
1469	 1.76811362413829E-02 
1470	 2.33672537338221E-02 
1471	 3.96602989061224E-02 
1472	 4.44387372437104E-02 
1473	 5.09071366915549E-02 
1474	 4.99701811219884E-02 
1475	 3.43795936384016E-02 
1476	 3.29544979234506E-02 
1477	 4.14676981915847E-02 
1478	 3.84893861081054E-02 
1479	 3.28431171747258E-02 
1480	 3.04471509785575E-02 
1481	 2.53269915827339E-02 
1482	 2.06308679026286E-02 
1483	 1.96867054602619E-02 
1484	 1.76688176165368E-02 
1485	 1.13853101210475E-02 
1486	 9.40584480109647E-03 
1487	 0.011553622860729 
1488	 0.011982621921176 
1489	 9.97700090436655E-03 
1490	 1.14582139880108E-02 
1491	 1.65572487179666E-02 
1492	 1.67780558150312E-02 
1493	 0.015672967056847 
1494	 1.59259794237857E-02 
1495	 1.46899720018492E-02 
1496	 1.36940628230209E-02 
1497	 0.013587271629609 
1498	 1.39010993321896E-02 
1499	 1.40910386375518E-02 
1500	 1.37833819590365E-02 
1501	 1.36072031706323E-02 
1502	 1.42499506741889E-02 
1503	 1.49922069347418E-02 
1504	 1.51463764912669E-02 
1505	 1.60358145579288E-02 
1506	 1.60500087804088E-02 
1507	 1.59760071003594E-02 
1508	 1.54617889274543E-02 
1509	 1.49464049247722E-02 
1510	 1.53574628194061E-02 
1511	 1.54619353219141E-02 
1512	 1.51499094713556E-02 
1513	 1.53564597007383E-02 
1514	 1.54570055630166E-02 
1515	 1.56652091212046E-02 
1516	 1.61933077870585E-02 
1517	 1.57341800223558E-02 
1518	 1.54851942270347E-02 
1519	 0.016043348766346 
1520	 1.53621885949671E-02 
1521	 1.45484696549672E-02 
1522	 1.50130610041555E-02 
1523	 1.55555508938635E-02 
1524	 1.58994554680146E-02 
1525	 1.64653096611721E-02 
1526	 1.68104686613878E-02 
1527	 1.62425640718157E-02 
1528	 1.53750779021237E-02 
1529	 1.49916162385198E-02 
1530	 1.51525428016691E-02 
1531	 1.56284830442946E-02 
1532	 1.57840277952157E-02 
1533	 0.015861021690953 
1534	 1.57714842851061E-02 
1535	 1.53877818900624E-02 
1536	 1.56001614622333E-02 
1537	 0.01594714598651 
1538	 1.58791551500022E-02 
1539	 1.59076772983137E-02 
1540	 1.63639195420357E-02 
1541	 1.66610871590474E-02 
1542	 1.64204006073489E-02 
1543	 1.62990997113852E-02 
1544	 1.62694192412386E-02 
1545	 1.61072460379257E-02 
1546	 1.62563350401152E-02 
1547	 1.63871989168516E-02 
1548	 1.59612640211288E-02 
1549	 1.54843016969953E-02 
1550	 1.53822318103041E-02 
1551	 1.57677460605323E-02 
1552	 1.62626408446147E-02 
1553	 1.59316909547806E-02 
1554	 0.015378650668202 
1555	 1.57462720966429E-02 
1556	 1.57641017887523E-02 
1557	 1.52767751352444E-02 
1558	 0.015511271325749 
1559	 1.59655525886548E-02 
1560	 1.58871721989293E-02 
1561	 1.55846669474962E-02 
1562	 0.015871946779547 
1563	 1.59162684342031E-02 
1564	 1.53705393186819E-02 
1565	 0.01535387254131 
1566	 1.57416668888546E-02 
1567	 1.57186196484464E-02 
1568	 1.52353863890317E-02 
1569	 1.44335805320753E-02 
1570	 0.014202760458177 
1571	 1.53197109800782E-02 
1572	 1.56688123133654E-02 
1573	 1.52508144874373E-02 
1574	 1.61308648374242E-02 
1575	 0.016195783988778 
1576	 1.51392259856145E-02 
1577	 1.57979902340401E-02 
1578	 1.62996921796461E-02 
1579	 0.015815118560457 
1580	 1.57602010603821E-02 
1581	 1.51306324764845E-02 
1582	 1.46572368134781E-02 
1583	 1.44154629764581E-02 
1584	 1.45385450665209E-02 
1585	 1.54668596163269E-02 
1586	 1.58002228087284E-02 
1587	 1.60303609096339E-02 
1588	 1.64257082976348E-02 
1589	 1.61413748307289E-02 
1590	 1.60081838227923E-02 
1591	 1.64468553439754E-02 
1592	 1.62887879526788E-02 
1593	 1.61250401772245E-02 
1594	 1.63301666494071E-02 
1595	 1.60402026366025E-02 
1596	 1.59948130644007E-02 
1597	 1.62134254872265E-02 
1598	 0.016138784548846 
1599	 1.61958114718852E-02 
1600	 1.63151407029411E-02 
1601	 1.64096120871711E-02 
1602	 1.71159840062066E-02 
1603	 1.77989706878444E-02 
1604	 1.72667582518522E-02 
1605	 1.67830249755512E-02 
1606	 0.017080972384823 
1607	 1.67364781792859E-02 
1608	 1.61236606616763E-02 
1609	 1.61545444041247E-02 
1610	 0.016243910725013 
1611	 1.60624925165153E-02 
1612	 1.61439005791676E-02 
1613	 1.66796952560298E-02 
1614	 1.65170047033702E-02 
1615	 1.62181810466726E-02 
1616	 1.70467099365083E-02 
1617	 1.71459481839055E-02 
1618	 1.61380770737556E-02 
1619	 1.63032994110438E-02 
1620	 1.68311020985543E-02 
1621	 1.66198627988244E-02 
1622	 1.67003238120033E-02 
1623	 1.65668651412781E-02 
1624	 1.63301825964494E-02 
1625	 1.62566061004374E-02 
1626	 1.58690476007762E-02 
1627	 1.56251097884597E-02 
1628	 1.55208641654806E-02 
1629	 1.61830929723576E-02 
1630	 1.75603740516254E-02 
1631	 1.77533909093339E-02 
1632	 1.68316161251189E-02 
1633	 1.62829856215879E-02 
1634	 1.61951268103572E-02 
1635	 1.67422449603722E-02 
1636	 1.73924014108349E-02 
1637	 1.72941366126467E-02 
1638	 0.017127640608779 
1639	 1.68956788521737E-02 
1640	 1.66074389116428E-02 
1641	 1.67408036127362E-02 
1642	 1.68124706921772E-02 
1643	 1.63207108715918E-02 
1644	 1.63605663202279E-02 
1645	 1.71689355161626E-02 
1646	 1.70606655806681E-02 
1647	 1.65967029611973E-02 
1648	 0.016989152308321 
1649	 1.69613358461962E-02 
1650	 1.59092217610358E-02 
1651	 1.56928423098628E-02 
1652	 1.66341257052737E-02 
1653	 1.67775387676145E-02 
1654	 1.65605209144028E-02 
1655	 1.59016027515543E-02 
1656	 1.56898001028601E-02 
1657	 1.54413866980568E-02 
1658	 1.57896563884413E-02 
1659	 1.74957123359059E-02 
1660	 1.78392581099841E-02 
1661	 1.71613945024639E-02 
1662	 1.67411565371743E-02 
1663	 1.58410009884133E-02 
1664	 1.61936986582377E-02 
1665	 1.73807085544023E-02 
1666	 1.75242605746932E-02 
1667	 1.76327611431111E-02 
1668	 1.63145854059317E-02 
1669	 1.69635482130255E-02 
1670	 1.79278048412123E-02 
1671	 1.70420054390555E-02 
1672	 1.65139309132647E-02 
1673	 1.67974908643962E-02 
1674	 1.67517180145132E-02 
1675	 1.70806577968313E-02 
1676	 1.81736607123647E-02 
1677	 1.82805127789576E-02 
1678	 1.75783535639245E-02 
1679	 1.78098575885193E-02 
1680	 1.79869950784606E-02 
1681	 1.70615540891616E-02 
1682	 1.60547414353416E-02 
1683	 1.53719807144244E-02 
1684	 1.54955048352627E-02 
1685	 1.60120688558102E-02 
1686	 0.016211071797059 
1687	 1.67912220224019E-02 
1688	 1.63626274092912E-02 
1689	 0.015669214136609 
1690	 0.016219074639484 
1691	 1.60184871481364E-02 
1692	 1.57125889431166E-02 
1693	 1.54795331724375E-02 
1694	 0.014869720066604 
1695	 1.59140890804877E-02 
1696	 1.69552016050519E-02 
1697	 1.65468814629146E-02 
1698	 1.67335605011935E-02 
1699	 1.67622431874333E-02 
1700	 0.015931473002161 
1701	 1.67329143749659E-02 
1702	 1.77163866141956E-02 
1703	 1.67704514225507E-02 
1704	 0.016633431643784 
1705	 1.71121789344018E-02 
1706	 1.61964359001992E-02 
1707	 1.58953029371063E-02 
1708	 1.66353604474091E-02 
1709	 1.56120062941193E-02 
1710	 1.47610499567046E-02 
1711	 1.55788481205446E-02 
1712	 1.48596523927468E-02 
1713	 1.41171889439666E-02 
1714	 1.45089479205477E-02 
1715	 1.34835682368039E-02 
1716	 1.44042872590321E-02 
1717	 1.68059032568534E-02 
1718	 1.67282148279796E-02 
1719	 1.66401202920454E-02 
1720	 1.81343898485078E-02 
1721	 1.72613859812798E-02 
1722	 0.015970780542414 
1723	 1.69966443747265E-02 
1724	 1.67347510809191E-02 
1725	 1.63861811005529E-02 
1726	 1.67602803372758E-02 
1727	 1.59147774322353E-02 
1728	 1.65181471229534E-02 
1729	 1.78378130443863E-02 
1730	 1.76060078281618E-02 
1731	 1.71840037750352E-02 
1732	 1.62968503795148E-02 
1733	 1.47382971837736E-02 
1734	 1.49397486432435E-02 
1735	 0.015162508412355 
1736	 1.33998839392155E-02 
1737	 0.013500305347694 
1738	 1.49891689328143E-02 
1739	 1.60226561980974E-02 
1740	 1.71426672179349E-02 
1741	 1.69479207761538E-02 
1742	 1.59526512385864E-02 
1743	 0.015543952327187 
1744	 1.64492102810852E-02 
1745	 1.76593059320895E-02 
1746	 1.77219891482251E-02 
1747	 1.80930154585134E-02 
1748	 1.76000803215392E-02 
1749	 1.74764110276805E-02 
1750	 1.87879078981723E-02 
1751	 1.90241166085772E-02 
1752	 1.87546813741814E-02 
1753	 1.80863979710625E-02 
1754	 0.015533658860188 
1755	 1.52030646217377E-02 
1756	 1.69201317930918E-02 
1757	 1.63021205490772E-02 
1758	 1.44874710842482E-02 
1759	 1.25938905039006E-02 
1760	 1.14529252348666E-02 
1761	 1.31733422262136E-02 
1762	 1.72122824440756E-02 
1763	 1.85972988657556E-02 
1764	 1.79612036633402E-02 
1765	 1.65669381482344E-02 
1766	 1.40791080008089E-02 
1767	 1.33638471768057E-02 
1768	 1.43921235040176E-02 
1769	 1.46592760022444E-02 
1770	 1.42836315070962E-02 
1771	 1.45239619998305E-02 
1772	 1.33504946068455E-02 
1773	 1.11841934967859E-02 
1774	 1.18149808878315E-02 
1775	 1.26974435200044E-02 
1776	 1.14647188790936E-02 
1777	 9.73722677910488E-03 
1778	 1.02906569039328E-02 
1779	 8.6164916153987E-03 
1780	 1.01582510204447E-02 
1781	 1.95533330254315E-02 
1782	 2.31200100942338E-02 
1783	 2.59909289159899E-02 
1784	 2.56594139802498E-02 
1785	 0.017453359534405 
1786	 1.59513725247406E-02 
1787	 1.18404321119053E-02 
1788	 1.32259501077431E-02 
1789	 0.028938291556716 
1790	 3.22004001200216E-02 
1791	 3.26910266871563E-02 
1792	 2.91307629534433E-02 
1793	 1.19380140948015E-02 
1794	 1.42131738799809E-02 
1795	 2.05472080435001E-02 
1796	 4.47337748831937E-02 
1797	 0.083188493686481 
1798	 6.53856177461423E-02 
1799	 7.59183646030725E-02 
1800	 8.43925085664157E-02 
1801	 6.37509997920322E-02 
1802	 2.25689438583132E-02 
1803	-1.43230846763359E-03 
1804	-8.18561767739905E-02 
1805	-0.132102115183877 
1806	 0.066982384354476 
1807	 5.54240493593113E-02 
1808	-0.391979640168046 
1809	-0.647995230164449 
1810	-1.12147345554736 
1811	-0.806673079593538 
1812	 0.302252096311945 
1813	 0.559774922616805 
1814	 1.22732165425717 
1815	 1.53914116803916 
1816	 0.544716717145171 
1817	-7.57372276242281 
1818	-0.982803081263086 
1819	-0.193529676132542 
1820	-0.126914800510727 
1821	-0.793868524537945 
1822	-0.750078663658495 
1823	-0.397671337857362 
1824	-0.194170191045461 
1825	-12.6888940614614 
1826	-4.23019121180542 
1827	 5.99648606067842 
1828	 0.557572376663894 
1829	-0.681583345390817 
1830	-0.809483473177138 
1831	 0.231954926473801 
1832	-7.59200013986199E-03 
1833	-1.28996484238828 
1834	-5.80941971033371 
1835	 1.19483265918843 
1836	 0.864300357804533 
1837	 0.256762650367043 
1838	 0.160116396176925 
1839	 0.426275196798881 
1840	 0.988604458104269 
1841	 0.276489858095807 
1842	 0.737264666375232 
1843	 0.948964651698031 
1844	 0.755527216203372 
1845	 0.804563119724796 
1846	 1.69232685247156 
1847	 1.95356242974981 
1848	 1.20583812702153 
1849	 1.62518555409066 
1850	 1.79724424542675 
1851	 1.77960158580678 
1852	 1.42483121498372 
1853	 0.793015240608025 
1854	 0.649638858200122 
1855	 0.727853912591093 
1856	 0.619160421137413 
1857	 0.562643487923975 
1858	 0.504966908726917 
1859	 0.227091858401965 
1860	-2.79873726280205E-02 
1861	 0.580758101368563 
1862	 0.567406957673668 
1863	-0.748676913009483 
1864	-0.221356890804865 
1865	-0.502201674538866 
1866	-3.29014750280752 
1867	-8.22684935824381 
1868	 2.05111548068609 
1869	-1.09404187520715 
1870	-1.97241680393847E-02 
1871	-0.463201065837974 
1872	-0.551514725089247 
1873	-0.305016694414526 
1874	-0.581857350122252 
1875	-0.524876520814873 
1876	-0.672324820161483 
1877	-0.914010235890415 
1878	-0.950190302178463 
1879	-0.802316731900537 
1880	-1.03897778496428 
1881	-1.48104292870899 
1882	-2.63151020208359 
1883	 42.2405822963174 
1884	 2.52606839674889 
1885	 1.69719175772021 
1886	 0.85967033830589 
1887	 0.382003225672719 
1888	-8.91969958431299E-02 
1889	 0.323269450894483 
1890	 5.73779165798858 
1891	-13.5668528286025 
1892	-6.59032235587332 
1893	-10.8809082320994 
1894	-3.05906136803924 
1895	-0.106944475764149 
1896	-5.96552185056733E-02 
1897	 0.257226597374374 
1898	 0.467798499718947 
1899	 0.455229365639123 
1900	 0.480245861991699 
1901	 0.651473295976374 
1902	 0.557759365504624 
1903	 3.52274184525942E-02 
1904	-0.267853261321261 
1905	-0.459723537686723 
1906	-0.618738148965514 
1907	-0.482817081049481 
1908	-0.265941757543377 
1909	-0.120941595836407 
1910	 0.130710969738669 
1911	 0.415350496441168 
1912	 0.967688321857868 
1913	 1.61478015406613 
1914	 2.16023100775015 
1915	 6.2336448041194 
1916	-6.65393791813453 
1917	-3.51917345209852 
1918	-1.03042289952626 
1919	-1.05177929286927 
1920	-1.79156919939824 
1921	-4.99568638316998 
1922	 2.78675006385645 
1923	 0.641320532121379 
1924	 0.457746100662332 
1925	 1.0716367214142 
1926	 2.20722534829056 
1927	 11.0188774054592 
1928	-6.55966767426835 
1929	-3.59443952340062 
1930	-6.47297126309032 
1931	-7.79019151990695 
1932	-90.7309598768233 
1933	 1.69488982255059 
1934	 0.861778064001008 
1935	 0.387348458966494 
1936	 1.60768851322534 
1937	-91.2610908295047 
1938	-10.6935443412462 
1939	-9.14412631506445 
1940	-4.0979155360396 
1941	-2.89749418453974 
1942	 1.46630767206854 
1943	 4.03960725818951 
1944	 1.33442718353104 
1945	 0.377495393863344 
1946	-0.110241927335834 
1947	-0.415513633415774 
1948	-1.01759456208553 
1949	-1.995242180235 
1950	-1.22687187385242 
1951	-0.486174965525659 
1952	-0.184002695373879 
1953	 8.22524817469271E-02 
1954	 0.163170221928195 
1955	 7.81686803334074E-02 
1956	-5.70745168596317E-02 
1957	-0.148806932524696 
1958	-0.173650539722487 
1959	-0.167414664304652 
1960	-0.168632700225861 
1961	-0.135023003930397 
1962	-6.47756734278765E-02 
1963	-3.46458853174667E-02 
1964	-2.31803908250595E-02 
1965	-1.43940715019252E-02 
1966	-1.87815460251177E-03 
1967	-3.56329434781288E-03 
1968	 1.79567689015974E-02 
1969	 3.92307063024815E-02 
1970	 3.26033317167107E-02 
1971	 1.29248351372974E-02 
1972	 1.16852766682639E-02 
1973	 2.01646338918739E-02 
1974	 0.027350440900991 
1975	 3.70383009216439E-02 
1976	 0.038789203974891 
1977	 2.83886689621226E-02 
1978	 1.63634225716678E-02 
1979	 1.06591479583028E-02 
1980	 9.40133234550628E-03 
1981	 6.62443150530908E-03 
1982	 2.82055063787581E-03 
1983	 5.54756367666209E-03 
1984	 1.07018865239613E-02 
1985	 1.12826148276309E-02 
1986	 1.13969450194908E-02 
1987	 1.41207610231727E-02 
1988	 1.46952281244478E-02 
1989	 1.48732823881646E-02 
1990	 1.74004329426151E-02 
1991	 1.69908569935671E-02 
1992	 1.51610509801603E-02 
1993	 1.24815075120342E-02 
1994	 8.77789975380121E-03 
1995	 7.01497915792759E-04 
1996	-3.75459857160186E-03 
1997	-2.25519657768039E-03 
1998	-2.0785470983716E-03 
1999	 3.87981025393186E-04 
2000	 7.87529356234868E-03 
2001	 1.17134324270982E-02 
2002	 2.35145926146335E-02 
2003	 4.28861984560766E-02 
2004	 4.53694092839326E-02 
2005	 3.83594186841037E-02 
2006	 2.89457815141835E-02 
2007	 1.95950672496199E-02 
2008	 1.73418045457409E-02 
2009	 1.56261410452298E-02 
2010	 1.92098316157619E-02 
2011	 2.29263662379533E-02 
2012	 2.33384793585095E-02 
2013	 3.57195116701235E-02 
2014	 0.042753612193397 
2015	 3.66311499034709E-02 
2016	 0.034661157790089 
2017	 2.62061859263115E-02 
2018	 2.08103435216092E-02 
2019	 3.04888640710207E-02 
2020	 3.05548153506085E-02 
2021	 0.025366407960022 
2022	 2.08315027254352E-02 
2023	 1.44689102828028E-02 
2024	 0.013158130423373 
2025	 1.53495966199917E-02 
2026	 1.45775965212584E-02 
2027	 1.40953648430034E-02 
2028	 1.47316018324629E-02 
2029	 1.50235447276981E-02 
2030	 1.69361236953459E-02 
2031	 1.77582125542904E-02 
2032	 1.65164678664653E-02 
2033	 1.33008315790449E-02 
2034	 0.01000983353164 
2035	 9.32010298381006E-03 
2036	 1.00564444290649E-02 
2037	 9.47614031100496E-03 
2038	 9.12712799508406E-03 
2039	 9.87162929476152E-03 
2040	 1.15452676465009E-02 
2041	 1.15241477410767E-02 
2042	 1.14986495714648E-02 
2043	 1.22354691264952E-02 
2044	 1.19729703578779E-02 
2045	 1.21934752538402E-02 
2046	 1.32578601907535E-02 
2047	 1.63650115262593E-02 
2048	 0.017571436778748 
2049	 0.016971190440676 
2050	 0.019090135429741 
2051	 1.75886885571039E-02 
2052	 1.26700299127113E-02 
2053	 0.010262715492819 
2054	 7.19834322771019E-03 
2055	 4.68251398499685E-03 
2056	 4.39233838236197E-03 
2057	 7.40622201725712E-03 
2058	 8.56778509720228E-03 
2059	 1.13876203651595E-02 
2060	 1.14302884956058E-02 
2061	 9.55866559384196E-03 
2062	 8.92131944470047E-03 
2063	 5.6480108610341E-03 
2064	 4.5415849569466E-03 
2065	 6.82504515934792E-03 
2066	 7.47482883493464E-03 
2067	 0.010935892135892 
2068	 1.81960942460722E-02 
2069	 2.19541246621907E-02 
2070	 2.10627629939611E-02 
2071	 1.59966600699176E-02 
2072	 1.22953544332363E-02 
2073	 1.24525612625599E-02 
2074	 1.48343748813884E-02 
2075	 1.54552670538549E-02 
2076	 1.99542478180895E-02 
2077	 1.96747491692277E-02 
2078	 1.37127682631452E-02 
2079	 1.20741579171591E-02 
2080	 1.19762189655743E-02 
2081	 1.12583303618623E-02 
2082	 1.03532474769894E-02 
2083	 1.24481676228025E-02 
2084	 1.27808915847035E-02 
2085	 1.21861600191835E-02 
2086	 0.013969434678263 
2087	 1.26238857044365E-02 
2088	 1.04275150170808E-02 
2089	 1.06159926276186E-02 
2090	 8.45552306576729E-03 
2091	 7.85573032714226E-03 
2092	 8.18053365355281E-03 
2093	 9.77247704932599E-03 
2094	 1.01183115103817E-02 
2095	 1.18558397753768E-02 
2096	 1.18483749616462E-02 
2097	 9.47763255361062E-03 
2098	 9.37196107041218E-03 
2099	 9.6665431781957E-03 
2100	 1.00856913229181E-02 
2101	 0.0110102746813 
2102	 1.16180883984415E-02 
2103	 1.35593912664887E-02 
2104	 1.30396653347985E-02 
2105	 1.32072899180761E-02 
2106	 1.67537223585592E-02 
2107	 1.81412496481261E-02 
2108	 1.93002662728131E-02 
2109	 1.89240809968593E-02 
2110	 1.79910524686915E-02 
2111	 1.64761179746794E-02 
2112	 0.011983548379211 
2113	 1.05373135074946E-02 
2114	 1.08695378374423E-02 
2115	 1.03924809510513E-02 
2116	 1.10544555476867E-02 
2117	 1.20437976224379E-02 
2118	 1.23456746849461E-02 
2119	 1.25295111858574E-02 
2120	 1.27519030431463E-02 
2121	 1.45948393268621E-02 
2122	 1.59889327281063E-02 
2123	 1.81994762448653E-02 
2124	 1.79659270262259E-02 
2125	 1.43429457413869E-02 
2126	 1.18687871293615E-02 
2127	 1.00545361431334E-02 
2128	 1.04470997393722E-02 
2129	 0.012887225335319 
2130	 1.26837242135428E-02 
2131	 1.20128788858565E-02 
2132	 1.14050517094214E-02 
2133	 1.16596536374609E-02 
2134	 1.17766135562822E-02 
2135	 0.011535543465123 
2136	 1.19301736398038E-02 
2137	 0.013281586831775 
2138	 1.41087373801565E-02 
2139	 1.55029051233924E-02 
2140	 0.016638600102532 
2141	 1.62862698257906E-02 
2142	 1.70735142828672E-02 
2143	 1.87501593985953E-02 
2144	 2.06704193717077E-02 
2145	 2.16383539238457E-02 
2146	 2.08009283494231E-02 
2147	 1.70269824699221E-02 
2148	 1.29997872362674E-02 
2149	 1.12874117014154E-02 
2150	 1.18935875620884E-02 
2151	 0.012563502386389 
2152	 1.41771799184352E-02 
2153	 1.47796210008462E-02 
2154	 1.36969870516754E-02 
2155	 1.55792063667948E-02 
2156	 1.67374011971126E-02 
2157	 1.69351497854996E-02 
2158	 1.81959393475211E-02 
2159	 1.60582812104559E-02 
2160	 8.56083126196537E-03 
2161	 8.04345364376857E-03 
2162	 8.19807766896488E-03 
2163	 9.57507363285276E-03 
2164	 1.91628737551414E-02 
2165	 2.09037659707775E-02 
2166	 1.74667092210171E-02 
2167	 0.016109585494439 
2168	 1.16971788170383E-02 
2169	 9.46448953506558E-03 
2170	 8.72076458959823E-03 
2171	 8.33445069626095E-03 
2172	 9.54612731589527E-03 
2173	 0.012109329689749 
2174	 1.40564961036491E-02 
2175	 1.67375445402379E-02 
2176	 0.018608781194783 
2177	 0.015950371709216 
2178	 0.013253140964812 
2179	 1.36932613340401E-02 
2180	 9.2835704611652E-03 
2181	 4.46815499234365E-03 
2182	 4.28788857515055E-03 
2183	 2.73355977889404E-03 
2184	 3.74597732289804E-03 
2185	 9.09146936694371E-03 
2186	 1.28147405897017E-02 
2187	 1.73496086474165E-02 
2188	 1.86067876218342E-02 
2189	 1.93057699846303E-02 
2190	 1.90386228839933E-02 
2191	 1.42724762752346E-02 
2192	 1.26504851266445E-02 
2193	 1.10761823772226E-02 
2194	 1.11627809229698E-02 
2195	 1.47250969215153E-02 
2196	 1.69442522478429E-02 
2197	 2.14457776587164E-02 
2198	 2.20580246868715E-02 
2199	 2.05051703708056E-02 
2200	 1.61828377788747E-02 
2201	 9.14257789023608E-03 
2202	 7.76401831097537E-03 
2203	 9.95343472016806E-03 
2204	 7.73413837773305E-03 
2205	 1.09599349147504E-02 
2206	 1.33062890760581E-02 
2207	 1.17343404144227E-02 
2208	 1.36212330003387E-02 
2209	 0.013162173756397 
2210	 1.42295870545117E-02 
2211	 1.64402622568374E-02 
2212	 1.67583627762215E-02 
2213	 1.77553875265921E-02 
2214	 1.83935350531936E-02 
2215	 1.42068203657198E-02 
2216	 9.60683832160878E-03 
2217	 6.52934446129306E-03 
2218	 6.08780395309126E-04 
2219	-2.22140536045274E-03 
2220	-2.92724588963685E-03 
2221	-3.47016020156931E-04 
2222	 5.15396267262616E-03 
2223	 8.50849291573314E-03 
2224	 1.69324094379386E-02 
2225	 0.018481359480971 
2226	 1.38300107784397E-02 
2227	 0.015037500297126 
2228	 1.59911310238873E-02 
2229	 1.66129945822544E-02 
2230	 1.99723660037265E-02 
2231	 1.98917560066529E-02 
2232	 1.33083204771723E-02 
2233	 1.49606492105709E-02 
2234	 2.09047401617942E-02 
2235	 2.79302388453194E-02 
2236	 3.51574422251111E-02 
2237	 3.70193630356965E-02 
2238	 3.19692526576025E-02 
2239	 2.65471851776039E-02 
2240	 2.04531330027943E-02 
2241	 2.00871658635999E-02 
2242	 2.02524169993542E-02 
2243	 1.67923942348625E-02 
2244	 1.41239917203745E-02 
2245	 1.01503223329238E-02 
2246	 1.08299387130883E-02 
2247	 1.21725885716918E-02 
2248	 0.015294065456759 
2249	 2.47423673190893E-02 
2250	 2.27718650071324E-02 
2251	 1.77986242470502E-02 
2252	 1.69295730581522E-02 
2253	 1.14588274346605E-02 
2254	 1.08564779774644E-02 
2255	 1.26881872214745E-02 
2256	 8.21064759367698E-03 
2257	 2.52197393480058E-04 
2258	 2.81944263072952E-03 
2259	 1.23848254896971E-02 
2260	 1.54787532607322E-02 
2261	 2.51190801805082E-02 
2262	 2.59066239775673E-02 
2263	 1.33229382096865E-02 
2264	 0.011630571219947 
2265	 0.012971389174885 
2266	 0.011143038452825 
2267	 0.010530596850606 
2268	 1.08369829974819E-02 
2269	 1.25962670579299E-02 
2270	 1.39271892555952E-02 
2271	 1.64155871244625E-02 
2272	 1.58996166470925E-02 
2273	 8.19687178469781E-03 
2274	 7.54165266146612E-03 
2275	 1.40567376025767E-02 
2276	 1.62014920504631E-02 
2277	 0.018557454723311 
2278	 2.07996657017116E-02 
2279	 1.80706256550278E-02 
2280	 2.16914634556589E-02 
2281	 3.25839307753483E-02 
2282	 3.71335378947349E-02 
2283	 3.68604274715019E-02 
2284	 3.50098398550384E-02 
2285	 3.18816323280927E-02 
2286	 3.34788203565443E-02 
2287	 3.41944368793739E-02 
2288	 3.46772199804242E-02 
2289	 3.34189714085538E-02 
2290	 2.14793236293801E-02 
2291	 1.24295698745017E-02 
2292	 8.51810071964172E-03 
2293	 7.16784809635013E-04 
2294	-8.90806293355288E-03 
2295	-6.74059205163088E-03 
2296	 5.52079520380035E-03 
2297	 1.43845681214409E-02 
2298	 2.50709829841663E-02 
2299	 3.30015297828578E-02 
2300	 3.07807621205234E-02 
2301	 2.68619644536985E-02 
2302	 2.70005615007341E-02 
2303	 2.50372629217125E-02 
2304	 3.25273928833566E-02 
2305	 3.74674650175991E-02 
2306	 3.98945165602395E-02 
2307	 5.08388208971475E-02 
2308	 4.11139285088389E-02 
2309	 3.20216266666276E-02 
2310	 2.61242939899228E-02 
2311	 2.14871825689471E-02 
2312	 2.50679084136654E-02 
2313	 2.38008953110622E-02 
2314	 2.59574742614002E-02 
2315	 1.60853760394274E-02 
2316	 1.33471459136133E-03 
2317	 2.77120119290289E-03 
2318	 2.71908349026016E-03 
2319	-0.00853434472777 
2320	-6.42232457042297E-03 
2321	-9.47347983392773E-03 
2322	-1.58358527574677E-02 
2323	 2.34467148049133E-03 
2324	-6.82184567968702E-03 
2325	-2.63601328055507E-02 
2326	-1.19954864131629E-02 
2327	 8.35793127619152E-04 
2328	 5.72702428460401E-03 
2329	 2.24587869987834E-02 
2330	 1.46382909148433E-02 
2331	 2.93511088123076E-03 
2332	 3.20822924849346E-02 
2333	 4.53401850701012E-02 
2334	 4.86174352505631E-02 
2335	 4.41019792150333E-02 
2336	 7.04920103256404E-03 
2337	-1.18015023062149E-02 
2338	-1.88313232997586E-02 
2339	-2.19198341360087E-02 
2340	 1.04877325524062E-04 
2341	 2.63800598206485E-02 
2342	 3.95665901479772E-02 
2343	 2.65678726719332E-02 
2344	-2.29794023734256E-03 
2345	-3.97481464491126E-02 
2346	-4.98108970928977E-02 
2347	-0.017353074311411 
2348	 0.027291255282807 
2349	 5.38336682058887E-02 
2350	 2.29267167924881E-02 
2351	-1.76916898257415E-02 
2352	-5.38937923606097E-02 
2353	-8.37046664917496E-02 
2354	-0.078986204388003 
2355	-3.44492618430967E-02 
2356	-7.50045404129975E-03 
2357	-1.43138986255347E-02 
2358	 1.99315413193929E-02 
2359	 5.68875925402381E-03 
2360	-3.14216910847542E-02 
2361	 6.2248570814023E-03 
2362	 4.87004967651175E-02 
2363	 3.70045571837485E-02 
2364	 6.77481675621633E-02 
2365	 9.61255015042274E-02 
2366	 9.53748734292572E-02 
2367	 0.163774232517751 
2368	 0.196146245974211 
2369	 0.205024446590823 
2370	 0.211725846715919 
2371	 0.147142980916486 
2372	 7.93786280682835E-02 
2373	 3.50391581799948E-02 
2374	-5.77065110141082E-02 
2375	-8.41412934051702E-02 
2376	-2.88095293836503E-05 
2377	 3.50227795118696E-03 
2378	-4.79171592507423E-02 
2379	-0.105482947840583 
2380	-0.131947784511099 
2381	-0.175416032866227 
2382	-0.155163339592932 
2383	 0.01568418178941 
2384	-3.24868215908019E-03 
2385	-9.19663944367914E-02 
2386	-4.62080106802742E-02 
2387	-6.76640149707119E-03 
2388	 0.09657077849795 
2389	 0.2655466181582 
2390	 0.345514623782125 
2391	 0.309629583689169 
2392	 0.108632773683736 
2393	-3.26471367452735E-02 
2394	-0.116300772695998 
2395	-0.257987965823829 
2396	-0.343179236244395 
2397	-0.307109308722454 
2398	-0.247734423492114 
2399	-0.211100597767323 
2400	-0.159399731023264 
2401	-0.23015903730701 
2402	-0.372336468833526 
2403	-0.425612640380755 
2404	-0.38136750521409 
2405	-0.242343999112789 
2406	-6.35653233217304E-02 
2407	 0.545609765753386 
2408	 2.6802717740565 
2409	 3.55285123029052 
2410	 2.0381682263783 
2411	 0.492057206663429 
2412	-0.467741253129526 
2413	-0.491133187469043 
2414	-0.29153052046624 
2415	-0.201220694784524 
2416	 0.21037331283249 
2417	 0.384200730172483 
2418	 2.27869373071803 
2419	-1.23806627030008 
2420	 0.252625914216583 
2421	 0.418192602069977 
2422	 1.98745017829999 
2423	-2.363494402661 
2424	-0.935786381297406 
2425	-1.48820300935409 
2426	-2.64780218651525 
2427	-1.0351438776765 
2428	-0.447719882045218 
2429	-6.48407208401482E-02 
2430	 0.217211082081366 
2431	 0.181500583681292 
2432	 0.298241550760291 
2433	 9.21849239557614E-02 
2434	-0.412371852598684 
2435	-0.382418414474366 
2436	-8.92888278828638E-02 
2437	-0.351653460984601 
2438	-0.790551413265248 
2439	-0.710548005235228 
2440	-0.740179853806175 
2441	-1.04434173130726 
2442	-1.10914521105207 
2443	-0.576591577063066 
2444	-0.183040056664937 
2445	-2.56077998621882 
2446	 257.174136170598 
2447	-1.54501924440682 
2448	-1.08284359076939 
2449	-1.42529381394342 
2450	-1.49263673335154 
2451	-2.62800278265792 
2452	-0.91100726154147 
2453	-0.408358857830899 
2454	-0.193423900291315 
2455	 0.755350889195584 
2456	-0.3481382767569 
2457	 3.75383312603853 
2458	-1.91701482312334 
2459	-1.37900698645907 
2460	-0.796790226625866 
2461	-0.442159952935716 
2462	-0.347529886959603 
2463	-0.391554222811161 
2464	-1.16233142798402 
2465	 39.3133183298928 
2466	 4.86698746249955 
2467	 0.894452593767346 
2468	 1.63400796413453 
2469	 12.9525904278078 
2470	 3.80698557919517 
2471	 1.41122654055755 
2472	 1.76873905762966 
2473	 1.19681597306933 
2474	 0.639321422120893 
2475	 2.58104043499354 
2476	 1.75467720242672 
2477	-2.08787740570264 
2478	-6.09446268155025E-02 
2479	 0.808852355127818 
2480	-1.91053025728558 
2481	 0.478732436758008 
2482	 5.02255527017089E-02 
2483	 0.138262051703159 
2484	 0.759408062590433 
2485	 1.01420573856447 
2486	 1.36302562501731 
2487	 2.4193494891184 
2488	 4.04487381636946 
2489	 4.89795511972881 
2490	 3.01175301153671 
2491	 1.18789355504015 
2492	 0.261152822609265 
2493	-1.25596513786647E-02 
2494	-0.192795493846065 
2495	-7.05822701222968E-03 
2496	 0.641842743333385 
2497	 2.03056790389585 
2498	 3.18790995264933 
2499	 3.41956505394946 
2500	-3.24194226756366 
