Wavelength	rt0801far200000.asd
350	 8.14875721182892E-02 
351	 8.12381054594894E-02 
352	 8.13653702987912E-02 
353	 0.081736135625549 
354	 0.082086153777186 
355	 8.20058809796208E-02 
356	 0.081514486844446 
357	 8.12442172841524E-02 
358	 8.17203097931769E-02 
359	 8.22859347616102E-02 
360	 8.22447359158408E-02 
361	 8.19178340773844E-02 
362	 8.22004299093859E-02 
363	 8.23010866883115E-02 
364	 8.24657854239774E-02 
365	 8.28184013292618E-02 
366	 8.31410416131132E-02 
367	 8.24268963901812E-02 
368	 8.17682110753166E-02 
369	 8.22104360601583E-02 
370	 8.25838371196759E-02 
371	 8.28058446990558E-02 
372	 8.29252402651114E-02 
373	 8.31022520016187E-02 
374	 8.36033901783615E-02 
375	 0.083696395564666 
376	 0.083554455698881 
377	 8.46564492456492E-02 
378	 8.43025068748952E-02 
379	 0.08367281476078 
380	 8.41960765118709E-02 
381	 8.51757895809928E-02 
382	 8.50225364203578E-02 
383	 8.46909037546124E-02 
384	 8.59345553120325E-02 
385	 8.65189160110385E-02 
386	 8.64195752838405E-02 
387	 0.086124019096943 
388	 8.64142440991039E-02 
389	 8.65735768430361E-02 
390	 8.67924485676726E-02 
391	 8.71648920989174E-02 
392	 8.70877164255594E-02 
393	 8.72821657939906E-02 
394	 8.78101017741115E-02 
395	 8.83994885995719E-02 
396	 8.85673016284403E-02 
397	 8.87184845714406E-02 
398	 0.088918861156448 
399	 8.89171894785108E-02 
400	 8.90422056725126E-02 
401	 8.92240201946232E-02 
402	 8.94113471780882E-02 
403	 8.97334555765601E-02 
404	 9.02479820797376E-02 
405	 9.05985277156744E-02 
406	 9.04395196389897E-02 
407	 9.03750534904256E-02 
408	 9.04623671567484E-02 
409	 9.07093860742341E-02 
410	 0.091093691878119 
411	 9.10703879234596E-02 
412	 9.13021745886374E-02 
413	 0.092094411539945 
414	 9.24199265724717E-02 
415	 0.092494575821959 
416	 9.25165836334115E-02 
417	 9.26822477423078E-02 
418	 9.30676880198844E-02 
419	 9.33652581658468E-02 
420	 9.35945936337578E-02 
421	 9.41315444632219E-02 
422	 9.42559870381017E-02 
423	 9.44008951729229E-02 
424	 9.49175302859012E-02 
425	 9.52346216211433E-02 
426	 9.57044450891457E-02 
427	 9.61502698545288E-02 
428	 9.62764603661864E-02 
429	 9.68605922980839E-02 
430	 9.73542498686526E-02 
431	 9.75446459138341E-02 
432	 9.77576037455551E-02 
433	 9.83813023577431E-02 
434	 9.90334594211657E-02 
435	 9.93900729663298E-02 
436	 9.98426744763202E-02 
437	 0.10031063358386 
438	 0.100708972418349 
439	 0.100991038290355 
440	 0.101489162011525 
441	 0.101973835310371 
442	 0.102334638934646 
443	 0.102729759816974 
444	 0.102965797664042 
445	 0.10327048307096 
446	 0.103810148236496 
447	 0.104051063323187 
448	 0.104438726489538 
449	 0.104910861811991 
450	 0.10506359795262 
451	 0.105352473206156 
452	 0.105510514046113 
453	 0.105480852014739 
454	 0.10585438366231 
455	 0.106178883839893 
456	 0.106332497442509 
457	 0.106368877067814 
458	 0.106595798565744 
459	 0.106811972090497 
460	 0.106935671875758 
461	 0.107033954768668 
462	 0.107143853416294 
463	 0.107224966665327 
464	 0.107292768997668 
465	 0.107571466844338 
466	 0.107855976408828 
467	 0.10802833664199 
468	 0.108059241466404 
469	 0.108184322405384 
470	 0.108405003144505 
471	 0.108662974083424 
472	 0.108856758261572 
473	 0.108967541712391 
474	 0.109084483097296 
475	 0.109283088579918 
476	 0.109469422763843 
477	 0.10971484904853 
478	 0.109986562910777 
479	 0.11019905098494 
480	 0.110534071930046 
481	 0.110871955373571 
482	 0.111109601344892 
483	 0.111236329060091 
484	 0.111569725015814 
485	 0.112045870907743 
486	 0.112454929131231 
487	 0.11273032898271 
488	 0.112926722202708 
489	 0.113223966012151 
490	 0.113877696381423 
491	 0.114293964193876 
492	 0.114651985068067 
493	 0.11514973607616 
494	 0.115600411779741 
495	 0.116081769768892 
496	 0.116604241679215 
497	 0.117145108383736 
498	 0.117698317248957 
499	 0.118209172711593 
500	 0.118678419854128 
501	 0.119193544728351 
502	 0.119802282348605 
503	 0.120430079922622 
504	 0.120996344186667 
505	 0.121545160976399 
506	 0.122190228272912 
507	 0.122868178560037 
508	 0.123398300275733 
509	 0.124098232870002 
510	 0.124718582646001 
511	 0.125184913560143 
512	 0.126085819963264 
513	 0.126717250283656 
514	 0.127230789142784 
515	 0.128093275024387 
516	 0.129164878951714 
517	 0.12998164237944 
518	 0.130521779629974 
519	 0.131330804619988 
520	 0.13213970348307 
521	 0.132930912644564 
522	 0.133720832726093 
523	 0.134418360697795 
524	 0.135209697127158 
525	 0.13608352576509 
526	 0.136891241724551 
527	 0.137627554278527 
528	 0.13842428449441 
529	 0.1393409429626 
530	 0.140283712520025 
531	 0.141109479560819 
532	 0.14194282291768 
533	 0.142937489805373 
534	 0.143741131064188 
535	 0.144568236508611 
536	 0.145491934317953 
537	 0.146380133246411 
538	 0.147421497394776 
539	 0.148390804174091 
540	 0.149154728983456 
541	 0.150222861526744 
542	 0.151192312663261 
543	 0.152049635133756 
544	 0.15301246227022 
545	 0.15390458021741 
546	 0.154763391415931 
547	 0.15563428662499 
548	 0.156524335973205 
549	 0.157522771633632 
550	 0.158474715649898 
551	 0.159213485348777 
552	 0.160018122501879 
553	 0.16089473317557 
554	 0.161810112098609 
555	 0.162703093765153 
556	 0.163612627408041 
557	 0.164470220294275 
558	 0.165223606786701 
559	 0.16598010628382 
560	 0.166705723401622 
561	 0.167401411488512 
562	 0.168098174694133 
563	 0.168860605572612 
564	 0.16958484509469 
565	 0.170203795666031 
566	 0.170752481981266 
567	 0.171433700623442 
568	 0.172125832872367 
569	 0.172629784800734 
570	 0.173118136852185 
571	 0.173572474556544 
572	 0.173995564614477 
573	 0.174418360172808 
574	 0.174756738072307 
575	 0.175112807600529 
576	 0.175554020138456 
577	 0.175919286279076 
578	 0.176179229194295 
579	 0.176383696904211 
580	 0.17663152526165 
581	 0.17695039690177 
582	 0.177150414969726 
583	 0.177199667463718 
584	 0.177399567322325 
585	 0.177617615216958 
586	 0.177829028678803 
587	 0.178033785902428 
588	 0.178190989981168 
589	 0.178266816816006 
590	 0.178237285179411 
591	 0.17810072063623 
592	 0.178009069932261 
593	 0.177932337151765 
594	 0.177751423641535 
595	 0.177165641956306 
596	 0.176790904481807 
597	 0.176514553360154 
598	 0.175884002463012 
599	 0.175439752728229 
600	 0.175032524603951 
601	 0.174592995718081 
602	 0.174318256229608 
603	 0.174251403936944 
604	 0.174349261687559 
605	 0.174483390357903 
606	 0.174282913820893 
607	 0.174259254224337 
608	 0.174429104489312 
609	 0.174278729356566 
610	 0.174368489724813 
611	 0.174436048921935 
612	 0.174282487658127 
613	 0.174417187964507 
614	 0.174535969761858 
615	 0.174450491084492 
616	 0.17413695992948 
617	 0.174395317400814 
618	 0.174509420160095 
619	 0.17425003153998 
620	 0.174446940094654 
621	 0.174382466195485 
622	 0.174247286795355 
623	 0.174379100019208 
624	 0.174333341677292 
625	 0.174357542178727 
626	 0.174451248550865 
627	 0.174371522322236 
628	 0.174466914137606 
629	 0.174441754566482 
630	 0.174178287309136 
631	 0.174380229035872 
632	 0.174262473246903 
633	 0.173977793169985 
634	 0.174046100606382 
635	 0.174055256324573 
636	 0.173973294803929 
637	 0.173876657427176 
638	 0.173948576045012 
639	 0.173787079726218 
640	 0.17358274407137 
641	 0.173573424947833 
642	 0.17339659037176 
643	 0.173378332911996 
644	 0.173466436940554 
645	 0.173317496762312 
646	 0.173452488326957 
647	 0.173411182989828 
648	 0.172960644654929 
649	 0.172805439121314 
650	 0.172667048648127 
651	 0.17249595216499 
652	 0.172314994258978 
653	 0.172073322986833 
654	 0.171741291153735 
655	 0.17130717062565 
656	 0.170848001355838 
657	 0.170487634539345 
658	 0.170117331805419 
659	 0.169655978559996 
660	 0.169263349985614 
661	 0.16911040033925 
662	 0.16904213974741 
663	 0.168742666058348 
664	 0.168540730401571 
665	 0.168294418024349 
666	 0.168025620741777 
667	 0.168184623190964 
668	 0.168071343290597 
669	 0.167803622348359 
670	 0.167738808044639 
671	 0.167935339011726 
672	 0.168081736473086 
673	 0.168044539373624 
674	 0.167902688360886 
675	 0.168150619161268 
676	 0.16851408673735 
677	 0.168682260642517 
678	 0.168601756381849 
679	 0.168823702580248 
680	 0.169214872862112 
681	 0.169386790693459 
682	 0.169671811806311 
683	 0.170012305759107 
684	 0.170381111494183 
685	 0.17087808597832 
686	 0.171484364563521 
687	 0.172043419155166 
688	 0.172395640734994 
689	 0.172626149738596 
690	 0.172863915158298 
691	 0.17319829270422 
692	 0.173661534621955 
693	 0.173890464727255 
694	 0.173879755469505 
695	 0.173729511873174 
696	 0.173525742200378 
697	 0.17342262796534 
698	 0.173354186663269 
699	 0.173223268924871 
700	 0.173202904900755 
701	 0.172712908332369 
702	 0.171887867382939 
703	 0.171359438342833 
704	 0.170781155881487 
705	 0.170224372294509 
706	 0.169659272876453 
707	 0.168624972237442 
708	 0.167685647012638 
709	 0.166833512629917 
710	 0.165839343217765 
711	 0.164502824560074 
712	 0.163101645111003 
713	 0.161848233093236 
714	 0.160822011607802 
715	 0.159914516975568 
716	 0.15898163887718 
717	 0.15787704124748 
718	 0.156180609961659 
719	 0.15384075061892 
720	 0.151499982960454 
721	 0.149305908844681 
722	 0.148082400235248 
723	 0.14672248981899 
724	 0.144785865970555 
725	 0.142498081305361 
726	 0.140244513865913 
727	 0.137780477881713 
728	 0.134954515848023 
729	 0.132372594523881 
730	 0.129030238197986 
731	 0.125591713935204 
732	 0.122915259058124 
733	 0.12059545821222 
734	 0.11849756581351 
735	 0.116724575879347 
736	 0.115594635694949 
737	 0.114573911292638 
738	 0.113461768188436 
739	 0.112381681590011 
740	 0.112056230717896 
741	 0.111830865325643 
742	 0.111568405946231 
743	 0.111394050002089 
744	 0.111193510851555 
745	 0.11118829657654 
746	 0.111315129802676 
747	 0.111098418600211 
748	 0.111026038646796 
749	 0.110994841490237 
750	 0.110874976402916 
751	 0.110967854201 
752	 0.110958415992261 
753	 0.110901949859584 
754	 0.111022460487611 
755	 0.111113652262118 
756	 0.111045177409518 
757	 0.110956928874229 
758	 0.11151509951406 
759	 0.11231993362673 
760	 0.112950779943528 
761	 0.112962021448907 
762	 0.113557983306911 
763	 0.113329206732036 
764	 0.112711338902506 
765	 0.112518172695752 
766	 0.112582427360782 
767	 0.11259490813702 
768	 0.112566555887965 
769	 0.112772274770739 
770	 0.112991809585812 
771	 0.113129592371878 
772	 0.11320178554711 
773	 0.113431783773071 
774	 0.113881141269384 
775	 0.114260961985305 
776	 0.114304828584383 
777	 0.114871481320288 
778	 0.115374616419238 
779	 0.115661669785897 
780	 0.116110900127792 
781	 0.116531852700915 
782	 0.116934260025757 
783	 0.117345830566498 
784	 0.117739359692478 
785	 0.118404040831337 
786	 0.119110909540857 
787	 0.119548928806294 
788	 0.120155297625224 
789	 0.120779184611256 
790	 0.121299377841842 
791	 0.121679181479749 
792	 0.122055981813414 
793	 0.122381220152893 
794	 0.122766285952149 
795	 0.123622283029995 
796	 0.123969628120665 
797	 0.124218157151914 
798	 0.124885884780063 
799	 0.125342252763311 
800	 0.125764622836751 
801	 0.126136090527344 
802	 0.126346736448138 
803	 0.126393318748596 
804	 0.126273024722508 
805	 0.126216295422438 
806	 0.126644860139203 
807	 0.126667066855626 
808	 0.126449735363253 
809	 0.126331443182236 
810	 0.126528743384427 
811	 0.126563192619046 
812	 0.126405504656375 
813	 0.12627437086082 
814	 0.126526329545163 
815	 0.126161217754944 
816	 0.125040842798723 
817	 0.123906126197389 
818	 0.122916239364278 
819	 0.12202561684176 
820	 0.121028412306639 
821	 0.119638034873318 
822	 0.117813806712014 
823	 0.11600647844589 
824	 0.114505866767862 
825	 0.112771679568167 
826	 0.11083846379076 
827	 0.108629961918336 
828	 0.106176812357162 
829	 0.10313432089956 
830	 0.100937004611025 
831	 9.96223557415257E-02 
832	 9.82242998395218E-02 
833	 9.64005249214525E-02 
834	 9.51846762779395E-02 
835	 9.47041785716594E-02 
836	 9.38241922158976E-02 
837	 9.26088640188137E-02 
838	 9.17936350328696E-02 
839	 9.16891462297782E-02 
840	 9.12105458006658E-02 
841	 9.05831445939926E-02 
842	 8.99147960044206E-02 
843	 8.93447813161293E-02 
844	 0.089168740077494 
845	 8.91096970053795E-02 
846	 8.89014395345524E-02 
847	 8.83804159155973E-02 
848	 8.80379312297006E-02 
849	 8.76897068967066E-02 
850	 8.71603571747199E-02 
851	 8.64177165289031E-02 
852	 0.086112775837582 
853	 8.60326551466245E-02 
854	 8.59303586784465E-02 
855	 8.59585715016943E-02 
856	 8.52785130421812E-02 
857	 8.45808866369769E-02 
858	 8.45459920009458E-02 
859	 8.42722711652441E-02 
860	 8.39665537044313E-02 
861	 8.36225700002889E-02 
862	 8.31518869620686E-02 
863	 8.25533954143085E-02 
864	 8.25890972539239E-02 
865	 8.29394622641686E-02 
866	 8.23655835589925E-02 
867	 8.12448770046646E-02 
868	 8.07719055867844E-02 
869	 8.11188025415781E-02 
870	 8.10455410055396E-02 
871	 8.02005806218584E-02 
872	 7.92907177523867E-02 
873	 7.89067006216842E-02 
874	 7.88145414593994E-02 
875	 7.81023119749707E-02 
876	 7.74633784542568E-02 
877	 0.077566716753489 
878	 7.69806657267132E-02 
879	 7.67367488544636E-02 
880	 7.67047641734688E-02 
881	 7.62679404039188E-02 
882	 7.55431749695887E-02 
883	 7.50802551213459E-02 
884	 7.46720647532181E-02 
885	 7.37295357485788E-02 
886	 7.37894557228848E-02 
887	 7.32154637796203E-02 
888	 0.072191045425254 
889	 7.31094353879748E-02 
890	 7.32075310152262E-02 
891	 7.24740828185368E-02 
892	 7.16178108150114E-02 
893	 7.17869109123037E-02 
894	 7.18756875642965E-02 
895	 7.18321498592333E-02 
896	 7.15765906951672E-02 
897	 0.069823872299759 
898	 6.97760212562794E-02 
899	 7.05517737138417E-02 
900	 7.03876559915527E-02 
901	 7.07503423119984E-02 
902	 6.97248829529769E-02 
903	 6.82620495119607E-02 
904	 6.78966786663368E-02 
905	 6.74465728511479E-02 
906	 0.067456335357034 
907	 0.067537869307959 
908	 0.066775932921863 
909	 0.066572435716772 
910	 6.53989866178337E-02 
911	 6.42109758840044E-02 
912	 6.57463877363429E-02 
913	 6.54488331306403E-02 
914	 6.54202126057259E-02 
915	 6.55432789906679E-02 
916	 6.28366878776927E-02 
917	 6.10838255910854E-02 
918	 6.03309172297223E-02 
919	 0.059837213350192 
920	 5.87475666217692E-02 
921	 5.96367270342884E-02 
922	 5.92508846881127E-02 
923	 5.63451535709806E-02 
924	 5.64360034237527E-02 
925	 5.58513935521242E-02 
926	 5.47582299807178E-02 
927	 5.45274233835833E-02 
928	 5.62036211685944E-02 
929	 6.00025174155987E-02 
930	 5.82628545194544E-02 
931	 4.16235923431887E-02 
932	 0.044563068075617 
933	 4.99480272704682E-02 
934	 5.16318991684166E-02 
935	 5.16446949448222E-02 
936	 4.17930623592048E-02 
937	 0.044966007988073 
938	 4.96937410674455E-02 
939	 4.26953768676539E-02 
940	 4.23896324283101E-02 
941	 4.88545500223818E-02 
942	 4.91437985834439E-02 
943	 3.23787791000681E-02 
944	 4.30753704824722E-02 
945	 4.98181909649249E-02 
946	 4.40840972204496E-02 
947	 3.70899080428673E-02 
948	 3.97279844176419E-02 
949	 4.47688569994562E-02 
950	 0.046779421350794 
951	 4.39674591474225E-02 
952	 4.12235582419975E-02 
953	 4.11922329762128E-02 
954	 4.60737479398471E-02 
955	 5.50858677403727E-02 
956	 5.28933222800545E-02 
957	 4.98354816084573E-02 
958	 4.87940979890947E-02 
959	 4.67170415048562E-02 
960	 4.60362700287939E-02 
961	 0.047953153928839 
962	 5.01054729756691E-02 
963	 4.86035392329584E-02 
964	 4.16010584502034E-02 
965	 4.37653838525921E-02 
966	 5.11494389451783E-02 
967	 4.97830459773522E-02 
968	 4.89441606523267E-02 
969	 4.64753442116252E-02 
970	 4.45617551801369E-02 
971	 4.80581939587073E-02 
972	 4.61672405855408E-02 
973	 4.35985450050462E-02 
974	 4.39784546325839E-02 
975	 4.69509052567142E-02 
976	 4.44563594607642E-02 
977	 4.31964817282672E-02 
978	 4.56249811292833E-02 
979	 4.84269151709773E-02 
980	 4.67193925727357E-02 
981	 4.53134387493334E-02 
982	 4.59048886181877E-02 
983	 4.66977458763986E-02 
984	 4.54472248463506E-02 
985	 4.41905697860476E-02 
986	 4.42658952827154E-02 
987	 4.57465910617624E-02 
988	 4.70436136308885E-02 
989	 4.81241367159257E-02 
990	 4.68027393046125E-02 
991	 4.13581189338257E-02 
992	 4.28981689590588E-02 
993	 4.56811201163376E-02 
994	 4.65737722025272E-02 
995	 4.57733266578365E-02 
996	 4.42979489247129E-02 
997	 4.26773538369382E-02 
998	 4.35177854828188E-02 
999	 4.81677352543361E-02 
1000	 4.58508819250434E-02 
1001	 4.21702610798327E-02 
1002	 4.24560832115093E-02 
1003	 4.25251639002883E-02 
1004	 4.27068034201856E-02 
1005	 4.27161736095585E-02 
1006	 4.25193438716358E-02 
1007	 4.19996053823365E-02 
1008	 4.19582993093768E-02 
1009	 4.20824203217428E-02 
1010	 4.23176483201852E-02 
1011	 0.043049850808635 
1012	 4.38402205656148E-02 
1013	 4.36288639804094E-02 
1014	 4.34156018061096E-02 
1015	 4.29920055985876E-02 
1016	 4.24307014417709E-02 
1017	 4.12036697982013E-02 
1018	 4.06814468550293E-02 
1019	 4.02236622926064E-02 
1020	 0.040034680661099 
1021	 4.04627046344132E-02 
1022	 4.05468156415213E-02 
1023	 4.04792294459853E-02 
1024	 4.07837651551574E-02 
1025	 4.07067817294374E-02 
1026	 4.11628638190495E-02 
1027	 4.17067628765996E-02 
1028	 0.042645257087725 
1029	 4.32035706417967E-02 
1030	 4.37782730796235E-02 
1031	 4.42117722075016E-02 
1032	 4.47545944968204E-02 
1033	 4.46509145054391E-02 
1034	 4.40897153510994E-02 
1035	 4.37662191175005E-02 
1036	 0.042601672532858 
1037	 4.22655137702303E-02 
1038	 4.23982560149652E-02 
1039	 4.28397185539165E-02 
1040	 4.35197143134882E-02 
1041	 4.47579357848882E-02 
1042	 4.51109633911813E-02 
1043	 4.52650291924784E-02 
1044	 4.54553414224369E-02 
1045	 4.49928747963489E-02 
1046	 4.51013335170888E-02 
1047	 4.58749083632754E-02 
1048	 4.59260829358142E-02 
1049	 4.56809876919735E-02 
1050	 0.045589442457551 
1051	 4.49817011200388E-02 
1052	 4.48996064049296E-02 
1053	 4.50373865161278E-02 
1054	 4.54180485981623E-02 
1055	 4.68261163479051E-02 
1056	 4.71850883450465E-02 
1057	 4.71894239617226E-02 
1058	 4.69999746915044E-02 
1059	 4.67720681738004E-02 
1060	 0.045491609270676 
1061	 4.54274219893972E-02 
1062	 4.63624350376694E-02 
1063	 4.64037468706104E-02 
1064	 4.64357129172322E-02 
1065	 4.63260013016574E-02 
1066	 0.045246245293761 
1067	 4.52246243192319E-02 
1068	 4.60794501720464E-02 
1069	 4.63966318255786E-02 
1070	 4.73775524211205E-02 
1071	 4.76063708628393E-02 
1072	 4.67926276118424E-02 
1073	 4.63063557696343E-02 
1074	 4.61289408542679E-02 
1075	 4.57960893751017E-02 
1076	 0.045806440724336 
1077	 0.046549647556733 
1078	 4.65561310027736E-02 
1079	 4.63945797911103E-02 
1080	 4.61041977215482E-02 
1081	 0.045052637791743 
1082	 4.48544523634913E-02 
1083	 4.53010609893265E-02 
1084	 4.52244015302496E-02 
1085	 4.51466105111535E-02 
1086	 4.53047219562734E-02 
1087	 4.53537946823443E-02 
1088	 4.52064141721205E-02 
1089	 4.48852528666657E-02 
1090	 4.54476893853953E-02 
1091	 4.54998717943653E-02 
1092	 4.50878521390448E-02 
1093	 4.48715155459603E-02 
1094	 4.49193362743951E-02 
1095	 4.47559152278293E-02 
1096	 4.39184482186873E-02 
1097	 4.41113102660327E-02 
1098	 4.56443702647656E-02 
1099	 4.57503134805772E-02 
1100	 0.045352973917337 
1101	 4.52194302058611E-02 
1102	 4.39315061067242E-02 
1103	 4.33852339945351E-02 
1104	 4.31915172515892E-02 
1105	 4.43411403644207E-02 
1106	 4.63172109345262E-02 
1107	 4.50555530172382E-02 
1108	 4.35634759410691E-02 
1109	 4.48696642358912E-02 
1110	 0.044956560899743 
1111	 4.43881033871429E-02 
1112	 4.39411417858021E-02 
1113	 4.34248584265722E-02 
1114	 4.31115869034982E-02 
1115	 4.22194878421504E-02 
1116	 4.18038757093501E-02 
1117	 4.50755017659557E-02 
1118	 4.46368509211591E-02 
1119	 3.56294941336465E-02 
1120	 3.24968454858748E-02 
1121	 3.40664298420586E-02 
1122	 3.07880876253466E-02 
1123	 0.028419901416407 
1124	 4.13343534871826E-02 
1125	 4.96269158826005E-02 
1126	 4.53693522387946E-02 
1127	 0.034998778784017 
1128	 3.22760178648636E-02 
1129	 2.92778716412883E-02 
1130	 1.52003037400395E-02 
1131	 1.68473343700809E-02 
1132	 3.28062202766062E-02 
1133	 3.49084272055484E-02 
1134	 3.18480256534053E-02 
1135	 3.63022801600709E-02 
1136	 4.12149307196338E-02 
1137	 4.38798269559855E-02 
1138	 5.04790786321322E-02 
1139	 5.37651405074336E-02 
1140	 5.21095746706602E-02 
1141	 4.92195301768103E-02 
1142	 4.12782110298759E-02 
1143	 4.14534221513749E-02 
1144	 4.74594304284951E-02 
1145	 4.46633596751845E-02 
1146	 4.37127276962071E-02 
1147	 4.51102385662613E-02 
1148	 4.30226495466299E-02 
1149	 3.94422961435888E-02 
1150	 3.77936501176097E-02 
1151	 3.88487245290953E-02 
1152	 4.02174651193506E-02 
1153	 4.20334927514113E-02 
1154	 4.11774416507327E-02 
1155	 4.06403120729122E-02 
1156	 3.94200690216372E-02 
1157	 3.87994286390029E-02 
1158	 4.14796969559451E-02 
1159	 4.64538586023015E-02 
1160	 0.046688066325746 
1161	 4.34483524912823E-02 
1162	 4.15533379478592E-02 
1163	 4.04870097638202E-02 
1164	 4.14651984659418E-02 
1165	 0.04457090731568 
1166	 4.53822935082268E-02 
1167	 4.36665013216188E-02 
1168	 4.36981884337294E-02 
1169	 4.40402833147667E-02 
1170	 4.38453980222425E-02 
1171	 4.39206875180396E-02 
1172	 4.48928822149336E-02 
1173	 4.43911327166072E-02 
1174	 4.23422851499432E-02 
1175	 4.28903874883331E-02 
1176	 4.36511438276238E-02 
1177	 0.043467987883131 
1178	 4.41114054157932E-02 
1179	 4.42080732083221E-02 
1180	 4.28039221887283E-02 
1181	 4.29048839825842E-02 
1182	 4.43217229907804E-02 
1183	 4.39492269245293E-02 
1184	 0.042952941612055 
1185	 4.31819608381497E-02 
1186	 4.27735419835567E-02 
1187	 4.16293556572613E-02 
1188	 4.22920430401921E-02 
1189	 4.34137683955754E-02 
1190	 0.042906718175511 
1191	 4.28462537262758E-02 
1192	 0.043061195055557 
1193	 4.33662272089232E-02 
1194	 4.25105589458353E-02 
1195	 4.26009658425588E-02 
1196	 0.043047229965624 
1197	 4.23300198532234E-02 
1198	 4.22558766291923E-02 
1199	 4.26868342850562E-02 
1200	 4.26586074863161E-02 
1201	 4.30507314934665E-02 
1202	 4.31455872375292E-02 
1203	 4.26625470059196E-02 
1204	 4.25895387177996E-02 
1205	 4.32397741328939E-02 
1206	 4.39537307259493E-02 
1207	 4.42174786317972E-02 
1208	 4.37165812017957E-02 
1209	 4.29553718838756E-02 
1210	 4.25111444214172E-02 
1211	 4.19670767394048E-02 
1212	 4.22539034803841E-02 
1213	 4.32766292963453E-02 
1214	 0.043428078581144 
1215	 4.29666882880087E-02 
1216	 4.26389147079566E-02 
1217	 4.30617602321109E-02 
1218	 4.24736012705717E-02 
1219	 0.042058099883942 
1220	 0.042915466049713 
1221	 0.042621772514937 
1222	 4.17493665324624E-02 
1223	 0.042343935360046 
1224	 4.25697013980193E-02 
1225	 4.20406324302139E-02 
1226	 4.22499255940874E-02 
1227	 4.23142215278811E-02 
1228	 4.18866180961413E-02 
1229	 4.19287494903172E-02 
1230	 4.27279664881023E-02 
1231	 4.30414303145362E-02 
1232	 4.24369425202471E-02 
1233	 4.21699907316343E-02 
1234	 4.24340136588714E-02 
1235	 4.24184641050949E-02 
1236	 4.23751803698242E-02 
1237	 4.24842243086434E-02 
1238	 0.042811592068421 
1239	 4.25276138032073E-02 
1240	 0.042137051841131 
1241	 4.23738186915534E-02 
1242	 4.25595692117045E-02 
1243	 4.23849549900837E-02 
1244	 4.24979991977492E-02 
1245	 4.29232890840254E-02 
1246	 4.31471816557018E-02 
1247	 4.26983913909432E-02 
1248	 4.20781161311993E-02 
1249	 4.19631360925566E-02 
1250	 4.18094522817027E-02 
1251	 4.16043689906757E-02 
1252	 4.17580175091965E-02 
1253	 4.21911584462866E-02 
1254	 4.27961586079103E-02 
1255	 4.27679891179861E-02 
1256	 4.26982119684874E-02 
1257	 4.26239770796254E-02 
1258	 4.26008253649222E-02 
1259	 4.21269117971737E-02 
1260	 4.20920467905212E-02 
1261	 4.25245786610568E-02 
1262	 4.23664300257249E-02 
1263	 4.15976743725458E-02 
1264	 4.18685652804339E-02 
1265	 4.21387221189215E-02 
1266	 4.18338864753061E-02 
1267	 4.20290737973832E-02 
1268	 4.23682082345804E-02 
1269	 4.19510493748965E-02 
1270	 4.17871722176156E-02 
1271	 4.19299115040131E-02 
1272	 4.17106963671567E-02 
1273	 4.17363508474825E-02 
1274	 4.18496309234197E-02 
1275	 4.17222880614396E-02 
1276	 4.20046023461354E-02 
1277	 4.22922306605603E-02 
1278	 4.20689231308373E-02 
1279	 4.20448323793029E-02 
1280	 4.21461892685244E-02 
1281	 4.19968880038737E-02 
1282	 0.041700282781013 
1283	 4.17494027546631E-02 
1284	 4.17533570003281E-02 
1285	 0.041690950898828 
1286	 4.21276806924394E-02 
1287	 4.22635945172793E-02 
1288	 4.17675949624488E-02 
1289	 4.17014647459385E-02 
1290	 4.18158230293179E-02 
1291	 4.18817057468408E-02 
1292	 4.22211459515899E-02 
1293	 4.29630642200037E-02 
1294	 4.27741647769856E-02 
1295	 4.21182463167336E-02 
1296	 4.23651800578768E-02 
1297	 4.26363739232578E-02 
1298	 4.17954008102415E-02 
1299	 4.18040040730168E-02 
1300	 4.21861616792169E-02 
1301	 4.11091000084393E-02 
1302	 4.11712074242975E-02 
1303	 0.042021335638021 
1304	 4.13701306240107E-02 
1305	 4.10851072721221E-02 
1306	 0.041196674028424 
1307	 4.21858306946684E-02 
1308	 4.24795607798294E-02 
1309	 4.26920809034689E-02 
1310	 0.042455450987971 
1311	 4.16386047907909E-02 
1312	 4.14564738309784E-02 
1313	 4.12324383402313E-02 
1314	 4.11292372274207E-02 
1315	 0.041217987414844 
1316	 4.18695788602185E-02 
1317	 4.32258064652495E-02 
1318	 4.35507126695153E-02 
1319	 4.41118524424767E-02 
1320	 4.42703739048139E-02 
1321	 4.25958361863673E-02 
1322	 0.042834849760017 
1323	 4.26882411059267E-02 
1324	 4.17700826913261E-02 
1325	 4.22652954221274E-02 
1326	 4.17433395040571E-02 
1327	 3.96431166869734E-02 
1328	 3.87566275673585E-02 
1329	 0.039451110274948 
1330	 3.82864552096453E-02 
1331	 3.71866888448307E-02 
1332	 3.99912253580436E-02 
1333	 4.05869667350439E-02 
1334	 3.73111364639761E-02 
1335	 3.76665140473077E-02 
1336	 4.26947929124355E-02 
1337	 0.043033198792607 
1338	 0.041287193877889 
1339	 4.11862465810778E-02 
1340	 3.90682865178502E-02 
1341	 3.93290700731585E-02 
1342	 4.20391722102925E-02 
1343	 4.31426894301555E-02 
1344	 4.68402084430804E-02 
1345	 4.82404989209641E-02 
1346	 4.43078744440626E-02 
1347	 4.76840484612241E-02 
1348	 5.53257218253705E-02 
1349	 6.07312080096605E-02 
1350	 8.50640443522865E-02 
1351	 0.100047160109227 
1352	 0.073174584573063 
1353	 0.074582677670801 
1354	 9.75710489389669E-02 
1355	 8.21744030984626E-02 
1356	 0.109792995347148 
1357	 0.245301009772282 
1358	 0.352556767066423 
1359	 9.97674549694574E-02 
1360	-0.584673273923018 
1361	-0.257487480184009 
1362	 0.526056243103745 
1363	 0.637018805809793 
1364	 0.171412970908917 
1365	-0.109905034887452 
1366	-0.418946188618634 
1367	-1.19444860281073 
1368	-1.96492203600139 
1369	-1.55602425330102 
1370	-1.15641981380157 
1371	-1.38994169560311 
1372	-1.51747046292459 
1373	-0.458569132281379 
1374	-0.142555366725802 
1375	-0.612682262052906 
1376	-0.85170214992507 
1377	-5.45636086094866 
1378	 1.65749552537683 
1379	 32.4564791103419 
1380	 9.63564757555646 
1381	-0.359092015390228 
1382	-0.362394899439832 
1383	 4.49987361133477 
1384	 2.39162846264081 
1385	-11.1382574950434 
1386	-12.4681734608286 
1387	 5.21901770673466 
1388	 1.41546257558343 
1389	 0.341853729731292 
1390	 0.017870197088625 
1391	 4.18855036078175E-02 
1392	-0.986640100705143 
1393	 17.9474632550858 
1394	 1.41426843038907 
1395	 1.95371924138301 
1396	 1.12298580111495 
1397	-0.227130250967718 
1398	 0.575486993021151 
1399	-1.03015094132677 
1400	-0.492898368011589 
1401	-0.29274846946317 
1402	-1.03613589889442 
1403	-16.7168949670667 
1404	 6.57890736197759 
1405	 6.89349704414405 
1406	-0.441323157621865 
1407	-0.353253992844481 
1408	 0.264351098516418 
1409	 1.02885224514572 
1410	-0.273582414243476 
1411	 0.481776306178821 
1412	 0.926145864788748 
1413	 0.826696039024992 
1414	 6.25347860272326 
1415	-39.4940774543823 
1416	-71.8448476370578 
1417	-4.02349164704286 
1418	-0.426320762526565 
1419	-0.189382394583914 
1420	 0.105064525496927 
1421	 0.173855122830058 
1422	 6.05531000610403E-02 
1423	 6.40645742305006E-03 
1424	-4.55075224706371E-02 
1425	-3.88409555365609E-02 
1426	-8.96765336129862E-03 
1427	 1.88995837624786E-02 
1428	 0.093655855183266 
1429	 8.92248566995334E-02 
1430	-1.80996977168412E-03 
1431	 3.06159117211379E-03 
1432	 8.03405959046958E-02 
1433	 7.76119654348297E-02 
1434	 4.86918623761528E-02 
1435	 8.59904106754623E-02 
1436	 0.157392260387752 
1437	 8.35952850066382E-02 
1438	 8.89800097780856E-02 
1439	 5.74778752803621E-02 
1440	-1.90022093753693E-03 
1441	-2.03154845201211E-02 
1442	-4.70721147104698E-03 
1443	 3.84326771483469E-02 
1444	 4.56495791414982E-02 
1445	 2.38719928056112E-02 
1446	-1.28251507259559E-02 
1447	-2.08488557610966E-02 
1448	 9.7227744510505E-04 
1449	 1.61555605145297E-02 
1450	 2.84645559432766E-02 
1451	 3.63282379798817E-02 
1452	 4.56892719788182E-02 
1453	 4.72821946004817E-02 
1454	 4.47740991131495E-02 
1455	 4.61762618626329E-02 
1456	 0.050597175382199 
1457	 4.99067526642646E-02 
1458	 4.53578106995847E-02 
1459	 4.13658378375165E-02 
1460	 4.74491864686456E-02 
1461	 5.58154406322887E-02 
1462	 5.31986743785433E-02 
1463	 5.40579774479243E-02 
1464	 5.85621096923414E-02 
1465	 5.16455859294969E-02 
1466	 4.69238902265432E-02 
1467	 5.86927082635791E-02 
1468	 5.95624385619334E-02 
1469	 4.28836277013227E-02 
1470	 3.18156465473331E-02 
1471	 2.49393276463024E-02 
1472	 0.026721907331231 
1473	 2.85482095745993E-02 
1474	 2.64184336436186E-02 
1475	 3.50372056749877E-02 
1476	 3.37056772997436E-02 
1477	 1.73922197498327E-02 
1478	 1.68227255966802E-02 
1479	 2.62400792967128E-02 
1480	 2.75332743559326E-02 
1481	 2.62788655659593E-02 
1482	 2.99742212755825E-02 
1483	 3.40624869155256E-02 
1484	 3.56545728295567E-02 
1485	 3.81919836729985E-02 
1486	 0.040896591936455 
1487	 4.38847481545245E-02 
1488	 4.26735626904554E-02 
1489	 3.84695915017696E-02 
1490	 3.97703545127202E-02 
1491	 4.21187045333606E-02 
1492	 4.18701152068491E-02 
1493	 4.33712419367271E-02 
1494	 4.41592561655545E-02 
1495	 4.28966546096881E-02 
1496	 4.19228071012744E-02 
1497	 0.041851214533192 
1498	 4.15401590711221E-02 
1499	 3.93858850425224E-02 
1500	 3.89461118896347E-02 
1501	 4.03430270198641E-02 
1502	 0.040892551440596 
1503	 4.14854856014595E-02 
1504	 4.19943337271208E-02 
1505	 4.23140546714165E-02 
1506	 4.22126348141706E-02 
1507	 4.25775772787531E-02 
1508	 4.30844705128826E-02 
1509	 4.25545509991574E-02 
1510	 0.041762372542555 
1511	 4.18672308472222E-02 
1512	 4.24719690539138E-02 
1513	 4.22766603919811E-02 
1514	 4.15875873497177E-02 
1515	 4.14024751594155E-02 
1516	 4.12659451068916E-02 
1517	 4.15088381683121E-02 
1518	 4.23859678519311E-02 
1519	 4.19761673768432E-02 
1520	 4.12811490850072E-02 
1521	 4.18377254859491E-02 
1522	 4.24602594980613E-02 
1523	 4.36224432219197E-02 
1524	 4.43754700694315E-02 
1525	 4.36893473044861E-02 
1526	 0.042799381050897 
1527	 4.22073730917485E-02 
1528	 4.21684313557016E-02 
1529	 4.24102337090795E-02 
1530	 4.25220939647635E-02 
1531	 4.20994899948546E-02 
1532	 4.14537219194063E-02 
1533	 4.11809326160592E-02 
1534	 4.12573690757364E-02 
1535	 4.19390147903646E-02 
1536	 4.22332420815967E-02 
1537	 0.041990098497358 
1538	 0.042401656332903 
1539	 4.32275191911664E-02 
1540	 4.36710315003296E-02 
1541	 4.36872726077469E-02 
1542	 4.36384242682879E-02 
1543	 4.37768777012334E-02 
1544	 4.37182264620355E-02 
1545	 0.043436361975486 
1546	 4.34460283461884E-02 
1547	 4.28079832911745E-02 
1548	 4.26069765448494E-02 
1549	 0.043222630827864 
1550	 4.29125358190302E-02 
1551	 4.30749750563434E-02 
1552	 4.35074612082527E-02 
1553	 4.30683269130671E-02 
1554	 4.30626487904042E-02 
1555	 4.35466295052455E-02 
1556	 4.35724940723458E-02 
1557	 0.043299088961164 
1558	 0.043161611952335 
1559	 4.27485355930193E-02 
1560	 4.22874164628153E-02 
1561	 4.25547701961663E-02 
1562	 4.32038239165925E-02 
1563	 4.33938871141362E-02 
1564	 4.28834657287554E-02 
1565	 0.042454458055663 
1566	 4.22845659781277E-02 
1567	 4.23483523074281E-02 
1568	 4.26568839295397E-02 
1569	 4.22218589210298E-02 
1570	 4.19044614985094E-02 
1571	 4.24255635190989E-02 
1572	 4.28127963716654E-02 
1573	 4.30618291630052E-02 
1574	 4.33522386741533E-02 
1575	 4.33441946102507E-02 
1576	 4.27883533379841E-02 
1577	 4.30661380945384E-02 
1578	 4.36936494210284E-02 
1579	 4.32894806274828E-02 
1580	 4.36542041021826E-02 
1581	 4.42337909482547E-02 
1582	 4.36956343931406E-02 
1583	 4.32321820018937E-02 
1584	 4.34039487796337E-02 
1585	 4.37041676818023E-02 
1586	 4.38670676722481E-02 
1587	 4.35564878367368E-02 
1588	 4.27536149098109E-02 
1589	 4.22955882958626E-02 
1590	 4.19472517611709E-02 
1591	 4.21704052233386E-02 
1592	 0.042948525505649 
1593	 4.31596892381228E-02 
1594	 4.31411934792008E-02 
1595	 4.29768619394338E-02 
1596	 4.27083693312218E-02 
1597	 4.23603518229618E-02 
1598	 4.20288101105401E-02 
1599	 4.14831405263175E-02 
1600	 4.13901521376162E-02 
1601	 4.23420916790402E-02 
1602	 4.23894061530668E-02 
1603	 4.26478877654678E-02 
1604	 4.37572752339639E-02 
1605	 4.33909471362572E-02 
1606	 4.27297520661984E-02 
1607	 4.29957761478281E-02 
1608	 0.042953285509648 
1609	 4.25144130432547E-02 
1610	 4.25676675224051E-02 
1611	 4.26665845104938E-02 
1612	 4.26384755528233E-02 
1613	 4.32176019946782E-02 
1614	 4.34143224985116E-02 
1615	 4.29382269014594E-02 
1616	 4.28390785502282E-02 
1617	 4.24786687037127E-02 
1618	 4.24260792807673E-02 
1619	 4.29112816014484E-02 
1620	 4.26116777048765E-02 
1621	 4.21972442682368E-02 
1622	 4.22249244843308E-02 
1623	 4.26330344552679E-02 
1624	 4.32025630733019E-02 
1625	 4.38373960952783E-02 
1626	 4.39545587699572E-02 
1627	 0.043103998224896 
1628	 4.25309415425119E-02 
1629	 4.26432081644006E-02 
1630	 4.28315442739283E-02 
1631	 4.28659677542718E-02 
1632	 4.34451646753474E-02 
1633	 4.36449370902539E-02 
1634	 0.042546188563689 
1635	 4.26978234128501E-02 
1636	 4.33677114502228E-02 
1637	 4.24392632446004E-02 
1638	 4.23568033419884E-02 
1639	 4.31226029079146E-02 
1640	 4.23117443597079E-02 
1641	 4.16697094778374E-02 
1642	 4.23055627611542E-02 
1643	 0.042342218457113 
1644	 4.15563827131708E-02 
1645	 4.16037094632131E-02 
1646	 4.24052579490426E-02 
1647	 4.19212748797623E-02 
1648	 4.19109873362351E-02 
1649	 4.28432406019851E-02 
1650	 4.24196118837641E-02 
1651	 0.04181764002016 
1652	 4.19382519548012E-02 
1653	 4.21431069818952E-02 
1654	 4.20212910688907E-02 
1655	 4.23661483246507E-02 
1656	 4.27263863254805E-02 
1657	 4.26044854351829E-02 
1658	 4.23696575127776E-02 
1659	 4.23373400644941E-02 
1660	 0.0419206021639 
1661	 4.08510654976802E-02 
1662	 4.08491610626193E-02 
1663	 4.12977071928644E-02 
1664	 4.18231259621167E-02 
1665	 4.28948673155137E-02 
1666	 4.36231687687362E-02 
1667	 4.47511325441275E-02 
1668	 4.24796631047606E-02 
1669	 4.15488221008427E-02 
1670	 4.13360375053409E-02 
1671	 4.09712472564556E-02 
1672	 4.18469863499588E-02 
1673	 4.28169343053294E-02 
1674	 4.27083360191185E-02 
1675	 4.24204068695343E-02 
1676	 4.29379043887808E-02 
1677	 4.26072658863621E-02 
1678	 4.09377566607486E-02 
1679	 4.04966685040959E-02 
1680	 4.08300641322355E-02 
1681	 4.09763632381915E-02 
1682	 4.20703130019531E-02 
1683	 4.28918064392715E-02 
1684	 4.27002743985213E-02 
1685	 4.23095761218416E-02 
1686	 4.17809771283857E-02 
1687	 4.23424416226834E-02 
1688	 4.28174824362744E-02 
1689	 4.30478468338422E-02 
1690	 4.50072676038165E-02 
1691	 4.49876842954231E-02 
1692	 0.042901197864008 
1693	 4.26769153288286E-02 
1694	 4.27412902615481E-02 
1695	 4.21408597175025E-02 
1696	 4.23106779385291E-02 
1697	 4.27184679450349E-02 
1698	 4.23024128721242E-02 
1699	 4.24008344754259E-02 
1700	 4.33837061613229E-02 
1701	 4.29667415360107E-02 
1702	 4.18945885289193E-02 
1703	 0.042005254880929 
1704	 4.22964127018894E-02 
1705	 4.30132991920169E-02 
1706	 4.44206956344691E-02 
1707	 4.37415627604165E-02 
1708	 4.16700042927015E-02 
1709	 4.20184695984575E-02 
1710	 4.25092076233895E-02 
1711	 4.15134950166509E-02 
1712	 4.23412877557744E-02 
1713	 4.15367011469619E-02 
1714	 4.09617171092919E-02 
1715	 4.00191390552319E-02 
1716	 4.08958442690648E-02 
1717	 4.29165307892398E-02 
1718	 4.30144809452942E-02 
1719	 4.42188876272882E-02 
1720	 4.40130754179899E-02 
1721	 4.16291935772454E-02 
1722	 4.15998304993225E-02 
1723	 4.18209837371287E-02 
1724	 4.11626829932741E-02 
1725	 4.14767214604647E-02 
1726	 0.041317881316268 
1727	 3.99682016658482E-02 
1728	 4.04317827307625E-02 
1729	 4.15927119275745E-02 
1730	 4.18142410609668E-02 
1731	 4.23095891793233E-02 
1732	 4.22444015581603E-02 
1733	 4.22141501655497E-02 
1734	 4.30630674555785E-02 
1735	 4.35985215189856E-02 
1736	 4.29811138956166E-02 
1737	 4.22232128433369E-02 
1738	 4.22098902667574E-02 
1739	 4.34494653716021E-02 
1740	 4.48284369871781E-02 
1741	 4.49571466184529E-02 
1742	 4.32364351086636E-02 
1743	 4.06412946825812E-02 
1744	 4.02527421794001E-02 
1745	 4.04271384998817E-02 
1746	 4.14186959086103E-02 
1747	 4.18201589104014E-02 
1748	 4.05487870654011E-02 
1749	 3.98674333256924E-02 
1750	 3.97650559738399E-02 
1751	 0.040815671002847 
1752	 4.40859031829172E-02 
1753	 4.32877518722546E-02 
1754	 3.89670772712046E-02 
1755	 3.92103935991392E-02 
1756	 3.98660639899273E-02 
1757	 4.28345060224815E-02 
1758	 4.43591496451236E-02 
1759	 4.32622253247609E-02 
1760	 4.05424098669793E-02 
1761	 3.87441578654662E-02 
1762	 4.03321153192614E-02 
1763	 4.18527528453301E-02 
1764	 4.17314836778468E-02 
1765	 0.041516145256461 
1766	 4.15210917807961E-02 
1767	 4.13450051715026E-02 
1768	 3.81955659934911E-02 
1769	 3.53787931410835E-02 
1770	 3.90742424170458E-02 
1771	 3.96755191371943E-02 
1772	 3.77779966340279E-02 
1773	 4.36218965032643E-02 
1774	 4.39893717947283E-02 
1775	 3.93909262638017E-02 
1776	 3.81799076011047E-02 
1777	 2.93895513304909E-02 
1778	 0.028849048083091 
1779	 4.22631124033847E-02 
1780	 4.43647691513365E-02 
1781	 4.29122037738167E-02 
1782	 0.043549049466181 
1783	 3.70051834733869E-02 
1784	 3.40882491314452E-02 
1785	 3.85873936632357E-02 
1786	 4.02320968947864E-02 
1787	 0.03774068146408 
1788	 3.49513195404855E-02 
1789	 3.38782370866915E-02 
1790	 1.89211993965789E-02 
1791	 1.31823477787179E-02 
1792	 1.35434941914091E-02 
1793	 1.48458563385072E-02 
1794	 2.74267423274868E-02 
1795	 2.88685846110124E-02 
1796	 2.58441791314006E-03 
1797	-1.83053359951587E-02 
1798	-5.75930147733287E-02 
1799	-8.28673945072844E-02 
1800	 6.86828536632225E-02 
1801	 0.106106087191445 
1802	 8.87624048896595E-02 
1803	 0.071313259480561 
1804	-0.265881243376973 
1805	-0.468650712134264 
1806	-0.310274314370707 
1807	-0.296684794257338 
1808	-0.082483332050011 
1809	-3.90263520077357E-02 
1810	-0.250043952135306 
1811	-0.329003810665406 
1812	-0.480394079559807 
1813	-0.645446699252639 
1814	-57.0268890021517 
1815	 1.64576376433221 
1816	-0.382893174231469 
1817	 0.458026065601712 
1818	 1.34209466393261 
1819	 3.9884817390458 
1820	 2.6805763503123 
1821	 3.82457842086256 
1822	-6.34986591238852 
1823	-678.519159239566 
1824	-29.924256824771 
1825	-1.69199842490992 
1826	-1.58163473520137 
1827	-5.60085795615256 
1828	-2.13618324198601 
1829	 0.84482651223905 
1830	 2.58929547985989 
1831	-1.94098330721545 
1832	-2.71358015076928 
1833	 2.01909819289458 
1834	 1.17552761023704 
1835	 0.502385828248338 
1836	 1.2236881955971 
1837	-0.337898844414149 
1838	-0.101366712719155 
1839	-0.113183553674076 
1840	 0.242012040929946 
1841	 4.73734454801605 
1842	-1.00209212970143 
1843	-0.84462234832629 
1844	-0.116330492156134 
1845	 0.198445559828357 
1846	-0.101357137965168 
1847	-0.203011388401943 
1848	-0.739254277346603 
1849	-20.7098481088846 
1850	 1.04699062100992 
1851	-2.31667589610063 
1852	 103.389140853676 
1853	 1.76946300810992 
1854	 1.20899694788514 
1855	 0.883668261281592 
1856	 0.784223032120653 
1857	 0.191590816696306 
1858	-0.423516721835354 
1859	-3.10725140856501 
1860	-0.101084381497499 
1861	-0.226145789069232 
1862	-0.1381098957447 
1863	-3.00198954641872E-02 
1864	-0.458889330978268 
1865	-0.805998790934367 
1866	-1.86357867487495 
1867	-2.92036465634995 
1868	-3.35380597021942 
1869	-5.38828673075188 
1870	 7.98002179265205 
1871	 29.9490878959792 
1872	 9.59840027178125 
1873	 22.8184751116293 
1874	 4.97492129727203 
1875	-9.83127576183773 
1876	 18.1012648985224 
1877	 3.15678164315143 
1878	 3.1802700665179 
1879	 1.37243351192355 
1880	 1.72600377976352 
1881	-0.137252883375679 
1882	 0.289813137519778 
1883	-1.54813464770859E-02 
1884	-8.35487867474167E-02 
1885	-1.95425064236866E-02 
1886	-6.70794018113323E-02 
1887	-0.214391627565598 
1888	-0.171698658988366 
1889	-0.170620172489117 
1890	-0.345666271271535 
1891	-0.429901577261491 
1892	-0.251248125050184 
1893	-0.525191425822669 
1894	-0.591335293149852 
1895	 0.490706869364874 
1896	 1.01235357416974 
1897	 0.776202994975297 
1898	 0.428995595843903 
1899	 0.663196792891097 
1900	 2.44242117742581 
1901	-0.93282820035292 
1902	 0.406889478244121 
1903	-0.84581402629279 
1904	-1.92296243947295 
1905	-1.60661037146001 
1906	-4.76105723536996 
1907	 1.55817929811754 
1908	 0.407799109990377 
1909	-3.24285221240462 
1910	 1.21814834057523 
1911	 0.878862566277815 
1912	 0.788795358171591 
1913	 0.962459178042718 
1914	-1.98397564700362 
1915	 0.724290185763795 
1916	 8.08345039827273 
1917	-2.77352079455462 
1918	-24.7209737468534 
1919	 14.8658799675901 
1920	-2.29539278824287 
1921	 5.00745706025393 
1922	 0.354214189025611 
1923	 0.231458956329206 
1924	 1.21811655623147 
1925	 3.33148431576182 
1926	 2.82808432781643 
1927	 1.6927663159266 
1928	 1.8705267202473 
1929	 1.09569752294584 
1930	 0.417464612479375 
1931	 0.504346640563245 
1932	 0.123020378135467 
1933	 0.568766125162146 
1934	 37.6985793465733 
1935	 1.0885701117906 
1936	 0.790866693671342 
1937	 1.27272215954763 
1938	 1.18491647707025 
1939	 0.983296225152036 
1940	-2.93032065437282 
1941	-6.54195098036242 
1942	 1.1162606693457 
1943	 0.591753484395436 
1944	 0.414575037842779 
1945	 0.14909182784044 
1946	 0.168303529196406 
1947	 0.15169354861002 
1948	 1.25024415681728E-02 
1949	 0.330745068403312 
1950	 0.57325163857545 
1951	 0.281810091853777 
1952	 0.104500398284153 
1953	-5.32158097999971E-02 
1954	-0.08522493537202 
1955	-4.97581600509725E-02 
1956	 4.96883941514807E-02 
1957	 0.303906048897909 
1958	 0.355472273033194 
1959	 0.218112679691802 
1960	 0.17037297948209 
1961	 0.144724758712852 
1962	 6.03853967117588E-02 
1963	 4.17686599288459E-02 
1964	 3.41944130906727E-02 
1965	 1.69244114232496E-02 
1966	 2.09961540710626E-02 
1967	 4.29548603525444E-02 
1968	 5.77766074874953E-02 
1969	 6.13458887298043E-02 
1970	 5.86060085075544E-02 
1971	 6.17959845513123E-02 
1972	 4.99930022133593E-02 
1973	 4.01450909277142E-02 
1974	 0.045083475751204 
1975	 3.99555738279029E-02 
1976	 4.16328774881329E-02 
1977	 4.45442383811881E-02 
1978	 3.93321474640812E-02 
1979	 4.04430935551126E-02 
1980	 4.46241111368521E-02 
1981	 4.81156074915888E-02 
1982	 5.39174055713042E-02 
1983	 6.11326959993307E-02 
1984	 5.98729143899853E-02 
1985	 5.78480655795454E-02 
1986	 0.058249423531533 
1987	 6.17859587251532E-02 
1988	 6.68294588861095E-02 
1989	 6.72293687143673E-02 
1990	 6.02189226883956E-02 
1991	 5.13623686631918E-02 
1992	 0.045882157725187 
1993	 0.043641052872617 
1994	 4.31054919255959E-02 
1995	 4.85936166944145E-02 
1996	 4.98100411365363E-02 
1997	 4.96875412163893E-02 
1998	 5.19503747231266E-02 
1999	 5.68077124426893E-02 
2000	 6.58254269073875E-02 
2001	 7.04301638196432E-02 
2002	 7.14808315866494E-02 
2003	 6.57172066891424E-02 
2004	 5.75386679749464E-02 
2005	 5.34597544364438E-02 
2006	 0.055777552922288 
2007	 5.27469855071854E-02 
2008	 3.66844285762632E-02 
2009	 2.96214743017734E-02 
2010	 2.12638822086719E-02 
2011	 1.99589273918227E-02 
2012	 2.28671322955758E-02 
2013	 3.53856280171335E-02 
2014	 4.15446406203025E-02 
2015	 3.43078749365789E-02 
2016	 3.20404231946678E-02 
2017	 2.24770390085878E-02 
2018	 2.21759898711494E-02 
2019	 3.94849046034415E-02 
2020	 4.58927123263642E-02 
2021	 4.84075993701057E-02 
2022	 5.09124192233795E-02 
2023	 4.75220815007354E-02 
2024	 4.44241317709842E-02 
2025	 4.14700201530316E-02 
2026	 3.95087858938371E-02 
2027	 3.67668941888211E-02 
2028	 3.21809495394698E-02 
2029	 3.53398493145502E-02 
2030	 4.12847862816937E-02 
2031	 4.32939582127777E-02 
2032	 4.80405667696882E-02 
2033	 5.01533097904132E-02 
2034	 4.34744121226416E-02 
2035	 3.91116658335187E-02 
2036	 0.035554900155017 
2037	 3.10198237536243E-02 
2038	 3.23876137578728E-02 
2039	 3.30930896212989E-02 
2040	 0.036456582088448 
2041	 3.83033028883141E-02 
2042	 4.09473004422679E-02 
2043	 4.23224142953282E-02 
2044	 0.044274751494886 
2045	 4.30913623754449E-02 
2046	 4.17318081771522E-02 
2047	 0.035347066876742 
2048	 3.17909810698886E-02 
2049	 3.48308918845238E-02 
2050	 3.62619855423499E-02 
2051	 4.04170345343839E-02 
2052	 4.14674113296909E-02 
2053	 4.06241009162098E-02 
2054	 0.039065426927204 
2055	 3.79882150400134E-02 
2056	 3.64892549186045E-02 
2057	 3.14398914699241E-02 
2058	 3.02742663157701E-02 
2059	 3.25179694992883E-02 
2060	 3.21640237976696E-02 
2061	 3.16117082365004E-02 
2062	 3.40101137846297E-02 
2063	 3.22124785361279E-02 
2064	 3.14249806369795E-02 
2065	 3.38498925003176E-02 
2066	 3.63755070504923E-02 
2067	 0.036786050580635 
2068	 3.82475734932401E-02 
2069	 0.036767207524516 
2070	 3.47706534477723E-02 
2071	 3.64240594715928E-02 
2072	 3.67709911575684E-02 
2073	 3.70070113628256E-02 
2074	 3.61250998074518E-02 
2075	 3.67200847481279E-02 
2076	 3.91849945545132E-02 
2077	 3.99194638673448E-02 
2078	 4.15819668212703E-02 
2079	 4.18324271829768E-02 
2080	 4.08575244685409E-02 
2081	 3.73484275417417E-02 
2082	 3.66673609966903E-02 
2083	 3.73642329310395E-02 
2084	 3.89111922216505E-02 
2085	 4.00260226203949E-02 
2086	 3.64201159719205E-02 
2087	 3.46535026803204E-02 
2088	 3.66525011832797E-02 
2089	 3.71552730309217E-02 
2090	 4.08894297879202E-02 
2091	 0.042464204949597 
2092	 4.31192515528068E-02 
2093	 4.09260085853274E-02 
2094	 0.04198344500104 
2095	 4.45507575728856E-02 
2096	 4.58954124095717E-02 
2097	 4.74073780152645E-02 
2098	 4.77267359992524E-02 
2099	 4.66542191014977E-02 
2100	 4.66411428171464E-02 
2101	 4.57990486964346E-02 
2102	 4.47091291336969E-02 
2103	 4.48853526905744E-02 
2104	 0.045086856613503 
2105	 4.55854880244714E-02 
2106	 4.81274265335555E-02 
2107	 4.78396050402871E-02 
2108	 4.62582521965662E-02 
2109	 4.70188047264187E-02 
2110	 4.46377762716367E-02 
2111	 4.17644232019141E-02 
2112	 4.24133288171916E-02 
2113	 4.10102623360434E-02 
2114	 3.73674903162969E-02 
2115	 3.63268415938174E-02 
2116	 3.57066745303378E-02 
2117	 3.57362618698798E-02 
2118	 3.82349416112097E-02 
2119	 3.91912063912199E-02 
2120	 3.98712981546428E-02 
2121	 4.13179369493654E-02 
2122	 4.00841881826396E-02 
2123	 3.73649377901031E-02 
2124	 3.97677567345628E-02 
2125	 4.07312316793645E-02 
2126	 3.81367512793172E-02 
2127	 4.05541290477528E-02 
2128	 4.08209791132093E-02 
2129	 3.76188590386067E-02 
2130	 3.92940952029561E-02 
2131	 4.02215848904761E-02 
2132	 4.07500223437489E-02 
2133	 4.27497466971221E-02 
2134	 4.52445859673115E-02 
2135	 5.09461656971669E-02 
2136	 5.27474535290346E-02 
2137	 5.34860014780051E-02 
2138	 5.24840633835052E-02 
2139	 4.73226021625896E-02 
2140	 4.53643664850868E-02 
2141	 4.44435943516191E-02 
2142	 4.28827909220269E-02 
2143	 4.18078810155992E-02 
2144	 4.13032526717736E-02 
2145	 3.93930623012685E-02 
2146	 0.037540478309109 
2147	 4.20891352139051E-02 
2148	 4.34737495292309E-02 
2149	 4.40324574852079E-02 
2150	 4.69020906047193E-02 
2151	 4.47505125994537E-02 
2152	 4.41338075786059E-02 
2153	 4.35903011982322E-02 
2154	 4.11885160744659E-02 
2155	 4.16925420674156E-02 
2156	 4.10767823974217E-02 
2157	 4.10081313718774E-02 
2158	 4.22911569167967E-02 
2159	 4.30682625994219E-02 
2160	 4.36931484228648E-02 
2161	 4.52329449831225E-02 
2162	 4.80688626613372E-02 
2163	 4.74955939345145E-02 
2164	 4.45189442981888E-02 
2165	 4.30513839019785E-02 
2166	 4.02975329886377E-02 
2167	 3.95222014698502E-02 
2168	 4.07646559669346E-02 
2169	 4.16989577837882E-02 
2170	 4.37638429119838E-02 
2171	 4.31659676920053E-02 
2172	 4.12116235256499E-02 
2173	 4.11877662941968E-02 
2174	 4.13530365614774E-02 
2175	 4.25875024908254E-02 
2176	 4.37167341782403E-02 
2177	 4.33381615091353E-02 
2178	 4.34278164126013E-02 
2179	 4.13711561901063E-02 
2180	 3.80100681470451E-02 
2181	 3.96140890386645E-02 
2182	 4.04720455600413E-02 
2183	 3.81577173979993E-02 
2184	 3.88033840589312E-02 
2185	 4.11832010179416E-02 
2186	 4.20006599487705E-02 
2187	 4.17973683470687E-02 
2188	 3.95104555379262E-02 
2189	 3.48728846779642E-02 
2190	 3.25085359227776E-02 
2191	 2.79346917638122E-02 
2192	 2.86423200061737E-02 
2193	 3.61770359171139E-02 
2194	 3.88567035727599E-02 
2195	 4.05551420365823E-02 
2196	 4.15249368995187E-02 
2197	 0.039715763901425 
2198	 3.85863710691522E-02 
2199	 3.57329677702916E-02 
2200	 3.95943293767865E-02 
2201	 4.14156965412304E-02 
2202	 0.042228493032233 
2203	 4.68636910752251E-02 
2204	 4.42490336208959E-02 
2205	 3.74738554427315E-02 
2206	 3.78541785859755E-02 
2207	 3.95586399691732E-02 
2208	 4.05342424519689E-02 
2209	 4.11108296524698E-02 
2210	 4.04705702194026E-02 
2211	 4.04214780940042E-02 
2212	 3.42587335236941E-02 
2213	 3.26999348567788E-02 
2214	 3.55396870483137E-02 
2215	 0.031432753444006 
2216	 3.21909831292024E-02 
2217	 3.15191990269278E-02 
2218	 2.83065417939425E-02 
2219	 2.89142534717637E-02 
2220	 3.20296701899003E-02 
2221	 3.42418273706307E-02 
2222	 0.038485169051665 
2223	 4.01294294995178E-02 
2224	 4.04556243379963E-02 
2225	 4.01854725673924E-02 
2226	 4.01301509134776E-02 
2227	 3.97981709448436E-02 
2228	 3.74096058874408E-02 
2229	 0.036127038926218 
2230	 0.035374923101777 
2231	 3.33743111961289E-02 
2232	 2.85057629108474E-02 
2233	 2.86194018908853E-02 
2234	 3.31014743717734E-02 
2235	 3.27774319767048E-02 
2236	 0.033563638362178 
2237	 4.02720543597898E-02 
2238	 3.98865258822761E-02 
2239	 3.77037956574421E-02 
2240	 0.036560447326995 
2241	 3.62408746744573E-02 
2242	 3.58998675881234E-02 
2243	 3.80889251262261E-02 
2244	 3.81515143261547E-02 
2245	 3.48943897962551E-02 
2246	 3.69788746213204E-02 
2247	 3.35055275528999E-02 
2248	 3.13364338137254E-02 
2249	 3.88317392462224E-02 
2250	 4.85163279464273E-02 
2251	 5.63928740266559E-02 
2252	 5.74826252283058E-02 
2253	 5.48105117896714E-02 
2254	 4.82425684875579E-02 
2255	 0.040603469186946 
2256	 3.96443620289972E-02 
2257	 0.037792152056043 
2258	 3.07069774294318E-02 
2259	 2.64712041214493E-02 
2260	 2.60474984163264E-02 
2261	 3.19532979058637E-02 
2262	 3.27651918081737E-02 
2263	 3.19311954309617E-02 
2264	 3.50800979344404E-02 
2265	 4.06498195837821E-02 
2266	 4.30433509879799E-02 
2267	 4.75807805551678E-02 
2268	 4.73831060834365E-02 
2269	 3.80593839697703E-02 
2270	 3.73868923032731E-02 
2271	 4.39954317088291E-02 
2272	 4.63923303153549E-02 
2273	 5.17555522453276E-02 
2274	 0.052005994809734 
2275	 4.27730130440877E-02 
2276	 3.78273246617462E-02 
2277	 3.18083985288289E-02 
2278	 0.029506350994998 
2279	 3.27996032074394E-02 
2280	 3.68011865555196E-02 
2281	 4.59332411434906E-02 
2282	 4.81313127691658E-02 
2283	 4.73209950045284E-02 
2284	 4.14397462979579E-02 
2285	 3.22064339587878E-02 
2286	 0.026559789176236 
2287	 2.20133921335068E-02 
2288	 2.05874903807647E-02 
2289	 3.73518516351091E-02 
2290	 4.56805047586746E-02 
2291	 5.07245414750674E-02 
2292	 5.27771546975169E-02 
2293	 2.75905120018419E-02 
2294	 2.43470598125513E-02 
2295	 0.034570114500836 
2296	 3.81514994270544E-02 
2297	 4.81934349003621E-02 
2298	 5.36553767094866E-02 
2299	 6.05833835870056E-02 
2300	 6.29976938033273E-02 
2301	 0.070305178565103 
2302	 7.56965177740842E-02 
2303	 0.064377436727244 
2304	 5.86304236085304E-02 
2305	 0.056073059504966 
2306	 5.01011865643852E-02 
2307	 4.89075277651912E-02 
2308	 5.47307634716154E-02 
2309	 6.45649867872817E-02 
2310	 6.83627148030971E-02 
2311	 6.98575020183287E-02 
2312	 7.00308332605696E-02 
2313	 6.56172395573057E-02 
2314	 5.39575255585973E-02 
2315	 3.65410485992778E-02 
2316	 3.52267467929553E-02 
2317	 3.26467600983404E-02 
2318	 3.01156511899016E-02 
2319	 5.68317647227767E-02 
2320	 6.52898779860991E-02 
2321	 5.49363740986296E-02 
2322	 0.066634218812751 
2323	 6.29871826172624E-02 
2324	 4.00806327112078E-02 
2325	 2.67793768548054E-02 
2326	 8.22616633160652E-03 
2327	 6.09258064833259E-03 
2328	 2.56123013327943E-02 
2329	 3.88567254831464E-02 
2330	 4.64859947312619E-02 
2331	 0.040041106856103 
2332	 1.57502726834818E-02 
2333	 1.4179459168992E-03 
2334	 3.43661204067411E-03 
2335	 1.07922229048519E-03 
2336	 1.15809289796313E-02 
2337	 9.95755222084294E-03 
2338	-0.021581534633045 
2339	-2.06285592840106E-02 
2340	-2.84269015317137E-02 
2341	-4.18795505092932E-02 
2342	-0.013428549789646 
2343	-1.87652260408964E-02 
2344	-5.67849549742989E-02 
2345	-7.85631825857121E-02 
2346	-8.77461816339297E-02 
2347	-8.34897281288021E-02 
2348	-5.85364793583256E-02 
2349	-2.48329780981051E-02 
2350	-2.77501683612165E-03 
2351	 1.03188998810233E-02 
2352	 3.08178867270464E-02 
2353	 3.82356587613073E-02 
2354	 2.97890843023832E-02 
2355	-1.43006941298329E-02 
2356	-5.13707413159296E-02 
2357	-0.059180132554147 
2358	-0.102762611264097 
2359	-0.106417375488897 
2360	-0.105971905859805 
2361	-0.10003063274715 
2362	-0.044796211657945 
2363	-3.63481304481477E-02 
2364	-3.09066357609434E-03 
2365	 2.99331723304516E-02 
2366	 5.9077919191734E-03 
2367	 1.16837447823007E-02 
2368	-2.14538774732356E-02 
2369	-4.75048499289309E-02 
2370	-0.067134431053258 
2371	-8.39623272566226E-02 
2372	-6.22395602890519E-02 
2373	-5.43752950558709E-02 
2374	-7.91056071045685E-02 
2375	-0.12748783925861 
2376	-5.65315736249035E-02 
2377	-2.18776896759079E-02 
2378	-0.034723146233402 
2379	 5.60075789818969E-02 
2380	 6.56036625468173E-03 
2381	-7.82460422606025E-02 
2382	-9.12330778534269E-02 
2383	-0.196647802779177 
2384	-0.30792616224745 
2385	-0.239500850538726 
2386	-0.159138387428813 
2387	-6.26127880224669E-02 
2388	 0.23638480385474 
2389	 0.423011622082693 
2390	 0.486768230983287 
2391	 0.538788194990116 
2392	 0.271774985532838 
2393	-0.346820943055803 
2394	-0.673871289129404 
2395	-0.337663864094371 
2396	-0.126947277785419 
2397	-3.11584811435542E-02 
2398	 6.89577051801057E-02 
2399	 4.27404482369799E-02 
2400	-6.24813870816969E-02 
2401	-0.113932690089794 
2402	-7.20979072968837E-02 
2403	-0.137423896571812 
2404	-0.446803929032007 
2405	-0.371836747930419 
2406	-0.344925731342831 
2407	-0.549297702213525 
2408	-0.235064115366271 
2409	 0.828549503011379 
2410	 0.649397458593058 
2411	 0.345246859477183 
2412	 0.370476446623324 
2413	 0.395117201918571 
2414	 0.446532338876321 
2415	 0.788845564942323 
2416	 1.55841541248519 
2417	 1.49007213701056 
2418	 0.348634802487411 
2419	 0.666210648212867 
2420	 0.268293301166608 
2421	 0.633242002498047 
2422	 6.64479455667664 
2423	 2.68174920985866 
2424	 0.879567829930601 
2425	 0.27139032730483 
2426	-0.221005000198876 
2427	-0.889370660097675 
2428	-0.516675755009192 
2429	 0.403678913706394 
2430	 0.517219627621709 
2431	-1.4019771839387 
2432	-0.783164855435745 
2433	-0.397034397133291 
2434	-0.34010685110772 
2435	-0.157475576871599 
2436	 2.46873090644064 
2437	-0.134651098934533 
2438	 0.112983745317798 
2439	 0.151238524015145 
2440	 0.101391892665289 
2441	-0.164938811697667 
2442	 2.50604912445825 
2443	 0.665506892462951 
2444	 0.861060943476298 
2445	 0.186906925447147 
2446	 5.12965073607426E-02 
2447	-0.143468824398585 
2448	-0.187658277337518 
2449	-0.177111092963967 
2450	-0.207865112345068 
2451	 0.270203027839141 
2452	 0.412742641818571 
2453	-0.659186761362278 
2454	-0.470348986528732 
2455	-1.09638418740219 
2456	-1.63111758553114 
2457	-0.72248671645421 
2458	 8.65418522369878E-02 
2459	-0.189998315007956 
2460	-0.52489329348675 
2461	-1.1405831714031 
2462	-1.61493545211964 
2463	-0.954752900840708 
2464	-0.321246032016998 
2465	-1.82538244244007 
2466	-16.5103980386411 
2467	 1.52035315869645 
2468	 1.92989484304687 
2469	 0.609507112511384 
2470	 0.099901396814184 
2471	-4.77443465124221E-02 
2472	 0.145971884281644 
2473	 0.571013889846007 
2474	 1.04511811618219 
2475	 1.24429340696179 
2476	 0.961668152162985 
2477	 0.542416073603507 
2478	 0.393694449071618 
2479	 2.78918222058821E-02 
2480	 2.68924534410221E-02 
2481	 0.144684150510508 
2482	-0.268807830527453 
2483	 1.6456540672741 
2484	 0.770311592512146 
2485	-1.21372133508535E-02 
2486	 1.52740351371721 
2487	 1.84698878556245 
2488	-8.65392792786743 
2489	-1.1364701789352 
2490	 3.39203459616909 
2491	-3.43969416458957 
2492	-5.89074876699679 
2493	-0.086752270668839 
2494	 1.70288083357346 
2495	 2.73142287027053 
2496	 5.60948289601592 
2497	-1.10948347585128 
2498	-0.586933107207995 
2499	-1.59418470340485 
2500	 6.96366722709529 
