Wavelength	rt0801far200003.asd
350	 6.25551523075136E-02 
351	 6.29475037312581E-02 
352	 6.32616187754177E-02 
353	 6.34495920632562E-02 
354	 6.35979657100829E-02 
355	 6.37712986863359E-02 
356	 6.28441887083185E-02 
357	 6.21323055078955E-02 
358	 6.29567004435359E-02 
359	 6.33054252489525E-02 
360	 6.33938493884229E-02 
361	 6.34952434271719E-02 
362	 0.063789327036811 
363	 6.34901803997859E-02 
364	 6.34268723461573E-02 
365	 6.39118091162904E-02 
366	 6.42221237330185E-02 
367	 6.35977195712837E-02 
368	 6.31353867120707E-02 
369	 6.37604432837032E-02 
370	 6.39308334445067E-02 
371	 6.42469357869608E-02 
372	 6.46131617802429E-02 
373	 6.45782275551152E-02 
374	 6.43864865543259E-02 
375	 6.43760373481672E-02 
376	 0.064675759982863 
377	 6.51110514791285E-02 
378	 6.52105782028307E-02 
379	 6.50519863681999E-02 
380	 6.50611070213877E-02 
381	 6.63629266436395E-02 
382	 6.66108045914598E-02 
383	 6.60805345892286E-02 
384	 6.62868255966635E-02 
385	 6.72907431626464E-02 
386	 0.067874507359204 
387	 6.77593515147663E-02 
388	 0.067815757495249 
389	 6.77866916263777E-02 
390	 0.067407747137393 
391	 6.69182511021959E-02 
392	 6.78063255451794E-02 
393	 0.068615678389133 
394	 6.88694696427666E-02 
395	 6.87098733847443E-02 
396	 6.91226200567688E-02 
397	 6.95590975039622E-02 
398	 6.97512645080622E-02 
399	 6.97815361031507E-02 
400	 7.00863784116021E-02 
401	 7.03466912340366E-02 
402	 7.03583575034439E-02 
403	 7.03803271883661E-02 
404	 7.08366833009859E-02 
405	 7.12533643602007E-02 
406	 7.10414250228005E-02 
407	 7.10517864800539E-02 
408	 0.071201538352873 
409	 7.14756282103961E-02 
410	 7.19561521030392E-02 
411	 7.19183200855983E-02 
412	 7.20940420477575E-02 
413	 7.28591519859098E-02 
414	 7.31531310787115E-02 
415	 7.31225627109748E-02 
416	 7.30820071985401E-02 
417	 7.33630900665574E-02 
418	 7.38083571419369E-02 
419	 7.40989953286614E-02 
420	 7.42555238500294E-02 
421	 0.074655857582382 
422	 7.49190354237702E-02 
423	 7.52018956652073E-02 
424	 7.56031241980797E-02 
425	 7.57111219128068E-02 
426	 7.60922483418181E-02 
427	 7.67154791165904E-02 
428	 7.72503907102598E-02 
429	 0.077574266239535 
430	 7.79581923478846E-02 
431	 7.84250054375544E-02 
432	 0.078667038283819 
433	 7.91088917795166E-02 
434	 7.96551137947654E-02 
435	 8.01278344388578E-02 
436	 0.080451881069717 
437	 8.09117943424698E-02 
438	 8.13832456403667E-02 
439	 8.15927669647343E-02 
440	 8.21104973426909E-02 
441	 8.26450237858522E-02 
442	 8.30232088758761E-02 
443	 8.33855190163924E-02 
444	 0.083656071534857 
445	 0.083910450017984 
446	 8.42422790303949E-02 
447	 8.46765416825677E-02 
448	 8.49835597597659E-02 
449	 8.52176600909892E-02 
450	 8.56137042853873E-02 
451	 8.58106174223135E-02 
452	 8.58978555564796E-02 
453	 8.60351129346407E-02 
454	 8.63947839182476E-02 
455	 8.67431417556004E-02 
456	 8.69148472950765E-02 
457	 8.68717323569589E-02 
458	 8.70521753358239E-02 
459	 8.72744945044094E-02 
460	 8.74211427278419E-02 
461	 8.74815076030443E-02 
462	 0.087654942195372 
463	 8.77639961613377E-02 
464	 8.77083446500304E-02 
465	 8.77963116405838E-02 
466	 0.088003148893934 
467	 8.82747001115152E-02 
468	 8.85287836116515E-02 
469	 8.87027824143869E-02 
470	 8.88043020044234E-02 
471	 8.89106097963961E-02 
472	 8.91756562467402E-02 
473	 8.93755333483768E-02 
474	 8.94947047427493E-02 
475	 8.96063266186469E-02 
476	 8.98828610034886E-02 
477	 9.01271025026165E-02 
478	 9.03261422923554E-02 
479	 9.05919081127921E-02 
480	 9.08933342461577E-02 
481	 9.10646378109634E-02 
482	 9.11276720279705E-02 
483	 9.15168710610271E-02 
484	 9.19990503318693E-02 
485	 9.23806372298021E-02 
486	 0.092576647006929 
487	 9.30230976052611E-02 
488	 9.33621284835401E-02 
489	 9.35979511592405E-02 
490	 9.41012267489043E-02 
491	 9.44561150613185E-02 
492	 9.48827542425416E-02 
493	 9.55065542753898E-02 
494	 9.58469464977747E-02 
495	 9.63168303375453E-02 
496	 9.68891289085715E-02 
497	 9.73478244600083E-02 
498	 9.79187898140247E-02 
499	 9.84456576562786E-02 
500	 9.89323909159998E-02 
501	 0.099688174064472 
502	 0.100379027436016 
503	 0.100993927331593 
504	 0.101603356149839 
505	 0.10217956271078 
506	 0.102792223666381 
507	 0.103407812612381 
508	 0.103924595479923 
509	 0.104537477870457 
510	 0.105167888407902 
511	 0.105768762745773 
512	 0.106483336100802 
513	 0.10718403065678 
514	 0.107903908609557 
515	 0.108739425882827 
516	 0.109775950308036 
517	 0.110586921365717 
518	 0.11111801072623 
519	 0.111816618446614 
520	 0.112614173734837 
521	 0.113472781409559 
522	 0.114333259881933 
523	 0.115029689443022 
524	 0.115870767107109 
525	 0.1168202925828 
526	 0.117616952766711 
527	 0.118448769264662 
528	 0.119308482160198 
529	 0.120160879945887 
530	 0.120962647885331 
531	 0.121888810814987 
532	 0.12284476212029 
533	 0.123683410314155 
534	 0.124628314331861 
535	 0.125598919896871 
536	 0.126510006264726 
537	 0.12729021183039 
538	 0.128261203342667 
539	 0.129311855809905 
540	 0.13030046004218 
541	 0.131383410654669 
542	 0.132395432890148 
543	 0.133313064637566 
544	 0.134210441521823 
545	 0.135115090279161 
546	 0.136009781081807 
547	 0.136899477521472 
548	 0.137854440425648 
549	 0.138812672052645 
550	 0.139712046720327 
551	 0.140528979844882 
552	 0.141431510633008 
553	 0.142374128785558 
554	 0.143294988672178 
555	 0.144128478288096 
556	 0.145014974717458 
557	 0.145951755166382 
558	 0.146868790122312 
559	 0.147635026206152 
560	 0.14839834531066 
561	 0.14918470613234 
562	 0.149942620024916 
563	 0.15062573310592 
564	 0.151341050646028 
565	 0.152120128557409 
566	 0.152807498043082 
567	 0.153562782002802 
568	 0.154261319028798 
569	 0.1547448291422 
570	 0.15531041719033 
571	 0.155810741741811 
572	 0.156213709195309 
573	 0.156633181659337 
574	 0.157003937646022 
575	 0.15741169634415 
576	 0.157898564006964 
577	 0.158289039323371 
578	 0.158562378793448 
579	 0.1587901001705 
580	 0.159102975732224 
581	 0.159588735485283 
582	 0.159899429986558 
583	 0.159956075059603 
584	 0.160249325462165 
585	 0.16076579813417 
586	 0.161266667667314 
587	 0.161488394908589 
588	 0.161738364065378 
589	 0.161910409952167 
590	 0.161971039189157 
591	 0.162005618251853 
592	 0.162010937517363 
593	 0.162039855121434 
594	 0.162042420554215 
595	 0.161619955979559 
596	 0.161278314791637 
597	 0.161043406342867 
598	 0.160686575239355 
599	 0.160332955106647 
600	 0.160051647530628 
601	 0.159842793587008 
602	 0.159588180895049 
603	 0.159555533265969 
604	 0.159723969171904 
605	 0.159916818545314 
606	 0.159687934275246 
607	 0.15969222579159 
608	 0.159971558623947 
609	 0.159902474508552 
610	 0.159975369787491 
611	 0.160117194016837 
612	 0.160164985174941 
613	 0.160004196793627 
614	 0.160088658287605 
615	 0.160279058566094 
616	 0.160162510510498 
617	 0.160249456533618 
618	 0.160275039878027 
619	 0.160183336758823 
620	 0.160395716696511 
621	 0.160523071087673 
622	 0.160528186911949 
623	 0.160492966317747 
624	 0.160456063109427 
625	 0.160627962324757 
626	 0.160887529637735 
627	 0.160814739476847 
628	 0.1607394448729 
629	 0.160741954799486 
630	 0.160808219844403 
631	 0.160830618528307 
632	 0.160742658525643 
633	 0.160616705492324 
634	 0.160570853907521 
635	 0.16046575234512 
636	 0.160385406007661 
637	 0.16039002630063 
638	 0.160483107018191 
639	 0.160438424745034 
640	 0.160292693820159 
641	 0.160170816746055 
642	 0.160156991633829 
643	 0.160264274413863 
644	 0.160390632276099 
645	 0.160363757024012 
646	 0.160588126770153 
647	 0.160658093818193 
648	 0.160339317665937 
649	 0.160127077978625 
650	 0.160074398663877 
651	 0.160017032394296 
652	 0.159754222988677 
653	 0.159527138676638 
654	 0.159343070652225 
655	 0.1591484094727 
656	 0.158854423622825 
657	 0.158480685092217 
658	 0.158179563540202 
659	 0.157976122013863 
660	 0.157444051673182 
661	 0.157220422839111 
662	 0.157268242469446 
663	 0.157150838924226 
664	 0.157013437406426 
665	 0.15685678017024 
666	 0.156737849858368 
667	 0.156868054658814 
668	 0.156632487250687 
669	 0.156427918152889 
670	 0.156763315323643 
671	 0.15690647860565 
672	 0.15687692533641 
673	 0.156807100695478 
674	 0.156895885840507 
675	 0.157136854790887 
676	 0.157430076189546 
677	 0.157640193251658 
678	 0.157549049021265 
679	 0.157699019388681 
680	 0.158121048676681 
681	 0.158571910820671 
682	 0.158801695348406 
683	 0.159013511796625 
684	 0.159417226217481 
685	 0.160243284489017 
686	 0.160988697093617 
687	 0.161541832450126 
688	 0.161958771886222 
689	 0.162334715916768 
690	 0.162719207882972 
691	 0.163180582177604 
692	 0.163772658252699 
693	 0.164222843708532 
694	 0.164311474402153 
695	 0.164120702698912 
696	 0.164068850280052 
697	 0.164115359600505 
698	 0.164231333915679 
699	 0.164353050948931 
700	 0.164399383315391 
701	 0.164217323297941 
702	 0.163744453760305 
703	 0.163015189150805 
704	 0.162505643665901 
705	 0.162240243388784 
706	 0.161996182194571 
707	 0.161135614772603 
708	 0.160299098398837 
709	 0.159635329181395 
710	 0.159029671569651 
711	 0.157978947315411 
712	 0.156882972796207 
713	 0.156033733848237 
714	 0.155535085080137 
715	 0.155265427120026 
716	 0.155115688943337 
717	 0.154791928964912 
718	 0.153490327874727 
719	 0.151148813165955 
720	 0.148811686341911 
721	 0.146916926814351 
722	 0.145912084673842 
723	 0.144877906208769 
724	 0.143408252467745 
725	 0.141573227055776 
726	 0.139583559228443 
727	 0.137312275185515 
728	 0.134736507414554 
729	 0.132440498956685 
730	 0.129361463634824 
731	 0.125971505975558 
732	 0.123068197049923 
733	 0.120897349334213 
734	 0.118989481569266 
735	 0.117238087167632 
736	 0.115979173439802 
737	 0.114922168090585 
738	 0.11395035574255 
739	 0.113096798580017 
740	 0.112630464676167 
741	 0.112277471666019 
742	 0.111979842506065 
743	 0.111795155895882 
744	 0.111779589203261 
745	 0.111738052619367 
746	 0.111594961313389 
747	 0.111462687606985 
748	 0.111628103777433 
749	 0.111727177835968 
750	 0.111486752403357 
751	 0.111500634485828 
752	 0.111531854327501 
753	 0.111589089742312 
754	 0.111777173373805 
755	 0.111842103014887 
756	 0.111893461516361 
757	 0.112094931306687 
758	 0.112811418954867 
759	 0.113983268521665 
760	 0.115038044437523 
761	 0.114929394065023 
762	 0.115213280456737 
763	 0.115018869833739 
764	 0.1143990235086 
765	 0.11376816723668 
766	 0.113597898421574 
767	 0.113585037765652 
768	 0.113612152661304 
769	 0.113725628979027 
770	 0.113835372448448 
771	 0.113938709419101 
772	 0.11410217664088 
773	 0.11454909921204 
774	 0.114894330808783 
775	 0.115099164167653 
776	 0.11530370940373 
777	 0.115634947103492 
778	 0.115996478171075 
779	 0.116421099753902 
780	 0.117065560962532 
781	 0.11754182237039 
782	 0.117955435981642 
783	 0.118422695399562 
784	 0.118843781965693 
785	 0.119550719464338 
786	 0.120268558299144 
787	 0.120644548877098 
788	 0.121280302002621 
789	 0.12186237101009 
790	 0.122305428055726 
791	 0.122756159515806 
792	 0.123182904224186 
793	 0.123507061969423 
794	 0.123817883942535 
795	 0.124472182469284 
796	 0.125040428035291 
797	 0.125479598673711 
798	 0.125886875648681 
799	 0.126325861860596 
800	 0.126639659271099 
801	 0.126867267601375 
802	 0.127134780949361 
803	 0.127242484750385 
804	 0.12718788536453 
805	 0.127082921101126 
806	 0.127123705911238 
807	 0.127289404829008 
808	 0.127367277477701 
809	 0.12731160090617 
810	 0.127659694482781 
811	 0.127955421320462 
812	 0.128096167142145 
813	 0.128153070996451 
814	 0.128398331299357 
815	 0.128030343488636 
816	 0.127056456412404 
817	 0.126193703146733 
818	 0.125116275934794 
819	 0.123998973590276 
820	 0.122909959987806 
821	 0.121860378104054 
822	 0.120181148511231 
823	 0.118212951721474 
824	 0.116402432908531 
825	 0.114383259265622 
826	 0.112577410012871 
827	 0.110635996645744 
828	 0.10816346717914 
829	 0.105478760908388 
830	 0.103257287207642 
831	 0.101462260760747 
832	 9.96535687270201E-02 
833	 9.82107548969692E-02 
834	 9.70078615638719E-02 
835	 9.59070780299213E-02 
836	 0.094858708000527 
837	 9.33704829659232E-02 
838	 9.24643783734254E-02 
839	 9.26016851392959E-02 
840	 9.21192894805099E-02 
841	 0.091403571072931 
842	 9.06610474107102E-02 
843	 9.01177711917322E-02 
844	 0.090212607583319 
845	 0.089812896196992 
846	 8.89875171079908E-02 
847	 8.85831511034254E-02 
848	 8.81416622537211E-02 
849	 8.77579730163581E-02 
850	 0.087385157285327 
851	 8.67549785299421E-02 
852	 8.63425101738238E-02 
853	 8.60025187897887E-02 
854	 8.56166717362327E-02 
855	 8.54088867903582E-02 
856	 0.085003348803571 
857	 8.46344313524784E-02 
858	 8.45406266349486E-02 
859	 8.43947384226821E-02 
860	 8.39673006878627E-02 
861	 8.33854370677474E-02 
862	 8.29028625278106E-02 
863	 8.22233934433678E-02 
864	 8.19731186666237E-02 
865	 8.21469520883254E-02 
866	 8.20914723707536E-02 
867	 0.081510953049694 
868	 8.06836799656453E-02 
869	 8.01253593289776E-02 
870	 8.04508296484529E-02 
871	 7.96913669867454E-02 
872	 7.85133943007338E-02 
873	 7.78927171383264E-02 
874	 0.078160533402324 
875	 7.76337571129942E-02 
876	 7.68795962914817E-02 
877	 7.66884867628889E-02 
878	 7.57652567956834E-02 
879	 7.53608427408961E-02 
880	 7.53457440840081E-02 
881	 7.49819203510665E-02 
882	 7.43430534918981E-02 
883	 7.39448145775091E-02 
884	 7.34976738986393E-02 
885	 7.23499688282846E-02 
886	 7.23673444174393E-02 
887	 7.22144391999838E-02 
888	 7.15565805182137E-02 
889	 0.071533435054409 
890	 7.12797262772328E-02 
891	 7.07023446706508E-02 
892	 7.00719258858837E-02 
893	 7.01200274490611E-02 
894	 7.02906018470329E-02 
895	 7.04025587700868E-02 
896	 7.03403641561676E-02 
897	 6.99143292400622E-02 
898	 0.069271440744777 
899	 6.88493788017304E-02 
900	 6.88881945635305E-02 
901	 6.88495680926991E-02 
902	 6.83724599217849E-02 
903	 6.75265624040962E-02 
904	 6.66315089337406E-02 
905	 0.066278283304347 
906	 6.62192616837485E-02 
907	 6.60138392342035E-02 
908	 0.065195039862031 
909	 0.064220751323533 
910	 6.41619849024332E-02 
911	 6.46863141050874E-02 
912	 6.43074789136997E-02 
913	 6.38407611950111E-02 
914	 0.062583161628953 
915	 6.08424479708325E-02 
916	 6.00263654889594E-02 
917	 5.92409555543682E-02 
918	 5.81939817256802E-02 
919	 5.66963081119858E-02 
920	 5.45949678102747E-02 
921	 5.36943495612737E-02 
922	 5.31092510875531E-02 
923	 5.22963215425727E-02 
924	 5.26369381487073E-02 
925	 5.13661117775515E-02 
926	 4.96471966355322E-02 
927	 4.96103494576081E-02 
928	 0.051313624078468 
929	 4.99352722376314E-02 
930	 4.51165382149635E-02 
931	 4.14711825994434E-02 
932	 4.79718978088032E-02 
933	 6.13503706236197E-02 
934	 6.23837301083736E-02 
935	 4.13627815661694E-02 
936	 3.74564786465433E-02 
937	 4.19119652161899E-02 
938	 4.34397830266996E-02 
939	 3.74010822480359E-02 
940	 3.99589555186254E-02 
941	 4.56480448480014E-02 
942	 4.42793511518624E-02 
943	 2.99072151930058E-02 
944	 3.69139538235335E-02 
945	 4.08754159321391E-02 
946	 3.81172593196196E-02 
947	 3.93678916113499E-02 
948	 4.37092212335781E-02 
949	 3.62040166394112E-02 
950	 2.84621987707323E-02 
951	 3.98483319293875E-02 
952	 3.50126494137976E-02 
953	 3.10454327542016E-02 
954	 3.47115320355404E-02 
955	 4.13293578825739E-02 
956	 0.04024921485396 
957	 3.99388264876976E-02 
958	 4.05006757963512E-02 
959	 0.036696505361083 
960	 3.28578781072231E-02 
961	 3.43542963743534E-02 
962	 3.84697560847201E-02 
963	 3.84296080330284E-02 
964	 3.42903093158509E-02 
965	 3.45353974525204E-02 
966	 3.71755583866072E-02 
967	 3.47525707266503E-02 
968	 3.44960641491324E-02 
969	 3.50646820777357E-02 
970	 3.47569886354609E-02 
971	 3.25961155698894E-02 
972	 3.05851790612662E-02 
973	 2.99407241438599E-02 
974	 3.01680889874588E-02 
975	 2.95762268517696E-02 
976	 3.08800676205979E-02 
977	 2.98624497066276E-02 
978	 2.85809051043489E-02 
979	 3.29339122974377E-02 
980	 3.40521590014859E-02 
981	 3.19979292191596E-02 
982	 3.06344889616392E-02 
983	 3.38851013656635E-02 
984	 3.06832821969937E-02 
985	 2.79784834913582E-02 
986	 2.94481059687652E-02 
987	 0.033471483382971 
988	 3.14817923715734E-02 
989	 3.00168967564209E-02 
990	 3.04533792120591E-02 
991	 2.97143547330681E-02 
992	 3.00986116009265E-02 
993	 2.99418588317512E-02 
994	 3.00764682040276E-02 
995	 0.032027789011461 
996	 2.96340682914583E-02 
997	 2.82500934595018E-02 
998	 3.01156604779928E-02 
999	 0.033909075661045 
1000	 3.57102916970692E-02 
1001	 3.06838952083246E-02 
1002	 3.05284553599418E-02 
1003	 0.030666766799838 
1004	 3.10999211948018E-02 
1005	 3.13253941340866E-02 
1006	 3.17339539206075E-02 
1007	 3.16376989773809E-02 
1008	 3.18298822783082E-02 
1009	 3.18788947035758E-02 
1010	 3.18130455965349E-02 
1011	 3.24103578304659E-02 
1012	 3.20401350198552E-02 
1013	 3.17968709319651E-02 
1014	 3.16799078075009E-02 
1015	 3.13334152359364E-02 
1016	 3.10416023980436E-02 
1017	 3.09479862556152E-02 
1018	 3.08898318039383E-02 
1019	 3.07889121980036E-02 
1020	 3.07581493748954E-02 
1021	 3.07040076372624E-02 
1022	 3.12596472530334E-02 
1023	 3.09937093093956E-02 
1024	 3.03958377834926E-02 
1025	 3.04972616939067E-02 
1026	 3.01345301453866E-02 
1027	 3.05515758218317E-02 
1028	 3.17356037669548E-02 
1029	 3.25372963698447E-02 
1030	 3.36003241506884E-02 
1031	 3.42595244458215E-02 
1032	 3.49003139797073E-02 
1033	 3.52296830699308E-02 
1034	 3.52536595343011E-02 
1035	 3.51754688773293E-02 
1036	 3.45560604408487E-02 
1037	 3.43538427322539E-02 
1038	 3.40583252288777E-02 
1039	 3.42006735061118E-02 
1040	 3.47306566282969E-02 
1041	 3.49001155063699E-02 
1042	 0.034894358779386 
1043	 3.45490353800585E-02 
1044	 3.47195488799407E-02 
1045	 3.48846333425737E-02 
1046	 3.52225778227814E-02 
1047	 3.60717245300057E-02 
1048	 3.65584622756294E-02 
1049	 3.68961858848006E-02 
1050	 3.71930787677872E-02 
1051	 3.75179390864917E-02 
1052	 3.76525736977168E-02 
1053	 3.75272417687048E-02 
1054	 0.037562984746003 
1055	 3.74025488059621E-02 
1056	 3.75067989439076E-02 
1057	 3.77542287648518E-02 
1058	 3.83698774481005E-02 
1059	 3.83899630025154E-02 
1060	 3.82647638356807E-02 
1061	 0.038246968666921 
1062	 3.79128793240706E-02 
1063	 0.037769672494094 
1064	 3.79024878468665E-02 
1065	 3.78779089808129E-02 
1066	 3.74586499264446E-02 
1067	 3.75464826151955E-02 
1068	 3.80049466759059E-02 
1069	 3.83150305107356E-02 
1070	 3.90270661840558E-02 
1071	 3.93888396157523E-02 
1072	 3.95128941529346E-02 
1073	 3.96594575032498E-02 
1074	 3.93933882589532E-02 
1075	 3.86434830550285E-02 
1076	 3.83873550000296E-02 
1077	 3.79130207041319E-02 
1078	 3.78935171763288E-02 
1079	 0.038536413617965 
1080	 0.038638242209888 
1081	 3.88319969662386E-02 
1082	 3.86068726809151E-02 
1083	 3.75146438466461E-02 
1084	 0.037346363070969 
1085	 3.76914167470818E-02 
1086	 3.76648522741272E-02 
1087	 3.82816686252074E-02 
1088	 3.82121607295521E-02 
1089	 3.75361161980089E-02 
1090	 3.61899921173229E-02 
1091	 3.57369860409722E-02 
1092	 3.54414102075598E-02 
1093	 3.55736649743717E-02 
1094	 3.64036485725412E-02 
1095	 3.66863950855121E-02 
1096	 3.70047500504103E-02 
1097	 3.71157808726103E-02 
1098	 3.69374591659497E-02 
1099	 3.71210739676266E-02 
1100	 3.77377500012784E-02 
1101	 3.75155050191815E-02 
1102	 3.63852689324839E-02 
1103	 0.036218939965853 
1104	 3.57521892659905E-02 
1105	 3.58055803543962E-02 
1106	 3.79017209093809E-02 
1107	 4.00094728878599E-02 
1108	 3.85479674976162E-02 
1109	 0.035919992469041 
1110	 3.53509668742251E-02 
1111	 3.29028876733768E-02 
1112	 3.27820131853684E-02 
1113	 3.92222691881163E-02 
1114	 4.12127447368013E-02 
1115	 3.86784269986512E-02 
1116	 3.97140636739329E-02 
1117	 4.37580518607235E-02 
1118	 4.51615609376649E-02 
1119	 4.42843808454947E-02 
1120	 4.82234435531939E-02 
1121	 5.56508021236856E-02 
1122	 5.62304950155835E-02 
1123	 5.21294227920073E-02 
1124	 0.060566212538187 
1125	 5.96952298055061E-02 
1126	 4.18089506546343E-02 
1127	 0.049405478388876 
1128	 7.02773140679398E-02 
1129	 6.66166912299989E-02 
1130	 4.70048000458334E-02 
1131	 4.96878371127864E-02 
1132	 5.41553909495508E-02 
1133	 5.12051686621476E-02 
1134	 5.74816283009153E-02 
1135	 5.71474882847091E-02 
1136	 4.63721912352708E-02 
1137	 4.17646849514547E-02 
1138	 4.24564502119231E-02 
1139	 3.74987683416091E-02 
1140	 3.47248786243703E-02 
1141	 3.40390867108144E-02 
1142	 3.35920894660193E-02 
1143	 3.77102396076726E-02 
1144	 4.04506002222522E-02 
1145	 4.07038750701704E-02 
1146	 0.043639050798273 
1147	 4.25527272949813E-02 
1148	 3.56466555339836E-02 
1149	 3.16505620804638E-02 
1150	 3.01600194116249E-02 
1151	 2.85108295547635E-02 
1152	 2.92844705521227E-02 
1153	 3.27266792974887E-02 
1154	 3.34074008728557E-02 
1155	 3.32540194865821E-02 
1156	 0.034562554002553 
1157	 3.21685020168034E-02 
1158	 0.030936350341434 
1159	 3.09225439895853E-02 
1160	 0.029694236411063 
1161	 3.11570541725769E-02 
1162	 3.30880495364866E-02 
1163	 3.15612001752937E-02 
1164	 3.00587916705319E-02 
1165	 2.89399693658073E-02 
1166	 2.83568073001507E-02 
1167	 2.98604294829888E-02 
1168	 3.04061457277388E-02 
1169	 3.00225734857388E-02 
1170	 3.00009294888212E-02 
1171	 2.97070318631854E-02 
1172	 2.84602930350526E-02 
1173	 2.85593910264797E-02 
1174	 0.029556840566355 
1175	 2.96753141511074E-02 
1176	 2.99807797312216E-02 
1177	 3.07631443098694E-02 
1178	 3.03673801648387E-02 
1179	 3.00713470673642E-02 
1180	 0.029932782134356 
1181	 2.97097078834467E-02 
1182	 3.04367630579978E-02 
1183	 3.05659293399486E-02 
1184	 3.01614843908155E-02 
1185	 3.03851946578627E-02 
1186	 2.98477999850716E-02 
1187	 2.93574472321972E-02 
1188	 3.00465373422094E-02 
1189	 3.03414623513057E-02 
1190	 3.00084184464749E-02 
1191	 2.97103657454277E-02 
1192	 0.029776558581137 
1193	 2.97336674481719E-02 
1194	 0.0298862033267 
1195	 3.02383791619272E-02 
1196	 3.03829145761466E-02 
1197	 3.02810904709648E-02 
1198	 3.00104430844063E-02 
1199	 2.98574596611763E-02 
1200	 3.02051009271419E-02 
1201	 3.00138599277989E-02 
1202	 0.029479162396661 
1203	 0.029899369053668 
1204	 3.00763123048674E-02 
1205	 0.029068781245605 
1206	 2.85367694516218E-02 
1207	 2.83794368975597E-02 
1208	 2.79365172805095E-02 
1209	 2.85353595800524E-02 
1210	 2.94676299425177E-02 
1211	 2.96890535098888E-02 
1212	 0.029401046354459 
1213	 2.87958883136119E-02 
1214	 2.86738347535267E-02 
1215	 2.85550171818938E-02 
1216	 2.86811231732064E-02 
1217	 0.028554265531085 
1218	 2.84720397315548E-02 
1219	 2.88280161594678E-02 
1220	 2.85362662737635E-02 
1221	 2.78950195415569E-02 
1222	 2.81140895096651E-02 
1223	 2.85189661993632E-02 
1224	 2.81260404143231E-02 
1225	 2.77476858086762E-02 
1226	 2.82940144702188E-02 
1227	 2.83115537276166E-02 
1228	 2.72211101027502E-02 
1229	 2.71922211118378E-02 
1230	 2.79591926246299E-02 
1231	 2.79275121177924E-02 
1232	 0.02800673090839 
1233	 2.83273201386201E-02 
1234	 2.82596099724561E-02 
1235	 2.82418245248513E-02 
1236	 2.83772390823028E-02 
1237	 2.83898455118316E-02 
1238	 2.84590757598371E-02 
1239	 2.79571095362316E-02 
1240	 2.77301334416786E-02 
1241	 2.80484932990171E-02 
1242	 2.81078442193318E-02 
1243	 2.80427504404612E-02 
1244	 2.82736363013414E-02 
1245	 2.81520953406832E-02 
1246	 0.028037977564199 
1247	 0.028210908842106 
1248	 2.75656325438732E-02 
1249	 2.70545414874184E-02 
1250	 2.74614617462072E-02 
1251	 2.76059525701013E-02 
1252	 2.79781503622634E-02 
1253	 2.83045766513685E-02 
1254	 2.81556948827727E-02 
1255	 0.02851712831709 
1256	 2.84099328332292E-02 
1257	 2.80224860060267E-02 
1258	 2.79308918378517E-02 
1259	 2.75013112495154E-02 
1260	 2.73354112836566E-02 
1261	 2.78740647246244E-02 
1262	 2.80163297993231E-02 
1263	 2.79158104727784E-02 
1264	 2.78423837354128E-02 
1265	 2.80769950362375E-02 
1266	 2.80583635924266E-02 
1267	 2.82098588873351E-02 
1268	 2.82449049026477E-02 
1269	 2.78622189328375E-02 
1270	 2.77457503847358E-02 
1271	 2.77281802802944E-02 
1272	 2.77239789946638E-02 
1273	 2.78334745284839E-02 
1274	 2.82014363138199E-02 
1275	 2.81938143569893E-02 
1276	 2.75666413756499E-02 
1277	 0.027654220071973 
1278	 2.80022666670962E-02 
1279	 2.77102403869718E-02 
1280	 2.78524269072967E-02 
1281	 2.80332100560159E-02 
1282	 2.78372371215726E-02 
1283	 2.75869909245942E-02 
1284	 2.76939346359402E-02 
1285	 2.79783462178144E-02 
1286	 0.028101542405883 
1287	 0.028371609288211 
1288	 2.93550337566663E-02 
1289	 2.93943130496877E-02 
1290	 2.86308324220844E-02 
1291	 2.82042539910354E-02 
1292	 2.86193862098664E-02 
1293	 2.87106472383747E-02 
1294	 2.85910141644826E-02 
1295	 0.028728493026388 
1296	 2.85041399973346E-02 
1297	 2.88253702027895E-02 
1298	 2.94016739031446E-02 
1299	 2.92085430390158E-02 
1300	 2.92207080369119E-02 
1301	 2.89695200720402E-02 
1302	 2.82227293797688E-02 
1303	 2.85611575040628E-02 
1304	 2.96699884617873E-02 
1305	 2.96202177967086E-02 
1306	 2.91272286750726E-02 
1307	 2.87134612239678E-02 
1308	 2.90275453570214E-02 
1309	 0.028453499535696 
1310	 0.027898678060257 
1311	 0.028549881703738 
1312	 2.89963853695364E-02 
1313	 2.83334885890359E-02 
1314	 2.82375086225649E-02 
1315	 2.99812460606065E-02 
1316	 3.00197722098773E-02 
1317	 2.79186469114882E-02 
1318	 2.72675872494548E-02 
1319	 2.70624540748526E-02 
1320	 0.026561610849027 
1321	 2.57709452656211E-02 
1322	 2.64206000776693E-02 
1323	 2.81741145015497E-02 
1324	 2.87561196461448E-02 
1325	 0.028123942783975 
1326	 2.93532967773839E-02 
1327	 0.030383815767711 
1328	 2.98442867013768E-02 
1329	 3.12116009915808E-02 
1330	 3.23806143538711E-02 
1331	 0.030922073088892 
1332	 2.88902668967441E-02 
1333	 2.77648567303994E-02 
1334	 2.77948434551495E-02 
1335	 2.90371205205658E-02 
1336	 3.23655824621863E-02 
1337	 3.21421068916782E-02 
1338	 3.04733768000693E-02 
1339	 0.032263169750263 
1340	 3.33793270500691E-02 
1341	 3.30345761248007E-02 
1342	 3.81960414737037E-02 
1343	 4.07523469653015E-02 
1344	 0.035405780674399 
1345	 3.16648296576257E-02 
1346	 2.69570491596713E-02 
1347	 2.75640417943366E-02 
1348	 0.038747992513911 
1349	 3.48578251306682E-02 
1350	 1.65097928042699E-02 
1351	 1.80892695980965E-02 
1352	 5.33481904307201E-03 
1353	-1.42422591785158E-02 
1354	 8.01307263225868E-02 
1355	 0.253044260270544 
1356	 0.218815728598344 
1357	-0.199460465268923 
1358	-0.340521636340103 
1359	-0.407455637629131 
1360	-1.24186310988171 
1361	-0.857537633369976 
1362	 0.164780567053734 
1363	-4.04373678593517E-02 
1364	-0.646918047806679 
1365	-0.485202629890599 
1366	-0.521512735415219 
1367	-1.69142111585588 
1368	-1.99608964638076 
1369	-0.395162011226829 
1370	 0.464489619322578 
1371	 1.50920377857448 
1372	 1.08744789989775 
1373	 0.763638389669963 
1374	 0.454876614749321 
1375	-0.559816753859752 
1376	-0.790965799373961 
1377	-3.12181609854617 
1378	 0.80652016988654 
1379	 14.9281070508238 
1380	 5.96724965005099 
1381	-3.32566784120832 
1382	-2.69646948046427 
1383	 7.24200967513982 
1384	 2.89957669580057 
1385	-2.83252702540382 
1386	-2.4214214248093 
1387	 3.74426294929063 
1388	 1.16893447057309 
1389	-0.726383860108321 
1390	-0.623196618945241 
1391	-0.177518533253368 
1392	-0.33575070789489 
1393	-2.43572169690967 
1394	-0.971046301466351 
1395	 5.78133546775497E-02 
1396	 1.30138670587842 
1397	 0.430097771276884 
1398	-0.555196895378597 
1399	-2.60964001259668 
1400	-0.737204297529981 
1401	 0.552652291691662 
1402	-3.94362911826323 
1403	 36.9550756094457 
1404	-9.73537099643061 
1405	-22.6281818953732 
1406	 0.284889954854208 
1407	 0.199130229758475 
1408	 2.373869953914 
1409	 7.1863450352407 
1410	-0.637019268399252 
1411	-0.253301214271097 
1412	-0.524701865591329 
1413	-0.654196070651406 
1414	-7.41846011179384 
1415	 88.0614367415231 
1416	-97.5549075728693 
1417	-3.88407274397466 
1418	-0.606470642905069 
1419	-0.272683189528757 
1420	 0.102932317465849 
1421	 0.200108946167783 
1422	 0.135238693914665 
1423	 9.28560619618089E-02 
1424	 0.116946859094557 
1425	 9.65069124718207E-02 
1426	-4.50140963872531E-02 
1427	-0.102121388016257 
1428	-0.125014153460359 
1429	-0.10718759565894 
1430	-4.55231853581888E-02 
1431	-2.34314335007085E-02 
1432	 2.17738529721381E-03 
1433	 4.54578032243616E-02 
1434	 0.137995232045855 
1435	 0.135898336271746 
1436	 0.122252691366253 
1437	 5.19833557887763E-02 
1438	-2.15213093370858E-02 
1439	-0.134099614899852 
1440	-8.46081935076595E-02 
1441	-0.04041278560521 
1442	-7.49408309259938E-02 
1443	-0.053613141936957 
1444	-4.41068328428052E-02 
1445	-0.021473052369012 
1446	 1.26073703633916E-03 
1447	-6.54137376280791E-03 
1448	 8.47992687720616E-03 
1449	 1.46011195385407E-02 
1450	 6.15287222603249E-03 
1451	 2.10485392276574E-02 
1452	 2.95481444639039E-02 
1453	 2.37746720464565E-02 
1454	 2.70179150824926E-02 
1455	 3.50687002270967E-02 
1456	 3.04404005794481E-02 
1457	 1.90956464284507E-02 
1458	 2.12825531848342E-02 
1459	 2.55461970881567E-02 
1460	 2.51014955540566E-02 
1461	 3.11978989790273E-02 
1462	 0.032263275790225 
1463	 2.29328385331176E-02 
1464	 1.88881860875196E-02 
1465	 2.09762708966871E-02 
1466	 1.93532556791184E-02 
1467	 1.01932208313541E-02 
1468	 1.05570376494008E-02 
1469	 2.13118986663953E-02 
1470	 2.26053026332422E-02 
1471	 1.71047526384894E-02 
1472	 2.30336338656547E-02 
1473	 3.76465479721953E-02 
1474	 3.56027615979727E-02 
1475	 2.76266132328522E-02 
1476	 2.87840709174126E-02 
1477	 2.55193474514345E-02 
1478	 2.39665917741444E-02 
1479	 2.98553726731037E-02 
1480	 0.033742874203998 
1481	 3.44066332719552E-02 
1482	 3.24091877973525E-02 
1483	 3.02512405904259E-02 
1484	 3.28538381929111E-02 
1485	 3.71670437752655E-02 
1486	 0.034572930197416 
1487	 3.01059099351324E-02 
1488	 0.030431877607803 
1489	 0.028342451878864 
1490	 2.86352223916195E-02 
1491	 3.39672550257179E-02 
1492	 3.59544584285393E-02 
1493	 3.64318640109467E-02 
1494	 3.59958732402515E-02 
1495	 3.45110002122171E-02 
1496	 3.39752144888922E-02 
1497	 3.34847579147321E-02 
1498	 3.26708237915365E-02 
1499	 3.14396527375389E-02 
1500	 3.14881570947162E-02 
1501	 3.26201547140578E-02 
1502	 3.22453971294327E-02 
1503	 3.18469588776108E-02 
1504	 3.15767849574985E-02 
1505	 3.05523855014924E-02 
1506	 2.90156959740916E-02 
1507	 2.94539578894688E-02 
1508	 3.05697175936958E-02 
1509	 3.06710486138559E-02 
1510	 2.99836531851206E-02 
1511	 2.94563983886214E-02 
1512	 2.93528236030196E-02 
1513	 2.92822032663659E-02 
1514	 2.94243528609106E-02 
1515	 2.97441667668829E-02 
1516	 0.02991361133909 
1517	 3.02435189453366E-02 
1518	 3.07347190368994E-02 
1519	 0.030574195598548 
1520	 2.97187753815307E-02 
1521	 2.93329881797634E-02 
1522	 2.94472541708803E-02 
1523	 0.029305903376915 
1524	 2.91419974770626E-02 
1525	 2.92926540119061E-02 
1526	 2.95776178192441E-02 
1527	 2.96393041830551E-02 
1528	 2.94003892955514E-02 
1529	 2.87763901374701E-02 
1530	 2.80980590718539E-02 
1531	 2.82827571067283E-02 
1532	 2.86173059582786E-02 
1533	 2.87103849834793E-02 
1534	 2.92287280002763E-02 
1535	 2.91121782188958E-02 
1536	 2.84981565532883E-02 
1537	 2.84324742895178E-02 
1538	 2.79860188091966E-02 
1539	 2.75023717143503E-02 
1540	 0.027756265392689 
1541	 0.028232109966044 
1542	 0.02872404689178 
1543	 2.83781643956964E-02 
1544	 0.027867733662404 
1545	 2.79324241803783E-02 
1546	 2.78504629985582E-02 
1547	 2.81182220626382E-02 
1548	 2.85287457563352E-02 
1549	 2.93439539388441E-02 
1550	 3.00262799621737E-02 
1551	 0.029514886399974 
1552	 2.93102059586389E-02 
1553	 0.028789173685006 
1554	 2.79474019258444E-02 
1555	 2.85735560408349E-02 
1556	 2.87862976772063E-02 
1557	 2.80991329010739E-02 
1558	 2.81072918290523E-02 
1559	 2.79137906769915E-02 
1560	 2.78656142148042E-02 
1561	 2.84935016938656E-02 
1562	 2.84522916281422E-02 
1563	 2.82467761620102E-02 
1564	 2.86246794787114E-02 
1565	 2.88898323667623E-02 
1566	 2.88533580434743E-02 
1567	 2.87612922665394E-02 
1568	 2.86801558397849E-02 
1569	 2.87925135329374E-02 
1570	 2.89044017919641E-02 
1571	 2.87781419888273E-02 
1572	 2.86722045774906E-02 
1573	 2.84629235056626E-02 
1574	 2.81422092726919E-02 
1575	 2.82499421860342E-02 
1576	 2.84034137557619E-02 
1577	 2.83253035325377E-02 
1578	 2.83219508699207E-02 
1579	 2.78079221498752E-02 
1580	 2.76187475121505E-02 
1581	 2.78157286362403E-02 
1582	 2.75137617065692E-02 
1583	 2.76091908037389E-02 
1584	 2.78129404720291E-02 
1585	 2.76515109158701E-02 
1586	 0.027603519172707 
1587	 2.78973335003802E-02 
1588	 2.79584796166989E-02 
1589	 2.76152350731725E-02 
1590	 2.72653839299798E-02 
1591	 0.027382162016507 
1592	 0.028265813274483 
1593	 2.86045338672536E-02 
1594	 2.84890962338908E-02 
1595	 2.89324329364786E-02 
1596	 0.029100420001001 
1597	 2.94944082128697E-02 
1598	 2.95421126014827E-02 
1599	 2.79351678108201E-02 
1600	 2.72664371943305E-02 
1601	 2.72732229268772E-02 
1602	 2.71956903246316E-02 
1603	 2.79641825133945E-02 
1604	 2.77020263639712E-02 
1605	 2.69514165666343E-02 
1606	 2.67512730823878E-02 
1607	 2.69963280336301E-02 
1608	 2.74734264388513E-02 
1609	 2.73083226565139E-02 
1610	 2.72452630832165E-02 
1611	 2.73897828332871E-02 
1612	 2.71800667479364E-02 
1613	 2.68875937104458E-02 
1614	 2.66873177627737E-02 
1615	 2.67747145252692E-02 
1616	 2.70981667974934E-02 
1617	 2.75426024307958E-02 
1618	 2.84733852577723E-02 
1619	 2.92814169676214E-02 
1620	 2.87871560315121E-02 
1621	 2.77554057290009E-02 
1622	 2.75457762696661E-02 
1623	 2.74267009053575E-02 
1624	 0.026912355770854 
1625	 2.73510784755324E-02 
1626	 2.75906298527455E-02 
1627	 2.65215684594603E-02 
1628	 2.62482221460087E-02 
1629	 2.66703764932115E-02 
1630	 2.66916787179136E-02 
1631	 2.74566641931574E-02 
1632	 2.82307304691534E-02 
1633	 2.77438203119171E-02 
1634	 2.74857914190968E-02 
1635	 2.79458942885564E-02 
1636	 0.027796552197118 
1637	 2.75910463888165E-02 
1638	 0.027464930520719 
1639	 0.026319059854312 
1640	 2.61205895772593E-02 
1641	 2.67942176129694E-02 
1642	 2.67750523573998E-02 
1643	 2.73013422968922E-02 
1644	 2.72561274329473E-02 
1645	 2.61749061897317E-02 
1646	 2.63254718758966E-02 
1647	 2.66975291036648E-02 
1648	 2.66246546586648E-02 
1649	 2.74747660532705E-02 
1650	 2.79490336311271E-02 
1651	 2.75605177677404E-02 
1652	 2.74518396090389E-02 
1653	 2.78725148502973E-02 
1654	 2.78429417436285E-02 
1655	 0.027207573509843 
1656	 2.76440901661853E-02 
1657	 2.89204520900075E-02 
1658	 2.87430517842174E-02 
1659	 2.85004522040948E-02 
1660	 2.85432510658583E-02 
1661	 2.72605931377367E-02 
1662	 2.68793489609033E-02 
1663	 2.77572733189007E-02 
1664	 2.79217233619585E-02 
1665	 2.79015526095473E-02 
1666	 2.78813160293075E-02 
1667	 2.76704126413724E-02 
1668	 2.64244985223086E-02 
1669	 2.62348304039109E-02 
1670	 2.66952907231867E-02 
1671	 0.026258135629357 
1672	 2.63032412720178E-02 
1673	 2.70576063279533E-02 
1674	 2.68857685284369E-02 
1675	 2.74487235035163E-02 
1676	 2.88984947343923E-02 
1677	 2.83185420319278E-02 
1678	 2.74911667089098E-02 
1679	 2.82685796246236E-02 
1680	 2.80842512228932E-02 
1681	 2.74132060554055E-02 
1682	 2.78735201650445E-02 
1683	 2.84826752990008E-02 
1684	 2.82098625117555E-02 
1685	 2.78873783549012E-02 
1686	 2.81174847975071E-02 
1687	 2.77428052127054E-02 
1688	 2.69441185681649E-02 
1689	 2.72226400056075E-02 
1690	 2.75191325322443E-02 
1691	 2.60752256789569E-02 
1692	 2.58722462945311E-02 
1693	 2.74170190146159E-02 
1694	 2.78269487280576E-02 
1695	 2.74943424653321E-02 
1696	 2.74664651017527E-02 
1697	 2.77667228728431E-02 
1698	 2.78307806947792E-02 
1699	 2.77242490222687E-02 
1700	 2.74927088298872E-02 
1701	 2.71595331676298E-02 
1702	 2.67723290822764E-02 
1703	 2.66983231189367E-02 
1704	 2.75741033507449E-02 
1705	 2.78332763342192E-02 
1706	 2.67431480491414E-02 
1707	 2.66452976771196E-02 
1708	 2.80409854288846E-02 
1709	 2.82666257404504E-02 
1710	 2.71324587854226E-02 
1711	 2.69335594895466E-02 
1712	 0.02713579996031 
1713	 2.81405220699297E-02 
1714	 2.82166173533306E-02 
1715	 2.89287816214695E-02 
1716	 2.98477900569542E-02 
1717	 2.85088592594003E-02 
1718	 2.85098825047349E-02 
1719	 2.87667258420073E-02 
1720	 2.76162154898222E-02 
1721	 2.87079512194074E-02 
1722	 3.01864463147934E-02 
1723	 2.98850270656632E-02 
1724	 0.028776723067571 
1725	 0.026393957122718 
1726	 2.69822401403173E-02 
1727	 0.029666965148154 
1728	 2.83449010034671E-02 
1729	 2.83729930675312E-02 
1730	 3.06260669397398E-02 
1731	 2.88677249021553E-02 
1732	 2.87496813951445E-02 
1733	 3.22000700733303E-02 
1734	 3.12847993372821E-02 
1735	 2.89653081782713E-02 
1736	 0.030246572200339 
1737	 2.97051136216852E-02 
1738	 2.83796795467547E-02 
1739	 3.00846736795873E-02 
1740	 3.04839686884333E-02 
1741	 2.90889466035203E-02 
1742	 2.70055542504962E-02 
1743	 2.44534136255154E-02 
1744	 2.48328027440167E-02 
1745	 2.64612880482372E-02 
1746	 2.84063366652109E-02 
1747	 2.96660728489656E-02 
1748	 2.88084428718872E-02 
1749	 2.82843209971043E-02 
1750	 2.81064473725666E-02 
1751	 0.028466221214551 
1752	 2.88877765937561E-02 
1753	 2.94812777694442E-02 
1754	 3.13835529162714E-02 
1755	 3.15541895398648E-02 
1756	 3.03577093500625E-02 
1757	 0.029731064290011 
1758	 2.87182335585925E-02 
1759	 0.02835835622023 
1760	 2.87973183409316E-02 
1761	 2.76440245635114E-02 
1762	 2.70543837481386E-02 
1763	 2.70638916751808E-02 
1764	 2.59146523549777E-02 
1765	 2.87065789770522E-02 
1766	 3.04865707031946E-02 
1767	 2.97156347496781E-02 
1768	 3.34913706017857E-02 
1769	 0.032713038175619 
1770	 2.99465698527495E-02 
1771	 3.26397852506357E-02 
1772	 3.14932903031335E-02 
1773	 3.11299360928471E-02 
1774	 3.32038736821984E-02 
1775	 2.78622502651641E-02 
1776	 2.70747717529851E-02 
1777	 3.06057867643425E-02 
1778	 3.22946563491898E-02 
1779	 3.71665334651983E-02 
1780	 0.035439514620214 
1781	 1.98137193153987E-02 
1782	 1.94986624043221E-02 
1783	 3.12835358525066E-02 
1784	 3.55546279845354E-02 
1785	 5.14049686498473E-02 
1786	 5.56519070526984E-02 
1787	 3.56059231702552E-02 
1788	 3.47990128847865E-02 
1789	 4.68129525036496E-02 
1790	 0.03317940687794 
1791	 4.45151022765614E-02 
1792	 4.09057823658574E-02 
1793	 2.41211313295894E-02 
1794	 4.77784866497765E-02 
1795	 5.97447301819449E-02 
1796	 5.13633501806886E-02 
1797	 5.98525146312214E-02 
1798	 4.05557531785003E-02 
1799	 0.011128816231633 
1800	-2.44612727385898E-02 
1801	-3.23448026238066E-02 
1802	 2.57232951929394E-02 
1803	 4.17788615467884E-02 
1804	 0.102731937716422 
1805	 0.149142882372752 
1806	-2.18036965263445E-02 
1807	-0.10733374251252 
1808	-9.82441990847285E-02 
1809	-4.40671392915912E-02 
1810	 0.247487042444264 
1811	 0.231978258811178 
1812	-5.40142603479093E-02 
1813	-0.29808490595394 
1814	-169.911115430214 
1815	 6.14127954583846 
1816	 0.472471126909582 
1817	-1.34205783564369 
1818	-2.79610276842507 
1819	-2.54478282618391 
1820	-0.801076592480878 
1821	-0.701397944491826 
1822	 0.436685450834709 
1823	-541.623538118335 
1824	-157.409997658568 
1825	 1.02391724096901 
1826	 1.65970210982449 
1827	-16.856288437089 
1828	-7.00078824120757 
1829	-1.38970283835049 
1830	-1.14789479546253 
1831	 1.56570724151666 
1832	 3.27350907092523 
1833	-1.22225195527381 
1834	-0.464283026183727 
1835	 1.01747637462844 
1836	 5.72467132714765 
1837	-1.66120650547963 
1838	-1.34093638354526 
1839	-0.82790657174668 
1840	-0.215704520264915 
1841	 4.8685264827987 
1842	-1.02562282790451 
1843	-0.941445469464797 
1844	-0.900931061642434 
1845	-0.367483962385617 
1846	-0.676175541714368 
1847	-0.938773488781784 
1848	-2.11321947969605 
1849	-305.255488318577 
1850	 10.5179674643894 
1851	 49.1142267908605 
1852	-424.13888427044 
1853	-4.79648756630865 
1854	-2.18256016385824 
1855	 0.618403232637537 
1856	 1.48372984645805 
1857	-0.52913236206616 
1858	-0.914070215914652 
1859	-9.00659867334163 
1860	-3.75273766466543 
1861	-0.882521119027897 
1862	-0.2392487469034 
1863	-0.234942230590204 
1864	-0.195877910508578 
1865	-0.259789445829515 
1866	-0.597261308776138 
1867	-1.01241697267191 
1868	-1.67405911825004 
1869	-3.08880502530968 
1870	 5.66776238151501 
1871	 20.1172277305924 
1872	 9.9861656826784 
1873	 82.3978607886249 
1874	-4.79017787660955 
1875	 5.68243746796624 
1876	-6.55200016099231 
1877	-0.504291328224237 
1878	-0.611421695792461 
1879	-1.27372994100607 
1880	-2.23373321166917 
1881	 0.73985097415364 
1882	 0.288581959858446 
1883	 0.468847972604338 
1884	 6.19254039429276E-02 
1885	-8.01441604839186E-02 
1886	 0.394595357633662 
1887	 0.270845126273139 
1888	 0.10170126072789 
1889	 6.43512164045328E-02 
1890	 7.29832026111195E-02 
1891	-0.103880405921175 
1892	-0.67330684227139 
1893	-5.99310159417443 
1894	-5.96577646802743 
1895	-1.65715912690475 
1896	-0.239088610861251 
1897	 0.432420467713533 
1898	 0.858459033599022 
1899	 2.92949025537919 
1900	 12.7462751384463 
1901	-2.91340086584359 
1902	-8.78666062250125 
1903	 0.811053893175627 
1904	 3.18784578204203E-02 
1905	 0.446267952644254 
1906	 1.45446711412213 
1907	-0.304049299142043 
1908	-0.68735184007768 
1909	 1.12242922488262 
1910	-2.33150694116826 
1911	-0.669625816306389 
1912	-0.326491764950069 
1913	-0.145748823216289 
1914	 13.1625964651333 
1915	 43.4661420244962 
1916	 12.2964363848963 
1917	-0.773414304926861 
1918	-10.3785144782915 
1919	 7.01285752344076 
1920	-2.63954219922095 
1921	 31.7239359712982 
1922	 4.0058826316368 
1923	 1.65937542950491 
1924	 1.75823487399301 
1925	 3.76372079126135 
1926	 3.13697333335202 
1927	 2.29889671426882 
1928	 2.22771178637256 
1929	 1.73463694240916 
1930	 0.87749948361863 
1931	 0.796851425990152 
1932	 0.437211687361649 
1933	-0.867178445729754 
1934	-52.0683727108595 
1935	-3.15781982072655 
1936	-1.39042520820463 
1937	-7.60440887286865E-02 
1938	-2.82642688076206E-02 
1939	 0.380343719224719 
1940	 0.132917017922085 
1941	 2.84580942059657 
1942	-0.956877600262849 
1943	-0.116896356350668 
1944	-0.30216527081804 
1945	-0.64531346702779 
1946	-0.473343396678852 
1947	-0.564339255091645 
1948	-0.597935050518078 
1949	-0.344514129142457 
1950	-7.45107130692351E-02 
1951	 8.45041906787409E-02 
1952	 0.144502496828362 
1953	 0.214001007702725 
1954	 0.327719280268222 
1955	 0.210234547757152 
1956	 8.82335167121501E-02 
1957	 9.42654092116244E-02 
1958	 1.44063909736987E-02 
1959	-7.90427849892623E-03 
1960	 6.97189569520799E-02 
1961	 7.03786359618106E-02 
1962	 7.52642418763416E-02 
1963	 7.22979666280326E-02 
1964	 3.80092918400273E-02 
1965	 3.81752672548185E-02 
1966	 3.26018112011693E-02 
1967	 2.95550447677452E-02 
1968	 2.10182386539307E-02 
1969	 3.27597787014188E-02 
1970	 3.81824027812296E-02 
1971	 3.91446211278793E-02 
1972	 4.29394388562104E-02 
1973	 3.45428770864196E-02 
1974	 0.02212335991492 
1975	 1.30066534559472E-02 
1976	 1.42960869868086E-02 
1977	 2.06143815742198E-02 
1978	 2.24928694792266E-02 
1979	 2.45342668420548E-02 
1980	 2.93230008667248E-02 
1981	 3.05784140786002E-02 
1982	 3.38911197897379E-02 
1983	 3.58134813746277E-02 
1984	 3.49716952065725E-02 
1985	 3.68398837146157E-02 
1986	 3.16761661891436E-02 
1987	 2.53141732581445E-02 
1988	 2.42273820427274E-02 
1989	 2.76815048612252E-02 
1990	 3.33096874843457E-02 
1991	 3.31208941992874E-02 
1992	 0.029537324855668 
1993	 3.02714003482837E-02 
1994	 3.14416072872698E-02 
1995	 3.03026037264507E-02 
1996	 3.22859211960584E-02 
1997	 4.27322137709574E-02 
1998	 0.038303437954331 
1999	 2.10678648317217E-02 
2000	 1.46566780538641E-02 
2001	 3.43066548252947E-03 
2002	-7.68857913788532E-03 
2003	-6.77291010563909E-03 
2004	-1.12266729018502E-02 
2005	-1.33755967326309E-02 
2006	-4.56271316559466E-03 
2007	 3.63957366419571E-03 
2008	 1.11713333153039E-02 
2009	 2.11924349968911E-02 
2010	 4.39052971974059E-02 
2011	 4.96928705485617E-02 
2012	 4.92978063582509E-02 
2013	 4.10854342154254E-02 
2014	 3.39875569641048E-02 
2015	 2.12392839105875E-02 
2016	 2.05100287221943E-02 
2017	 3.12900284736404E-02 
2018	 4.33639700774301E-02 
2019	 4.54484246417904E-02 
2020	 0.041872283837254 
2021	 4.32736589618243E-02 
2022	 0.037390691305722 
2023	 2.79349059651903E-02 
2024	 2.46505971066152E-02 
2025	 2.08701970772241E-02 
2026	 2.02637670286832E-02 
2027	 2.05394902327407E-02 
2028	 2.84756807641214E-02 
2029	 3.33512769219898E-02 
2030	 0.035786431500824 
2031	 3.84012044532833E-02 
2032	 3.61896411616641E-02 
2033	 3.62270777782632E-02 
2034	 3.51557132146066E-02 
2035	 3.06020338071878E-02 
2036	 3.24682023663338E-02 
2037	 0.035468099656654 
2038	 3.56761319748707E-02 
2039	 3.53871669305054E-02 
2040	 3.63056265074601E-02 
2041	 3.56286940341639E-02 
2042	 3.14392267805244E-02 
2043	 2.95438374730668E-02 
2044	 2.92364334891658E-02 
2045	 0.028528433630677 
2046	 2.79311108977012E-02 
2047	 2.92107304756782E-02 
2048	 2.97086465966656E-02 
2049	 2.83992820782188E-02 
2050	 2.94421983433967E-02 
2051	 3.05373669305538E-02 
2052	 3.25318587210059E-02 
2053	 3.72991536773042E-02 
2054	 3.96740745097194E-02 
2055	 4.04217295005024E-02 
2056	 4.05109261605147E-02 
2057	 4.05276828432168E-02 
2058	 4.04366737794819E-02 
2059	 3.74658166961838E-02 
2060	 3.61819334661003E-02 
2061	 3.58802920924191E-02 
2062	 3.63012360592366E-02 
2063	 3.59211581696355E-02 
2064	 3.60487353901784E-02 
2065	 3.67894296309579E-02 
2066	 0.033830060678186 
2067	 3.04423079653919E-02 
2068	 3.09482445419692E-02 
2069	 0.032632292780319 
2070	 3.35324833893966E-02 
2071	 3.39794820704207E-02 
2072	 3.35815760411264E-02 
2073	 3.19125667739719E-02 
2074	 2.70446613277328E-02 
2075	 2.61849286657766E-02 
2076	 2.60673385959409E-02 
2077	 2.63849114790581E-02 
2078	 2.87810105195674E-02 
2079	 2.93592817674412E-02 
2080	 2.82160653167526E-02 
2081	 3.00540070216217E-02 
2082	 3.41779892384321E-02 
2083	 3.72696091456287E-02 
2084	 3.90669692613478E-02 
2085	 0.039783282096823 
2086	 3.61333907749259E-02 
2087	 2.99398971728924E-02 
2088	 2.81861310340888E-02 
2089	 2.78369881430021E-02 
2090	 2.54146820331095E-02 
2091	 2.61377484834131E-02 
2092	 2.52210302293382E-02 
2093	 2.08835881071791E-02 
2094	 0.020519805617947 
2095	 2.32121602496633E-02 
2096	 2.42740806452065E-02 
2097	 2.78689723455564E-02 
2098	 2.89364623888017E-02 
2099	 2.80348420641783E-02 
2100	 2.63521737891003E-02 
2101	 2.55166862976269E-02 
2102	 2.70596926000568E-02 
2103	 2.88805576387448E-02 
2104	 2.77793877056015E-02 
2105	 2.89181332084273E-02 
2106	 2.73646157774604E-02 
2107	 2.65101669649338E-02 
2108	 2.68021563911121E-02 
2109	 2.47271761704706E-02 
2110	 2.78183393129944E-02 
2111	 0.027227315335312 
2112	 0.024968264106011 
2113	 2.57914326516411E-02 
2114	 0.027510571499663 
2115	 2.74941171884633E-02 
2116	 2.97352889071295E-02 
2117	 3.10959161332149E-02 
2118	 2.98115319267303E-02 
2119	 2.84952714010412E-02 
2120	 2.77467467114671E-02 
2121	 2.68895876338451E-02 
2122	 2.44384625793141E-02 
2123	 2.42376785464519E-02 
2124	 2.68882135742596E-02 
2125	 0.031197993130481 
2126	 3.14793925860608E-02 
2127	 3.27935061225438E-02 
2128	 3.23330094139585E-02 
2129	 2.87439173572832E-02 
2130	 3.10897393153533E-02 
2131	 3.51553028112823E-02 
2132	 3.65226434899064E-02 
2133	 3.59378316096945E-02 
2134	 0.033978922493354 
2135	 2.70595520887167E-02 
2136	 2.39997718056977E-02 
2137	 2.12472478157377E-02 
2138	 2.06615791281943E-02 
2139	 2.27105465712178E-02 
2140	 2.41638795761446E-02 
2141	 2.74069419533988E-02 
2142	 2.81510064436962E-02 
2143	 2.82313653180717E-02 
2144	 2.70264221577575E-02 
2145	 2.53466396829561E-02 
2146	 2.65324816089621E-02 
2147	 2.67920821616708E-02 
2148	 2.56182777082752E-02 
2149	 2.54156842830087E-02 
2150	 2.67835641383135E-02 
2151	 2.79341146080595E-02 
2152	 2.72276062813419E-02 
2153	 2.59937938781392E-02 
2154	 2.35834726664015E-02 
2155	 2.17017462207069E-02 
2156	 2.20806730824101E-02 
2157	 0.023042886786809 
2158	 0.023749208934399 
2159	 2.57536800829479E-02 
2160	 3.14920694450704E-02 
2161	 0.033846647956274 
2162	 3.57524831514221E-02 
2163	 3.79842244633498E-02 
2164	 3.76495131548006E-02 
2165	 3.77921960070083E-02 
2166	 3.83188010981763E-02 
2167	 3.79180421121923E-02 
2168	 3.74333921856961E-02 
2169	 3.78463605299503E-02 
2170	 4.01659894222746E-02 
2171	 0.038891328044424 
2172	 3.52644020997353E-02 
2173	 3.13691030009004E-02 
2174	 2.49469460292282E-02 
2175	 2.27618028646349E-02 
2176	 2.48365409310718E-02 
2177	 2.37261357976696E-02 
2178	 2.23475707138998E-02 
2179	 2.54519037319934E-02 
2180	 2.49294812751981E-02 
2181	 2.30401451847864E-02 
2182	 2.70404313520321E-02 
2183	 2.60406121967211E-02 
2184	 2.65665754270913E-02 
2185	 2.95974605636963E-02 
2186	 3.08626954634942E-02 
2187	 0.029715055365798 
2188	 3.29197746620076E-02 
2189	 4.03311641729971E-02 
2190	 4.15003713943049E-02 
2191	 4.11388456296901E-02 
2192	 4.16149180223875E-02 
2193	 3.85321632328479E-02 
2194	 3.56245830203453E-02 
2195	 3.27755452007661E-02 
2196	 3.20604219505011E-02 
2197	 3.02403666968158E-02 
2198	 2.95030196448957E-02 
2199	 3.25656906168177E-02 
2200	 3.56563949497615E-02 
2201	 3.88038390728597E-02 
2202	 3.86148956634757E-02 
2203	 3.51314803086176E-02 
2204	 3.69510222120231E-02 
2205	 3.25627389053326E-02 
2206	 2.77066457889161E-02 
2207	 3.03055719142561E-02 
2208	 2.75164669487874E-02 
2209	 2.25470299038718E-02 
2210	 1.86375658514034E-02 
2211	 1.88857445556837E-02 
2212	 2.24606930026781E-02 
2213	 2.28843757759369E-02 
2214	 2.78807249332452E-02 
2215	 3.18502922960506E-02 
2216	 2.99469301156615E-02 
2217	 0.030567088653075 
2218	 3.53400905732551E-02 
2219	 3.36263256556739E-02 
2220	 2.78772833262473E-02 
2221	 2.45768293936135E-02 
2222	 1.78690944912228E-02 
2223	 1.45907896425706E-02 
2224	 1.30815539933701E-02 
2225	 1.25311075081783E-02 
2226	 1.28386630409977E-02 
2227	 1.60815713762201E-02 
2228	 2.44913001322072E-02 
2229	 2.75254929938997E-02 
2230	 3.25963375292379E-02 
2231	 3.22465246542043E-02 
2232	 2.24844719512009E-02 
2233	 0.018394977462001 
2234	 0.0139991641751 
2235	 1.09618775377804E-02 
2236	 1.03176010711995E-02 
2237	 1.44692443609923E-02 
2238	 1.80869634218247E-02 
2239	 1.80909246386654E-02 
2240	 1.80486825063289E-02 
2241	 1.57285099448506E-02 
2242	 1.47040617018526E-02 
2243	 2.03288330687877E-02 
2244	 2.26296597790904E-02 
2245	 2.48595323019419E-02 
2246	 2.92048260491187E-02 
2247	 2.42019422438944E-02 
2248	 1.85714393715414E-02 
2249	 1.75934989638128E-02 
2250	 1.58091400378026E-02 
2251	 1.76147224480101E-02 
2252	 2.39842753848542E-02 
2253	 2.93593919581347E-02 
2254	 3.39065858144611E-02 
2255	 3.58299073511208E-02 
2256	 3.54882902605035E-02 
2257	 0.035624601786492 
2258	 3.41538422617435E-02 
2259	 3.28008982372807E-02 
2260	 3.04935129745666E-02 
2261	 2.79568036665421E-02 
2262	 0.024960041956273 
2263	 1.85729938049895E-02 
2264	 1.67047527990183E-02 
2265	 1.83936830035795E-02 
2266	 2.22695890909231E-02 
2267	 2.81410658768285E-02 
2268	 0.031996900280298 
2269	 3.60632253435528E-02 
2270	 3.94621678975796E-02 
2271	 5.10892245613604E-02 
2272	 4.86183875781564E-02 
2273	 3.38729393869267E-02 
2274	 2.92521078381114E-02 
2275	 1.30290048531608E-02 
2276	 8.13167212177301E-03 
2277	 2.19058513522552E-02 
2278	 0.025652047274864 
2279	 2.37889354350704E-02 
2280	 2.81976608506366E-02 
2281	 3.67696756746223E-02 
2282	 4.20151311359794E-02 
2283	 4.02491903797498E-02 
2284	 4.87599975301928E-02 
2285	 5.58451110638345E-02 
2286	 5.11113995496326E-02 
2287	 4.89687269947149E-02 
2288	 5.31992507648202E-02 
2289	 4.54253314614323E-02 
2290	 3.41301702902051E-02 
2291	 4.01670723288039E-02 
2292	 3.55160941849662E-02 
2293	 1.65955220308402E-02 
2294	 1.36877751115374E-02 
2295	 0.027728746996811 
2296	 3.22300878201567E-02 
2297	 3.84069460140766E-02 
2298	 0.046287151384291 
2299	 3.64061451821617E-02 
2300	 3.59216717257828E-02 
2301	 3.55428837083731E-02 
2302	 3.19366854375721E-02 
2303	 2.88176279546983E-02 
2304	 1.53474523843799E-02 
2305	 1.11947124638674E-02 
2306	 2.16672245353787E-02 
2307	 2.87755601489302E-02 
2308	 2.40627920945592E-02 
2309	 2.63694692818312E-02 
2310	 2.36723509624916E-02 
2311	 1.22756427707517E-02 
2312	 1.38889871716552E-02 
2313	 1.52850136632858E-02 
2314	 1.05618756658906E-02 
2315	-3.74779707717776E-03 
2316	-1.15590243813148E-02 
2317	 1.29000673609593E-03 
2318	-7.18568366071589E-03 
2319	-2.20223056016737E-02 
2320	-1.00347086833436E-02 
2321	-1.96671259768179E-02 
2322	-0.019267340467338 
2323	 1.74734202954832E-02 
2324	 2.23066079780513E-02 
2325	 8.7254375626875E-03 
2326	 7.93082275573846E-03 
2327	 6.95686219418768E-03 
2328	 1.26690190159203E-02 
2329	 2.73983905371778E-02 
2330	 3.75973516895231E-02 
2331	 5.03275793476806E-02 
2332	 6.26450933793733E-02 
2333	 6.07490553440799E-02 
2334	 4.86560847374483E-02 
2335	 3.42679895883366E-02 
2336	 5.92737135691508E-03 
2337	-1.05708280864622E-02 
2338	-1.82531995829986E-02 
2339	-4.98463316041799E-02 
2340	-5.02573856290929E-02 
2341	-4.12675373705706E-02 
2342	-4.18455333131943E-02 
2343	-4.58511633829871E-02 
2344	-5.54805036215955E-02 
2345	-3.84055158421477E-02 
2346	-4.76747164502156E-02 
2347	-4.32207188410096E-02 
2348	-5.13016221938778E-03 
2349	-2.46081917323903E-02 
2350	-3.35570733857665E-02 
2351	 0.029918889463787 
2352	 5.04504259457243E-03 
2353	-5.18618939699205E-02 
2354	-3.11360526378859E-03 
2355	-1.76831636899205E-02 
2356	 3.99204942853082E-03 
2357	 8.17811429758438E-02 
2358	 7.24327466905055E-02 
2359	 7.08570878322703E-02 
2360	 5.94925098925724E-02 
2361	 0.049470911559531 
2362	 5.55657767814972E-02 
2363	 2.50830972980658E-02 
2364	 7.19963352595472E-03 
2365	 1.20439958987713E-02 
2366	 4.94693237310604E-02 
2367	 0.11714812555216 
2368	 0.124972622052451 
2369	 8.02709836248504E-02 
2370	 5.47222708941628E-02 
2371	 7.60924891726555E-02 
2372	 0.107555322199603 
2373	 0.129101755970289 
2374	 0.122548373461275 
2375	 2.94142420993107E-02 
2376	-0.019409345575915 
2377	-3.45818600160265E-02 
2378	-1.85481307534146E-02 
2379	 4.14389095719917E-02 
2380	 1.83745426431073E-02 
2381	-2.81906792540491E-02 
2382	-1.15780088620052E-02 
2383	 0.127926145619398 
2384	 0.315259491779246 
2385	 0.439628046104721 
2386	 0.370758646447783 
2387	 0.260238780350095 
2388	 0.292816590938905 
2389	 0.358873839923706 
2390	 0.34738796308706 
2391	 0.275929742654768 
2392	 6.53214118502908E-02 
2393	-4.37103570366688E-02 
2394	 3.71508822138831E-03 
2395	-1.40729632424585E-02 
2396	 6.63656567492672E-02 
2397	 4.36288356689292E-02 
2398	 1.69764375251314E-02 
2399	 6.24308843291898E-02 
2400	-6.89541565363672E-02 
2401	-0.411943981055698 
2402	-0.637960362280841 
2403	-0.78441985030529 
2404	-0.622054505718139 
2405	-0.387971026925911 
2406	-0.210743290831445 
2407	-0.110261747067566 
2408	-0.725385507607626 
2409	-1.74322896341196 
2410	-0.491990337879331 
2411	-0.141094509227823 
2412	 0.180837939314771 
2413	 0.538301290609422 
2414	 0.57501545362863 
2415	 0.297796397504223 
2416	-0.237063332410468 
2417	-0.939347976042326 
2418	-0.837695877596307 
2419	-1.19516063915543 
2420	-5.05538055909864E-02 
2421	-0.298030344559224 
2422	-4.96304131527854 
2423	-1.58848035744724 
2424	-0.914796034920904 
2425	-2.60502945883223 
2426	-1.07321717789187 
2427	-1.0891738707416 
2428	-2.31470309870848 
2429	-0.997215265011758 
2430	-1.17274953649809 
2431	 1.21979108910804 
2432	 0.468853857166926 
2433	 1.12672069565156 
2434	 2.08313377054667 
2435	 3.14279124459141 
2436	 28.0156990688224 
2437	-5.22757018205544 
2438	-0.978892323551051 
2439	-0.719987550669777 
2440	-0.616220501265334 
2441	-0.600965250688154 
2442	 9.8030050207983 
2443	 0.601157646923521 
2444	 0.976926653944809 
2445	 0.679233433288464 
2446	 0.189023354912033 
2447	-0.283193707800308 
2448	-0.301033881746204 
2449	 0.119752272502231 
2450	 0.464941498796351 
2451	 1.40573823900928 
2452	 2.01605996978196 
2453	 2.68042587849696 
2454	 1.21878608150125 
2455	 0.259200674383192 
2456	-0.828961179965963 
2457	-0.695607926735872 
2458	-7.07856902629358E-02 
2459	-0.228990018293374 
2460	-0.478485345637428 
2461	-0.808532281770616 
2462	-1.24892382112962 
2463	-1.00595796379662 
2464	-0.358985724439304 
2465	-0.579056065571052 
2466	-7.35025391021323 
2467	 3.04990138935826 
2468	 4.28189461277397 
2469	 1.35164423734695 
2470	 0.857777570312984 
2471	 0.270242527584721 
2472	 3.04416308166596E-02 
2473	 6.43066226644387E-02 
2474	-0.197581025432019 
2475	-0.407997818654786 
2476	-0.129569174939896 
2477	-0.187937545645443 
2478	-0.220846113196698 
2479	 0.103023892629594 
2480	-0.239345663183733 
2481	-0.800369607464172 
2482	-2.24629482520474 
2483	-0.689123044194025 
2484	 0.61976794961573 
2485	 1.58537533157526 
2486	 3.73038411963909 
2487	 4.56359197952332 
2488	 0.430416010546569 
2489	-0.439666796232794 
2490	 1.50585858269461 
2491	-2.45263688732823 
2492	-2.29629595808277 
2493	-0.810253118473799 
2494	-0.114917192680292 
2495	 1.18655483917802 
2496	 6.04308775295576 
2497	-1.44857479016646 
2498	-0.978744295524125 
2499	-0.923226305190687 
2500	-6.14151813954158 
