Wavelength	rt0801far100009.asd
350	 6.47240830160169E-02 
351	 6.37992264949713E-02 
352	 6.49839447430511E-02 
353	 0.065384610473841 
354	 6.35866323106329E-02 
355	 6.27923188320338E-02 
356	 6.37756678062455E-02 
357	 6.50793528199635E-02 
358	 6.50723370066748E-02 
359	 6.50106084782437E-02 
360	 6.44602031686206E-02 
361	 6.40010669836669E-02 
362	 6.46831451469459E-02 
363	 6.48113548779007E-02 
364	 6.46351088278328E-02 
365	 6.46255191651017E-02 
366	 0.065200625019629 
367	 6.56759588073889E-02 
368	 6.55422174225601E-02 
369	 6.48790270291401E-02 
370	 6.56147149285681E-02 
371	 6.56594047138146E-02 
372	 6.52252825951226E-02 
373	 6.57127029617295E-02 
374	 6.58051617393662E-02 
375	 6.59474938779412E-02 
376	 6.62966069659438E-02 
377	 6.63843191977795E-02 
378	 6.68561161032477E-02 
379	 6.72416383366506E-02 
380	 6.71417774748245E-02 
381	 6.72147326326702E-02 
382	 6.71074237723385E-02 
383	 6.71212937158995E-02 
384	 6.77438491003662E-02 
385	 6.85787576573814E-02 
386	 6.87249885472692E-02 
387	 6.83381827656622E-02 
388	 6.87202336102442E-02 
389	 6.94239414854918E-02 
390	 6.94739281305965E-02 
391	 6.87497930536907E-02 
392	 6.94077043361515E-02 
393	 6.96534360153627E-02 
394	 0.069660208802898 
395	 7.01537010175359E-02 
396	 7.06469623065728E-02 
397	 0.070867319876759 
398	 7.08456768548251E-02 
399	 7.08548735315373E-02 
400	 7.11255610591823E-02 
401	 7.15604355724015E-02 
402	 7.18735992373789E-02 
403	 7.13874767257879E-02 
404	 7.13907938518144E-02 
405	 7.18573482797673E-02 
406	 7.22472414955625E-02 
407	 7.22794492478304E-02 
408	 7.24284816853456E-02 
409	 7.27950436781294E-02 
410	 7.30664981712271E-02 
411	 7.30597406355761E-02 
412	 7.30954704152043E-02 
413	 7.33967051466841E-02 
414	 7.37521065380401E-02 
415	 0.074048774146561 
416	 7.42292704397437E-02 
417	 7.43187797024048E-02 
418	 7.45911644728392E-02 
419	 7.49379330838149E-02 
420	 7.52183950056747E-02 
421	 0.075305292843334 
422	 7.56523844921707E-02 
423	 7.59737447031867E-02 
424	 7.60909678637958E-02 
425	 7.65968953157845E-02 
426	 7.69182540797993E-02 
427	 7.71532253345894E-02 
428	 7.76572226248207E-02 
429	 7.81275692558154E-02 
430	 0.078365640810849 
431	 7.85388012217799E-02 
432	 7.92075031100588E-02 
433	 7.95958110559463E-02 
434	 0.080052283004483 
435	 8.07999848183926E-02 
436	 8.08985320705919E-02 
437	 0.081173636135988 
438	 8.16996304883248E-02 
439	 8.21378640109376E-02 
440	 8.25282857689499E-02 
441	 8.29042718732994E-02 
442	 8.32725858676011E-02 
443	 8.35969404340084E-02 
444	 8.38582825279205E-02 
445	 8.41671707142237E-02 
446	 8.45883122697516E-02 
447	 8.48720672365466E-02 
448	 8.52102190770802E-02 
449	 8.55475776233392E-02 
450	 8.56646352785761E-02 
451	 8.57380777298958E-02 
452	 8.58431027600638E-02 
453	 8.60143458048278E-02 
454	 8.62388653004411E-02 
455	 8.65352325349449E-02 
456	 8.67328081965189E-02 
457	 8.66900202286231E-02 
458	 8.67781344693405E-02 
459	 8.68645996102335E-02 
460	 8.69397023187698E-02 
461	 8.71276772686355E-02 
462	 8.71079862751726E-02 
463	 8.71697801742239E-02 
464	 8.74650247741521E-02 
465	 8.74080736210276E-02 
466	 8.75241766944526E-02 
467	 8.77453689193108E-02 
468	 8.77667570505153E-02 
469	 8.78547590956447E-02 
470	 8.80617961968158E-02 
471	 8.83098981421789E-02 
472	 0.088378677063084 
473	 0.088456525931557 
474	 8.86329786602791E-02 
475	 8.88971556181647E-02 
476	 8.89964696507196E-02 
477	 8.90042374947821E-02 
478	 8.91248805214912E-02 
479	 8.95800007167526E-02 
480	 8.97721286264946E-02 
481	 8.99038408961428E-02 
482	 9.01226017616934E-02 
483	 9.02065804171163E-02 
484	 9.06541418710006E-02 
485	 9.11522306326038E-02 
486	 9.12551309092318E-02 
487	 9.15552721112585E-02 
488	 9.20351271922591E-02 
489	 0.092537728910621 
490	 9.28278328776511E-02 
491	 9.30938552722888E-02 
492	 9.35128697687681E-02 
493	 9.40911020993291E-02 
494	 9.43834571240013E-02 
495	 9.47517874033659E-02 
496	 9.52543418052469E-02 
497	 9.57814433063234E-02 
498	 9.62040958381763E-02 
499	 9.66536538103592E-02 
500	 9.71863135082436E-02 
501	 9.76964682670306E-02 
502	 0.098279361673683 
503	 9.88644749668273E-02 
504	 9.93966676134942E-02 
505	 0.100090013200609 
506	 0.100662074960986 
507	 0.101144212320037 
508	 0.101799066834493 
509	 0.102313640065548 
510	 0.10287359231146 
511	 0.103573280649912 
512	 0.104107461623952 
513	 0.104723166233349 
514	 0.105395080754692 
515	 0.106015858209897 
516	 0.106819669918519 
517	 0.107557214228312 
518	 0.108182904013063 
519	 0.108952050980254 
520	 0.109539075593512 
521	 0.110242147280124 
522	 0.111256959118896 
523	 0.111911995622148 
524	 0.112631645898999 
525	 0.113436632139365 
526	 0.114089860682476 
527	 0.114893639183374 
528	 0.115806365177543 
529	 0.116726013700858 
530	 0.117528696099335 
531	 0.118401524381842 
532	 0.1192489355864 
533	 0.119944575407622 
534	 0.120858286849565 
535	 0.121755826266383 
536	 0.122557152114375 
537	 0.123394433399706 
538	 0.124323965243393 
539	 0.125270862282047 
540	 0.126183914180871 
541	 0.127233311573417 
542	 0.128181767151095 
543	 0.129007972512563 
544	 0.129844456782193 
545	 0.130832528722986 
546	 0.131802608181428 
547	 0.132689033243372 
548	 0.133725114270378 
549	 0.134589594024256 
550	 0.135399679135887 
551	 0.136354125416176 
552	 0.137144757486052 
553	 0.13795050180267 
554	 0.138831150267553 
555	 0.139679596428874 
556	 0.140602392926837 
557	 0.141529084254691 
558	 0.142357418787809 
559	 0.143037507646308 
560	 0.143788431652652 
561	 0.144631144833763 
562	 0.145456198935898 
563	 0.146203335760577 
564	 0.146902360133274 
565	 0.147588574673595 
566	 0.148287790067874 
567	 0.148895988153537 
568	 0.149463496332196 
569	 0.150080360611963 
570	 0.150717726042825 
571	 0.151234575631482 
572	 0.151635277112591 
573	 0.152080119680602 
574	 0.15248504140451 
575	 0.152911190925475 
576	 0.153390475354213 
577	 0.15377792463887 
578	 0.154116747038596 
579	 0.154478973114821 
580	 0.154923832941971 
581	 0.155207692885636 
582	 0.155407330771401 
583	 0.155584718006893 
584	 0.155670906080053 
585	 0.156088194835467 
586	 0.156592146913501 
587	 0.156793075372682 
588	 0.157143961276545 
589	 0.157399558859267 
590	 0.157450369859731 
591	 0.157414086916129 
592	 0.157420764728519 
593	 0.157400913749136 
594	 0.157297482794001 
595	 0.157248130048111 
596	 0.157083852716955 
597	 0.156783354351643 
598	 0.15642503612886 
599	 0.156129805731767 
600	 0.155929983304052 
601	 0.155800082115243 
602	 0.155633232631852 
603	 0.155670138114582 
604	 0.155731578888032 
605	 0.155605710895698 
606	 0.155645063535184 
607	 0.155796131836871 
608	 0.155897110076495 
609	 0.155716938778826 
610	 0.155707078686097 
611	 0.15582512218593 
612	 0.155942020871946 
613	 0.156009855457732 
614	 0.15613373252221 
615	 0.156206772641649 
616	 0.156053933403432 
617	 0.156040728551053 
618	 0.15601937775453 
619	 0.155937674315977 
620	 0.155996758877474 
621	 0.155977716287779 
622	 0.155926877268 
623	 0.155967841966685 
624	 0.156146864374895 
625	 0.156339430146087 
626	 0.156446512180275 
627	 0.156407681773768 
628	 0.156270071261019 
629	 0.15621558472535 
630	 0.15630074709944 
631	 0.156208351687023 
632	 0.156098434364845 
633	 0.156046068431784 
634	 0.156066059636937 
635	 0.156026985175549 
636	 0.155942372628586 
637	 0.155830581725986 
638	 0.155685356449533 
639	 0.15580837422742 
640	 0.155926141138373 
641	 0.155751800676912 
642	 0.155685567201329 
643	 0.155678259449504 
644	 0.155683425089368 
645	 0.15567842879159 
646	 0.155959837427012 
647	 0.156076749432081 
648	 0.155781264220111 
649	 0.155620518244674 
650	 0.15548207361594 
651	 0.155440678053685 
652	 0.155532741869448 
653	 0.155164590044531 
654	 0.154845139658939 
655	 0.154781059410199 
656	 0.154654864415441 
657	 0.154367590265635 
658	 0.154043174169372 
659	 0.153788115658663 
660	 0.153543748748498 
661	 0.153402582122596 
662	 0.153384207470364 
663	 0.153437799100224 
664	 0.153312978503794 
665	 0.153130689869315 
666	 0.153018610616201 
667	 0.153034688788809 
668	 0.15300191609054 
669	 0.153016213475433 
670	 0.153178489269756 
671	 0.153124547561887 
672	 0.153148169325236 
673	 0.153284780634828 
674	 0.153312520024745 
675	 0.153369511920125 
676	 0.15358828790726 
677	 0.153936772999899 
678	 0.15394161241423 
679	 0.154220558795889 
680	 0.154574382380219 
681	 0.154555913270274 
682	 0.154810565977848 
683	 0.155198187681514 
684	 0.155644599809519 
685	 0.156311291460072 
686	 0.15701079488545 
687	 0.157396469778922 
688	 0.157388471269288 
689	 0.157761542107698 
690	 0.158420835807121 
691	 0.159081296924067 
692	 0.159366090251689 
693	 0.159743683574934 
694	 0.159840693130198 
695	 0.159590420167885 
696	 0.159502613159334 
697	 0.159440780811334 
698	 0.1595545652051 
699	 0.159914069272833 
700	 0.159821412703953 
701	 0.159559498731215 
702	 0.159258308930836 
703	 0.158882068020656 
704	 0.158795233094402 
705	 0.158498143712165 
706	 0.157789613921632 
707	 0.157348510779782 
708	 0.156940961704883 
709	 0.156355479519749 
710	 0.155481376535564 
711	 0.15475501489647 
712	 0.154110155966605 
713	 0.153539466115408 
714	 0.153115345654671 
715	 0.152758705553236 
716	 0.152450517937057 
717	 0.152077994047847 
718	 0.151057061258051 
719	 0.149136261396736 
720	 0.147292862977144 
721	 0.146006101248718 
722	 0.145262857636978 
723	 0.1442939675096 
724	 0.142922736660708 
725	 0.141583938892672 
726	 0.139936361817774 
727	 0.138015053416523 
728	 0.135893884088153 
729	 0.133539859808704 
730	 0.130752638231358 
731	 0.127944924035404 
732	 0.125469118919615 
733	 0.123461421204522 
734	 0.121909661221946 
735	 0.120695619879797 
736	 0.119493205449729 
737	 0.118475825513293 
738	 0.117730822657073 
739	 0.117237475208894 
740	 0.116650688793802 
741	 0.11633846682039 
742	 0.116165930093198 
743	 0.115816067719354 
744	 0.115765545083286 
745	 0.115836433647079 
746	 0.115850042331032 
747	 0.115716900186495 
748	 0.115728863707588 
749	 0.115861624211963 
750	 0.115967016036045 
751	 0.115763447603704 
752	 0.115846714887853 
753	 0.116042273503411 
754	 0.115861494331115 
755	 0.116044453690535 
756	 0.11635165716875 
757	 0.116582194774452 
758	 0.116725750874048 
759	 0.117663125856507 
760	 0.118706116226466 
761	 0.118148277476814 
762	 0.118528132816707 
763	 0.118604689368153 
764	 0.118295409900393 
765	 0.117948480335994 
766	 0.117775185069903 
767	 0.117748490311521 
768	 0.117765618335152 
769	 0.117663996985703 
770	 0.117804955530008 
771	 0.118082283823563 
772	 0.118337738657144 
773	 0.118562134260805 
774	 0.118658287631635 
775	 0.118922027059199 
776	 0.119612304831429 
777	 0.119676231832668 
778	 0.119793123042066 
779	 0.120222173364049 
780	 0.120666108079935 
781	 0.121011581843636 
782	 0.121269990233941 
783	 0.121581702372725 
784	 0.122346523991793 
785	 0.122780577230085 
786	 0.123083447775119 
787	 0.123695227611522 
788	 0.124186794672846 
789	 0.124610080844839 
790	 0.125021720918931 
791	 0.125452499659998 
792	 0.12564908559784 
793	 0.125955697825619 
794	 0.126510219981303 
795	 0.126974290663804 
796	 0.127317288521068 
797	 0.127686499258677 
798	 0.128186455880502 
799	 0.128501701253359 
800	 0.128783183648962 
801	 0.128959940132862 
802	 0.128903657030253 
803	 0.128956538080559 
804	 0.12896857189293 
805	 0.128904311703255 
806	 0.128892531427115 
807	 0.128912879086326 
808	 0.129030913950427 
809	 0.129209343261488 
810	 0.129062285915301 
811	 0.129302487095504 
812	 0.129600022185209 
813	 0.12930548094313 
814	 0.129440692668277 
815	 0.128870683624272 
816	 0.127706795056096 
817	 0.127114435039458 
818	 0.126766762519943 
819	 0.125538527150995 
820	 0.123661983464086 
821	 0.123084611559911 
822	 0.122401099070937 
823	 0.120988586129961 
824	 0.118928833197191 
825	 0.116788079933369 
826	 0.115208242142712 
827	 0.113659992417174 
828	 0.111393912674856 
829	 0.108915355303803 
830	 0.106802987212969 
831	 0.10506372974883 
832	 0.103369052196953 
833	 0.101773926952518 
834	 0.100687811130858 
835	 0.099994137475479 
836	 9.89451610752667E-02 
837	 9.80767147597351E-02 
838	 9.74639150640726E-02 
839	 0.097037901628867 
840	 9.66732172084421E-02 
841	 0.09602859576588 
842	 9.52462569617508E-02 
843	 9.46799572853119E-02 
844	 0.094675863875648 
845	 9.44487471252558E-02 
846	 9.39235135308216E-02 
847	 9.34811778597149E-02 
848	 9.25642531886742E-02 
849	 9.20522294436417E-02 
850	 9.21635435536561E-02 
851	 9.20734258206248E-02 
852	 9.16653699281581E-02 
853	 9.08978221596844E-02 
854	 9.01302245575799E-02 
855	 9.04087895847666E-02 
856	 8.99908165913407E-02 
857	 8.94042016168378E-02 
858	 8.93361087369887E-02 
859	 8.85981544535775E-02 
860	 8.84743765043965E-02 
861	 8.84606592578811E-02 
862	 8.75103652223535E-02 
863	 8.73245928061259E-02 
864	 8.70752308940558E-02 
865	 8.65696152922864E-02 
866	 0.086301562860862 
867	 8.59390764717876E-02 
868	 8.56673400173017E-02 
869	 8.53543054729651E-02 
870	 8.44335238310505E-02 
871	 8.46287146663331E-02 
872	 8.45782160115172E-02 
873	 8.34390953669823E-02 
874	 0.083045288664332 
875	 8.25834320123068E-02 
876	 8.21091391256851E-02 
877	 8.18308332888538E-02 
878	 8.16719677872369E-02 
879	 8.07673558871861E-02 
880	 7.97004655594606E-02 
881	 7.95546734935982E-02 
882	 7.99519444781332E-02 
883	 7.91204918895429E-02 
884	 7.75978352915115E-02 
885	 7.74246286106562E-02 
886	 7.68839533435101E-02 
887	 7.65981725465636E-02 
888	 7.64987098305409E-02 
889	 7.55909606372283E-02 
890	 7.55007184161505E-02 
891	 7.55659775137908E-02 
892	 7.54554220827266E-02 
893	 7.63306169802303E-02 
894	 0.076205118827459 
895	 7.50379585528725E-02 
896	 7.38692635505188E-02 
897	 7.47659493605883E-02 
898	 7.47264863992444E-02 
899	 7.35401074028844E-02 
900	 7.22819006427123E-02 
901	 7.17160491271132E-02 
902	 7.14792842451557E-02 
903	 7.10909833930728E-02 
904	 7.03106681203692E-02 
905	 7.01894418369743E-02 
906	 7.00265093040522E-02 
907	 6.95267836953443E-02 
908	 6.88559393290658E-02 
909	 6.86718654418894E-02 
910	 6.91713026071864E-02 
911	 6.86962179706109E-02 
912	 6.49980560739087E-02 
913	 6.53460688284051E-02 
914	 6.48482931364984E-02 
915	 0.062197024461803 
916	 6.16639504728045E-02 
917	 6.13899112084445E-02 
918	 6.09084907135625E-02 
919	 5.97985366961952E-02 
920	 5.75237099324616E-02 
921	 5.58807022349213E-02 
922	 5.52208027120127E-02 
923	 5.54068592590242E-02 
924	 5.59616066630471E-02 
925	 5.35406454544808E-02 
926	 5.21329422480332E-02 
927	 5.55384597619729E-02 
928	 5.49099812611485E-02 
929	 5.27054641833249E-02 
930	 0.050424146662321 
931	 5.00445532974749E-02 
932	 5.33789903321737E-02 
933	 5.16336437053775E-02 
934	 4.88428956112904E-02 
935	 5.17723894939109E-02 
936	 0.038391173131033 
937	 4.65924097021833E-02 
938	 5.11337603138825E-02 
939	 2.90483573639248E-02 
940	 3.70946615993127E-02 
941	 4.12191655300092E-02 
942	 3.97999076668411E-02 
943	 0.043908728134779 
944	 3.29821148268871E-02 
945	 3.68365696697479E-02 
946	 0.043491483545148 
947	 2.55365846119809E-02 
948	 2.89915569321222E-02 
949	 3.60698413012411E-02 
950	 3.77287765498879E-02 
951	 3.47435906453527E-02 
952	 3.35594323511192E-02 
953	 0.037085588267051 
954	 3.77410825994656E-02 
955	 2.73562178579181E-02 
956	 3.36472089507372E-02 
957	 3.32405920850761E-02 
958	 2.62229232619692E-02 
959	 2.84876441532123E-02 
960	 3.43988989582989E-02 
961	 3.43170687834623E-02 
962	 3.02849154456592E-02 
963	 3.06625631308473E-02 
964	 3.19945572373783E-02 
965	 3.46867528010847E-02 
966	 3.54023468972533E-02 
967	 3.05808215312412E-02 
968	 3.44925536121385E-02 
969	 3.32833261562886E-02 
970	 2.72934974950538E-02 
971	 2.89368030528548E-02 
972	 3.04080558687316E-02 
973	 3.24672104917781E-02 
974	 3.32457920320673E-02 
975	 2.94857115988928E-02 
976	 3.42305325997927E-02 
977	 3.66689348426809E-02 
978	 3.33933568024846E-02 
979	 3.01526010275049E-02 
980	 0.032318412482914 
981	 3.19043801241134E-02 
982	 3.06477419741767E-02 
983	 3.57048085357016E-02 
984	 2.80557153181441E-02 
985	 2.82028509590059E-02 
986	 3.62662837964026E-02 
987	 3.62036751218404E-02 
988	 3.40348645099715E-02 
989	 2.99800709937009E-02 
990	 2.69273022632659E-02 
991	 2.84737341268224E-02 
992	 2.94304463774632E-02 
993	 3.19264497353525E-02 
994	 3.44451674401451E-02 
995	 3.36048306818466E-02 
996	 3.22556265727676E-02 
997	 2.98291431150266E-02 
998	 2.99674324468823E-02 
999	 3.55914753714931E-02 
1000	 3.24443543206105E-02 
1001	 3.19302717654713E-02 
1002	 3.16640178036105E-02 
1003	 3.19653509252656E-02 
1004	 3.25701034361236E-02 
1005	 0.032831297627904 
1006	 3.33794926587815E-02 
1007	 3.36640632931922E-02 
1008	 3.28735811817157E-02 
1009	 3.24480711442081E-02 
1010	 3.18999497399189E-02 
1011	 3.14168413337756E-02 
1012	 3.20439901969295E-02 
1013	 3.16947626208057E-02 
1014	 3.15834455546156E-02 
1015	 3.14557363528962E-02 
1016	 3.17235797918038E-02 
1017	 3.19967897759499E-02 
1018	 0.032504343813303 
1019	 3.38913112841373E-02 
1020	 3.44129263046987E-02 
1021	 3.46186889919652E-02 
1022	 3.45815781748336E-02 
1023	 3.40937368038373E-02 
1024	 3.29733286187002E-02 
1025	 3.20014467811742E-02 
1026	 0.031367020849705 
1027	 3.14992126603355E-02 
1028	 3.23861150350926E-02 
1029	 3.30161027326954E-02 
1030	 0.034487464719126 
1031	 3.48910010721555E-02 
1032	 0.034383230499968 
1033	 3.47526087019533E-02 
1034	 3.54133369039223E-02 
1035	 3.55801037484779E-02 
1036	 3.60245001201491E-02 
1037	 3.62722259752521E-02 
1038	 3.60322466434131E-02 
1039	 3.55193579641282E-02 
1040	 3.57969731336226E-02 
1041	 3.58764089211939E-02 
1042	 3.64092001454348E-02 
1043	 0.037147970136433 
1044	 3.80619306004261E-02 
1045	 3.98027267968747E-02 
1046	 4.02657748732718E-02 
1047	 4.01045801838877E-02 
1048	 4.02648827476762E-02 
1049	 3.97883752743905E-02 
1050	 3.97769992260456E-02 
1051	 4.03285621235733E-02 
1052	 0.040567926906043 
1053	 4.05713988595192E-02 
1054	 4.06953934775243E-02 
1055	 4.05245677753249E-02 
1056	 4.08955879684726E-02 
1057	 0.041540361340006 
1058	 4.27513918340905E-02 
1059	 4.30097544012419E-02 
1060	 4.34148629400183E-02 
1061	 4.33089441028379E-02 
1062	 0.04171511927272 
1063	 4.18245423346123E-02 
1064	 4.29637162822367E-02 
1065	 4.34072390646487E-02 
1066	 0.044777866382165 
1067	 4.49261837819331E-02 
1068	 0.043529467154976 
1069	 4.31259413142556E-02 
1070	 4.22905415228729E-02 
1071	 4.22609563561304E-02 
1072	 4.36052430580995E-02 
1073	 4.45050911881342E-02 
1074	 4.44960879838464E-02 
1075	 0.044429298282236 
1076	 4.37619035143913E-02 
1077	 4.13607518780779E-02 
1078	 4.08510433828186E-02 
1079	 4.09159022292828E-02 
1080	 4.10782813148106E-02 
1081	 4.25644194504639E-02 
1082	 4.29147701128035E-02 
1083	 4.28848991870046E-02 
1084	 0.042782755149849 
1085	 4.16728070722441E-02 
1086	 4.13354329199277E-02 
1087	 4.18614383935194E-02 
1088	 4.16363692980982E-02 
1089	 4.06739253628347E-02 
1090	 4.10631626190624E-02 
1091	 4.08523835981645E-02 
1092	 3.96136091298133E-02 
1093	 3.95294392919719E-02 
1094	 4.08960539897475E-02 
1095	 4.06771367241931E-02 
1096	 3.98287821512548E-02 
1097	 3.96020139561777E-02 
1098	 3.83533325714884E-02 
1099	 3.80070481698339E-02 
1100	 0.039281385285904 
1101	 3.96086822467342E-02 
1102	 3.97947865262168E-02 
1103	 3.97609148896054E-02 
1104	 3.97098982129558E-02 
1105	 3.82354385637121E-02 
1106	 0.037155332064646 
1107	 3.71566828803113E-02 
1108	 3.62350467931882E-02 
1109	 3.61569648852066E-02 
1110	 3.65799436073418E-02 
1111	 0.038000577002167 
1112	 0.037869154586235 
1113	 3.72367766731727E-02 
1114	 3.74668300939869E-02 
1115	 3.69255480350624E-02 
1116	 3.67165872197598E-02 
1117	 3.85602563755393E-02 
1118	 4.10703797558434E-02 
1119	 4.30958665900776E-02 
1120	 4.52070313160625E-02 
1121	 4.93668887382287E-02 
1122	 5.94863971023615E-02 
1123	 6.82856068719469E-02 
1124	 5.54329324824168E-02 
1125	 0.027313667345897 
1126	 1.47388574134512E-02 
1127	 9.15670772199128E-03 
1128	 7.10831823558543E-03 
1129	 1.20545820711786E-02 
1130	 0.035385976635409 
1131	 4.26339013613003E-02 
1132	 4.42983124761273E-02 
1133	 4.40937086347433E-02 
1134	 4.39193782057546E-02 
1135	 4.24370348738631E-02 
1136	 3.28900726845652E-02 
1137	 3.37802916410209E-02 
1138	 0.044374237647869 
1139	 4.27439446457877E-02 
1140	 3.73676066577085E-02 
1141	 3.61932112008957E-02 
1142	 2.77944905972764E-02 
1143	 2.63095253477269E-02 
1144	 0.033089265763996 
1145	 3.51106909348291E-02 
1146	 3.19030211656832E-02 
1147	 2.81583225146456E-02 
1148	 2.91679258820195E-02 
1149	 3.38728726015921E-02 
1150	 3.35563261332524E-02 
1151	 3.20736269456322E-02 
1152	 0.034000304321463 
1153	 3.58955405103537E-02 
1154	 3.44677694885353E-02 
1155	 3.37219407893515E-02 
1156	 3.41639657407617E-02 
1157	 3.37043583911195E-02 
1158	 3.25905264312866E-02 
1159	 3.22593882703642E-02 
1160	 3.28876344065295E-02 
1161	 3.32336762573352E-02 
1162	 3.29004665554505E-02 
1163	 3.25427755163894E-02 
1164	 3.20033300941603E-02 
1165	 3.07424892175257E-02 
1166	 2.99370524921113E-02 
1167	 2.99476698151081E-02 
1168	 3.09967101290507E-02 
1169	 3.19771465376987E-02 
1170	 3.12146935594499E-02 
1171	 3.10357138042003E-02 
1172	 0.031326345283873 
1173	 3.11777159729122E-02 
1174	 3.05816440698108E-02 
1175	 3.02351773456195E-02 
1176	 3.04847691369588E-02 
1177	 3.01452601782787E-02 
1178	 2.97527714245525E-02 
1179	 3.07457613344531E-02 
1180	 3.17645728057266E-02 
1181	 3.10861397130552E-02 
1182	 3.11412039433182E-02 
1183	 3.17113325068679E-02 
1184	 3.02385534884615E-02 
1185	 2.94923305597934E-02 
1186	 3.03388534023438E-02 
1187	 3.03739729237162E-02 
1188	 3.06839524059196E-02 
1189	 3.13739533441369E-02 
1190	 3.06790526007299E-02 
1191	 0.030019601346298 
1192	 3.00944219910873E-02 
1193	 3.08478416391134E-02 
1194	 0.031230903392317 
1195	 3.11632406782166E-02 
1196	 3.11499544499519E-02 
1197	 3.04310341179841E-02 
1198	 3.00692415864513E-02 
1199	 3.09089842889374E-02 
1200	 3.06525888734574E-02 
1201	 0.029960121736611 
1202	 3.03050897223313E-02 
1203	 3.03830052172788E-02 
1204	 3.04175772230506E-02 
1205	 3.04173470894258E-02 
1206	 2.97759613515229E-02 
1207	 2.92817673212394E-02 
1208	 2.91782453046814E-02 
1209	 2.95755872883856E-02 
1210	 3.02122456913651E-02 
1211	 3.00972616533013E-02 
1212	 3.01670896496083E-02 
1213	 0.030595770184878 
1214	 3.04339975034345E-02 
1215	 2.97265319348193E-02 
1216	 2.95119493344467E-02 
1217	 3.01865439644146E-02 
1218	 3.06662830300811E-02 
1219	 3.08695811057904E-02 
1220	 3.08983624656153E-02 
1221	 3.06475296280137E-02 
1222	 0.030474249923568 
1223	 3.06105964634621E-02 
1224	 3.07567102327112E-02 
1225	 3.04500578970542E-02 
1226	 0.029578962986417 
1227	 2.93638218980112E-02 
1228	 3.00749952336058E-02 
1229	 3.02300211956338E-02 
1230	 3.00126557293772E-02 
1231	 3.00547386707761E-02 
1232	 2.97657643182813E-02 
1233	 2.94236204094916E-02 
1234	 2.97481469220356E-02 
1235	 2.99995146210111E-02 
1236	 3.03972182733487E-02 
1237	 3.01950193794781E-02 
1238	 2.98132005901971E-02 
1239	 2.96149554885419E-02 
1240	 2.93576304196837E-02 
1241	 2.93480065226167E-02 
1242	 3.00428654196363E-02 
1243	 3.03834311673459E-02 
1244	 3.02857020005784E-02 
1245	 3.01578330501891E-02 
1246	 0.029849047480252 
1247	 2.94539976898536E-02 
1248	 2.91266962964714E-02 
1249	 2.94915592811933E-02 
1250	 2.99127297606081E-02 
1251	 2.97004750716271E-02 
1252	 0.029702967784489 
1253	 2.97856970072326E-02 
1254	 2.96816406702156E-02 
1255	 2.99487075172488E-02 
1256	 3.00175897021557E-02 
1257	 2.97053711402938E-02 
1258	 2.95908646027792E-02 
1259	 0.029682869690395 
1260	 2.96974491838305E-02 
1261	 2.98074633552098E-02 
1262	 2.99765095557229E-02 
1263	 3.01741660010368E-02 
1264	 2.98760919667508E-02 
1265	 0.030269939871956 
1266	 0.03073192685122 
1267	 3.05845260621969E-02 
1268	 3.06491800359774E-02 
1269	 0.030556370482057 
1270	 3.01134653113683E-02 
1271	 2.95588112465866E-02 
1272	 0.029322764765482 
1273	 2.97638010592376E-02 
1274	 2.97147703955758E-02 
1275	 2.94941184416041E-02 
1276	 2.98425661312005E-02 
1277	 2.98352908835847E-02 
1278	 2.96643707116383E-02 
1279	 2.96377414990311E-02 
1280	 2.94821418101083E-02 
1281	 2.96704094511792E-02 
1282	 3.02424888819933E-02 
1283	 3.01607685722175E-02 
1284	 0.029854930609295 
1285	 2.99980830814769E-02 
1286	 2.99141582631572E-02 
1287	 2.97436098780734E-02 
1288	 2.99042763573196E-02 
1289	 3.00519444865738E-02 
1290	 2.99468488651545E-02 
1291	 2.98660355883825E-02 
1292	 2.98590449780349E-02 
1293	 3.00256189678164E-02 
1294	 2.94019747165927E-02 
1295	 2.83223710549692E-02 
1296	 2.80723218775281E-02 
1297	 2.87266114203151E-02 
1298	 2.92434544137002E-02 
1299	 2.91793956150671E-02 
1300	 2.92620528497433E-02 
1301	 2.92687548258725E-02 
1302	 2.94231009447899E-02 
1303	 3.00020255608758E-02 
1304	 3.02289069397221E-02 
1305	 3.01058961141713E-02 
1306	 3.00743060479042E-02 
1307	 2.99411415838502E-02 
1308	 0.030047468022677 
1309	 3.01150826353542E-02 
1310	 3.01148357950803E-02 
1311	 2.99565556725482E-02 
1312	 3.01535345935502E-02 
1313	 3.13551129305632E-02 
1314	 3.11130197888961E-02 
1315	 2.98115283070701E-02 
1316	 2.97069726277093E-02 
1317	 2.86414037905932E-02 
1318	 2.82672612713262E-02 
1319	 2.99287543665398E-02 
1320	 3.07840667547866E-02 
1321	 3.14972174719447E-02 
1322	 3.15850144070126E-02 
1323	 3.06974669391782E-02 
1324	 2.98309163604172E-02 
1325	 2.99580571815643E-02 
1326	 0.030792697616681 
1327	 3.19691105957711E-02 
1328	 3.19326820774754E-02 
1329	 3.02460544615862E-02 
1330	 3.08661042537067E-02 
1331	 3.45343615759465E-02 
1332	 3.63681892116535E-02 
1333	 3.48234075190383E-02 
1334	 3.23556144821668E-02 
1335	 0.030934057311461 
1336	 2.85469322307886E-02 
1337	 2.69167459992781E-02 
1338	 2.76545584992234E-02 
1339	 2.65641166192448E-02 
1340	 0.021570103094041 
1341	 2.17160171506498E-02 
1342	 0.027975690795093 
1343	 0.026731161070801 
1344	 1.83554933769524E-02 
1345	 2.20400094638924E-02 
1346	 3.79341474693708E-02 
1347	 4.02663582943927E-02 
1348	 4.96266779641907E-02 
1349	 0.060133410081872 
1350	 1.32697412778926E-02 
1351	-1.47038363135772E-02 
1352	 3.43536509149574E-02 
1353	 5.77327429889093E-02 
1354	 4.39702158231959E-02 
1355	 7.76112058680226E-02 
1356	 8.88178970033359E-02 
1357	 7.25618079123943E-02 
1358	 0.108627559473099 
1359	-0.334194925773833 
1360	-0.78512588617669 
1361	-0.455145351034128 
1362	-2.77406189390946E-02 
1363	 0.446388916527812 
1364	 0.550926986061398 
1365	 5.13179622877914E-02 
1366	-1.62964207057479E-02 
1367	-0.107206116195546 
1368	-8.22327297974298E-02 
1369	 0.396094705406951 
1370	 0.492908383055442 
1371	 0.500249764761396 
1372	 0.620326392765025 
1373	 0.427156869061379 
1374	 0.287019259970693 
1375	 0.109560861024231 
1376	 0.20544231710699 
1377	 0.696099425153835 
1378	 0.646461198166931 
1379	 0.418302536806239 
1380	 0.58308519012187 
1381	 0.559188522477744 
1382	 0.289308048531686 
1383	 0.54392293231454 
1384	 1.12262508781477 
1385	 0.92024534197451 
1386	 0.891174640263897 
1387	 1.32752450134505 
1388	 1.30832185533266 
1389	 0.674843275594955 
1390	 0.5303658919414 
1391	 0.473251783972062 
1392	 0.568184870364517 
1393	 1.22842662592409 
1394	 0.937896154478858 
1395	 0.797545005435622 
1396	 1.10106092714338 
1397	 16.655851002724 
1398	-2.82952103651905 
1399	-2.88877038755412 
1400	-13.3800172632659 
1401	 2.35353876278574 
1402	 1.16515379789472 
1403	 3.26454561469807 
1404	 83.1680226498447 
1405	 29.7686265337744 
1406	 11.8632217866216 
1407	 1.35092760975779 
1408	-0.138744496785929 
1409	-6.91054115449511E-02 
1410	 3.97465403812525 
1411	 52.607698402102 
1412	-2.03757497415519 
1413	-2.19294430129197 
1414	-0.117279395135537 
1415	-0.206869749020699 
1416	-0.073107028995177 
1417	-0.101630019044208 
1418	 5.96886871612091E-02 
1419	 0.180311209421104 
1420	 0.282044061642711 
1421	 0.194653532553282 
1422	-4.60714211408705E-02 
1423	-0.102311089503119 
1424	-0.268838621166577 
1425	-0.252521031315123 
1426	-0.047855593803331 
1427	 6.10067671640178E-02 
1428	 0.257138756255484 
1429	 0.28297437157808 
1430	 0.187444332611963 
1431	 0.186450655438662 
1432	 0.132082652063489 
1433	 0.084212404938445 
1434	 0.139817196045984 
1435	 0.124632596555299 
1436	 2.92882699237045E-02 
1437	-3.49514415849741E-02 
1438	 3.24761593247471E-02 
1439	 0.075886553007569 
1440	-3.25775154866549E-03 
1441	 0.03341004975859 
1442	 7.36306412195578E-02 
1443	 1.05829653641757E-02 
1444	 6.34661241804376E-03 
1445	 4.15850094278209E-02 
1446	 4.02769700004571E-02 
1447	 1.55308574692597E-02 
1448	-1.22213454640439E-02 
1449	-2.93418387969912E-03 
1450	 2.25909168227803E-02 
1451	 2.07616723684548E-02 
1452	 2.65452981623005E-02 
1453	 3.46987352241256E-02 
1454	 3.79288961842412E-02 
1455	 0.032074498412067 
1456	 3.19938720122807E-02 
1457	 3.51834744469132E-02 
1458	 3.80362752033372E-02 
1459	 4.05694749092773E-02 
1460	 3.59394875863132E-02 
1461	 3.14590219400592E-02 
1462	 2.65903742938861E-02 
1463	 9.09564750589285E-03 
1464	 6.3335104118443E-03 
1465	 1.63523745531817E-02 
1466	 2.27111363246793E-02 
1467	 3.28875375924274E-02 
1468	 3.82360889828889E-02 
1469	 4.05581619258089E-02 
1470	 4.44550205016871E-02 
1471	 5.53328042485882E-02 
1472	 4.93345652952622E-02 
1473	 2.60419299566706E-02 
1474	 2.57599919434052E-02 
1475	 3.09805769185568E-02 
1476	 2.78472783122892E-02 
1477	 2.85600664545034E-02 
1478	 3.59044480717659E-02 
1479	 4.69117424952199E-02 
1480	 4.02224714799807E-02 
1481	 0.028556429014932 
1482	 2.92129660850619E-02 
1483	 0.022885919161888 
1484	 2.00894422477114E-02 
1485	 2.96796904133448E-02 
1486	 3.33520296414154E-02 
1487	 3.09252400172852E-02 
1488	 2.94461538151312E-02 
1489	 2.91677628520002E-02 
1490	 2.98668974661723E-02 
1491	 2.98774322212361E-02 
1492	 2.91065279198354E-02 
1493	 2.91724314260746E-02 
1494	 2.99039168024697E-02 
1495	 3.05999330164705E-02 
1496	 2.97589813028049E-02 
1497	 2.83271174103304E-02 
1498	 2.82772154761855E-02 
1499	 2.76158452232891E-02 
1500	 2.72933086724148E-02 
1501	 2.86501686117199E-02 
1502	 2.90112627957735E-02 
1503	 2.87685224766763E-02 
1504	 2.83179671407109E-02 
1505	 2.78541476432045E-02 
1506	 2.69436063216798E-02 
1507	 2.61071572996662E-02 
1508	 2.54913901314837E-02 
1509	 2.59456811409246E-02 
1510	 2.76096800066973E-02 
1511	 2.89904591748423E-02 
1512	 2.87226243425704E-02 
1513	 2.77593557929134E-02 
1514	 2.72478156558087E-02 
1515	 2.71149408739734E-02 
1516	 2.72839301230671E-02 
1517	 2.74489068567244E-02 
1518	 0.027813047923162 
1519	 0.028474311885393 
1520	 2.82639899315632E-02 
1521	 2.74503955268207E-02 
1522	 2.72537291491421E-02 
1523	 2.76173133806736E-02 
1524	 2.74203781836095E-02 
1525	 2.72392193738995E-02 
1526	 2.76672568329206E-02 
1527	 2.73573721564805E-02 
1528	 2.69115009114426E-02 
1529	 2.72369224956857E-02 
1530	 2.75821489431367E-02 
1531	 2.75145291994568E-02 
1532	 2.70312547781165E-02 
1533	 2.67788981948803E-02 
1534	 2.72702211666646E-02 
1535	 2.76970026894615E-02 
1536	 2.80151099865975E-02 
1537	 2.81657332408731E-02 
1538	 2.76134209180701E-02 
1539	 2.73672985625127E-02 
1540	 2.77661922956313E-02 
1541	 2.82272341399318E-02 
1542	 2.86213741266918E-02 
1543	 2.86898977946076E-02 
1544	 2.88414137459637E-02 
1545	 2.89204374031678E-02 
1546	 2.84618018399488E-02 
1547	 2.77308412760374E-02 
1548	 2.69929488920331E-02 
1549	 2.74725621449003E-02 
1550	 2.81733331968234E-02 
1551	 2.77921478310078E-02 
1552	 2.78923764488985E-02 
1553	 2.79842996697638E-02 
1554	 2.73294348934359E-02 
1555	 2.70433175723318E-02 
1556	 2.73013133613902E-02 
1557	 2.77763440119925E-02 
1558	 2.76339217842192E-02 
1559	 2.74030321431996E-02 
1560	 0.027983348643811 
1561	 2.75367034577398E-02 
1562	 2.66406416165353E-02 
1563	 2.72868209606928E-02 
1564	 2.77770211986462E-02 
1565	 0.026946900781466 
1566	 0.026796027700219 
1567	 2.75661410440067E-02 
1568	 2.76027663268997E-02 
1569	 2.75426565772952E-02 
1570	 2.79101072101782E-02 
1571	 2.81491368748287E-02 
1572	 2.77975811428444E-02 
1573	 2.77028098356561E-02 
1574	 2.82882661998038E-02 
1575	 0.028497672240807 
1576	 2.88241541883348E-02 
1577	 2.85819126662049E-02 
1578	 2.81714322892179E-02 
1579	 2.85578229680391E-02 
1580	 2.82133964221794E-02 
1581	 2.82176170403659E-02 
1582	 2.89684564851376E-02 
1583	 2.88199262780586E-02 
1584	 2.87370789108299E-02 
1585	 0.028898424932532 
1586	 2.87096897211758E-02 
1587	 2.90941233139103E-02 
1588	 2.88493762539436E-02 
1589	 2.78152648467801E-02 
1590	 2.78144855464966E-02 
1591	 2.74737887024363E-02 
1592	 2.72157554683187E-02 
1593	 2.83382698605598E-02 
1594	 2.90943349045891E-02 
1595	 2.93434718410178E-02 
1596	 2.90878244858651E-02 
1597	 0.028423827217417 
1598	 0.028453948779099 
1599	 0.028289153782899 
1600	 2.78588110773466E-02 
1601	 2.79353941572263E-02 
1602	 2.77415619217181E-02 
1603	 2.76401152099118E-02 
1604	 2.80521440259377E-02 
1605	 0.028772127450798 
1606	 2.92793426517266E-02 
1607	 2.91396331562871E-02 
1608	 2.94278850125991E-02 
1609	 2.97857554392076E-02 
1610	 0.029349988925673 
1611	 2.92815149046558E-02 
1612	 2.99662962572197E-02 
1613	 3.01896947570111E-02 
1614	 3.00783622673652E-02 
1615	 2.99119248177077E-02 
1616	 2.92354993590259E-02 
1617	 2.87819187252604E-02 
1618	 2.88080246577114E-02 
1619	 2.84221034340023E-02 
1620	 2.76790761558672E-02 
1621	 2.75486416790639E-02 
1622	 2.77680870255388E-02 
1623	 2.79713903305607E-02 
1624	 2.84766711493491E-02 
1625	 2.84874199981536E-02 
1626	 2.80017114660583E-02 
1627	 2.84218997084819E-02 
1628	 2.90898499458829E-02 
1629	 2.89697614160468E-02 
1630	 2.89362236666193E-02 
1631	 2.89093387124378E-02 
1632	 2.88865265750777E-02 
1633	 2.86931378138881E-02 
1634	 2.77701997809779E-02 
1635	 2.72034943229706E-02 
1636	 2.73119251758973E-02 
1637	 2.78817067543753E-02 
1638	 2.85933758306664E-02 
1639	 2.89083459801898E-02 
1640	 2.87571599226541E-02 
1641	 2.81663516880503E-02 
1642	 2.77816104118453E-02 
1643	 2.74898483682108E-02 
1644	 2.78453092473632E-02 
1645	 2.91989053648732E-02 
1646	 2.90108326802131E-02 
1647	 2.82951647103505E-02 
1648	 2.86508823157196E-02 
1649	 2.78074939832101E-02 
1650	 2.77219072358099E-02 
1651	 2.95007587576681E-02 
1652	 2.95342390862524E-02 
1653	 2.94849260845931E-02 
1654	 3.00025539125331E-02 
1655	 3.01191656281471E-02 
1656	 2.95389767514091E-02 
1657	 2.85983173934157E-02 
1658	 2.86494164238086E-02 
1659	 0.028906765687739 
1660	 2.84971361613709E-02 
1661	 2.85471277356047E-02 
1662	 2.89298990636619E-02 
1663	 2.84358178626238E-02 
1664	 2.84398553598714E-02 
1665	 2.98104281745418E-02 
1666	 2.98253994341012E-02 
1667	 2.86801229638393E-02 
1668	 2.98312002613226E-02 
1669	 2.94733820914511E-02 
1670	 2.89504225415157E-02 
1671	 2.95096474051004E-02 
1672	 0.029249693159324 
1673	 2.86587062647107E-02 
1674	 2.90012150741449E-02 
1675	 2.88594905343401E-02 
1676	 2.78320601466458E-02 
1677	 2.80190429958748E-02 
1678	 2.85782116751631E-02 
1679	 2.81403552597348E-02 
1680	 2.84225156698568E-02 
1681	 2.90761620217337E-02 
1682	 2.87289622241907E-02 
1683	 2.81282196290891E-02 
1684	 2.78937592495155E-02 
1685	 2.80015733747644E-02 
1686	 2.87673071607527E-02 
1687	 0.029219834712473 
1688	 0.029011811148451 
1689	 2.88675304092736E-02 
1690	 2.87197356525399E-02 
1691	 2.94264619616336E-02 
1692	 3.01906671069276E-02 
1693	 2.95077707345123E-02 
1694	 2.89222318340369E-02 
1695	 2.91320381288896E-02 
1696	 2.92518753019515E-02 
1697	 2.98091119913461E-02 
1698	 3.00035384513614E-02 
1699	 2.94856716866647E-02 
1700	 3.04246838562401E-02 
1701	 3.07883914136473E-02 
1702	 2.93761469690977E-02 
1703	 2.87041679536572E-02 
1704	 2.77434940232407E-02 
1705	 2.69853019205989E-02 
1706	 2.74352228932171E-02 
1707	 2.81158417459593E-02 
1708	 2.86010406163362E-02 
1709	 2.78876214652724E-02 
1710	 2.82746257620338E-02 
1711	 2.89020910813607E-02 
1712	 2.79489083207502E-02 
1713	 2.95859881090225E-02 
1714	 3.00454679619966E-02 
1715	 0.030028350522646 
1716	 3.01894295343495E-02 
1717	 3.05585323590084E-02 
1718	 3.03456064808395E-02 
1719	 2.91448522381604E-02 
1720	 2.87045321273403E-02 
1721	 2.87094174641896E-02 
1722	 0.029103097039298 
1723	 3.08810190603051E-02 
1724	 3.17357339404906E-02 
1725	 3.06911846801878E-02 
1726	 0.030762140989259 
1727	 3.07133482976318E-02 
1728	 0.029634679858811 
1729	 2.97181243829578E-02 
1730	 2.98974088728514E-02 
1731	 2.98416694926804E-02 
1732	 2.92736412801992E-02 
1733	 2.77284980981609E-02 
1734	 2.73030581346426E-02 
1735	 2.77219462030092E-02 
1736	 2.83784514429458E-02 
1737	 3.00079171257259E-02 
1738	 0.029893407061908 
1739	 2.78902975338523E-02 
1740	 2.74862560352298E-02 
1741	 2.80709823892273E-02 
1742	 2.80784354485781E-02 
1743	 2.87218456880697E-02 
1744	 2.91356356301093E-02 
1745	 2.81021887624779E-02 
1746	 2.86171871591971E-02 
1747	 2.85885253639746E-02 
1748	 2.74265098530997E-02 
1749	 2.71714390842568E-02 
1750	 2.73369917520942E-02 
1751	 0.026948150653006 
1752	 2.68969313507015E-02 
1753	 2.73395058605501E-02 
1754	 2.73514956040726E-02 
1755	 0.028093676367542 
1756	 3.03905949808426E-02 
1757	 3.04637344909345E-02 
1758	 2.92088563267047E-02 
1759	 2.70199890662259E-02 
1760	 2.64848866550535E-02 
1761	 2.81161099181457E-02 
1762	 2.99656947748094E-02 
1763	 3.04186307276169E-02 
1764	 3.04873616208553E-02 
1765	 2.95093937191002E-02 
1766	 2.77523796796592E-02 
1767	 2.89354496383336E-02 
1768	 2.84803301412411E-02 
1769	 2.62116393596554E-02 
1770	 2.88041336353928E-02 
1771	 3.24824581435726E-02 
1772	 3.23189881405404E-02 
1773	 3.28767794609823E-02 
1774	 3.16429439119027E-02 
1775	 2.70490071764899E-02 
1776	 2.67243803814573E-02 
1777	 3.01238410927747E-02 
1778	 2.99456293253034E-02 
1779	 2.90164664449774E-02 
1780	 2.81613251067708E-02 
1781	 0.025286478264186 
1782	 2.50979166095661E-02 
1783	 2.55425304406105E-02 
1784	 2.85361248095473E-02 
1785	 3.67331175193617E-02 
1786	 4.04437005172104E-02 
1787	 4.52992623179337E-02 
1788	 0.044730025050674 
1789	 3.27328168545007E-02 
1790	 3.47531655786114E-02 
1791	 4.67038339352369E-02 
1792	 4.69099716271853E-02 
1793	 0.046961289896751 
1794	 3.70970388378589E-02 
1795	 9.25702576801517E-03 
1796	 6.37793252648573E-03 
1797	 3.04455547725608E-03 
1798	-1.85175985336526E-03 
1799	 1.31943699314189E-02 
1800	 1.14052629240623E-02 
1801	 0.033954815658679 
1802	 9.86022419894493E-02 
1803	 0.105730393680841 
1804	 0.059722780391843 
1805	 6.60989494724787E-02 
1806	-2.33521169293096E-02 
1807	-2.63134798481765E-02 
1808	 0.210079033330599 
1809	 0.369747724724634 
1810	 0.391216438578307 
1811	 0.697883334312062 
1812	-4.84488391140759 
1813	-1.95718132471517 
1814	-4.07519702356686 
1815	-0.519679957177664 
1816	-0.806077699428705 
1817	-0.641270889408554 
1818	 1.02155653970338 
1819	 0.28990430838205 
1820	 2.18419470222848 
1821	 0.136869833324325 
1822	-0.105109491581371 
1823	-0.359759600540389 
1824	-0.426966827809422 
1825	 1.31721194690948E-02 
1826	 0.6199455989277 
1827	 1.1894588359852 
1828	 1.20591125565633 
1829	 1.41273328164633 
1830	 1.42732882328927 
1831	 0.363931426868404 
1832	 1.31934757007255 
1833	-1.335931347167 
1834	-1.42041339892092 
1835	-1.74409369691725 
1836	-1.85097281362848 
1837	-3.53404021804687 
1838	-6.92394921109027 
1839	-3.81670911281833 
1840	-6.35228132827788 
1841	 246.048354499164 
1842	 1.24395912315696 
1843	-0.386093000435575 
1844	 1.76785799542411 
1845	 1.18312845736391 
1846	 1.03454592162261 
1847	 0.777113864725113 
1848	 2.73425871939336 
1849	 3.55735196004113 
1850	 3.81083814502591 
1851	 3.47346977545293 
1852	 16.288772683526 
1853	 6.30257818656417 
1854	 6.61355178202611 
1855	 13.0198782222444 
1856	 7.95649620007409 
1857	 2.75196651865895 
1858	 2.89768410118912 
1859	-194.539453450434 
1860	 3.20376348407793 
1861	 2.10428266397824 
1862	 1.48249661483921 
1863	 0.347964203344625 
1864	 0.311850938226874 
1865	 0.276049942438527 
1866	 0.967698360105647 
1867	 6.35780939706071 
1868	-3.09525142991709 
1869	-0.802692362605893 
1870	 3.89221805655893E-02 
1871	 0.565131247099425 
1872	 0.965328972540816 
1873	 1.17282689753217 
1874	 2.23317670899409 
1875	 2.49506104795797 
1876	 8.77020547585558 
1877	 0.335028438145925 
1878	 0.786107277582165 
1879	 0.838492508126905 
1880	 0.579076784521792 
1881	 4.94124385671641E-02 
1882	-0.553670445834975 
1883	-1.70943949061173 
1884	 306.261063050086 
1885	 0.926310365413985 
1886	-0.829607233113498 
1887	-0.747929879237632 
1888	-0.511454150349474 
1889	-0.302402641130505 
1890	 9.42828528361368E-03 
1891	 8.81857136878981E-02 
1892	 0.779145879587593 
1893	-13.0909610365634 
1894	-11.9194335195157 
1895	 3.14713697791706 
1896	-2.87410838788835 
1897	-1.62888427639432 
1898	-5.74029731101784 
1899	 9.47086848884407 
1900	 5.18781346227522 
1901	 2.52507011758775 
1902	 2.99214816732168 
1903	 34.4346828464688 
1904	-5.2410193568564 
1905	-2.58394996223619 
1906	-0.160434111382789 
1907	 0.969773856870454 
1908	 0.966058603168899 
1909	 0.697747753434003 
1910	 0.501237150433594 
1911	-0.33667861973926 
1912	 9.86117948643611 
1913	 1.01773450188684 
1914	 0.946580759401005 
1915	 0.946796852040332 
1916	 0.503923572547472 
1917	 0.370285627570913 
1918	 1.35799297539368 
1919	 0.773602551321382 
1920	 1.46868504633997 
1921	 1.81568000159429 
1922	 1.20074807430134 
1923	 2.25223019828869 
1924	 1.45190028592341 
1925	 0.990247797583365 
1926	 0.50705433160136 
1927	 0.190258943819017 
1928	 3.79494491930536E-02 
1929	-7.93879919271992E-03 
1930	-8.34258190147902E-02 
1931	-0.985199432721371 
1932	-0.515283118782503 
1933	-0.05867170595962 
1934	 0.155963179533118 
1935	-1.68802422965214 
1936	-3.37782225113685 
1937	 1.37238853403346 
1938	 0.990579250318828 
1939	 0.874411871540083 
1940	 0.890098362436984 
1941	 2.73275126759122 
1942	 11.9406121211951 
1943	 0.526085037280235 
1944	 0.506564195459632 
1945	 0.159361522675729 
1946	 9.08453178649683E-02 
1947	 0.109697786894392 
1948	-9.7714919482245E-03 
1949	-6.06873698526867E-02 
1950	-0.330207918291131 
1951	-0.52100759698473 
1952	-0.515045640048136 
1953	-0.333074544255151 
1954	-0.248065693336778 
1955	-0.153325612314797 
1956	 4.81894223378626E-02 
1957	 6.29091906895102E-02 
1958	 0.069064995439278 
1959	 0.110633813746036 
1960	 5.24106075485792E-02 
1961	 1.84230453617155E-02 
1962	 2.84870236005084E-02 
1963	 5.21075109454879E-02 
1964	 6.91995186960531E-02 
1965	 7.51271786474221E-02 
1966	 8.16755869557429E-02 
1967	 9.31887087104497E-02 
1968	 7.72475415831595E-02 
1969	 6.12161243768578E-02 
1970	 6.04597435729177E-02 
1971	 5.09122093400224E-02 
1972	 4.82817886132796E-02 
1973	 5.23296770281955E-02 
1974	 5.10663011858948E-02 
1975	 4.92565866982987E-02 
1976	 4.85240222959516E-02 
1977	 4.45351779446932E-02 
1978	 3.57682242060512E-02 
1979	 3.02148162630612E-02 
1980	 2.23396310836248E-02 
1981	 2.27509222594665E-02 
1982	 2.31281691683652E-02 
1983	 2.29017555656735E-02 
1984	 2.94178593641501E-02 
1985	 2.83935517026753E-02 
1986	 2.37346723692509E-02 
1987	 0.023900575583356 
1988	 2.31424106268032E-02 
1989	 2.33413666963013E-02 
1990	 2.83162390236118E-02 
1991	 3.41691118935974E-02 
1992	 3.70684229013695E-02 
1993	 3.37973341702488E-02 
1994	 3.03810286126313E-02 
1995	 2.05474570536218E-02 
1996	 1.65552898724479E-02 
1997	 1.48547730644331E-02 
1998	 1.21780094815248E-02 
1999	 8.63433784741664E-03 
2000	-4.05494075641278E-03 
2001	-1.28317635281031E-02 
2002	-1.00915134737577E-02 
2003	-8.30811841733081E-03 
2004	 2.57703120576437E-04 
2005	 0.016030471162352 
2006	 2.05245967604146E-02 
2007	 3.36548870702833E-02 
2008	 4.13672975816028E-02 
2009	 4.07904674676465E-02 
2010	 2.64059844330137E-02 
2011	 2.58444548147213E-02 
2012	 2.51234556874535E-02 
2013	 2.08733427230586E-02 
2014	 3.88200922488904E-02 
2015	 3.67616532572196E-02 
2016	 1.89634557650554E-02 
2017	 1.78038321615447E-02 
2018	 1.66969662352972E-02 
2019	 2.31437550295769E-02 
2020	 2.86511960598959E-02 
2021	 2.50403361027231E-02 
2022	 3.11957840326562E-02 
2023	 3.41812097856061E-02 
2024	 3.36141333627914E-02 
2025	 3.76387375707823E-02 
2026	 3.87753131256913E-02 
2027	 0.03723150727458 
2028	 2.84663510831265E-02 
2029	 2.71749877064276E-02 
2030	 2.84465007605398E-02 
2031	 2.39022174283641E-02 
2032	 2.29214241353086E-02 
2033	 2.20096278523177E-02 
2034	 1.84784752113395E-02 
2035	 0.017162371227681 
2036	 0.016218271328243 
2037	 1.72623768567482E-02 
2038	 1.94601693852988E-02 
2039	 2.01774684839187E-02 
2040	 2.12455047491285E-02 
2041	 2.18233186436286E-02 
2042	 2.14553732731263E-02 
2043	 2.11327195628074E-02 
2044	 2.04256899316596E-02 
2045	 2.06579583389268E-02 
2046	 2.34764583460737E-02 
2047	 2.39546119249348E-02 
2048	 2.24877515542294E-02 
2049	 2.75864067805345E-02 
2050	 3.03102735697152E-02 
2051	 2.77381927176771E-02 
2052	 3.05106614830526E-02 
2053	 3.09036730149339E-02 
2054	 2.34704211039803E-02 
2055	 1.81803139386105E-02 
2056	 1.58229054755937E-02 
2057	 1.09885737023472E-02 
2058	 1.16833360132418E-02 
2059	 2.18771386172963E-02 
2060	 2.65411734661931E-02 
2061	 3.14560013277974E-02 
2062	 3.53371294328658E-02 
2063	 3.40746421806418E-02 
2064	 2.88433871052695E-02 
2065	 2.29638327584677E-02 
2066	 1.91040120415114E-02 
2067	 1.71417348058358E-02 
2068	 1.70709719830311E-02 
2069	 0.02034525707782 
2070	 2.10456998426168E-02 
2071	 1.92597737463645E-02 
2072	 1.85978912818333E-02 
2073	 1.86632972833139E-02 
2074	 1.90979871005543E-02 
2075	 1.73954585967267E-02 
2076	 1.34337801639349E-02 
2077	 1.38064392208517E-02 
2078	 0.014176257627053 
2079	 1.55360866721261E-02 
2080	 0.019433651337161 
2081	 2.64095036150987E-02 
2082	 3.02767030050079E-02 
2083	 2.84701894515659E-02 
2084	 2.87833665067801E-02 
2085	 2.84162319163528E-02 
2086	 2.63667193181959E-02 
2087	 2.78892324477926E-02 
2088	 2.87329413207129E-02 
2089	 2.87914228647575E-02 
2090	 2.81047725925377E-02 
2091	 2.84836864080391E-02 
2092	 2.97229925670489E-02 
2093	 3.30311500983844E-02 
2094	 3.32714203774645E-02 
2095	 3.20082099694495E-02 
2096	 3.18262865457221E-02 
2097	 3.02824393295126E-02 
2098	 2.89347373324321E-02 
2099	 0.027810135818119 
2100	 2.99752168622501E-02 
2101	 2.92365351318322E-02 
2102	 3.04857022707509E-02 
2103	 0.034221502090165 
2104	 3.51778723780731E-02 
2105	 3.33846983022617E-02 
2106	 2.96263309374216E-02 
2107	 2.74610748702062E-02 
2108	 2.63539126188388E-02 
2109	 2.40487397942413E-02 
2110	 2.57657815534876E-02 
2111	 2.67765409654136E-02 
2112	 2.46095215508381E-02 
2113	 0.024384101826917 
2114	 2.51184069123927E-02 
2115	 2.58176824574165E-02 
2116	 2.71583273086704E-02 
2117	 2.83806099833619E-02 
2118	 3.10740872102279E-02 
2119	 3.18135723299907E-02 
2120	 3.16405457470385E-02 
2121	 3.05972446139476E-02 
2122	 2.68712613520804E-02 
2123	 2.44343496183307E-02 
2124	 2.57264212776568E-02 
2125	 2.65638413553599E-02 
2126	 0.027644711358029 
2127	 2.72271292151837E-02 
2128	 2.63081358796012E-02 
2129	 2.41270999570255E-02 
2130	 2.39106112254161E-02 
2131	 2.67204211364204E-02 
2132	 2.63855991948496E-02 
2133	 2.71931015884302E-02 
2134	 2.75896657703918E-02 
2135	 2.75715506330925E-02 
2136	 2.71582174056198E-02 
2137	 2.68476231589635E-02 
2138	 2.63506553316496E-02 
2139	 0.024485052807299 
2140	 2.53412989182714E-02 
2141	 2.76908121566672E-02 
2142	 2.91439255095102E-02 
2143	 3.25571370184809E-02 
2144	 3.40762685174588E-02 
2145	 3.22685898664935E-02 
2146	 3.05206580573003E-02 
2147	 2.81210946005058E-02 
2148	 2.66196661001026E-02 
2149	 2.69905786289261E-02 
2150	 2.65385124873152E-02 
2151	 2.50632576368176E-02 
2152	 2.27571608867602E-02 
2153	 2.19082886670101E-02 
2154	 2.34094077528827E-02 
2155	 2.59509110788434E-02 
2156	 3.05689084679552E-02 
2157	 3.10788551457969E-02 
2158	 2.94609866223676E-02 
2159	 2.66167450533547E-02 
2160	 1.81649044957726E-02 
2161	 1.68375284291835E-02 
2162	 1.89004252653806E-02 
2163	 2.07447151758757E-02 
2164	 2.74206573538291E-02 
2165	 2.90649123265552E-02 
2166	 2.77270204155642E-02 
2167	 2.69615506778587E-02 
2168	 2.37049783033459E-02 
2169	 2.26752719062823E-02 
2170	 2.21654728981653E-02 
2171	 2.38589602977043E-02 
2172	 2.28772353421413E-02 
2173	 2.34878426644894E-02 
2174	 2.70167526448883E-02 
2175	 2.92193708490724E-02 
2176	 2.96093231539747E-02 
2177	 3.10878770914445E-02 
2178	 2.90850437942056E-02 
2179	 2.20375360748225E-02 
2180	 2.01331411940369E-02 
2181	 1.98299033315873E-02 
2182	 2.14328240328212E-02 
2183	 2.50768463128041E-02 
2184	 2.59413496465768E-02 
2185	 2.50937161775481E-02 
2186	 2.31924867528657E-02 
2187	 1.57609504556447E-02 
2188	 1.53653733839317E-02 
2189	 1.93563011598814E-02 
2190	 2.00202356851648E-02 
2191	 2.37038886635145E-02 
2192	 0.02578221633325 
2193	 2.27952923659149E-02 
2194	 2.36174893306608E-02 
2195	 2.89236888438186E-02 
2196	 0.029789901753789 
2197	 2.86965306882266E-02 
2198	 2.80979553124264E-02 
2199	 0.026080865924414 
2200	 2.40321350091059E-02 
2201	 2.19951015714224E-02 
2202	 1.86646740224991E-02 
2203	 1.74534578957362E-02 
2204	 0.018515184762528 
2205	 2.13727976791507E-02 
2206	 2.74825452529639E-02 
2207	 3.10733392457168E-02 
2208	 3.15685321365341E-02 
2209	 3.03506696388423E-02 
2210	 2.77860769716938E-02 
2211	 0.026049556936167 
2212	 2.57465587398896E-02 
2213	 2.61265727657408E-02 
2214	 2.61605864925774E-02 
2215	 2.54386588857829E-02 
2216	 0.022749449310374 
2217	 2.36063566126036E-02 
2218	 2.68948069532958E-02 
2219	 2.79778379727581E-02 
2220	 3.23037213945497E-02 
2221	 3.28875036543822E-02 
2222	 0.027693673971876 
2223	 2.53849619608458E-02 
2224	 2.53555164847821E-02 
2225	 2.24334035644581E-02 
2226	 1.76123026143332E-02 
2227	 1.62239613843604E-02 
2228	 1.08472516430789E-02 
2229	 1.18180229741037E-02 
2230	 2.34420329438391E-02 
2231	 2.55779350263601E-02 
2232	 0.026570169745606 
2233	 2.78967286117221E-02 
2234	 2.57014732313025E-02 
2235	 1.77059269882408E-02 
2236	 1.55533879355281E-02 
2237	 1.60749527589104E-02 
2238	 1.65684367984123E-02 
2239	 1.74747612637564E-02 
2240	 2.13486720580867E-02 
2241	 1.99182515556946E-02 
2242	 1.52007099534765E-02 
2243	 0.017362170920168 
2244	 1.70818310013241E-02 
2245	 1.87851945675428E-02 
2246	 2.03965424571664E-02 
2247	 1.48236050310561E-02 
2248	 0.011850388406818 
2249	 1.07102961457401E-02 
2250	 1.16458548906174E-02 
2251	 0.017735199356467 
2252	 2.41307235851453E-02 
2253	 2.77426292719517E-02 
2254	 3.24303723304291E-02 
2255	 3.26848470436805E-02 
2256	 2.73680914105097E-02 
2257	 2.65592796323304E-02 
2258	 0.023200112066847 
2259	 0.021492714038108 
2260	 2.18331787110632E-02 
2261	 2.82302386994848E-02 
2262	 2.77731729278255E-02 
2263	 2.19767567611953E-02 
2264	 2.14360226059737E-02 
2265	 2.51493138459949E-02 
2266	 2.51551279886756E-02 
2267	 2.46788535393529E-02 
2268	 2.31200882099998E-02 
2269	 1.34684959105125E-02 
2270	 1.16086391567932E-02 
2271	 0.016386210511227 
2272	 2.05939561793817E-02 
2273	 3.17845165409731E-02 
2274	 3.69329324486784E-02 
2275	 3.68540532262714E-02 
2276	 4.00792121758624E-02 
2277	 4.33475836560914E-02 
2278	 4.28243261481929E-02 
2279	 0.041095983240831 
2280	 3.93086983441061E-02 
2281	 3.53761047966578E-02 
2282	 3.23021767770204E-02 
2283	 0.023982638428258 
2284	 2.55169509025695E-02 
2285	 3.03803447011734E-02 
2286	 3.10832469599303E-02 
2287	 3.47560934506785E-02 
2288	 2.95106986607214E-02 
2289	 2.49459108367068E-02 
2290	 2.23433476316654E-02 
2291	 1.47134580074088E-02 
2292	 0.018449476865538 
2293	 2.44835969319303E-02 
2294	 1.42404825700305E-02 
2295	 5.16235387210212E-03 
2296	 8.48930971415341E-03 
2297	 3.52449047577243E-03 
2298	-1.61674718566318E-03 
2299	 5.54395112265275E-04 
2300	-2.54300850674553E-03 
2301	-1.32455850821684E-02 
2302	-1.68018073933851E-02 
2303	-5.8956730094657E-03 
2304	 3.44327290926172E-03 
2305	 0.023297372070979 
2306	 3.91827904305135E-02 
2307	 4.32546026962865E-02 
2308	 0.044770597901346 
2309	 2.88956356922281E-02 
2310	 2.49986720039533E-02 
2311	 2.02336200316835E-02 
2312	 1.95174138691601E-02 
2313	 3.21557927914423E-02 
2314	 2.75016151252024E-02 
2315	 4.36317303537132E-02 
2316	 3.74736431504748E-02 
2317	 2.79841621764936E-02 
2318	 4.34467163279446E-02 
2319	 3.40887765144238E-02 
2320	 4.01245480445336E-02 
2321	 3.12036254568878E-02 
2322	 2.30891203104623E-02 
2323	 2.89829999072038E-02 
2324	 3.69418986843238E-02 
2325	 5.20437168206444E-02 
2326	 0.044342981567528 
2327	 3.92358579228946E-02 
2328	 2.43722144954589E-02 
2329	 1.26556328735872E-02 
2330	 2.88505386418325E-02 
2331	 3.54690159564529E-02 
2332	 2.36451969494647E-02 
2333	 3.05516801884023E-02 
2334	 3.38277817852355E-02 
2335	 3.50415077485491E-02 
2336	 6.59228314255811E-02 
2337	 8.52453077378778E-02 
2338	 9.34056644655158E-02 
2339	 8.71710040798795E-02 
2340	 8.37917328312631E-02 
2341	 8.86021323780929E-02 
2342	 5.59321006083583E-02 
2343	 2.73910899599977E-02 
2344	 1.22749445172341E-02 
2345	-7.92778150151773E-03 
2346	-1.43437129446393E-03 
2347	 3.24737656494008E-02 
2348	 6.42655268260766E-02 
2349	 6.57676147540417E-02 
2350	 0.051789566380283 
2351	 4.02481465749768E-02 
2352	 1.46275851147783E-02 
2353	 2.57311517719821E-02 
2354	 5.68822732012659E-02 
2355	 2.75600687557434E-02 
2356	-7.67080766465291E-03 
2357	-2.62265378927549E-02 
2358	-8.99962431150713E-02 
2359	-0.103345359240878 
2360	-7.33640322482176E-02 
2361	-0.124812348449109 
2362	-0.116828293740624 
2363	-6.65339052200486E-02 
2364	-9.06721469266842E-02 
2365	-7.18419121635898E-02 
2366	-0.017642442291655 
2367	-3.74463700130243E-02 
2368	 1.07961235178323E-02 
2369	 0.125526084684076 
2370	 0.138879078134903 
2371	 0.113212839644371 
2372	 0.116555495354204 
2373	 6.58735370272213E-02 
2374	 2.36013992667682E-02 
2375	 0.123976744984736 
2376	 0.19824676706681 
2377	 0.175084867332087 
2378	 0.165177089351467 
2379	 0.109542661330394 
2380	 0.04955102109972 
2381	-0.02687504506533 
2382	-8.88408560635743E-02 
2383	-0.110817331018121 
2384	-7.74115223466493E-03 
2385	 0.158457147440376 
2386	 0.149669024799658 
2387	 0.155641857882242 
2388	-0.138011825173346 
2389	-0.202192182592772 
2390	-7.27501784184531E-02 
2391	-0.226335244813121 
2392	-0.194827885521829 
2393	-0.173465319909515 
2394	-0.016052942390079 
2395	 0.241205043217097 
2396	 0.252195625340729 
2397	 0.182121601213488 
2398	 5.57296681956446E-02 
2399	 5.48376186977409E-02 
2400	 0.147703192256883 
2401	 0.128528029459575 
2402	 9.04089648414238E-02 
2403	-0.087086580864667 
2404	-0.275419836922249 
2405	-0.388585650052068 
2406	-0.527347057087023 
2407	-0.826811257099396 
2408	-0.976939980760759 
2409	-0.740290200100251 
2410	-0.351564351642317 
2411	-0.1140650019225 
2412	-0.462731158088014 
2413	-0.530858644136715 
2414	-0.614493108306095 
2415	-0.63831809515082 
2416	-0.46596974040806 
2417	-0.292533095244068 
2418	-0.277036588738973 
2419	-0.250271266082443 
2420	 0.240380716223818 
2421	 7.05383487071769E-02 
2422	-0.164559729954211 
2423	-10.7311039951373 
2424	 2.00448358548394 
2425	-0.946359507245453 
2426	 0.43802856871437 
2427	 1.70501072258405 
2428	 3.7094558282773 
2429	 4.41125155489961 
2430	 2.4061922508217 
2431	 1.36865895862792 
2432	 0.986349571910641 
2433	 0.85247209528587 
2434	 0.596973035343949 
2435	 0.109579935667161 
2436	-0.181362122718556 
2437	-0.654953567704446 
2438	-1.3183325774657 
2439	-1.14482673104625 
2440	-0.823873126784098 
2441	-0.897928169326494 
2442	-0.509117866022238 
2443	-0.47126939433875 
2444	-0.570165730770247 
2445	-0.623986442061628 
2446	-1.16794272144958 
2447	-2.15705603425261 
2448	-3.68297787795704 
2449	-5.01829489124773 
2450	-3.81356622628807 
2451	-2.30921824807482 
2452	 1.62479234954293 
2453	 2.12765488889054 
2454	 2.54711654153507 
2455	 6.25538423220108 
2456	 8.37222788125422 
2457	 5.98004173464664 
2458	-1.58411681629358 
2459	-0.917250846713308 
2460	-1.23913167027579 
2461	-0.553347437339201 
2462	-0.48160808824255 
2463	-1.87548736017558 
2464	-0.279788034183535 
2465	-0.911647482184624 
2466	-0.577531362221035 
2467	-0.567751860561584 
2468	-9.93918223487968E-02 
2469	-0.151935633147455 
2470	-0.949885599512464 
2471	-7.29243854229993 
2472	 14.9678260610201 
2473	 2.56885684084124 
2474	 1.78615948089962 
2475	 3.10058591080199 
2476	-0.581058367496964 
2477	-0.243567755953166 
2478	-0.17189802463275 
2479	-0.878178275417763 
2480	 3.77033633575796 
2481	 0.879523482045343 
2482	 0.176354244178824 
2483	-0.492075586725144 
2484	-0.635637419132984 
2485	-0.321484656868554 
2486	-0.572734005025532 
2487	-1.02229530846758 
2488	-1.83344950422422 
2489	 3.32440830861669 
2490	-6.36399150783983 
2491	 1.90677084658737 
2492	 1.08587837349446 
2493	 0.818426856261305 
2494	 0.455588542222913 
2495	 0.67514863716522 
2496	 0.702655055098782 
2497	 0.605253614230277 
2498	 0.444532506020745 
2499	-0.203036665282771 
2500	-0.488163315074624 
