Wavelength	rt0801far00004.asd
350	 4.77660792041818E-02 
351	 4.78932345355421E-02 
352	 4.85136235413334E-02 
353	 4.84380465956386E-02 
354	 4.74547967709088E-02 
355	 0.047694282829969 
356	 4.77035297983906E-02 
357	 4.77846895799488E-02 
358	 4.83159753793606E-02 
359	 4.77148143175894E-02 
360	 4.70693003267222E-02 
361	 4.66866969208294E-02 
362	 4.63698008200581E-02 
363	 4.73964258903712E-02 
364	 4.80786022462152E-02 
365	 4.76800164904604E-02 
366	 4.73996283254914E-02 
367	 4.70622233140666E-02 
368	 4.72328347922079E-02 
369	 4.80744817240907E-02 
370	 4.78486024500462E-02 
371	 0.047717793298471 
372	 4.76887158637341E-02 
373	 4.72192374847605E-02 
374	 0.047332534385782 
375	 4.79000244097478E-02 
376	 0.048314485972189 
377	 4.75677227215535E-02 
378	 4.81822546120273E-02 
379	 4.90052683066533E-02 
380	 4.88405090708272E-02 
381	 4.93010657670553E-02 
382	 4.89220932789094E-02 
383	 0.048506942112214 
384	 0.049447290180849 
385	 4.90818617019293E-02 
386	 4.88639262983987E-02 
387	 4.91406852688299E-02 
388	 4.87297318711269E-02 
389	 4.92741992475942E-02 
390	 4.97235122511443E-02 
391	 4.94437066377311E-02 
392	 0.050058176886001 
393	 5.06945603227405E-02 
394	 5.08711564335805E-02 
395	 5.05177526550834E-02 
396	 5.06593796595309E-02 
397	 5.11245422286041E-02 
398	 5.14023993014312E-02 
399	 5.08705385813329E-02 
400	 0.050869188791945 
401	 5.11809433733077E-02 
402	 5.14506565696825E-02 
403	 5.16138420931217E-02 
404	 5.17632333648637E-02 
405	 5.18980715025223E-02 
406	 5.19884345970108E-02 
407	 5.20391863074159E-02 
408	 5.21103203826077E-02 
409	 5.21988253619375E-02 
410	 5.22473404544226E-02 
411	 5.25363711737534E-02 
412	 5.26418213368469E-02 
413	 5.24173140804034E-02 
414	 0.052658592137373 
415	 5.30084692134769E-02 
416	 0.053223050136837 
417	 5.32291110576032E-02 
418	 5.37532415107333E-02 
419	 5.40434412419002E-02 
420	 5.39609749746623E-02 
421	 5.41215245895681E-02 
422	 5.46027549779366E-02 
423	 5.49157324397014E-02 
424	 5.48722919256031E-02 
425	 5.55177572439324E-02 
426	 5.57577682722076E-02 
427	 5.57514085597545E-02 
428	 5.61687720582157E-02 
429	 5.65808528157436E-02 
430	 0.056905354679395 
431	 5.72063941964833E-02 
432	 5.76784916326682E-02 
433	 5.78704595247299E-02 
434	 5.81112287275965E-02 
435	 0.058631193447413 
436	 5.88375727134122E-02 
437	 5.91479725031931E-02 
438	 5.95358831533025E-02 
439	 5.97662406497592E-02 
440	 6.00858453141283E-02 
441	 6.03827185733309E-02 
442	 6.06435931332717E-02 
443	 6.10564836637159E-02 
444	 6.14738754393087E-02 
445	 6.17703622173619E-02 
446	 6.18915794625009E-02 
447	 6.19979402316125E-02 
448	 6.21827509788124E-02 
449	 6.24473279646299E-02 
450	 6.27152465614588E-02 
451	 6.28776296573008E-02 
452	 6.29088527003682E-02 
453	 6.28960200495357E-02 
454	 6.31322351731274E-02 
455	 6.32595601629368E-02 
456	 6.33490115793393E-02 
457	 6.35488087442446E-02 
458	 6.35335326302829E-02 
459	 6.35648162982148E-02 
460	 0.063683172421844 
461	 0.063684401736315 
462	 6.36424788386493E-02 
463	 6.37139079726796E-02 
464	 6.39006506735125E-02 
465	 6.37082340256135E-02 
466	 6.37292949056264E-02 
467	 6.39560678919376E-02 
468	 6.41002531054821E-02 
469	 6.42573021346438E-02 
470	 6.42847665896319E-02 
471	 6.42194239836758E-02 
472	 6.43536206760217E-02 
473	 6.44527305929285E-02 
474	 0.064534813410877 
475	 6.46514412309485E-02 
476	 6.47222439393145E-02 
477	 6.48995617771173E-02 
478	 6.51098395707993E-02 
479	 6.51573152929514E-02 
480	 6.53379681707176E-02 
481	 6.55404842056534E-02 
482	 6.56977184602267E-02 
483	 6.59419179774838E-02 
484	 6.62269542880938E-02 
485	 6.65597208489318E-02 
486	 6.69222498905394E-02 
487	 0.067103290103864 
488	 6.71893947081339E-02 
489	 6.73430820793291E-02 
490	 6.77628640378672E-02 
491	 6.83293622369265E-02 
492	 6.86692591633172E-02 
493	 6.86809303413774E-02 
494	 6.91146896491337E-02 
495	 0.069582772515877 
496	 6.99267980730437E-02 
497	 7.01595047767921E-02 
498	 7.07463417678077E-02 
499	 7.12676645796469E-02 
500	 7.15394952924699E-02 
501	 7.18760761089245E-02 
502	 7.23591210991394E-02 
503	 7.27584803719167E-02 
504	 7.29557271672523E-02 
505	 7.37096433322581E-02 
506	 7.42608041361675E-02 
507	 7.45452299539137E-02 
508	 7.50595969556796E-02 
509	 7.56152070615148E-02 
510	 7.61169044295823E-02 
511	 0.07655726486066 
512	 7.70995008499785E-02 
513	 7.77350725120758E-02 
514	 7.83453538831869E-02 
515	 7.87986648276934E-02 
516	 7.93092965570752E-02 
517	 7.99438658136557E-02 
518	 8.06645821391441E-02 
519	 8.13320648128851E-02 
520	 8.18836624145977E-02 
521	 8.24081359084649E-02 
522	 8.29922907915463E-02 
523	 8.35512347526901E-02 
524	 8.42135337944348E-02 
525	 8.49781289155012E-02 
526	 8.57412583314152E-02 
527	 8.63430252322593E-02 
528	 8.69206708565432E-02 
529	 8.75692786519008E-02 
530	 0.08821323143601 
531	 8.89078375757278E-02 
532	 8.96525020282431E-02 
533	 9.04156102376268E-02 
534	 9.11406198100354E-02 
535	 0.091843274002595 
536	 9.26035467847566E-02 
537	 9.35564419585049E-02 
538	 9.43360428865829E-02 
539	 9.50026404205824E-02 
540	 9.57003823968124E-02 
541	 9.64724301472557E-02 
542	 9.71920951078536E-02 
543	 9.79354073908995E-02 
544	 9.88731452240838E-02 
545	 9.97248756932117E-02 
546	 0.100498537327027 
547	 0.10123725822616 
548	 0.10197201430999 
549	 0.102713656800435 
550	 0.103496104799477 
551	 0.104327137253256 
552	 0.105034851027855 
553	 0.105736373344405 
554	 0.106505430650382 
555	 0.107339287325078 
556	 0.107989405066882 
557	 0.108664555407657 
558	 0.109504639366592 
559	 0.110060618530006 
560	 0.110656630921225 
561	 0.111309317447482 
562	 0.111864396589844 
563	 0.112513403912826 
564	 0.113128140507487 
565	 0.113632706382116 
566	 0.114126537164214 
567	 0.114657318519925 
568	 0.115183195901149 
569	 0.115640811559357 
570	 0.116112472195521 
571	 0.116442544029438 
572	 0.116720497528052 
573	 0.117292591356528 
574	 0.117633756424315 
575	 0.117864400457432 
576	 0.118200324348149 
577	 0.118691174732731 
578	 0.118949550144982 
579	 0.119092219959039 
580	 0.119503119626476 
581	 0.119838272674048 
582	 0.119943889305446 
583	 0.119911107624777 
584	 0.120251841885798 
585	 0.120359457590904 
586	 0.120368837220856 
587	 0.120580841711905 
588	 0.120528580257863 
589	 0.1204356887921 
590	 0.120447886514609 
591	 0.120544493420845 
592	 0.12044140680622 
593	 0.12032474892581 
594	 0.120346594226383 
595	 0.120248275362772 
596	 0.120104870577202 
597	 0.119904023758596 
598	 0.119603123993281 
599	 0.119300055006924 
600	 0.11910117645408 
601	 0.119025168853911 
602	 0.118949983990486 
603	 0.118883867954012 
604	 0.118842988403734 
605	 0.118839979564295 
606	 0.118839070619869 
607	 0.118781181363432 
608	 0.118737373685999 
609	 0.118897826036861 
610	 0.118942568143774 
611	 0.118916093474002 
612	 0.118898784398772 
613	 0.118817713406966 
614	 0.11881028428612 
615	 0.118870486564997 
616	 0.11890413753081 
617	 0.118864966389559 
618	 0.118800380172376 
619	 0.118766083053307 
620	 0.118819716032323 
621	 0.118799979547382 
622	 0.118682533396799 
623	 0.118528638702135 
624	 0.118539967449471 
625	 0.118609949536444 
626	 0.118607619120308 
627	 0.118414618512458 
628	 0.11839508420684 
629	 0.118519492059381 
630	 0.118640793537361 
631	 0.118529206771894 
632	 0.11840930980066 
633	 0.118381809402075 
634	 0.118444373065476 
635	 0.11829515999606 
636	 0.118273881826223 
637	 0.118452586768163 
638	 0.118445034990089 
639	 0.118277505118 
640	 0.118173724815911 
641	 0.118274977822374 
642	 0.118102730178097 
643	 0.117928568255371 
644	 0.11785947467305 
645	 0.117854260201702 
646	 0.117881888903873 
647	 0.117856898733353 
648	 0.117742993657241 
649	 0.11763009339779 
650	 0.117497722944795 
651	 0.117303800776444 
652	 0.117064845940978 
653	 0.117209699332086 
654	 0.117081544816835 
655	 0.116560237617705 
656	 0.116433908232798 
657	 0.116230305178224 
658	 0.116009891402124 
659	 0.115874528910181 
660	 0.115758640459067 
661	 0.115568984081082 
662	 0.115363607327112 
663	 0.115282668497898 
664	 0.115190085572203 
665	 0.115132813549795 
666	 0.115101037567957 
667	 0.114932276817844 
668	 0.114950515705786 
669	 0.115015929882351 
670	 0.114903537962135 
671	 0.114782266368289 
672	 0.114810146451201 
673	 0.114980762087992 
674	 0.115130917460656 
675	 0.115098930215188 
676	 0.115167814504419 
677	 0.11543580081474 
678	 0.115254655929807 
679	 0.115542483705562 
680	 0.115994992653576 
681	 0.115889966102943 
682	 0.115830689097573 
683	 0.116172385857663 
684	 0.116705213242906 
685	 0.116503558639513 
686	 0.116545054680508 
687	 0.116812319602314 
688	 0.117002466975117 
689	 0.117218624390171 
690	 0.117386344945871 
691	 0.11734462761479 
692	 0.116949871646115 
693	 0.117122573715761 
694	 0.117466391836975 
695	 0.117542984804721 
696	 0.117250356867685 
697	 0.117064915547713 
698	 0.116927011813155 
699	 0.116659645645086 
700	 0.11631064265348 
701	 0.11608702162955 
702	 0.115928402481216 
703	 0.11557021641618 
704	 0.115094065197837 
705	 0.114702700544679 
706	 0.114428773510769 
707	 0.113854788338806 
708	 0.113269232915292 
709	 0.112645579127049 
710	 0.111895567113543 
711	 0.111215831014361 
712	 0.110460145314175 
713	 0.109550273166103 
714	 0.108481023908838 
715	 0.107811439384052 
716	 0.106888033530451 
717	 0.105091567245268 
718	 0.103776916871351 
719	 0.102591427722277 
720	 0.101571983783822 
721	 0.100566755631265 
722	 9.92109104015339E-02 
723	 9.76573799126182E-02 
724	 0.096364728226301 
725	 9.54223698682501E-02 
726	 9.38965121985811E-02 
727	 9.21778083044738E-02 
728	 9.05773262392822E-02 
729	 8.82427364335049E-02 
730	 8.59582808669701E-02 
731	 8.40013150586882E-02 
732	 8.21853374057887E-02 
733	 8.06389367599051E-02 
734	 7.92678181823947E-02 
735	 7.80706013716105E-02 
736	 7.71347917534921E-02 
737	 7.64959618762631E-02 
738	 0.075946703954664 
739	 7.53815387760338E-02 
740	 7.50951821104896E-02 
741	 7.50752054963909E-02 
742	 7.51063782218888E-02 
743	 7.49287896074201E-02 
744	 7.48156434974562E-02 
745	 0.074803234820581 
746	 7.48840793058116E-02 
747	 7.50249820201644E-02 
748	 7.50692805501582E-02 
749	 0.075090903017336 
750	 0.07514844377017 
751	 7.50203273639483E-02 
752	 0.074957958060381 
753	 7.50818272135753E-02 
754	 7.53530010242422E-02 
755	 7.51629484570519E-02 
756	 7.50425200164234E-02 
757	 7.51955265256793E-02 
758	 7.52118885340089E-02 
759	 7.54681534340162E-02 
760	 7.55285438656282E-02 
761	 7.50273062095856E-02 
762	 7.57858095927844E-02 
763	 7.59088077490138E-02 
764	 7.57266958348601E-02 
765	 7.60226791372872E-02 
766	 0.076174911278071 
767	 0.076256604456771 
768	 7.64155366447097E-02 
769	 7.68400169767549E-02 
770	 7.70273703854888E-02 
771	 7.70558624574411E-02 
772	 7.71204567277567E-02 
773	 0.077390806385866 
774	 7.75916030090441E-02 
775	 7.78300964787433E-02 
776	 7.82864022612422E-02 
777	 0.078493427040941 
778	 7.86312699603758E-02 
779	 7.88450160713054E-02 
780	 7.91852917495787E-02 
781	 7.95489549136599E-02 
782	 7.98508119784379E-02 
783	 8.00928421943604E-02 
784	 8.04706086556054E-02 
785	 8.07428761236675E-02 
786	 8.09878334457265E-02 
787	 8.13565406928718E-02 
788	 8.17041598786448E-02 
789	 8.21345574965849E-02 
790	 8.25783121159943E-02 
791	 8.28457511272627E-02 
792	 8.29720935897653E-02 
793	 8.32850022467696E-02 
794	 8.38238255643444E-02 
795	 8.40829763428009E-02 
796	 8.44073131078748E-02 
797	 8.47619735975212E-02 
798	 8.50550221322152E-02 
799	 8.53247058586389E-02 
800	 8.53552063711172E-02 
801	 0.085355994805516 
802	 8.56781185754491E-02 
803	 8.57338113482709E-02 
804	 8.58568364935477E-02 
805	 0.086091120342432 
806	 8.61014428487085E-02 
807	 8.60318915611598E-02 
808	 8.57325982302619E-02 
809	 8.52364477073983E-02 
810	 8.52116691044876E-02 
811	 8.52558692097172E-02 
812	 8.49314505586721E-02 
813	 8.39753633399041E-02 
814	 8.36422346188113E-02 
815	 8.32900711657361E-02 
816	 0.082849450863677 
817	 8.27113744185389E-02 
818	 8.20660531647346E-02 
819	 8.11205799869421E-02 
820	 8.01319925625008E-02 
821	 7.93657705676949E-02 
822	 7.80837056773866E-02 
823	 7.67395004082865E-02 
824	 7.56996497740129E-02 
825	 7.42786661912229E-02 
826	 7.24328146494503E-02 
827	 7.04167482767724E-02 
828	 6.86871100090485E-02 
829	 6.67639216067223E-02 
830	 6.51465411482276E-02 
831	 6.39378992294893E-02 
832	 6.29361852824977E-02 
833	 6.17552787982023E-02 
834	 6.06732527623101E-02 
835	 5.99022200902647E-02 
836	 5.94777765073151E-02 
837	 5.89782758862721E-02 
838	 5.84012733065831E-02 
839	 0.057914361068939 
840	 5.78876403313525E-02 
841	 5.76199106219197E-02 
842	 5.72169090122668E-02 
843	 5.69190238956583E-02 
844	 5.60148607599023E-02 
845	 5.56507477884632E-02 
846	 5.57498408951774E-02 
847	 5.54267066459614E-02 
848	 5.50265702352058E-02 
849	 5.47434600941595E-02 
850	 5.44692916876244E-02 
851	 5.37745440242525E-02 
852	 5.36543320811287E-02 
853	 5.34937999388629E-02 
854	 5.29706130809944E-02 
855	 5.31050256111539E-02 
856	 5.29009014019959E-02 
857	 5.24246094000487E-02 
858	 5.20275913267843E-02 
859	 5.19440900763321E-02 
860	 5.19179660636819E-02 
861	 5.17336538842526E-02 
862	 5.13006579428374E-02 
863	 5.10621269344619E-02 
864	 5.08700453867213E-02 
865	 0.050580534693935 
866	 5.01489118337487E-02 
867	 5.00847895184668E-02 
868	 0.049779132500445 
869	 4.91122806983272E-02 
870	 0.048772595501943 
871	 4.88040910097487E-02 
872	 4.86103086549412E-02 
873	 4.79011987099533E-02 
874	 4.73854840647091E-02 
875	 0.046888068541049 
876	 4.64857003786506E-02 
877	 4.62483393748638E-02 
878	 4.60418260581986E-02 
879	 4.56738484807903E-02 
880	 4.50720636179162E-02 
881	 4.43358250282038E-02 
882	 4.39689060050879E-02 
883	 4.38225514390114E-02 
884	 4.36108221840636E-02 
885	 0.043040999863338 
886	 4.23388903198378E-02 
887	 4.19319237040129E-02 
888	 4.17923062943629E-02 
889	 4.14111620848611E-02 
890	 4.15321988288678E-02 
891	 4.13435203800227E-02 
892	 4.05032064867231E-02 
893	 4.01694334356063E-02 
894	 3.94873346435962E-02 
895	 3.91571417952246E-02 
896	 3.96377308821279E-02 
897	 3.89525623569157E-02 
898	 3.80874045365569E-02 
899	 3.78098415435789E-02 
900	 3.81218845845138E-02 
901	 3.70598305139414E-02 
902	 3.70539607585862E-02 
903	 3.72463382537019E-02 
904	 0.036095445018522 
905	 3.50248086680046E-02 
906	 3.49937100450769E-02 
907	 3.50769290392306E-02 
908	 3.35230499635659E-02 
909	 3.45740677733383E-02 
910	 3.53675203682128E-02 
911	 3.43687168089449E-02 
912	 3.23021080278137E-02 
913	 3.16267316811939E-02 
914	 3.10400501665723E-02 
915	 0.030221566517579 
916	 3.03697433261866E-02 
917	 3.02320355243648E-02 
918	 2.97385872084939E-02 
919	 2.87032279955769E-02 
920	 2.66516665859388E-02 
921	 2.68274699461662E-02 
922	 2.71469121435583E-02 
923	 2.60457596436641E-02 
924	 2.53443554714687E-02 
925	 2.36631924200494E-02 
926	 2.17324542265886E-02 
927	 2.09380671679565E-02 
928	 2.20716943047175E-02 
929	 2.34143746904474E-02 
930	 2.51586427778938E-02 
931	 2.81491666345949E-02 
932	 2.78962268687032E-02 
933	 2.69200206174108E-02 
934	 2.61495377254201E-02 
935	 2.35652338468277E-02 
936	 1.12641242356457E-02 
937	 1.89939631648413E-02 
938	 0.028977919371305 
939	 2.20501663472654E-02 
940	 2.72201177387344E-02 
941	 2.62462828088126E-02 
942	 1.97515026298612E-02 
943	 1.74557230692609E-02 
944	 1.93929721743122E-02 
945	 0.014886853989617 
946	 5.94191785243297E-03 
947	 3.23254706766053E-03 
948	 1.42592895097472E-02 
949	 1.91983831642497E-02 
950	 1.73416226804899E-02 
951	 1.84026130407564E-02 
952	 1.30796281226111E-02 
953	 9.56650436637754E-03 
954	 1.24057005305309E-02 
955	 2.02116449095456E-02 
956	 2.07486253811205E-02 
957	 1.55799822337074E-02 
958	 1.10874168686403E-02 
959	 1.36902910776807E-02 
960	 1.37538362545594E-02 
961	 1.26582146439224E-02 
962	 1.25447849585873E-02 
963	 1.45695429101858E-02 
964	 1.64022531138035E-02 
965	 1.78685964314887E-02 
966	 1.62645513830202E-02 
967	 9.32416852219351E-03 
968	 1.09663403855822E-02 
969	 1.43023919769936E-02 
970	 1.47658559789198E-02 
971	 1.21617713568152E-02 
972	 1.18144044937885E-02 
973	 1.34524963371261E-02 
974	 1.48204418832953E-02 
975	 1.33610484921913E-02 
976	 0.014500561005183 
977	 1.19825146488268E-02 
978	 8.64426611285889E-03 
979	 1.31927350080316E-02 
980	 0.013270586481454 
981	 1.23793208746995E-02 
982	 1.33721067913322E-02 
983	 1.60596030601509E-02 
984	 0.011844930926816 
985	 1.35583024404916E-02 
986	 1.72206574533994E-02 
987	 9.30324952610775E-03 
988	 1.35858907010156E-02 
989	 1.49668134664288E-02 
990	 1.15238309270056E-02 
991	 1.22863581327642E-02 
992	 1.26326461187607E-02 
993	 1.30703276537856E-02 
994	 1.38725419206045E-02 
995	 1.45973074004524E-02 
996	 1.29495116057051E-02 
997	 1.28156607907198E-02 
998	 1.41046073978482E-02 
999	 0.014276252499615 
1000	 1.38783661784385E-02 
1001	 1.06536563316841E-02 
1002	 0.010435104800132 
1003	 1.03468321479779E-02 
1004	 1.04634579922387E-02 
1005	 1.04754256736839E-02 
1006	 1.00992285734747E-02 
1007	 1.06891615800258E-02 
1008	 1.15045394291807E-02 
1009	 1.13678566571625E-02 
1010	 1.11183799772892E-02 
1011	 1.06911226235403E-02 
1012	 1.05214279677665E-02 
1013	 1.01619462745674E-02 
1014	 9.63842090066754E-03 
1015	 9.25884982085616E-03 
1016	 9.19531428051195E-03 
1017	 8.44595906167545E-03 
1018	 8.69882048939066E-03 
1019	 1.03080809106911E-02 
1020	 1.09268441072479E-02 
1021	 1.17097942940621E-02 
1022	 1.18243380361826E-02 
1023	 1.13465494035076E-02 
1024	 1.12416644281038E-02 
1025	 1.06486427859575E-02 
1026	 1.10216907892351E-02 
1027	 1.10125842397263E-02 
1028	 1.09695630800643E-02 
1029	 1.10886388455854E-02 
1030	 1.12193578108793E-02 
1031	 1.12765943462059E-02 
1032	 0.01136068104022 
1033	 1.17108824181313E-02 
1034	 1.24359414481422E-02 
1035	 0.012738939709529 
1036	 1.30622144514205E-02 
1037	 1.33157125051919E-02 
1038	 1.31523521565408E-02 
1039	 1.28785428121895E-02 
1040	 1.37655933165612E-02 
1041	 1.42651200563934E-02 
1042	 1.43146274259294E-02 
1043	 1.43000124561174E-02 
1044	 1.41167383993466E-02 
1045	 1.29920277572766E-02 
1046	 1.30229276060534E-02 
1047	 1.37643618000092E-02 
1048	 1.41464110029207E-02 
1049	 1.50707995493325E-02 
1050	 1.53241868844715E-02 
1051	 1.50957864904498E-02 
1052	 1.49539330337427E-02 
1053	 1.41068882896867E-02 
1054	 0.014063871341179 
1055	 1.48065741882158E-02 
1056	 1.50147954918043E-02 
1057	 1.51945994285928E-02 
1058	 0.015692112459651 
1059	 1.58624239278969E-02 
1060	 0.015543956134385 
1061	 1.54429933406572E-02 
1062	 1.54274938459161E-02 
1063	 1.55226520691642E-02 
1064	 1.53673163860994E-02 
1065	 1.56161092883825E-02 
1066	 1.66154992265447E-02 
1067	 1.69256444565771E-02 
1068	 1.71502779616633E-02 
1069	 1.71150923429104E-02 
1070	 1.61507982465077E-02 
1071	 1.59446992351403E-02 
1072	 1.61081004596981E-02 
1073	 1.61552375599468E-02 
1074	 1.64563836245843E-02 
1075	 1.74643826955655E-02 
1076	 1.75871647225644E-02 
1077	 1.73985444234681E-02 
1078	 1.72003152709227E-02 
1079	 1.64359348078392E-02 
1080	 1.61444142976074E-02 
1081	 1.59980713695726E-02 
1082	 1.59790494089659E-02 
1083	 1.62122471571645E-02 
1084	 1.64335019778648E-02 
1085	 1.70261997803559E-02 
1086	 1.69442288923627E-02 
1087	 1.65660830549496E-02 
1088	 1.62111924166476E-02 
1089	 1.49778493209002E-02 
1090	 1.44598415659811E-02 
1091	 1.43210811476745E-02 
1092	 1.48230377009157E-02 
1093	 1.44802048226256E-02 
1094	 1.40669903863687E-02 
1095	 1.39112955301457E-02 
1096	 0.013285107679727 
1097	 1.29033765072153E-02 
1098	 1.33987259129207E-02 
1099	 1.32306231480097E-02 
1100	 1.20875874690568E-02 
1101	 0.011717188884197 
1102	 1.16098807468061E-02 
1103	 1.15201017758283E-02 
1104	 1.18869556844119E-02 
1105	 1.24042579748141E-02 
1106	 1.20292360282448E-02 
1107	 1.13881827644087E-02 
1108	 1.05992761985301E-02 
1109	 1.06247672696816E-02 
1110	 1.02248545142589E-02 
1111	 1.01168935874038E-02 
1112	 1.00667525323008E-02 
1113	 9.23784106744042E-03 
1114	 9.15677513071576E-03 
1115	 1.16680711868446E-02 
1116	 1.19472764093116E-02 
1117	 9.32270007288507E-03 
1118	 9.46087396548801E-03 
1119	 1.14671598077396E-02 
1120	 1.01657900729698E-02 
1121	 7.49074439588741E-03 
1122	 8.00152634922712E-03 
1123	 1.06285849003903E-02 
1124	 4.44713295527611E-03 
1125	 3.13984543887807E-03 
1126	 1.01372363633339E-02 
1127	 3.00138508571278E-03 
1128	-7.62736960225119E-04 
1129	-6.07224756813742E-04 
1130	 6.27497474495815E-03 
1131	 6.49586404907561E-03 
1132	 4.3312102850691E-03 
1133	 3.95106310063416E-03 
1134	 4.66353465022629E-03 
1135	 3.25867345316609E-03 
1136	 9.37385256472052E-04 
1137	 1.34141907402724E-03 
1138	 3.05201093852121E-03 
1139	-6.35711164069345E-04 
1140	 4.91814795820319E-03 
1141	 8.88883337015538E-03 
1142	 3.20163741499347E-04 
1143	 1.67065269097001E-03 
1144	 1.12896299792428E-02 
1145	 7.49470069575164E-03 
1146	-1.15955603425063E-03 
1147	-2.43208093675518E-03 
1148	-6.43764527698419E-03 
1149	-6.34741398204986E-03 
1150	-3.33155704636781E-03 
1151	 0.01050127495805 
1152	 1.24733992036059E-02 
1153	 8.15443193124824E-03 
1154	 7.96043016020825E-03 
1155	 7.54582865727668E-03 
1156	 8.85079950100341E-03 
1157	 9.74533336921875E-03 
1158	 8.62634415578867E-03 
1159	 7.31863915648155E-03 
1160	 6.86816894056338E-03 
1161	 5.76677656320403E-03 
1162	 6.55609967064475E-03 
1163	 7.4343583718159E-03 
1164	 7.26525230639896E-03 
1165	 7.8913724481406E-03 
1166	 7.72205261735408E-03 
1167	 7.80467923895346E-03 
1168	 8.89937914127035E-03 
1169	 9.13046613775073E-03 
1170	 8.98518934237296E-03 
1171	 8.95706329646721E-03 
1172	 8.29334998029853E-03 
1173	 7.96097771618826E-03 
1174	 7.58864753376763E-03 
1175	 8.24744605120933E-03 
1176	 8.73652013629887E-03 
1177	 9.17547583749614E-03 
1178	 8.96201793665483E-03 
1179	 8.46716168460668E-03 
1180	 8.80513326497072E-03 
1181	 8.53890001482182E-03 
1182	 7.92588367145101E-03 
1183	 8.45193017262746E-03 
1184	 8.49620319946301E-03 
1185	 8.05932000650736E-03 
1186	 9.10135551268406E-03 
1187	 9.52492032469649E-03 
1188	 8.71474358581322E-03 
1189	 9.15774061412863E-03 
1190	 1.00078279414438E-02 
1191	 9.94164405746201E-03 
1192	 9.82096109393326E-03 
1193	 9.8355398556323E-03 
1194	 9.43875460024643E-03 
1195	 9.03103861639558E-03 
1196	 9.70866738763377E-03 
1197	 1.03601082899927E-02 
1198	 1.01890646255089E-02 
1199	 9.92035398355677E-03 
1200	 9.60874318899465E-03 
1201	 9.07993009562803E-03 
1202	 8.93147230093697E-03 
1203	 9.00430188239488E-03 
1204	 8.98116648508018E-03 
1205	 9.03072436153079E-03 
1206	 9.05479606914691E-03 
1207	 9.00556857044717E-03 
1208	 8.99668763442701E-03 
1209	 9.20906510829345E-03 
1210	 9.46073015949543E-03 
1211	 9.43722368766059E-03 
1212	 9.47772519248525E-03 
1213	 9.3628814672273E-03 
1214	 9.21579569268333E-03 
1215	 9.14809695521446E-03 
1216	 9.57494616629918E-03 
1217	 9.55978657957231E-03 
1218	 9.60724525924093E-03 
1219	 1.00946815567269E-02 
1220	 9.78934963570289E-03 
1221	 9.45932227900297E-03 
1222	 9.58015695960936E-03 
1223	 9.31351747531911E-03 
1224	 9.49402563714672E-03 
1225	 9.81332733148878E-03 
1226	 9.19104387669412E-03 
1227	 8.94882169643665E-03 
1228	 9.55373545593457E-03 
1229	 9.92754753170009E-03 
1230	 9.7555568993202E-03 
1231	 9.73148772811061E-03 
1232	 9.9532454681047E-03 
1233	 9.49344776857705E-03 
1234	 9.1875865110662E-03 
1235	 9.21217309534716E-03 
1236	 9.27603045157679E-03 
1237	 9.07332534522087E-03 
1238	 8.91817660003183E-03 
1239	 9.25809153271244E-03 
1240	 8.89703066215126E-03 
1241	 8.47875182528333E-03 
1242	 8.65254187599418E-03 
1243	 8.82109294537838E-03 
1244	 8.98641792192828E-03 
1245	 9.14969156284507E-03 
1246	 9.34263240763911E-03 
1247	 9.39369704780215E-03 
1248	 9.13997658486817E-03 
1249	 9.32714720174386E-03 
1250	 9.38920893450524E-03 
1251	 9.34934344172645E-03 
1252	 9.69869095690112E-03 
1253	 9.59278241005582E-03 
1254	 9.15508161466132E-03 
1255	 8.87611989636598E-03 
1256	 8.68285155572795E-03 
1257	 8.54979216826131E-03 
1258	 8.31721810818351E-03 
1259	 8.0336170825631E-03 
1260	 8.1677508570157E-03 
1261	 8.51921817545705E-03 
1262	 8.84762897028224E-03 
1263	 9.64501479102415E-03 
1264	 1.00657159945541E-02 
1265	 9.65212128898592E-03 
1266	 9.36472156952684E-03 
1267	 9.84370046027962E-03 
1268	 9.68407168020136E-03 
1269	 9.33675392962522E-03 
1270	 9.6815111903296E-03 
1271	 9.51024148794677E-03 
1272	 9.2192520153264E-03 
1273	 9.56801823665036E-03 
1274	 9.36981177520735E-03 
1275	 8.81968999519207E-03 
1276	 8.43578979886672E-03 
1277	 8.50762835629544E-03 
1278	 8.73672274414207E-03 
1279	 8.41924925042059E-03 
1280	 8.50127159685262E-03 
1281	 8.80146319035931E-03 
1282	 9.01009641232471E-03 
1283	 9.02398864961132E-03 
1284	 9.66041021590681E-03 
1285	 9.82784476612937E-03 
1286	 9.05709663444463E-03 
1287	 8.99390293615132E-03 
1288	 9.50570007700046E-03 
1289	 9.54855057164281E-03 
1290	 9.29819531417213E-03 
1291	 9.58094051280622E-03 
1292	 9.82460032629304E-03 
1293	 9.37129889475724E-03 
1294	 9.04721967223428E-03 
1295	 9.12408316810531E-03 
1296	 8.7585343207152E-03 
1297	 8.67595552681301E-03 
1298	 8.93724597517135E-03 
1299	 8.90537620653143E-03 
1300	 8.91406962550763E-03 
1301	 8.84626811903429E-03 
1302	 8.67807753067725E-03 
1303	 8.3267982876254E-03 
1304	 7.4331770672915E-03 
1305	 7.12644591811599E-03 
1306	 7.15917974003601E-03 
1307	 7.33253843275057E-03 
1308	 7.42825871554235E-03 
1309	 8.25234586686085E-03 
1310	 8.51519478046918E-03 
1311	 8.62739304830445E-03 
1312	 8.56663779011503E-03 
1313	 8.00006016613657E-03 
1314	 7.97027844784311E-03 
1315	 7.86750645334574E-03 
1316	 7.58226616784125E-03 
1317	 8.01752478364359E-03 
1318	 7.68781982708399E-03 
1319	 6.42806122712857E-03 
1320	 5.58863619809279E-03 
1321	 4.21540726752065E-03 
1322	 3.70648401088945E-03 
1323	 4.4177149699096E-03 
1324	 4.25104965379716E-03 
1325	 4.69494816593406E-03 
1326	 6.68029553482649E-03 
1327	 6.74277765903521E-03 
1328	 4.94774002422353E-03 
1329	 4.59822175841202E-03 
1330	 5.51683725812767E-03 
1331	 5.44517588724913E-03 
1332	 6.02609620071778E-03 
1333	 8.12848616725597E-03 
1334	 7.70702426537354E-03 
1335	 7.12217980567367E-03 
1336	 7.26224970107497E-03 
1337	 7.43111245179898E-03 
1338	 5.9967973298981E-03 
1339	 4.39818642035826E-03 
1340	 2.43825414057135E-03 
1341	 7.58582095643689E-04 
1342	-2.0395074627512E-03 
1343	-3.76510973091202E-03 
1344	-4.58047200302919E-03 
1345	-1.84340291250621E-03 
1346	 8.50698797535613E-03 
1347	 1.01613783606242E-02 
1348	 9.90910021464265E-03 
1349	 1.03782630988045E-02 
1350	-1.56490452066386E-02 
1351	-3.46756065389899E-02 
1352	-3.26471285067955E-02 
1353	-4.12532408921023E-02 
1354	-3.34528238293626E-02 
1355	-4.18348650412095E-02 
1356	-0.168101613482158 
1357	-0.228383238038958 
1358	-0.390660842103334 
1359	-0.863167907350352 
1360	-1.03295471624416 
1361	-0.615948090393498 
1362	-0.322562497516027 
1363	-0.110047277411805 
1364	-0.286751264983073 
1365	-1.10327758523908 
1366	-8.18757987486501 
1367	-6.42020058538303 
1368	-15.5368770902741 
1369	-74.7660931304569 
1370	-4.37251040595884 
1371	-1.43806447497189 
1372	-0.772352618669479 
1373	-3.07613026457267E-02 
1374	-6.77814006186953E-02 
1375	-0.917851739219143 
1376	-1.47805190739531 
1377	-2.93892937803566 
1378	-6.09296868050616 
1379	-1.13102800367815 
1380	-0.981096060892459 
1381	-6.42714782053917 
1382	-4.07618346592484 
1383	-4.08935982514626E-03 
1384	 0.126283245419685 
1385	 0.471164330594852 
1386	 0.73908326590453 
1387	 0.275866530461386 
1388	-0.182203672148911 
1389	 0.131821344153085 
1390	 7.71812831788079E-02 
1391	-0.582370117702829 
1392	-0.902716003904999 
1393	-1.07509781527786 
1394	-2.96580247009426 
1395	-5.2833861770753 
1396	-3.16911865435929 
1397	-6.69446146669665 
1398	-4.84366318877871 
1399	-1.17181305377228 
1400	-0.661231941336608 
1401	-1.08606179257066 
1402	-0.622886638162892 
1403	-0.649538139650641 
1404	-1.79434071382586 
1405	-2.84932626611718 
1406	-2.58055570235878 
1407	-2.46078581641495 
1408	-5.02254369883244 
1409	-7.53494933382632 
1410	-4.51360449071626 
1411	-2.66007230789267 
1412	-3.88452666315044 
1413	-2.57595961513392 
1414	-0.206056346257566 
1415	 6.52075983497415E-02 
1416	 0.30886468619981 
1417	-0.129405716961616 
1418	-0.667652281006233 
1419	-0.595867242497333 
1420	-0.358124777242068 
1421	-0.323181142037429 
1422	-0.19389176540993 
1423	-8.34921864942874E-02 
1424	-6.36650170567639E-02 
1425	-0.157486289621186 
1426	-0.316343689103462 
1427	-0.305238132087637 
1428	-0.298805860029788 
1429	-0.340495193131507 
1430	-0.329952527822735 
1431	-0.294902727110345 
1432	-0.28436491771841 
1433	-0.322219067071237 
1434	-0.339666244019977 
1435	-0.307790867811062 
1436	-0.313690785244216 
1437	-0.338975477308963 
1438	-0.306986244728768 
1439	-0.179382340661614 
1440	-5.60105997406119E-02 
1441	-5.63783132992772E-02 
1442	-6.23250803696459E-02 
1443	-8.20243897213692E-03 
1444	-0.03494538808412 
1445	-4.68017597947876E-02 
1446	-4.85622808816995E-02 
1447	-5.86618128905374E-02 
1448	-4.20968601567277E-02 
1449	-5.74358452417491E-02 
1450	-6.83750756377224E-02 
1451	-4.71849122055206E-02 
1452	-5.28835465477599E-02 
1453	-6.11617156632018E-02 
1454	-4.01697797007674E-02 
1455	 4.84314054214567E-03 
1456	 8.53902677548036E-03 
1457	 9.86233464488479E-03 
1458	 1.23838573513055E-02 
1459	-2.19176844522249E-03 
1460	-9.32978420359129E-03 
1461	-1.00839448539583E-02 
1462	-5.01109007333888E-03 
1463	-8.98602510682394E-04 
1464	-4.90421759775481E-04 
1465	 0.014147912869126 
1466	 1.46738782357745E-02 
1467	-8.44187655812192E-03 
1468	-1.36297798906925E-02 
1469	-4.96851191381745E-03 
1470	-8.32648666916489E-03 
1471	-1.67531578239063E-02 
1472	-1.82571033535247E-02 
1473	-2.26202958856066E-02 
1474	-2.22245520805734E-02 
1475	-1.43676005215777E-02 
1476	-1.15181621548556E-02 
1477	-8.87710426040676E-03 
1478	-7.02513575910418E-03 
1479	-7.19905093989619E-03 
1480	-6.48202262870763E-03 
1481	-7.20741405397999E-03 
1482	-7.02526414508291E-03 
1483	-3.36450397207612E-03 
1484	-2.38726168625714E-03 
1485	-4.25617487593196E-03 
1486	-3.98913848477379E-03 
1487	-6.85568139660021E-03 
1488	-4.16277149498885E-03 
1489	 5.24381485477813E-03 
1490	 6.99392277731333E-03 
1491	 6.54499743764476E-03 
1492	 7.49098922162445E-03 
1493	 7.51938539911199E-03 
1494	 5.96158921112959E-03 
1495	 2.71713804634567E-03 
1496	 3.07603310254154E-03 
1497	 4.44631082150801E-03 
1498	 4.00882634595138E-03 
1499	 0.005314497458836 
1500	 6.30656166293033E-03 
1501	 5.06983356233208E-03 
1502	 4.42769186755091E-03 
1503	 4.85890158787857E-03 
1504	 5.4483296096176E-03 
1505	 6.08382637488302E-03 
1506	 5.72345804370913E-03 
1507	 6.15087786551682E-03 
1508	 6.55296043794434E-03 
1509	 5.08734958835133E-03 
1510	 4.74712717303895E-03 
1511	 5.51761927492685E-03 
1512	 5.73996229641477E-03 
1513	 6.0850933716794E-03 
1514	 5.68360884339657E-03 
1515	 4.89550805811671E-03 
1516	 4.34218044476832E-03 
1517	 3.07226095283037E-03 
1518	 2.79793075708125E-03 
1519	 3.67163516918236E-03 
1520	 3.35305675252383E-03 
1521	 3.40842160702351E-03 
1522	 4.87928810314774E-03 
1523	 5.24831983896283E-03 
1524	 5.2975050355115E-03 
1525	 6.03872789774618E-03 
1526	 6.04561611600653E-03 
1527	 6.57878351950334E-03 
1528	 7.14065754441652E-03 
1529	 6.18907967265479E-03 
1530	 6.01059719484265E-03 
1531	 6.09173315885704E-03 
1532	 4.74763142926721E-03 
1533	 4.76733914134056E-03 
1534	 5.56798167292647E-03 
1535	 5.25569192106698E-03 
1536	 5.28540922706206E-03 
1537	 5.50114551902915E-03 
1538	 5.40778563342617E-03 
1539	 4.93349980803316E-03 
1540	 5.12301246361038E-03 
1541	 6.38691738544673E-03 
1542	 6.93770670094517E-03 
1543	 6.94939696800868E-03 
1544	 6.85067578007386E-03 
1545	 6.41198491798638E-03 
1546	 6.19938495763638E-03 
1547	 6.0853300339621E-03 
1548	 6.12047298429092E-03 
1549	 6.04406188350529E-03 
1550	 5.92144096853048E-03 
1551	 6.59814818752293E-03 
1552	 6.99973160782488E-03 
1553	 6.68534977854246E-03 
1554	 6.3011627250148E-03 
1555	 6.2184731360964E-03 
1556	 6.58426897939991E-03 
1557	 7.16023125606955E-03 
1558	 7.57679145766907E-03 
1559	 7.42653696955256E-03 
1560	 7.38716055872186E-03 
1561	 6.96239431412805E-03 
1562	 6.15813815676329E-03 
1563	 5.81771483577352E-03 
1564	 5.25718014833623E-03 
1565	 5.07764434515947E-03 
1566	 5.16382526744952E-03 
1567	 5.34459018411762E-03 
1568	 6.3336305608326E-03 
1569	 6.77148779538836E-03 
1570	 6.63462556059448E-03 
1571	 6.47905146369001E-03 
1572	 6.10693818447276E-03 
1573	 6.06278720798766E-03 
1574	 6.13734573999448E-03 
1575	 6.21020100226672E-03 
1576	 6.2463628631803E-03 
1577	 5.99946514859699E-03 
1578	 5.86446010005472E-03 
1579	 6.4213221060108E-03 
1580	 7.11115469049995E-03 
1581	 7.07160991908292E-03 
1582	 7.11182698594103E-03 
1583	 6.86538425853162E-03 
1584	 5.69837731019329E-03 
1585	 4.97524412189366E-03 
1586	 4.89627152524099E-03 
1587	 5.37045394989861E-03 
1588	 6.02699726144932E-03 
1589	 6.27666615506709E-03 
1590	 6.68500754207775E-03 
1591	 7.08464274302372E-03 
1592	 6.76440094672281E-03 
1593	 6.12393679547398E-03 
1594	 5.98797958640494E-03 
1595	 5.79072751221021E-03 
1596	 5.49135918073442E-03 
1597	 0.006142634855248 
1598	 6.95444106160133E-03 
1599	 7.24540171856366E-03 
1600	 7.60307780987341E-03 
1601	 7.49955639980829E-03 
1602	 7.16238201269072E-03 
1603	 7.43493576318642E-03 
1604	 7.57038140652111E-03 
1605	 7.55424017876422E-03 
1606	 7.57103263290691E-03 
1607	 7.26034505656123E-03 
1608	 7.18739601537589E-03 
1609	 7.56846173646831E-03 
1610	 7.82745273517431E-03 
1611	 7.68807178252453E-03 
1612	 7.91442047696927E-03 
1613	 8.18522910540577E-03 
1614	 7.75304354831447E-03 
1615	 7.20549432648038E-03 
1616	 6.88954360122232E-03 
1617	 6.98348479090482E-03 
1618	 7.1091621226795E-03 
1619	 7.25964244005469E-03 
1620	 7.61231774207277E-03 
1621	 7.3915056267617E-03 
1622	 7.20013785376726E-03 
1623	 7.2067976987841E-03 
1624	 6.46564658890649E-03 
1625	 5.92577312115373E-03 
1626	 6.1187549292018E-03 
1627	 6.73059489822233E-03 
1628	 7.87105363019443E-03 
1629	 7.99970698153861E-03 
1630	 7.24721941498312E-03 
1631	 7.28317705169387E-03 
1632	 7.34895046108134E-03 
1633	 7.29813404564298E-03 
1634	 7.60789113322068E-03 
1635	 8.11197212663627E-03 
1636	 8.09074397357153E-03 
1637	 7.56668106980821E-03 
1638	 7.60859338562911E-03 
1639	 7.82194678880994E-03 
1640	 7.57811333202685E-03 
1641	 7.79174448488695E-03 
1642	 8.0902018560687E-03 
1643	 7.31754304917686E-03 
1644	 7.29088629018811E-03 
1645	 7.76478930030255E-03 
1646	 7.17574162976836E-03 
1647	 6.77866297693829E-03 
1648	 6.99288682379866E-03 
1649	 7.51344874850051E-03 
1650	 8.06406538297975E-03 
1651	 8.30859267019068E-03 
1652	 8.14005738902903E-03 
1653	 7.25340531781121E-03 
1654	 6.89630704089689E-03 
1655	 7.26198871149193E-03 
1656	 7.26936460057639E-03 
1657	 6.81955922405025E-03 
1658	 6.90833663619981E-03 
1659	 7.82127496685908E-03 
1660	 7.68700137156598E-03 
1661	 6.59135516956345E-03 
1662	 6.51747656854803E-03 
1663	 6.77454382283471E-03 
1664	 6.39381060917758E-03 
1665	 6.07982074598169E-03 
1666	 6.43854606811712E-03 
1667	 6.56786163904951E-03 
1668	 7.21585808300655E-03 
1669	 7.96504555106985E-03 
1670	 7.54823454578197E-03 
1671	 6.82968384649389E-03 
1672	 6.5910054323819E-03 
1673	 7.18481855239043E-03 
1674	 7.00468854377876E-03 
1675	 6.06625345143123E-03 
1676	 6.97756602648337E-03 
1677	 7.41450300489857E-03 
1678	 6.31220718788781E-03 
1679	 6.87055047679667E-03 
1680	 7.63578505544479E-03 
1681	 6.92738142920489E-03 
1682	 7.5878103744731E-03 
1683	 7.95813312099558E-03 
1684	 6.06148618643274E-03 
1685	 5.56168073391129E-03 
1686	 6.70458513476027E-03 
1687	 7.91176203053181E-03 
1688	 9.06488678875519E-03 
1689	 8.11777067573059E-03 
1690	 6.50325083323632E-03 
1691	 6.96044738323586E-03 
1692	 7.30566392789694E-03 
1693	 7.22449126697732E-03 
1694	 7.57627644325589E-03 
1695	 6.69785164965913E-03 
1696	 5.77470620647325E-03 
1697	 6.90111319267508E-03 
1698	 7.9877085345699E-03 
1699	 7.76746197553568E-03 
1700	 7.75854029326598E-03 
1701	 7.53824662235223E-03 
1702	 7.11323855566771E-03 
1703	 7.21662511836343E-03 
1704	 7.17020751945379E-03 
1705	 6.8531621208137E-03 
1706	 6.61012779637994E-03 
1707	 6.46325840097014E-03 
1708	 6.94935776635747E-03 
1709	 8.27575036155292E-03 
1710	 8.22254596353746E-03 
1711	 7.03835579243431E-03 
1712	 6.47320397929715E-03 
1713	 5.99662005856913E-03 
1714	 6.33907858177298E-03 
1715	 8.21177325356959E-03 
1716	 7.66243807208215E-03 
1717	 8.35493939240115E-03 
1718	 9.49214572471104E-03 
1719	 0.009364461001938 
1720	 8.15676529972236E-03 
1721	 6.89658379625029E-03 
1722	 6.68683205536669E-03 
1723	 6.68384606700766E-03 
1724	 6.78518752251897E-03 
1725	 8.10125771118993E-03 
1726	 7.6518847206284E-03 
1727	 5.30269449102039E-03 
1728	 5.52140017662873E-03 
1729	 6.54142116923565E-03 
1730	 6.53666511010851E-03 
1731	 7.93167283594933E-03 
1732	 9.01423053748233E-03 
1733	 7.79716916674343E-03 
1734	 6.39724168718003E-03 
1735	 5.99515085336798E-03 
1736	 6.37818585017054E-03 
1737	 6.64753121079193E-03 
1738	 6.36414439567428E-03 
1739	 7.17355641879596E-03 
1740	 7.70227915427318E-03 
1741	 6.09600582708625E-03 
1742	 6.11494389151919E-03 
1743	 6.49602558467163E-03 
1744	 4.66412850446769E-03 
1745	 5.56964796246441E-03 
1746	 0.007057344942627 
1747	 7.17411934102844E-03 
1748	 7.30926394775468E-03 
1749	 7.12217879759387E-03 
1750	 5.88500849631971E-03 
1751	 5.80869838561371E-03 
1752	 7.07419266013729E-03 
1753	 6.86606372180439E-03 
1754	 5.9672172327679E-03 
1755	 5.86273655178797E-03 
1756	 4.81754286127097E-03 
1757	 5.30342364009439E-03 
1758	 5.69058607608737E-03 
1759	 3.27836600661294E-03 
1760	 2.93631484143866E-03 
1761	 4.78822964024731E-03 
1762	 4.90287824934225E-03 
1763	 5.26392105020924E-03 
1764	 5.53830970044283E-03 
1765	 3.03067580870936E-03 
1766	 3.68184040840576E-03 
1767	 6.36217706607146E-03 
1768	 4.99263180221753E-03 
1769	 5.82732285052619E-03 
1770	 5.76531179640145E-03 
1771	 5.64233007618885E-03 
1772	 1.24294821519071E-02 
1773	 1.04376562037733E-02 
1774	 7.35231763301502E-04 
1775	-8.54594543931403E-03 
1776	-0.012056550868106 
1777	 8.70331939771038E-04 
1778	 4.95642628591431E-03 
1779	 3.40387802605193E-03 
1780	 3.65999899721997E-03 
1781	-2.2799664907964E-03 
1782	-4.76499609900989E-03 
1783	-2.43558898904852E-03 
1784	-1.34074111316964E-03 
1785	 2.59137461495799E-03 
1786	 1.41398757926822E-03 
1787	-1.74222840612483E-03 
1788	-5.4218216728815E-03 
1789	-1.95483488397858E-02 
1790	-8.24937979784193E-03 
1791	-4.71125733884767E-03 
1792	 8.23427299382682E-04 
1793	 1.04884840003674E-02 
1794	-1.03768411767807E-03 
1795	-4.06737215841431E-03 
1796	 2.43968098008688E-04 
1797	-5.96975641650672E-03 
1798	-2.25629562746287E-02 
1799	-5.90614525720572E-02 
1800	-5.34229823917895E-02 
1801	-4.64301798291867E-02 
1802	 5.72828270502497E-02 
1803	 0.10315480062695 
1804	 1.07175932222332E-02 
1805	-0.052036732440366 
1806	-0.285708083938724 
1807	-0.385218520092705 
1808	-0.160205092425141 
1809	-4.75863860752185E-02 
1810	 0.423225835751106 
1811	 0.346943813573474 
1812	-0.18645015897261 
1813	-0.416378604787512 
1814	-1.40405811193543 
1815	-2.31712416089099 
1816	 1.74642548544538 
1817	-24.5108373326544 
1818	-1.41954968657173 
1819	-1.9076304345252 
1820	-0.661272785233175 
1821	 0.429193595521974 
1822	 0.670006779628576 
1823	 0.436904522430227 
1824	 0.31998122665567 
1825	 5.22874236158283 
1826	 2.08252176827258 
1827	-5.35260148027412 
1828	-2.65260195249242 
1829	-0.501357822990374 
1830	-0.5404829494007 
1831	 0.983556974013212 
1832	 0.955903055260322 
1833	-3.02471991314361E-03 
1834	-1.44540057380751 
1835	 0.125040053719036 
1836	 0.047290217993963 
1837	-0.200215032502827 
1838	-0.195759257975701 
1839	-0.159164385786855 
1840	-9.13706181486343E-02 
1841	-6.25528448414433E-02 
1842	 0.218661668281054 
1843	 0.257234319914074 
1844	 8.95104841814375E-03 
1845	-7.08603997636739E-02 
1846	-0.319386669354984 
1847	-0.300786924015044 
1848	-0.157952680163579 
1849	 4.97129629328215E-02 
1850	 0.259293015838844 
1851	 0.905250623433916 
1852	 1.38393454619207 
1853	 0.891757878606581 
1854	 0.574381473876659 
1855	 0.181617189829032 
1856	 7.61253007872488E-02 
1857	-7.25420537957539E-02 
1858	-0.127224804609692 
1859	-0.145609061473853 
1860	-0.171777042647652 
1861	 0.369649515783022 
1862	 0.64037762585088 
1863	 1.32143281126884 
1864	 1.81511078386467 
1865	 2.24499464336913 
1866	 0.653266293889494 
1867	 2.07392526561409 
1868	 11.9324711650419 
1869	-3.66064067036942 
1870	-1.75111397593598 
1871	-1.80022070442786 
1872	-1.88586158656474 
1873	-1.74438099687657 
1874	-1.34088666973373 
1875	-1.34805361620999 
1876	-1.2082209890412 
1877	-1.00944559305125 
1878	-0.67228891362578 
1879	-0.230310114896793 
1880	-8.53234301579971E-02 
1881	 0.147844494654706 
1882	 0.668527001095066 
1883	-9.35854045036096 
1884	 0.214883249046567 
1885	 0.875051705149968 
1886	 0.746740182386022 
1887	 0.617435071089252 
1888	 0.712984382153095 
1889	 0.602364643424472 
1890	-1.64513604027953 
1891	 2.60768532482868 
1892	-1.38112026466426 
1893	-4.30272914455997 
1894	-3.19350985309412 
1895	-0.459024635374405 
1896	-3.65379999080313E-02 
1897	 0.225646025605801 
1898	 0.181440341380286 
1899	 0.142105662783055 
1900	 0.135564656780783 
1901	 0.218916361853533 
1902	 0.072585569002833 
1903	-0.167813573748352 
1904	-1.27821931342441 
1905	-2.05589045415897 
1906	 3.0435426725829 
1907	 0.902359282378243 
1908	 0.456510751096958 
1909	 0.331729990302506 
1910	 0.326791372582375 
1911	 0.617463065496498 
1912	 0.642190316627206 
1913	 0.800592115921928 
1914	 1.68675620300014 
1915	 5.62335972901842 
1916	-4.71753055070988 
1917	-2.79458179500343 
1918	-1.87888306813765 
1919	-0.912207075440993 
1920	-0.680481717146039 
1921	-1.8079641159002 
1922	 1.93154472886157 
1923	 0.347977147764563 
1924	-2.18425528217508E-02 
1925	-0.421555440283877 
1926	-0.530279524107803 
1927	-2.5564573587633 
1928	 6.61834281762602E-02 
1929	-1.12936432608318 
1930	-3.78465507357864 
1931	-6.15061122267385 
1932	-45.819456447292 
1933	 0.081269091234259 
1934	-2.67093308910896 
1935	 2.05175086551477 
1936	 0.403663428883016 
1937	-0.998225782489859 
1938	 1.03976107440377 
1939	 1.59583070679511 
1940	 1.19765693769614 
1941	 0.915292309241102 
1942	-3.68459907031815 
1943	 5.18233874573753 
1944	 1.50499015504791 
1945	 1.15465516090978 
1946	 0.388313327065884 
1947	 0.237419621094139 
1948	 0.660014081948892 
1949	 0.178147676706246 
1950	 0.401843184410255 
1951	 0.317821600283557 
1952	 0.134446235221201 
1953	-0.156276653220776 
1954	 8.7068343144641E-03 
1955	 9.37061661657837E-02 
1956	 4.26217910370545E-02 
1957	-0.115321250818849 
1958	-0.169806271672475 
1959	-0.155862379297024 
1960	-7.70284425968893E-02 
1961	 2.52026439506716E-02 
1962	 4.47764851246923E-02 
1963	 5.08670389290928E-02 
1964	 3.88922852568555E-02 
1965	 1.16807891240467E-02 
1966	 6.67982180094264E-03 
1967	 1.79484348780241E-02 
1968	 0.010430361002504 
1969	 5.12147503115825E-04 
1970	 5.48248753477257E-03 
1971	-1.96335289031296E-03 
1972	-5.88837495190133E-03 
1973	-5.1887261315687E-05 
1974	 3.50330309549228E-03 
1975	 5.11093918811485E-03 
1976	 6.13582234315067E-03 
1977	 9.45258114013246E-03 
1978	 9.60481134465017E-03 
1979	 7.73979529327824E-03 
1980	 4.08939959962014E-03 
1981	 6.93526790298663E-03 
1982	 6.94405021704628E-03 
1983	 5.04394903646953E-03 
1984	 1.06877548008514E-02 
1985	 1.18687197894874E-02 
1986	 1.13530537473648E-02 
1987	 1.74669211631558E-02 
1988	 1.78708730670305E-02 
1989	 1.48149384320451E-02 
1990	 1.75755193997217E-02 
1991	 1.48847703167498E-02 
1992	 9.49452814159971E-03 
1993	 0.012853378865503 
1994	 1.34647714156537E-02 
1995	 1.15101202410771E-02 
1996	 8.28252172925677E-03 
1997	 9.06622293642881E-03 
1998	 4.0605246623574E-03 
1999	-6.67955617540947E-04 
2000	 9.06637830035928E-04 
2001	 1.63250305933074E-02 
2002	 2.60302347395233E-02 
2003	 1.16161695075144E-02 
2004	-4.10761193224562E-03 
2005	-2.69929814560376E-02 
2006	-0.035235466864639 
2007	-0.024575051083972 
2008	-2.09961698161189E-02 
2009	-1.30138074946222E-02 
2010	-8.08727616115728E-03 
2011	-5.50248192392124E-03 
2012	-5.24798172424602E-04 
2013	 0.011193494009248 
2014	 4.40499815855047E-03 
2015	 7.53756867281019E-03 
2016	 3.50827686167072E-03 
2017	-1.30818809460615E-03 
2018	 1.00058572083184E-03 
2019	-4.52680422097264E-03 
2020	-5.41816068908459E-03 
2021	-6.91104679348694E-03 
2022	-6.35785189770864E-03 
2023	-2.52151837501258E-03 
2024	-1.17070646327812E-03 
2025	 2.05917183125973E-03 
2026	 1.91296351120105E-03 
2027	-1.43621152636525E-03 
2028	-2.10740641510689E-03 
2029	-2.01700245632346E-04 
2030	 9.10437601276863E-04 
2031	 7.13185628844633E-03 
2032	 8.16938285370739E-03 
2033	 4.53083021937887E-03 
2034	 4.68145056357149E-03 
2035	 1.67965729433203E-03 
2036	-1.64692467675035E-03 
2037	-4.7841470093778E-04 
2038	-7.946785289191E-04 
2039	-1.38801831195056E-03 
2040	-1.00352930476016E-03 
2041	-1.20511843084647E-03 
2042	-2.48597316184691E-03 
2043	-3.29871226598073E-03 
2044	-4.6311591723282E-03 
2045	-4.96025642884182E-03 
2046	-2.88698237024265E-03 
2047	-2.88506177839995E-03 
2048	 5.40036512196288E-04 
2049	 4.70425655441727E-03 
2050	 6.19283994687156E-03 
2051	 8.49046458694266E-03 
2052	 1.02200085906756E-02 
2053	 1.16627944208858E-02 
2054	 1.11246185760181E-02 
2055	 1.23715017374737E-02 
2056	 1.27229294503904E-02 
2057	 1.22673034603776E-02 
2058	 1.03332399559524E-02 
2059	 6.53722780167279E-03 
2060	 4.30521308046575E-03 
2061	 7.14591555176096E-04 
2062	-4.03696206793822E-04 
2063	 3.50556467340877E-03 
2064	 7.21572220215582E-03 
2065	 3.86040534635446E-03 
2066	 2.09476811933285E-03 
2067	 1.03311655743994E-03 
2068	-3.74905319716093E-05 
2069	 5.70613987760747E-03 
2070	 1.17011320066871E-02 
2071	 1.06312743683492E-02 
2072	 8.72879895862533E-03 
2073	 7.70904600013484E-03 
2074	 3.22613900712704E-03 
2075	 2.93912464119344E-03 
2076	 7.52068300152795E-03 
2077	 7.30739010759128E-03 
2078	 7.04379444092096E-03 
2079	 5.45647913937048E-03 
2080	 9.38034567060621E-04 
2081	-3.69617778372819E-03 
2082	-4.34127901597992E-03 
2083	-4.92612310111093E-03 
2084	-3.4459321144366E-03 
2085	-7.71640165732355E-04 
2086	-1.40410009457137E-03 
2087	-1.01079677096246E-03 
2088	 1.8887651490038E-03 
2089	 2.55669063074207E-03 
2090	 2.54929116706797E-03 
2091	 6.01625473714953E-03 
2092	 6.95595630914431E-03 
2093	 5.48844320277488E-03 
2094	 4.60783693973358E-03 
2095	 2.37673684857299E-03 
2096	 0.002055506712378 
2097	 2.90077784536532E-03 
2098	 3.38307885161055E-03 
2099	 5.0756530960991E-03 
2100	 7.22976213075935E-03 
2101	 7.10532245362508E-03 
2102	 5.23917034120778E-03 
2103	 3.96014407383752E-03 
2104	 3.02837784250783E-03 
2105	 4.27265592023307E-03 
2106	 5.48209386670976E-03 
2107	 7.60085635182944E-03 
2108	 1.08323874483679E-02 
2109	 9.05795648184847E-03 
2110	 8.94894164530668E-03 
2111	 8.9777183768583E-03 
2112	 6.24978506045636E-03 
2113	 5.37674422125169E-03 
2114	 5.15763546482776E-03 
2115	 5.10428611813209E-03 
2116	 5.95746703233725E-03 
2117	 6.51093283467202E-03 
2118	 7.52356963057259E-03 
2119	 8.29807977662548E-03 
2120	 9.22623024996249E-03 
2121	 8.91598418158183E-03 
2122	 8.77358971169654E-03 
2123	 8.20630160378299E-03 
2124	 4.87013617669887E-03 
2125	 4.13167571328316E-03 
2126	 7.01621996570898E-03 
2127	 8.21479242075291E-03 
2128	 9.81892019235405E-03 
2129	 1.37943969013768E-02 
2130	 1.50005881142328E-02 
2131	 1.44956150686959E-02 
2132	 1.64183547893472E-02 
2133	 1.56311547024767E-02 
2134	 1.31407294996945E-02 
2135	 6.9227546314342E-03 
2136	 4.61294956863634E-03 
2137	 1.92627333719572E-03 
2138	 9.20537810203297E-04 
2139	 3.89736911350393E-03 
2140	 4.77307159683327E-03 
2141	 4.38831800524045E-03 
2142	 4.53589610041449E-03 
2143	 5.02131581933419E-03 
2144	 3.83870364738101E-03 
2145	 5.88490669768637E-03 
2146	 7.45041576333937E-03 
2147	 5.77977084785054E-03 
2148	 6.70672302142819E-03 
2149	 7.36768056064259E-03 
2150	 6.88533371017069E-03 
2151	 8.8993489997337E-03 
2152	 9.53553809767725E-03 
2153	 8.13704915786975E-03 
2154	 7.59047961559452E-03 
2155	 5.74135511775145E-03 
2156	 6.16141450203662E-03 
2157	 7.08752707576771E-03 
2158	 7.95900658757525E-03 
2159	 8.17222179999198E-03 
2160	 9.61391442715867E-03 
2161	 0.010871565213339 
2162	 1.25632009084131E-02 
2163	 1.24358693613157E-02 
2164	 1.14464125033282E-02 
2165	 1.09812752061398E-02 
2166	 8.23213764925262E-03 
2167	 7.00451012859133E-03 
2168	 8.4697081318881E-03 
2169	 7.40384394672479E-03 
2170	 3.30910006808346E-03 
2171	 3.61679738415481E-03 
2172	 3.36915805521342E-03 
2173	 2.84701394552392E-03 
2174	 3.72162514841396E-03 
2175	 1.2193389221929E-03 
2176	-2.71156015324924E-03 
2177	-2.9153010107266E-03 
2178	-1.01057388522135E-03 
2179	-1.19459682105406E-04 
2180	 1.95681538793166E-03 
2181	 5.73233847826973E-03 
2182	 6.99357568451661E-03 
2183	 7.32488450850439E-03 
2184	 0.01026593078699 
2185	 1.31739551882929E-02 
2186	 1.52758150935001E-02 
2187	 1.92947659263965E-02 
2188	 2.22416777092603E-02 
2189	 0.024500011264069 
2190	 0.021186210304498 
2191	 0.016211265662225 
2192	 1.13836607253333E-02 
2193	-2.6398343573839E-03 
2194	-5.87079466650902E-03 
2195	-3.90492388580767E-04 
2196	-1.36502005435957E-03 
2197	-1.72365358276059E-03 
2198	-1.36441797775523E-03 
2199	-4.3923567191235E-03 
2200	-4.1370340531344E-03 
2201	-4.83969736807567E-04 
2202	 3.70185798085654E-03 
2203	 8.83442966501614E-03 
2204	 1.16842424911173E-02 
2205	 1.05051251068004E-02 
2206	 1.06037151320523E-02 
2207	 1.00608980580934E-02 
2208	 7.5307262055076E-03 
2209	 5.53157141854301E-03 
2210	 6.18039186923825E-03 
2211	 7.75399326119708E-03 
2212	 2.67101598215755E-03 
2213	 2.77457920458085E-03 
2214	 7.89123097678961E-03 
2215	 6.86391153128508E-03 
2216	 9.66914221712253E-03 
2217	 1.10866757137663E-02 
2218	 1.16351251197032E-02 
2219	 1.10439904353546E-02 
2220	 1.06893024207685E-02 
2221	 7.60095974174727E-03 
2222	 6.4351287833125E-04 
2223	-2.00452190105917E-03 
2224	-3.66242699741944E-03 
2225	-3.0690547769938E-03 
2226	 1.54459295562239E-03 
2227	 3.31336748563221E-03 
2228	 3.15010058072607E-03 
2229	 2.97464519859758E-03 
2230	 4.15746831830459E-03 
2231	 4.6682376834244E-03 
2232	 4.16672204120903E-03 
2233	 4.05696770184636E-03 
2234	 4.25524466001015E-03 
2235	 1.21867321464465E-03 
2236	 1.85962689102788E-03 
2237	 2.31494169074795E-03 
2238	 3.30555506935669E-03 
2239	 7.63672764145779E-03 
2240	 5.64583827647627E-03 
2241	 6.3612721865854E-03 
2242	 6.13850205392448E-03 
2243	-1.07956429815782E-03 
2244	 3.21219349260589E-04 
2245	 9.51138717514994E-04 
2246	 5.35995181048372E-04 
2247	 8.43858236507332E-03 
2248	 6.4295377239141E-03 
2249	 3.66983911211881E-03 
2250	 3.39260423532914E-03 
2251	-5.86766669747336E-03 
2252	-8.04364817991099E-03 
2253	-9.43558772747102E-03 
2254	-0.011397417561056 
2255	-4.45127369914324E-03 
2256	-3.20942448482101E-05 
2257	-1.83953329084821E-04 
2258	 1.46299634519849E-03 
2259	 9.2280976279293E-04 
2260	 1.75099628774906E-03 
2261	 5.6508780997373E-03 
2262	 6.14296526304505E-03 
2263	 4.04052229353428E-03 
2264	 4.05599222393644E-03 
2265	-4.67678481471595E-04 
2266	 1.21218097152855E-03 
2267	 1.13040572096285E-02 
2268	 1.18087006292015E-02 
2269	 1.36144417499286E-02 
2270	 1.21122688065315E-02 
2271	-2.54630734583862E-03 
2272	-5.17810426487115E-03 
2273	-1.5917361703485E-03 
2274	-1.25953350617594E-03 
2275	 5.92886478462071E-03 
2276	 5.73451194105198E-03 
2277	-3.82853966300889E-03 
2278	-5.04397236503401E-03 
2279	-4.79600907698138E-03 
2280	-3.63233039350378E-03 
2281	 3.89899787905065E-03 
2282	 7.3156685316876E-03 
2283	 9.31081938020967E-03 
2284	 1.58342795280067E-02 
2285	 2.26029090125604E-02 
2286	 2.94954299414906E-02 
2287	 2.52531764468435E-02 
2288	 1.83113077869959E-02 
2289	 1.89489555010422E-02 
2290	 2.10189321753653E-02 
2291	 2.07161182647794E-02 
2292	 1.57646900777271E-02 
2293	 1.26954620930388E-02 
2294	 2.93220738484747E-03 
2295	-5.8852906500983E-03 
2296	 2.5228411416372E-03 
2297	 4.08843760036763E-03 
2298	-7.06859300378214E-03 
2299	-2.04157677328577E-04 
2300	 9.67200685362803E-03 
2301	-1.31151125728991E-03 
2302	 2.89083230705981E-03 
2303	 0.013918907969564 
2304	 7.4538208464267E-03 
2305	 1.75548967010907E-02 
2306	 0.033001417185809 
2307	 3.17992580946371E-02 
2308	 2.54572004967896E-02 
2309	 1.46995736465408E-02 
2310	 8.56789883293282E-03 
2311	 2.63359085077867E-03 
2312	 3.88618762166011E-03 
2313	 1.90809932303789E-02 
2314	 3.43635550630146E-02 
2315	 4.45015882493049E-02 
2316	 0.039821050270049 
2317	 2.86045518567933E-02 
2318	 6.70839575576617E-03 
2319	-0.011676500916308 
2320	-1.83519985895825E-02 
2321	-1.90454135988886E-02 
2322	-7.21425034347165E-04 
2323	 1.60872429328935E-02 
2324	 4.27754068019656E-02 
2325	 6.16695570692872E-02 
2326	 4.32522029889356E-02 
2327	 2.37851167312713E-02 
2328	 1.07082437680607E-02 
2329	 1.30211857632945E-03 
2330	-7.78236070843186E-03 
2331	-1.44494011838598E-02 
2332	-3.0386373289701E-03 
2333	-2.14260831491075E-03 
2334	 3.15615100079912E-03 
2335	 2.44679561853343E-02 
2336	 1.78418503913722E-02 
2337	 9.26733420129094E-03 
2338	 1.54388960166856E-02 
2339	 8.27866462610656E-03 
2340	 1.62718465011604E-02 
2341	 4.03620178374609E-02 
2342	 0.045904756714455 
2343	 5.12419047852008E-02 
2344	 3.99225776442388E-02 
2345	 3.32228416075926E-02 
2346	 4.68756347478972E-02 
2347	 5.12949294158079E-02 
2348	 5.16608551242683E-02 
2349	 2.96710597997585E-02 
2350	-9.36533024049488E-03 
2351	-8.2036934759422E-03 
2352	-3.94933958870867E-03 
2353	-0.055627129613807 
2354	-8.59854769509383E-02 
2355	-0.122922685209347 
2356	-0.14493920747889 
2357	-8.46201553793042E-02 
2358	-5.34266416061162E-02 
2359	-4.21429265335857E-02 
2360	-2.20482614730208E-02 
2361	-6.16815465548107E-02 
2362	-8.09876896981871E-02 
2363	-5.58622635088336E-02 
2364	-0.067993727788078 
2365	-0.071272430110907 
2366	-7.33897422537585E-02 
2367	-0.124428629039321 
2368	-0.134864891934367 
2369	-9.10433525690803E-02 
2370	-7.86591465738602E-02 
2371	 9.37787121799196E-03 
2372	 0.104470747694605 
2373	 4.77842487013107E-02 
2374	 2.82309432394193E-02 
2375	 8.79619139711275E-02 
2376	 2.26634334779745E-02 
2377	 2.35101411893381E-02 
2378	 6.72170674972882E-02 
2379	-0.076555198623035 
2380	-0.144565092041811 
2381	-0.156788264747917 
2382	-0.241914041615932 
2383	-0.082852113817746 
2384	-1.01234841684445E-02 
2385	-2.85120979866279E-02 
2386	 8.24944436839365E-02 
2387	 9.06049533793655E-02 
2388	 0.14921342970209 
2389	 0.350263115785837 
2390	 0.38384374754765 
2391	 0.397117620669047 
2392	 0.415152191013924 
2393	 0.260503070070288 
2394	 0.320560872528552 
2395	 0.39585974262831 
2396	 0.153999328983286 
2397	 0.137398482347443 
2398	 0.184664391888699 
2399	 5.43099893425632E-02 
2400	 0.148921715854449 
2401	 0.129323762506419 
2402	 2.61001522032482E-02 
2403	 0.124938370441844 
2404	 0.276524396346082 
2405	 0.481679978756872 
2406	 0.675519755409111 
2407	 0.964649682326209 
2408	 1.85419498269453 
2409	 2.11740129598071 
2410	 0.436205353640725 
2411	 0.510755178010099 
2412	 0.620121890598417 
2413	 0.412536180888764 
2414	 0.412598128552627 
2415	 0.345273866166633 
2416	-2.05224545577713E-02 
2417	-0.263646819474515 
2418	-0.95598887264222 
2419	 0.199711708194287 
2420	-0.323906078790008 
2421	-0.575316906606938 
2422	-1.82496645315799 
2423	-0.185218077426184 
2424	-0.694912828235498 
2425	 0.277436489374656 
2426	 0.638009273399875 
2427	 0.123670831043608 
2428	 0.106944398791585 
2429	-0.25893435829184 
2430	-0.456587985002887 
2431	-0.154091657246097 
2432	-0.100589608315872 
2433	-1.66685350767478E-02 
2434	 0.168878229929584 
2435	 3.80591299686018 
2436	 1.12203081454871 
2437	 1.34929718547086 
2438	 1.41265493392157 
2439	 1.03547546690644 
2440	 0.653765641238106 
2441	-0.175084373802673 
2442	-1.13834121099544 
2443	-0.422276128347363 
2444	-0.404474065046244 
2445	 2.02412067698464 
2446	 43.7461141913617 
2447	 1.89071021431628 
2448	 2.72621934237982 
2449	 5.98296711666115 
2450	 10.1603727229386 
2451	-32.468738997608 
2452	-2.25568982043441 
2453	 0.172567374896394 
2454	 0.676060753235012 
2455	 0.282337337797583 
2456	 0.501656214348117 
2457	 3.42253884516559 
2458	-0.729401956456836 
2459	 0.391146822133611 
2460	 0.535827426465749 
2461	 0.305330854061958 
2462	 0.594961122733314 
2463	 0.280266996732286 
2464	-0.928400227400078 
2465	 17.6973521455286 
2466	 4.26600929208537 
2467	-2.27478228664896 
2468	-0.830019710739967 
2469	 2.38574027311445 
2470	 1.2385270264611 
2471	 1.72788483219952 
2472	 3.54114118734668 
2473	 2.34497762177264 
2474	 2.19826495177932 
2475	 3.15775385190745 
2476	 0.509686403900897 
2477	 4.77066502039341 
2478	 0.335534877617909 
2479	 0.447403450722376 
2480	 1.67121788577752 
2481	 0.200478725624087 
2482	-0.135045410471055 
2483	 2.72896922997392E-02 
2484	 0.126757148938572 
2485	-6.99666356064994E-02 
2486	-8.20181951835135E-02 
2487	-0.165353820608182 
2488	-1.09247361973114 
2489	-1.62666676709109 
2490	 0.169366185279305 
2491	 0.523951062989967 
2492	 0.374064059234675 
2493	 0.432944540307107 
2494	 0.293658641288288 
2495	 0.183984950069015 
2496	-0.189298736672047 
2497	-0.531684090198215 
2498	-0.280067204920805 
2499	 0.330233314623883 
2500	-4.70325426715982 
