Wavelength	rt0801far00001.asd
350	 4.58496823701748E-02 
351	 4.54046440139403E-02 
352	 4.63051533807937E-02 
353	 4.64941481328739E-02 
354	 4.53836393207246E-02 
355	 0.046050628942133 
356	 4.63987918287385E-02 
357	 4.63566779096378E-02 
358	 4.62927706455186E-02 
359	 4.56047262837426E-02 
360	 0.045283662880122 
361	 4.55734376519052E-02 
362	 4.61239580115372E-02 
363	 4.66663918975681E-02 
364	 4.68030486328315E-02 
365	 4.64008669675137E-02 
366	 0.045677886425891 
367	 4.54128006199261E-02 
368	 4.56379859149792E-02 
369	 4.60944577119949E-02 
370	 4.64836001190614E-02 
371	 4.62557031166331E-02 
372	 4.60119711271616E-02 
373	 4.67513504727084E-02 
374	 4.66060847477233E-02 
375	 4.61919604232792E-02 
376	 4.60538836308342E-02 
377	 4.62500028364976E-02 
378	 4.66339229549628E-02 
379	 4.71152365357267E-02 
380	 4.75801787319591E-02 
381	 4.78433101957818E-02 
382	 4.75485286789518E-02 
383	 4.72538806760964E-02 
384	 4.77377867922374E-02 
385	 4.79761718525197E-02 
386	 4.80759874388164E-02 
387	 4.80820276897218E-02 
388	 4.79022098678683E-02 
389	 4.87689193645791E-02 
390	 4.92985066233615E-02 
391	 4.88033733552848E-02 
392	 4.95154120668899E-02 
393	 4.97055564964075E-02 
394	 4.94933452509809E-02 
395	 4.95720819225502E-02 
396	 4.96946782843505E-02 
397	 4.98831798226145E-02 
398	 5.01002948707262E-02 
399	 5.02509000771599E-02 
400	 5.01785744077388E-02 
401	 5.01916564809592E-02 
402	 5.04447530334825E-02 
403	 5.06216400529945E-02 
404	 5.07731121938861E-02 
405	 5.08661164755268E-02 
406	 5.08989004781837E-02 
407	 5.11926952217491E-02 
408	 0.051337622245188 
409	 5.12958793368248E-02 
410	 0.051421064438595 
411	 5.16164516888025E-02 
412	 5.17673611193201E-02 
413	 0.051851686707888 
414	 5.20841343246645E-02 
415	 5.22569009469354E-02 
416	 5.24357142784092E-02 
417	 5.27436239010175E-02 
418	 0.052910481163224 
419	 0.05324180562071 
420	 0.053680899385363 
421	 5.37665932413565E-02 
422	 5.40277996528461E-02 
423	 5.41810479262339E-02 
424	 0.0541210170261 
425	 5.47665290301259E-02 
426	 0.054978772703862 
427	 5.49697167553168E-02 
428	 5.54845793613841E-02 
429	 5.59350456680098E-02 
430	 5.63408396779089E-02 
431	 5.67742024652198E-02 
432	 0.057303449247566 
433	 5.74720869451878E-02 
434	 5.76119275137387E-02 
435	 5.80074895429839E-02 
436	 5.82466807905828E-02 
437	 5.86679159598591E-02 
438	 5.91559634757647E-02 
439	 5.93954428755398E-02 
440	 5.96689051511379E-02 
441	 5.99805776832867E-02 
442	 6.03296199859578E-02 
443	 6.07597279590576E-02 
444	 6.10461218645217E-02 
445	 6.12547119984309E-02 
446	 6.14917689173538E-02 
447	 6.16569276084366E-02 
448	 6.19105829081134E-02 
449	 6.22098948926155E-02 
450	 6.23769422278099E-02 
451	 6.25889226298704E-02 
452	 0.062667818846772 
453	 6.26167465363368E-02 
454	 6.29236257584296E-02 
455	 6.30582929933501E-02 
456	 6.31594667932127E-02 
457	 6.34611751372143E-02 
458	 6.33401661858587E-02 
459	 6.32953517993892E-02 
460	 6.34713026725255E-02 
461	 6.36006419584872E-02 
462	 6.36598566332214E-02 
463	 6.37759678811088E-02 
464	 6.39780886883637E-02 
465	 6.39209328539159E-02 
466	 6.38923043665846E-02 
467	 6.40089836439659E-02 
468	 6.42548753307753E-02 
469	 6.43491432677993E-02 
470	 6.43057539706326E-02 
471	 6.42631309928544E-02 
472	 6.44768217270693E-02 
473	 6.46184817188246E-02 
474	 6.47071016103761E-02 
475	 6.48137860578429E-02 
476	 6.48186835437719E-02 
477	 6.50202272695893E-02 
478	 6.53650062248603E-02 
479	 6.55610936046835E-02 
480	 6.55736918663328E-02 
481	 6.56972974360961E-02 
482	 6.60484039964977E-02 
483	 6.62981099719296E-02 
484	 6.65299655433088E-02 
485	 6.68239349989582E-02 
486	 0.067213117579795 
487	 6.74679193926648E-02 
488	 6.75627665029268E-02 
489	 6.76872025683228E-02 
490	 6.81930154858917E-02 
491	 6.87740025718864E-02 
492	 6.90414306078467E-02 
493	 6.89601471723542E-02 
494	 6.94815224852042E-02 
495	 0.069954531442169 
496	 7.03051222863456E-02 
497	 7.07421331915969E-02 
498	 7.12766666220413E-02 
499	 0.071624976137557 
500	 7.18180041943826E-02 
501	 7.24138064560298E-02 
502	 7.28645232998285E-02 
503	 7.31826427347516E-02 
504	 0.073552524336444 
505	 7.41482981759729E-02 
506	 7.46990007873244E-02 
507	 7.51507336775739E-02 
508	 7.56299236742028E-02 
509	 7.61145486804584E-02 
510	 7.66055090312023E-02 
511	 7.71199715543981E-02 
512	 0.077715423916209 
513	 7.83684596771733E-02 
514	 7.89526165012207E-02 
515	 7.93465606254181E-02 
516	 0.079825815694517 
517	 8.04554230624994E-02 
518	 0.081151958377935 
519	 0.081688156145191 
520	 0.082233208719934 
521	 8.28643858027831E-02 
522	 0.083582670677465 
523	 8.42020229264267E-02 
524	 8.47753400661491E-02 
525	 8.54102032126971E-02 
526	 8.62213781012933E-02 
527	 8.69154434401876E-02 
528	 8.75075819886915E-02 
529	 8.80900112349252E-02 
530	 8.88157902857644E-02 
531	 8.95685708333697E-02 
532	 9.02637177984691E-02 
533	 9.08764540857651E-02 
534	 9.16800683018957E-02 
535	 9.24755321803851E-02 
536	 9.32260935101414E-02 
537	 0.094103328267236 
538	 9.48483643986683E-02 
539	 9.55384542459567E-02 
540	 9.62969854198166E-02 
541	 9.71249785256615E-02 
542	 9.78594901564821E-02 
543	 0.098574407769867 
544	 0.099461708327218 
545	 0.100242092825175 
546	 0.100986125707499 
547	 0.101759385306579 
548	 0.102537838640015 
549	 0.103232998208015 
550	 0.103942213130746 
551	 0.104786522759906 
552	 0.105610990863776 
553	 0.106336379604737 
554	 0.107028554849664 
555	 0.107898445339123 
556	 0.10860549065109 
557	 0.109262553878821 
558	 0.110005621114049 
559	 0.110701803009763 
560	 0.111321881026043 
561	 0.111893267500899 
562	 0.112483743629304 
563	 0.113106394358981 
564	 0.113768397248766 
565	 0.114412523642481 
566	 0.114849435852153 
567	 0.115359976218781 
568	 0.115921126555974 
569	 0.116405363340044 
570	 0.116826077834123 
571	 0.117150752297247 
572	 0.117496811352712 
573	 0.118123468143576 
574	 0.118448723213379 
575	 0.118679790326386 
576	 0.119071340131653 
577	 0.11941836796163 
578	 0.11969329416394 
579	 0.119956116265338 
580	 0.120303161526065 
581	 0.120592369475187 
582	 0.120746967308947 
583	 0.120803256529575 
584	 0.120988157094948 
585	 0.12110116340917 
586	 0.121182556950317 
587	 0.121304884189209 
588	 0.121178421040281 
589	 0.121101070569025 
590	 0.121186058867416 
591	 0.121283114251505 
592	 0.121195777906436 
593	 0.12112042210045 
594	 0.12116452041022 
595	 0.120878170324255 
596	 0.120775678636219 
597	 0.120713163040113 
598	 0.120252751800913 
599	 0.119910829407517 
600	 0.11973742017127 
601	 0.119670626077729 
602	 0.119563059715817 
603	 0.119466569152936 
604	 0.119419956634196 
605	 0.119432063668825 
606	 0.119358866789317 
607	 0.119314211592924 
608	 0.119364368485201 
609	 0.119505815423106 
610	 0.119585943941597 
611	 0.119643111692957 
612	 0.119711300969639 
613	 0.119679694934472 
614	 0.119564184701675 
615	 0.119513076370026 
616	 0.119680868794393 
617	 0.119555578938388 
618	 0.119426290935636 
619	 0.119483246332386 
620	 0.11962804152633 
621	 0.119701159923374 
622	 0.119635204259115 
623	 0.119444991462592 
624	 0.119285253767742 
625	 0.11937336311163 
626	 0.119576647691123 
627	 0.119452266701808 
628	 0.119341376378357 
629	 0.119322265214667 
630	 0.119369651322809 
631	 0.119326631811537 
632	 0.119361268048611 
633	 0.119422042294356 
634	 0.11938239540741 
635	 0.119410750141931 
636	 0.119447138219722 
637	 0.119428704372616 
638	 0.119315669623715 
639	 0.119281023004555 
640	 0.119340968773481 
641	 0.119410887812705 
642	 0.119229214511281 
643	 0.119060566196013 
644	 0.11899936893879 
645	 0.118985852972339 
646	 0.118927412185425 
647	 0.118843770241855 
648	 0.118774114884427 
649	 0.118736327363964 
650	 0.118711342675472 
651	 0.118587149749579 
652	 0.11829397264233 
653	 0.118231380174573 
654	 0.118095949514372 
655	 0.117732788423283 
656	 0.117321861608888 
657	 0.117096648046209 
658	 0.116944356193639 
659	 0.116752233341839 
660	 0.116666874321679 
661	 0.116497222721725 
662	 0.116287701086199 
663	 0.116206175538092 
664	 0.11599592237187 
665	 0.115883676372865 
666	 0.115967491440597 
667	 0.116026307948974 
668	 0.115982126688408 
669	 0.115874886995872 
670	 0.11579615610718 
671	 0.115815615636956 
672	 0.115842549511152 
673	 0.115874119993898 
674	 0.115990809725633 
675	 0.116079246962425 
676	 0.116226784253228 
677	 0.116422850332246 
678	 0.116263434744165 
679	 0.116460496091601 
680	 0.116788861393982 
681	 0.116711600072308 
682	 0.116806974581873 
683	 0.117107911360387 
684	 0.117423281532425 
685	 0.117329527275527 
686	 0.117606411482607 
687	 0.11796414426823 
688	 0.117979561713332 
689	 0.118210813166034 
690	 0.11833534260423 
691	 0.118316587216027 
692	 0.118286027060224 
693	 0.118247174431686 
694	 0.118224782592623 
695	 0.118168187252935 
696	 0.117903111722931 
697	 0.117722461126104 
698	 0.117609962693381 
699	 0.117446123112369 
700	 0.117025160908287 
701	 0.116685499631163 
702	 0.116476732864144 
703	 0.116178811415809 
704	 0.115665371732779 
705	 0.115114176221233 
706	 0.114649199637058 
707	 0.114119251431096 
708	 0.113579432141407 
709	 0.112847459926328 
710	 0.111801547189912 
711	 0.111100352771187 
712	 0.110237109157689 
713	 0.109121452014821 
714	 0.108136099239615 
715	 0.107241243490529 
716	 0.106087761223162 
717	 0.104497393638647 
718	 0.103209272162837 
719	 0.101715164627 
720	 0.10036871557442 
721	 9.92768398547329E-02 
722	 0.098002526144541 
723	 9.65942657416419E-02 
724	 9.52574907882292E-02 
725	 9.37406285316496E-02 
726	 9.21013209688664E-02 
727	 9.02188845112824E-02 
728	 8.80351880166959E-02 
729	 8.57476803133963E-02 
730	 8.33368084936384E-02 
731	 8.11603886650412E-02 
732	 7.93777065247676E-02 
733	 7.76830432795049E-02 
734	 7.61222451052927E-02 
735	 7.47987509704166E-02 
736	 7.38227661973854E-02 
737	 7.32265768584125E-02 
738	 7.26614932178274E-02 
739	 7.19525452955157E-02 
740	 7.16194378900188E-02 
741	 7.14705345698908E-02 
742	 7.14435781885256E-02 
743	 7.15026552981883E-02 
744	 7.13110439922015E-02 
745	 7.12155927121802E-02 
746	 7.13372301886989E-02 
747	 7.14050417939284E-02 
748	 7.15672715140583E-02 
749	 7.16357109843675E-02 
750	 7.14917128714731E-02 
751	 7.14993074705725E-02 
752	 7.14924198118757E-02 
753	 7.15165240009379E-02 
754	 7.16808439409645E-02 
755	 7.16267686330873E-02 
756	 7.16127194610176E-02 
757	 7.17698762447002E-02 
758	 7.20259321649618E-02 
759	 7.19558033368913E-02 
760	 7.15512624470271E-02 
761	 7.15678709977517E-02 
762	 7.21263291837276E-02 
763	 7.22363024554315E-02 
764	 0.072184337465573 
765	 0.072480740728493 
766	 7.26767077627289E-02 
767	 7.28432153953356E-02 
768	 7.30484727165958E-02 
769	 7.33331904830046E-02 
770	 7.34722849917626E-02 
771	 7.34982369097671E-02 
772	 7.35757606499336E-02 
773	 7.41086776752427E-02 
774	 7.43649658577597E-02 
775	 7.44544058477236E-02 
776	 7.47960802380575E-02 
777	 7.51768638899906E-02 
778	 7.54295618311892E-02 
779	 7.56462739438555E-02 
780	 7.61470039461618E-02 
781	 7.65017385793076E-02 
782	 7.67561667924108E-02 
783	 7.70194085547209E-02 
784	 7.73331501820276E-02 
785	 7.77084527442534E-02 
786	 7.81234494288054E-02 
787	 7.85348293153011E-02 
788	 7.88945360325193E-02 
789	 7.93277307783017E-02 
790	 7.97989077815153E-02 
791	 8.01520551104587E-02 
792	 8.03781385987651E-02 
793	 8.07352657855035E-02 
794	 8.12178024104482E-02 
795	 8.13053442687248E-02 
796	 8.17073071649919E-02 
797	 8.22623054416841E-02 
798	 8.26541928671757E-02 
799	 8.28686085502604E-02 
800	 8.30353387061403E-02 
801	 0.08326382094994 
802	 0.08359364007325 
803	 8.37365169456851E-02 
804	 8.36885932052044E-02 
805	 8.36301307480794E-02 
806	 8.38630867177317E-02 
807	 8.37141185395598E-02 
808	 8.34629584700779E-02 
809	 8.34002891785061E-02 
810	 0.083310848393409 
811	 8.31477518885885E-02 
812	 8.28455850442263E-02 
813	 8.23760525684294E-02 
814	 8.19386066331192E-02 
815	 8.14358320957575E-02 
816	 8.08919769314511E-02 
817	 0.080408944710411 
818	 7.99140366636855E-02 
819	 7.89363736823931E-02 
820	 7.76579099606343E-02 
821	 7.71202375669809E-02 
822	 7.60599751984468E-02 
823	 7.46081948306576E-02 
824	 7.31889102400656E-02 
825	 7.17254137929808E-02 
826	 6.97698639740423E-02 
827	 6.76074427358538E-02 
828	 6.58706993507313E-02 
829	 0.064043117331069 
830	 6.24094523218916E-02 
831	 6.09766744228675E-02 
832	 5.96003413429102E-02 
833	 5.83519580253043E-02 
834	 5.73015583153832E-02 
835	 5.64888746203415E-02 
836	 5.59407729398371E-02 
837	 5.55336632253928E-02 
838	 5.50174478934459E-02 
839	 5.43922998848605E-02 
840	 5.43385517802647E-02 
841	 5.42813482160082E-02 
842	 5.38999145234428E-02 
843	 5.31552612612316E-02 
844	 5.27392351885324E-02 
845	 5.24471588616609E-02 
846	 5.21552610748677E-02 
847	 5.18421237800576E-02 
848	 0.051747281269875 
849	 5.13608873269669E-02 
850	 5.06706910956577E-02 
851	 5.03670864209392E-02 
852	 5.03089257379661E-02 
853	 4.99680625489016E-02 
854	 4.92791060749753E-02 
855	 4.92815087917429E-02 
856	 4.92640910361902E-02 
857	 4.91424822317418E-02 
858	 4.90147751650466E-02 
859	 4.90046573908015E-02 
860	 4.86829670626847E-02 
861	 4.81578576774669E-02 
862	 4.77856815173033E-02 
863	 4.75613502077242E-02 
864	 4.72903628201699E-02 
865	 4.69348406180375E-02 
866	 4.66297477847779E-02 
867	 4.65265586063123E-02 
868	 4.64443214195708E-02 
869	 4.60324879741282E-02 
870	 4.48541116081126E-02 
871	 4.49032922170487E-02 
872	 4.52119103332403E-02 
873	 4.47772118860136E-02 
874	 4.40356009080075E-02 
875	 4.35136743500875E-02 
876	 4.29804217437328E-02 
877	 0.042296289830867 
878	 4.27168735581378E-02 
879	 0.042444210957737 
880	 4.15539487897237E-02 
881	 4.09923402175169E-02 
882	 4.06817515674689E-02 
883	 4.04776471526276E-02 
884	 4.02053300939642E-02 
885	 3.97251006518917E-02 
886	 3.92347918210869E-02 
887	 3.87874281632703E-02 
888	 3.84472382123282E-02 
889	 3.82830331080339E-02 
890	 3.78771016719378E-02 
891	 0.037568532233618 
892	 3.75412784372946E-02 
893	 3.73789907976201E-02 
894	 3.71866676510343E-02 
895	 3.67736901839849E-02 
896	 3.60725344201659E-02 
897	 3.56705929757229E-02 
898	 3.53864844099655E-02 
899	 3.47745901829172E-02 
900	 3.37730933452239E-02 
901	 3.36794946457315E-02 
902	 3.39791621829979E-02 
903	 3.43890973953243E-02 
904	 3.45358078655501E-02 
905	 3.30200598354744E-02 
906	 3.17688130845725E-02 
907	 3.12822894993665E-02 
908	 3.09406086866523E-02 
909	 0.031289914047853 
910	 3.14987878357844E-02 
911	 3.10869594679427E-02 
912	 3.00477920678468E-02 
913	 2.77206554719645E-02 
914	 0.027654809457192 
915	 2.92663640622084E-02 
916	 2.74725788326306E-02 
917	 2.61965111126644E-02 
918	 2.61004171593197E-02 
919	 2.61368394974467E-02 
920	 2.40432594791602E-02 
921	 2.51691920629015E-02 
922	 2.54814193858904E-02 
923	 2.26751486278101E-02 
924	 2.20521632236684E-02 
925	 2.23236639690636E-02 
926	 2.19019603037426E-02 
927	 1.98922119725699E-02 
928	 1.97861224817423E-02 
929	 1.89410260489619E-02 
930	 1.86010607686397E-02 
931	 2.23546034839164E-02 
932	 2.66223938968714E-02 
933	 2.76174892064578E-02 
934	 2.24066621311354E-02 
935	 1.43230253147368E-02 
936	 1.49847961903114E-02 
937	 1.75508982234195E-02 
938	 1.92178042086548E-02 
939	 2.03314576944114E-02 
940	 2.68081588289503E-02 
941	 2.41299294378221E-02 
942	 1.67879979805391E-02 
943	 1.67408364881648E-02 
944	 1.41132064990823E-02 
945	 1.11700754766999E-02 
946	 7.64933225785088E-03 
947	 4.12165303782394E-03 
948	 1.53028807362538E-02 
949	 0.021656970433313 
950	 1.87534082081655E-02 
951	 1.35251351201855E-02 
952	 1.17369490522805E-02 
953	 1.05289549528637E-02 
954	 1.20214437717492E-02 
955	 1.92695232894651E-02 
956	 1.95035229679475E-02 
957	 0.015053227616912 
958	 1.25696496843898E-02 
959	 1.76152168319979E-02 
960	 1.55641741925096E-02 
961	 1.53288312660436E-02 
962	 1.72482579788441E-02 
963	 1.60806070102028E-02 
964	 1.77228176615223E-02 
965	 1.56845758101625E-02 
966	 1.07772272101017E-02 
967	 8.78511684538757E-03 
968	 1.13670721231175E-02 
969	 1.51710021338623E-02 
970	 1.64010736025621E-02 
971	 1.26321962428183E-02 
972	 1.18325853905588E-02 
973	 1.33053468367463E-02 
974	 1.37523238523664E-02 
975	 9.93351668677341E-03 
976	 1.09554094395884E-02 
977	 1.20548009376925E-02 
978	 1.12166025034367E-02 
979	 1.05345184419884E-02 
980	 1.27709543569122E-02 
981	 0.012086914259675 
982	 1.02667905504042E-02 
983	 1.36131823255931E-02 
984	 1.14829368031231E-02 
985	 1.33356072364306E-02 
986	 1.62845704090619E-02 
987	 1.02163638098472E-02 
988	 1.22741427720017E-02 
989	 1.47365993230275E-02 
990	 1.39429395200563E-02 
991	 1.16362614578723E-02 
992	 1.15693153931799E-02 
993	 1.38168678416163E-02 
994	 1.47097421094643E-02 
995	 1.06291725732896E-02 
996	 1.17171139377312E-02 
997	 0.010854446586267 
998	 9.63957455625489E-03 
999	 1.34609755513171E-02 
1000	 1.31765734861688E-02 
1001	 0.013088076591646 
1002	 1.28849731639173E-02 
1003	 0.012294356726023 
1004	 1.08379124169069E-02 
1005	 1.06631188217305E-02 
1006	 1.11409778578584E-02 
1007	 1.06375176512853E-02 
1008	 1.13834739393415E-02 
1009	 1.24416520515759E-02 
1010	 1.23468234312259E-02 
1011	 1.24710630072373E-02 
1012	 1.22008892145364E-02 
1013	 1.16742283129721E-02 
1014	 1.15020370286086E-02 
1015	 1.11914447598842E-02 
1016	 1.12303570389074E-02 
1017	 1.18652186365948E-02 
1018	 1.19193608393544E-02 
1019	 1.16637866691314E-02 
1020	 1.16939734130097E-02 
1021	 1.14930330312527E-02 
1022	 1.18533809421008E-02 
1023	 1.22106470810932E-02 
1024	 1.23910000953844E-02 
1025	 1.26471895416017E-02 
1026	 1.24869723644415E-02 
1027	 1.24450166647933E-02 
1028	 1.21727876169963E-02 
1029	 1.23800019960943E-02 
1030	 1.27939752357295E-02 
1031	 1.31087197075854E-02 
1032	 1.39722575535254E-02 
1033	 1.41381853965704E-02 
1034	 1.38363224626555E-02 
1035	 0.013631974749836 
1036	 1.26014553891944E-02 
1037	 1.25777803730614E-02 
1038	 1.34260967227033E-02 
1039	 1.38556744238542E-02 
1040	 0.014263905549653 
1041	 0.01429708261632 
1042	 1.38172593854676E-02 
1043	 1.17168254425329E-02 
1044	 0.011951732980569 
1045	 1.33358042989746E-02 
1046	 1.38360127979829E-02 
1047	 1.53783533698359E-02 
1048	 1.57017187403759E-02 
1049	 1.45058065177423E-02 
1050	 1.42617114705049E-02 
1051	 1.40679304137847E-02 
1052	 0.014207615939571 
1053	 1.50387654669114E-02 
1054	 1.53516229779577E-02 
1055	 1.58073387138349E-02 
1056	 1.59067024860895E-02 
1057	 1.57160915798917E-02 
1058	 1.48063108126479E-02 
1059	 1.47496428438604E-02 
1060	 1.47531566724199E-02 
1061	 1.49863231706568E-02 
1062	 0.015959538340195 
1063	 1.61812921629368E-02 
1064	 1.59474379701058E-02 
1065	 1.61072269009675E-02 
1066	 1.61565636166118E-02 
1067	 0.016323660262787 
1068	 1.70735802058336E-02 
1069	 1.72661925898413E-02 
1070	 1.71201013320352E-02 
1071	 1.69300185375784E-02 
1072	 1.63197946954617E-02 
1073	 1.58464815119939E-02 
1074	 1.57253282119561E-02 
1075	 1.58058401697254E-02 
1076	 1.58410612468009E-02 
1077	 1.63520557614096E-02 
1078	 1.61814220006712E-02 
1079	 1.53724232080609E-02 
1080	 1.51627690950133E-02 
1081	 0.015019093166841 
1082	 1.48523193385996E-02 
1083	 1.50591369662856E-02 
1084	 1.51060272266424E-02 
1085	 1.48178533143654E-02 
1086	 1.47691843726633E-02 
1087	 1.52401245896875E-02 
1088	 1.51638996881179E-02 
1089	 1.48638867071753E-02 
1090	 1.42566449220355E-02 
1091	 1.40052101502405E-02 
1092	 0.013558500392103 
1093	 1.33839578958636E-02 
1094	 1.36028384175163E-02 
1095	 1.36279482378456E-02 
1096	 1.33445072128746E-02 
1097	 1.35326520166694E-02 
1098	 1.46844448595096E-02 
1099	 1.46668349225092E-02 
1100	 1.40694594070616E-02 
1101	 1.36101966608333E-02 
1102	 1.18909912331101E-02 
1103	 1.10444130051742E-02 
1104	 1.03697243083275E-02 
1105	 0.01111721397857 
1106	 1.18760221135441E-02 
1107	 1.18173216134577E-02 
1108	 1.39051816966698E-02 
1109	 1.51378149782787E-02 
1110	 1.56254378617818E-02 
1111	 1.63844931268733E-02 
1112	 1.62863085959505E-02 
1113	 1.25115063458686E-02 
1114	 1.14295155970059E-02 
1115	 1.20373936074709E-02 
1116	 1.17124099478126E-02 
1117	 1.46714070971619E-02 
1118	 0.014551305112312 
1119	 9.18056355766295E-03 
1120	 2.54738305476653E-03 
1121	-1.27259712528548E-02 
1122	-2.60544900542611E-02 
1123	-2.69875472592408E-02 
1124	-1.65855008873706E-02 
1125	-8.04225039109324E-03 
1126	 1.07793491039221E-02 
1127	 1.71859955686941E-02 
1128	 6.56968566976061E-03 
1129	 7.78549298894101E-03 
1130	 1.45567218037343E-02 
1131	 0.012388100184152 
1132	 7.67000555114005E-03 
1133	 6.18878179359825E-03 
1134	 1.31961328583597E-03 
1135	 3.22800686987501E-03 
1136	 1.18680031828348E-02 
1137	 1.16564185666529E-02 
1138	 1.05655998708155E-02 
1139	 8.54265323559195E-03 
1140	-2.34088292555498E-03 
1141	-6.17061084607039E-03 
1142	-8.61572880231054E-04 
1143	 2.86545362051866E-03 
1144	 1.08838692008283E-02 
1145	 1.37938701690295E-02 
1146	 9.26384942472363E-03 
1147	 7.53908043435621E-03 
1148	 6.77201489438641E-03 
1149	 6.26306409384055E-03 
1150	 7.32457981525796E-03 
1151	 1.25118569517295E-02 
1152	 0.011389767081876 
1153	 7.54294250346722E-03 
1154	 8.51536373544555E-03 
1155	 1.02436049732284E-02 
1156	 9.18345254289584E-03 
1157	 1.22215080348752E-02 
1158	 1.39111590834487E-02 
1159	 1.11895906037179E-02 
1160	 1.01113290237726E-02 
1161	 1.04672452127969E-02 
1162	 8.82918373198978E-03 
1163	 8.61918224346201E-03 
1164	 1.01852159439785E-02 
1165	 0.010055579657892 
1166	 9.4470276006318E-03 
1167	 1.01414931981777E-02 
1168	 1.07231507382902E-02 
1169	 1.01060100325255E-02 
1170	 9.69948408352769E-03 
1171	 9.4716203244462E-03 
1172	 8.33169344886609E-03 
1173	 8.20161083358034E-03 
1174	 8.87438567593313E-03 
1175	 9.49620464032355E-03 
1176	 9.63827628912368E-03 
1177	 1.02955601724283E-02 
1178	 1.05160081028266E-02 
1179	 1.02716742282196E-02 
1180	 1.01898496727992E-02 
1181	 1.01698855803533E-02 
1182	 9.67747349622831E-03 
1183	 9.92648460713572E-03 
1184	 1.06187527992462E-02 
1185	 9.46596837114337E-03 
1186	 8.93548000473366E-03 
1187	 9.99829087807188E-03 
1188	 0.010325739878494 
1189	 0.010614489464118 
1190	 1.12687666093673E-02 
1191	 1.10203319826889E-02 
1192	 1.09237415532255E-02 
1193	 1.05832566861378E-02 
1194	 1.12600031249821E-02 
1195	 1.11399096217926E-02 
1196	 1.03825777809276E-02 
1197	 1.02070976555923E-02 
1198	 1.02304564232809E-02 
1199	 1.03440512295413E-02 
1200	 1.06933627892388E-02 
1201	 1.06308964320061E-02 
1202	 0.010284260056586 
1203	 1.04685709562733E-02 
1204	 1.09603374455281E-02 
1205	 1.09305769617372E-02 
1206	 1.04821106506408E-02 
1207	 1.05638401273423E-02 
1208	 1.05331024077599E-02 
1209	 9.88546166530256E-03 
1210	 1.00110204916638E-02 
1211	 1.07058090766229E-02 
1212	 1.06257065834322E-02 
1213	 1.05033797693049E-02 
1214	 0.010788374801266 
1215	 1.14708963127252E-02 
1216	 1.09891726122206E-02 
1217	 1.05052713958308E-02 
1218	 1.13187516061226E-02 
1219	 1.12599060170919E-02 
1220	 1.04607441433107E-02 
1221	 1.06663781902221E-02 
1222	 1.10206577280342E-02 
1223	 1.09578864638579E-02 
1224	 1.08680978323068E-02 
1225	 0.010664918657066 
1226	 0.01060283297627 
1227	 1.05293300318802E-02 
1228	 1.02148975512524E-02 
1229	 1.02279459805259E-02 
1230	 1.02369340046751E-02 
1231	 9.94726291695719E-03 
1232	 1.01769891037697E-02 
1233	 1.06112065475509E-02 
1234	 1.02305861897886E-02 
1235	 1.01619068326193E-02 
1236	 1.02707330602984E-02 
1237	 1.03762144806256E-02 
1238	 1.05280442305896E-02 
1239	 1.06096501435413E-02 
1240	 1.04472480738203E-02 
1241	 1.02792282139036E-02 
1242	 1.06087655031068E-02 
1243	 1.08085445457568E-02 
1244	 1.08504117070952E-02 
1245	 1.09565408522229E-02 
1246	 1.04476985538325E-02 
1247	 9.96062861445528E-03 
1248	 1.01759907021765E-02 
1249	 1.03653053346307E-02 
1250	 1.01810971703269E-02 
1251	 9.96610460598702E-03 
1252	 1.01463720094345E-02 
1253	 1.02497488366325E-02 
1254	 1.01996943409151E-02 
1255	 1.04093109391454E-02 
1256	 1.05489484290044E-02 
1257	 1.03331892467559E-02 
1258	 1.04511474737835E-02 
1259	 1.11850469998265E-02 
1260	 1.10838928927304E-02 
1261	 1.01391190187137E-02 
1262	 1.00816957908512E-02 
1263	 9.96435197483615E-03 
1264	 1.04048488164467E-02 
1265	 1.09843070186481E-02 
1266	 1.12153505421694E-02 
1267	 0.010963347151839 
1268	 1.06456799195647E-02 
1269	 1.07162273658328E-02 
1270	 1.05435069296185E-02 
1271	 1.02564891335639E-02 
1272	 1.03643527235348E-02 
1273	 1.03866243444628E-02 
1274	 1.04815623008571E-02 
1275	 1.07032150498479E-02 
1276	 0.010553534616086 
1277	 1.04182044136106E-02 
1278	 0.010713839260573 
1279	 0.010744461962846 
1280	 1.00525045406336E-02 
1281	 9.95747772255916E-03 
1282	 9.8611712403546E-03 
1283	 9.85643840788001E-03 
1284	 0.010551760815423 
1285	 1.08816534053624E-02 
1286	 1.07555698108116E-02 
1287	 1.07574150304624E-02 
1288	 1.07204318449613E-02 
1289	 1.07207018524976E-02 
1290	 1.05760466636257E-02 
1291	 1.09579284714146E-02 
1292	 1.11215016901157E-02 
1293	 1.07418360545206E-02 
1294	 1.03750131973159E-02 
1295	 1.06111888646103E-02 
1296	 1.10735924659307E-02 
1297	 1.09956680527638E-02 
1298	 1.07443460290121E-02 
1299	 1.05317657479266E-02 
1300	 1.05835746668757E-02 
1301	 1.11251490250614E-02 
1302	 1.12634862056995E-02 
1303	 0.010803055981 
1304	 1.04807374328818E-02 
1305	 1.04951505749686E-02 
1306	 9.96149386836234E-03 
1307	 9.40832777874145E-03 
1308	 9.0858259729588E-03 
1309	 8.17544627784379E-03 
1310	 7.5886050332889E-03 
1311	 7.86941175032733E-03 
1312	 8.23967055664699E-03 
1313	 8.31440973477634E-03 
1314	 8.32061727474149E-03 
1315	 9.03417475756847E-03 
1316	 9.25076317218586E-03 
1317	 8.76883750366464E-03 
1318	 8.58435335552218E-03 
1319	 8.30735478209753E-03 
1320	 8.63408293202831E-03 
1321	 9.21697662523354E-03 
1322	 1.01084136816789E-02 
1323	 1.13396375962245E-02 
1324	 0.01077877097685 
1325	 8.8967915187345E-03 
1326	 7.98856939742725E-03 
1327	 7.27611852625539E-03 
1328	 8.07934193871957E-03 
1329	 1.02808931317455E-02 
1330	 9.82152676038154E-03 
1331	 9.13856899760842E-03 
1332	 9.99735332885615E-03 
1333	 9.48315469150477E-03 
1334	 1.05616785335111E-02 
1335	 1.08032655116153E-02 
1336	 1.04672745021447E-02 
1337	 9.50256646568771E-03 
1338	 7.3112497941513E-03 
1339	 7.20378646208609E-03 
1340	 8.83191566358564E-03 
1341	 8.9928021141822E-03 
1342	 9.25446286697859E-03 
1343	 1.03550576566088E-02 
1344	 1.06431814898471E-02 
1345	 1.00718470926731E-02 
1346	 1.37404012869663E-02 
1347	 0.014004029136849 
1348	 2.3825808868322E-03 
1349	-7.32127974812837E-03 
1350	-1.77254394743259E-02 
1351	-2.99494458670234E-02 
1352	-4.19502045455205E-02 
1353	-0.053228666559864 
1354	-0.048643145594348 
1355	-3.77005510814952E-02 
1356	 3.20435369704397E-02 
1357	 7.19378847517234E-02 
1358	 5.06405489822384E-02 
1359	-3.82290555804652E-02 
1360	-0.36304883096322 
1361	-0.598300242297539 
1362	-0.468097847613583 
1363	-0.121126544377253 
1364	-0.255175326073774 
1365	-1.42021034537569 
1366	-4.46377144713572 
1367	-1.39307104198384 
1368	-3.47827749180884 
1369	 2.21864375442983 
1370	 0.969918931485557 
1371	 0.333281848018056 
1372	 8.08285116423719E-02 
1373	 2.94788848880729E-02 
1374	 0.119718742041433 
1375	 0.525170466694486 
1376	 0.290594183826077 
1377	-0.784503782549829 
1378	-1.04902275038025 
1379	-0.554680903615132 
1380	-0.818325682110862 
1381	 0.111878624935683 
1382	 1.55643780014655 
1383	 0.957662826644741 
1384	 0.601279963296849 
1385	 0.579003971184072 
1386	 0.563001022270262 
1387	-0.631904135470938 
1388	-0.992425161640875 
1389	 0.389166738314093 
1390	 0.408251973785888 
1391	 0.356036568107772 
1392	-0.572307369586833 
1393	-1.31269561261622 
1394	-2.57983291522359 
1395	-5.08255278772172 
1396	-2.00738969540157 
1397	-0.490723075629235 
1398	 0.032492284995017 
1399	-0.126644367145662 
1400	-0.535305359647344 
1401	-1.14942140088103 
1402	-0.752260741237475 
1403	-9.85621129705115E-02 
1404	-0.210920171881251 
1405	-0.285071983153844 
1406	-0.682206904200848 
1407	-0.703740224509129 
1408	-1.28691244451228 
1409	-1.53220569555603 
1410	-0.337677564321538 
1411	 0.319724976009159 
1412	 1.68804957190404 
1413	 0.826122735572938 
1414	-0.895063550195309 
1415	-0.853792041667851 
1416	-0.837919993687671 
1417	-0.834136701098754 
1418	-0.587714579251262 
1419	-0.440607514036932 
1420	-0.386385425142373 
1421	-0.384242851723175 
1422	-0.179909859569239 
1423	-0.133521060362835 
1424	-0.412629302964173 
1425	-0.389650524391215 
1426	-0.101187148522617 
1427	-5.08048089625153E-02 
1428	-0.109235110727575 
1429	-5.10980489598032E-02 
1430	-0.037876500044822 
1431	-4.93099941421371E-02 
1432	-1.86504618468045E-02 
1433	 2.18745000311863E-02 
1434	 8.94212057359068E-02 
1435	 7.37508255091281E-02 
1436	 4.98674940508873E-02 
1437	-3.87137076871391E-03 
1438	-8.22771808222889E-03 
1439	-5.94939762328207E-02 
1440	-3.62540748634047E-02 
1441	 5.14297093085861E-02 
1442	 9.19553320131667E-02 
1443	 8.90358545674899E-02 
1444	 7.83845628964575E-02 
1445	 6.50152915612116E-02 
1446	 2.52749468165249E-02 
1447	 3.47782005477571E-03 
1448	 2.24716694599607E-02 
1449	 2.18952473814804E-02 
1450	 5.16020098661619E-03 
1451	 5.42756859819057E-03 
1452	 8.11627454192852E-03 
1453	 6.03906976571061E-03 
1454	 5.35725033500479E-03 
1455	 5.07791929834396E-03 
1456	 8.34853481243193E-03 
1457	 1.30069544696786E-02 
1458	 1.20265683793137E-02 
1459	 0.012273578286233 
1460	 1.15987878931145E-02 
1461	 6.10605516115465E-03 
1462	 4.24445202124713E-03 
1463	 5.27976278709783E-03 
1464	 4.2647583863176E-03 
1465	-1.77530379621033E-03 
1466	-1.60690025214621E-03 
1467	 7.37571701080694E-03 
1468	 7.44960820892513E-03 
1469	 3.66046041503517E-03 
1470	 7.43851526932433E-03 
1471	 1.17375940080914E-02 
1472	 8.66954531588342E-03 
1473	 4.79090650981224E-03 
1474	 6.99298195711692E-03 
1475	 8.88679034879675E-03 
1476	 4.11901847198417E-03 
1477	-1.35682720686297E-03 
1478	 1.97165936862462E-03 
1479	 4.22851844767097E-03 
1480	 3.93279947784463E-03 
1481	 9.34693096018472E-03 
1482	 1.20619618748697E-02 
1483	 9.17437309019641E-03 
1484	 8.76384316604305E-03 
1485	 0.01332888639118 
1486	 1.35719748553085E-02 
1487	 9.82768345583755E-03 
1488	 7.9855104641504E-03 
1489	 6.49153473577794E-03 
1490	 0.006140233637426 
1491	 5.94307601280013E-03 
1492	 6.1302501981602E-03 
1493	 7.03104507585492E-03 
1494	 0.007700252182159 
1495	 8.7278977998734E-03 
1496	 8.92217799470396E-03 
1497	 9.01138171065623E-03 
1498	 8.89078597657081E-03 
1499	 7.78885875852456E-03 
1500	 7.47479062913006E-03 
1501	 7.74265993508212E-03 
1502	 7.7488741263181E-03 
1503	 7.74648961314926E-03 
1504	 7.85013292883919E-03 
1505	 8.12658414507887E-03 
1506	 7.91321496275672E-03 
1507	 7.58113600628292E-03 
1508	 7.28779348452314E-03 
1509	 7.17696419905394E-03 
1510	 7.21047114441383E-03 
1511	 6.95264053301503E-03 
1512	 7.51333995305056E-03 
1513	 7.72610028283981E-03 
1514	 6.72289697717987E-03 
1515	 6.76153456937702E-03 
1516	 7.64429386821069E-03 
1517	 8.11245076198321E-03 
1518	 8.38443993572696E-03 
1519	 7.81604876411596E-03 
1520	 7.48514212338254E-03 
1521	 7.96662251857381E-03 
1522	 7.63595558615364E-03 
1523	 6.81024163045524E-03 
1524	 6.72329479239303E-03 
1525	 7.01880637289837E-03 
1526	 6.76005374746425E-03 
1527	 6.60800846631342E-03 
1528	 6.75299478558541E-03 
1529	 6.48978063877663E-03 
1530	 6.44387707579716E-03 
1531	 7.26868673920184E-03 
1532	 7.6135445155488E-03 
1533	 7.2880196747352E-03 
1534	 7.42775269625086E-03 
1535	 7.67632673991599E-03 
1536	 8.03842738209074E-03 
1537	 7.91943221824592E-03 
1538	 7.37700437520728E-03 
1539	 7.61448822379311E-03 
1540	 7.64946607684771E-03 
1541	 6.99923995444739E-03 
1542	 7.07438118679063E-03 
1543	 7.73145190061286E-03 
1544	 7.89885375037395E-03 
1545	 8.01437368914239E-03 
1546	 8.08395546300123E-03 
1547	 7.34064811406419E-03 
1548	 6.45436873360431E-03 
1549	 6.78638666624414E-03 
1550	 7.50750305230867E-03 
1551	 7.34055955631588E-03 
1552	 7.23287508561859E-03 
1553	 7.49318181124941E-03 
1554	 7.87708090533533E-03 
1555	 8.10109831115584E-03 
1556	 7.85613586593204E-03 
1557	 7.91104365146647E-03 
1558	 8.12307847156277E-03 
1559	 8.10997305077052E-03 
1560	 8.32993709088085E-03 
1561	 8.5301079975271E-03 
1562	 8.12360141459771E-03 
1563	 8.01839654942947E-03 
1564	 8.69594275480476E-03 
1565	 9.01901194500982E-03 
1566	 8.85081582139879E-03 
1567	 8.78971179010097E-03 
1568	 9.01287855504357E-03 
1569	 9.26510126540959E-03 
1570	 9.38281761303628E-03 
1571	 9.26501347050921E-03 
1572	 8.94771343234213E-03 
1573	 8.55700633825575E-03 
1574	 8.17890569209601E-03 
1575	 8.23179893798362E-03 
1576	 8.55111889757871E-03 
1577	 8.50236796650414E-03 
1578	 8.24809257605928E-03 
1579	 8.33009987214738E-03 
1580	 8.53352588069638E-03 
1581	 8.43222782780343E-03 
1582	 8.30671418205403E-03 
1583	 8.97714776621151E-03 
1584	 9.42133665997939E-03 
1585	 8.79318840499217E-03 
1586	 8.42365219228847E-03 
1587	 8.30467439424629E-03 
1588	 8.20217563247346E-03 
1589	 0.008804863230376 
1590	 9.35904058983191E-03 
1591	 9.43597974042642E-03 
1592	 9.15684517309138E-03 
1593	 8.67573202783095E-03 
1594	 9.03886304732541E-03 
1595	 9.05539996019541E-03 
1596	 8.55916737471015E-03 
1597	 8.94210891236469E-03 
1598	 9.37851699123345E-03 
1599	 9.41199878313823E-03 
1600	 9.11585795031513E-03 
1601	 8.46671895721175E-03 
1602	 8.28353427602171E-03 
1603	 9.00728942013954E-03 
1604	 9.0343803362713E-03 
1605	 8.57978651800223E-03 
1606	 8.72884391448845E-03 
1607	 8.20147131349217E-03 
1608	 7.67297382898357E-03 
1609	 7.91943324040278E-03 
1610	 7.94036161712215E-03 
1611	 7.84443617262203E-03 
1612	 7.60084439707074E-03 
1613	 7.32246910578062E-03 
1614	 7.53973160673139E-03 
1615	 8.0139263650031E-03 
1616	 8.73368154207804E-03 
1617	 9.28422489054996E-03 
1618	 9.28262736468951E-03 
1619	 8.84679278442439E-03 
1620	 8.7097922527254E-03 
1621	 9.50931292219174E-03 
1622	 9.66362909625857E-03 
1623	 9.32753027091034E-03 
1624	 9.70250426661952E-03 
1625	 9.71302265421255E-03 
1626	 9.4336353579957E-03 
1627	 9.09172375060711E-03 
1628	 8.47613667093676E-03 
1629	 8.3389784822843E-03 
1630	 8.67918231662111E-03 
1631	 9.04948314600339E-03 
1632	 9.03181793784779E-03 
1633	 7.97060227684418E-03 
1634	 7.27087843521783E-03 
1635	 7.58006426542177E-03 
1636	 7.50705677310824E-03 
1637	 8.07558082696717E-03 
1638	 8.55067719448541E-03 
1639	 8.1617334621585E-03 
1640	 8.32925495488821E-03 
1641	 8.05116516862719E-03 
1642	 7.54390177789272E-03 
1643	 7.88723478188738E-03 
1644	 8.16053666276308E-03 
1645	 8.20323195396961E-03 
1646	 8.65600378297641E-03 
1647	 8.90122628430111E-03 
1648	 8.91795865850797E-03 
1649	 9.46699918262589E-03 
1650	 9.9899726793744E-03 
1651	 1.01493792382933E-02 
1652	 9.73526787870993E-03 
1653	 9.25024685491256E-03 
1654	 8.93318029993669E-03 
1655	 8.18010603103161E-03 
1656	 7.91113507169002E-03 
1657	 7.8746987678182E-03 
1658	 7.88745038885981E-03 
1659	 8.14798563353025E-03 
1660	 8.24480602820517E-03 
1661	 8.56875071121999E-03 
1662	 8.99426982113413E-03 
1663	 9.36399458321439E-03 
1664	 9.18074640517376E-03 
1665	 8.69211450570656E-03 
1666	 8.29868773221792E-03 
1667	 7.54934229580163E-03 
1668	 8.45723777887507E-03 
1669	 8.90227390253126E-03 
1670	 8.35948949640661E-03 
1671	 7.72129524340837E-03 
1672	 7.68476748313482E-03 
1673	 7.72262093720586E-03 
1674	 7.72003254143166E-03 
1675	 7.83440240308368E-03 
1676	 7.92997038219353E-03 
1677	 8.57598832239811E-03 
1678	 9.35306413474666E-03 
1679	 9.52201580986974E-03 
1680	 9.37458161110089E-03 
1681	 8.93496146623462E-03 
1682	 8.98453958676235E-03 
1683	 9.48439844295232E-03 
1684	 9.87250979235711E-03 
1685	 9.32947336639464E-03 
1686	 8.40781559022583E-03 
1687	 8.68088125263449E-03 
1688	 9.03189185968334E-03 
1689	 9.1650302418474E-03 
1690	 9.76565191836043E-03 
1691	 9.99073624258976E-03 
1692	 9.35549084253539E-03 
1693	 8.63787101805105E-03 
1694	 8.70549378871991E-03 
1695	 9.62696212316915E-03 
1696	 9.48059240014859E-03 
1697	 9.21358266586474E-03 
1698	 1.01113442973583E-02 
1699	 9.12018252767219E-03 
1700	 8.32385882968124E-03 
1701	 9.44023609696551E-03 
1702	 8.93041411976859E-03 
1703	 8.08660947301334E-03 
1704	 8.7777523536324E-03 
1705	 8.70356301812957E-03 
1706	 8.42040391716463E-03 
1707	 9.49176076907109E-03 
1708	 1.01771992917357E-02 
1709	 9.88202421260467E-03 
1710	 9.35338795208768E-03 
1711	 8.42328138395147E-03 
1712	 7.30072124722651E-03 
1713	 8.36614101674093E-03 
1714	 8.53805824449878E-03 
1715	 8.50680270755879E-03 
1716	 9.12392052896648E-03 
1717	 8.12789660627232E-03 
1718	 7.02842438727028E-03 
1719	 7.22898877629764E-03 
1720	 7.51312657981894E-03 
1721	 8.30188150603332E-03 
1722	 8.7601088985435E-03 
1723	 7.98072532789929E-03 
1724	 7.61009909116994E-03 
1725	 7.58619833899364E-03 
1726	 7.73143519483134E-03 
1727	 9.39049664437279E-03 
1728	 9.58441335636014E-03 
1729	 7.98580142653545E-03 
1730	 8.62682845785726E-03 
1731	 9.63309392445687E-03 
1732	 9.3564173000381E-03 
1733	 9.93172162841871E-03 
1734	 9.68920160591075E-03 
1735	 7.0399308200588E-03 
1736	 6.80310525759067E-03 
1737	 8.48280996218803E-03 
1738	 7.82618122361864E-03 
1739	 7.81849577266618E-03 
1740	 7.93941228912221E-03 
1741	 6.97261005209113E-03 
1742	 7.22218057407306E-03 
1743	 7.60086560286416E-03 
1744	 7.3030003590857E-03 
1745	 6.7470093879135E-03 
1746	 6.99372546421148E-03 
1747	 7.63578268887895E-03 
1748	 9.24723621218182E-03 
1749	 9.50318035390143E-03 
1750	 9.03505322225532E-03 
1751	 8.76351687664939E-03 
1752	 7.55511681292471E-03 
1753	 7.59371601769279E-03 
1754	 8.68372295596292E-03 
1755	 9.17267110967255E-03 
1756	 1.01916684992713E-02 
1757	 8.84343425549741E-03 
1758	 8.22665042321835E-03 
1759	 8.21557531055683E-03 
1760	 7.40006753846598E-03 
1761	 9.09604424128378E-03 
1762	 1.12035937499795E-02 
1763	 8.49794705092106E-03 
1764	 7.50074952843665E-03 
1765	 8.21421031412873E-03 
1766	 4.54537867583632E-03 
1767	 3.49440118668968E-03 
1768	 5.80224249917291E-03 
1769	 6.24122441179107E-03 
1770	 7.65475446580144E-03 
1771	 1.11248125006201E-02 
1772	 1.18652035687571E-02 
1773	 6.26528100771425E-03 
1774	 2.00847992944071E-03 
1775	 2.70331903950518E-03 
1776	 4.00024391066264E-03 
1777	 1.50665196582023E-02 
1778	 1.74039732958734E-02 
1779	 9.91621734379534E-03 
1780	 8.1742554328411E-03 
1781	 3.87904747922915E-03 
1782	 4.11295008495042E-03 
1783	 1.60159498741692E-02 
1784	 1.81350445814936E-02 
1785	 1.46670306020759E-02 
1786	 1.19667281980051E-02 
1787	 1.80870847595716E-03 
1788	-4.02434899926628E-03 
1789	-7.4629161021468E-03 
1790	-4.04254579922811E-03 
1791	 2.84968723260868E-05 
1792	 5.27615131470672E-03 
1793	 9.49886926312488E-03 
1794	 3.89052429269822E-03 
1795	-6.74516045316881E-03 
1796	-6.59950970934103E-03 
1797	-8.1540384980443E-03 
1798	-5.18562451655802E-03 
1799	 1.28125223772644E-02 
1800	 2.70020815761585E-02 
1801	 2.13978374281858E-02 
1802	-6.69107231744515E-02 
1803	-9.39008991856123E-02 
1804	-2.69866865922529E-02 
1805	-2.77500722500928E-02 
1806	 7.31380254553316E-02 
1807	 0.178310696017959 
1808	 6.69036571374686E-02 
1809	-3.65510549206658E-03 
1810	 0.161428544748353 
1811	 0.112049531023666 
1812	-0.128828324867243 
1813	-0.18989346304409 
1814	-0.236997149559826 
1815	-0.276109800155189 
1816	 5.21105339934938E-02 
1817	-2.53227293270033 
1818	 0.158462934978862 
1819	 4.91713909294383E-03 
1820	-0.560063300305884 
1821	-0.415515072479339 
1822	-0.356194501298103 
1823	 7.97226315583114E-02 
1824	 0.369541461220843 
1825	-8.51063461923195 
1826	-2.56181953397525 
1827	 6.97389649134664 
1828	 2.01126237928616 
1829	 0.130954571864653 
1830	-0.111722490042785 
1831	-0.965034925398573 
1832	-1.27611845624671 
1833	-2.14238327069803 
1834	-7.7660912938656 
1835	 1.7402925463182 
1836	 1.11895907034153 
1837	 0.277697430177727 
1838	 0.161032415553761 
1839	 0.314232317015741 
1840	 1.02305254841956 
1841	 0.679599349814704 
1842	 0.68697137092164 
1843	 0.563682497374356 
1844	-0.143657116702682 
1845	-0.153152636303924 
1846	 0.558505720717028 
1847	 0.819008458262362 
1848	 0.946196236149373 
1849	 1.26651410025278 
1850	 0.542260916618409 
1851	 0.381182196943139 
1852	 0.429215694569602 
1853	 0.690191259439571 
1854	 0.679939990676919 
1855	 0.569770545595593 
1856	 0.581118600655021 
1857	 0.60537701227777 
1858	 0.555590242322578 
1859	 0.478962454524658 
1860	 0.541232751284198 
1861	 0.370631791251755 
1862	 0.357260886268354 
1863	 0.292978387029932 
1864	-3.52678337280327E-02 
1865	-0.542380536750129 
1866	-2.35576685710591 
1867	-8.79510777844995 
1868	-25.1678966438805 
1869	 5.03242430150502 
1870	 1.08648005401017 
1871	 0.294585485544586 
1872	-0.133345164458816 
1873	-0.291693918800182 
1874	 2.07412068253109E-02 
1875	 0.31893753340745 
1876	 0.365630407520811 
1877	 0.32923978271402 
1878	 0.307140720124608 
1879	 4.40431905733754E-02 
1880	 5.50357336306128E-02 
1881	 0.404534938333169 
1882	 0.370664342185246 
1883	 0.530448633796309 
1884	 1.26317255594299E-02 
1885	-0.296105372363382 
1886	-0.67749106877066 
1887	-1.67564329422085 
1888	-4.18097486459255 
1889	-7.61071777384406 
1890	-6.45281980546268 
1891	 4.30253429890226 
1892	-5.06532075364127 
1893	-6.25284421683147 
1894	-3.89104453540118 
1895	-1.12875276619899 
1896	-0.574201836607189 
1897	-0.580904811797943 
1898	-0.488012445512698 
1899	-0.625041987611122 
1900	-0.608215016284355 
1901	-0.451149498345524 
1902	-0.255346905648071 
1903	 0.101733399171675 
1904	 1.25736285651153 
1905	 1.25155362475365 
1906	-1.22987372299376 
1907	-0.231929109265509 
1908	 6.22449591447641E-02 
1909	 0.12918613718134 
1910	 0.230432539885915 
1911	 4.71027261884735E-02 
1912	-0.55305754328866 
1913	-1.20592125630031 
1914	-3.3093985373895 
1915	-12.6280702703058 
1916	 14.6486929592165 
1917	 5.46970773984981 
1918	 2.4621379995136 
1919	 1.37767720938619 
1920	 1.18954003051585 
1921	 4.77269295099683 
1922	-2.98065729225147 
1923	-0.109029112085268 
1924	 0.633124962051762 
1925	 2.05811490714624 
1926	 3.62845417167304 
1927	 11.3000479863061 
1928	-5.0192737232414 
1929	-1.96317282963538 
1930	-2.91602447170758 
1931	-3.40954878785228 
1932	-41.2611198759331 
1933	 1.7461033499115 
1934	 0.82965414218332 
1935	 0.430965479710809 
1936	-0.217515153533217 
1937	-20.4145399468441 
1938	-0.418561495109787 
1939	-0.358281341459714 
1940	 0.380693187457681 
1941	-1.50281097981096 
1942	 4.61962043458232 
1943	-4.69435080560523 
1944	-1.08628593528423 
1945	 0.72002673617122 
1946	 1.01954225056229 
1947	 0.598044491161084 
1948	 0.967158417339942 
1949	 1.59405306120131 
1950	 0.622202964056488 
1951	 0.276193200184472 
1952	 6.63095984595577E-02 
1953	-0.115730026381313 
1954	-0.487440291407892 
1955	-0.514084536354701 
1956	-0.341299655838645 
1957	-0.260335552145389 
1958	-6.40406193069469E-02 
1959	 4.80516670816131E-02 
1960	 1.93740031914543E-02 
1961	 1.80036119318008E-02 
1962	-4.70913426353122E-03 
1963	-1.49791810336315E-02 
1964	-5.22949631919464E-03 
1965	-1.58685877974397E-02 
1966	-6.33120944649929E-03 
1967	 8.62362435005387E-03 
1968	 2.36690061705265E-02 
1969	 3.08811478157419E-02 
1970	 4.39562461831295E-02 
1971	 0.043854788716107 
1972	 0.027421661240175 
1973	 1.29529473979055E-02 
1974	 1.65625427650556E-02 
1975	 1.75777778681353E-02 
1976	 0.018488903043695 
1977	 2.30122557304689E-02 
1978	 1.63530887565374E-02 
1979	 1.53784052908497E-02 
1980	 1.20043186035114E-02 
1981	 1.37467969016761E-02 
1982	 1.32122634577772E-02 
1983	 1.20344862253379E-02 
1984	 1.08690888567573E-02 
1985	 1.12341883415126E-02 
1986	 1.45591283231097E-02 
1987	 1.91217661406837E-02 
1988	 1.74231353690793E-02 
1989	 1.46331718413075E-02 
1990	 1.26910253222983E-02 
1991	 9.63465251202599E-03 
1992	 1.12574069751259E-02 
1993	 1.18722036617984E-02 
1994	 1.26261274618114E-02 
1995	 1.30540738644586E-02 
1996	 1.97889408416923E-02 
1997	 0.025251154013695 
1998	 2.44275329107589E-02 
1999	 2.24451436420458E-02 
2000	 2.21138509863583E-02 
2001	 1.60173495258119E-02 
2002	 1.07821658462637E-02 
2003	 2.05988933671857E-02 
2004	 3.01292832441223E-02 
2005	 2.40481725664528E-02 
2006	 1.09595744532695E-02 
2007	 1.08811368064027E-02 
2008	 6.56498926721544E-03 
2009	 1.14818879260438E-03 
2010	 3.38825854232652E-03 
2011	 1.35982224249115E-02 
2012	 2.50551207058403E-02 
2013	 2.64173756039162E-02 
2014	 3.74823477694087E-02 
2015	 3.80702458184482E-02 
2016	 2.11343635974232E-02 
2017	 7.6103104004002E-03 
2018	 2.63291968255491E-03 
2019	 7.90596193870242E-03 
2020	 1.50764739786251E-02 
2021	 1.88863241735207E-02 
2022	 1.83237672449916E-02 
2023	 1.10735224933364E-02 
2024	 8.32084596309413E-03 
2025	 4.50396821364053E-03 
2026	 4.31467351869759E-03 
2027	 6.80656599155074E-03 
2028	 8.33207844199782E-03 
2029	 9.52899137338762E-03 
2030	 6.91974082845392E-03 
2031	 2.64851673356018E-03 
2032	 1.75151168668696E-03 
2033	 1.62828292431208E-03 
2034	 3.57352597936191E-03 
2035	 4.28065405525623E-03 
2036	 4.04371239789783E-03 
2037	 6.44752481585185E-03 
2038	 7.29215544988017E-03 
2039	 7.89217321108277E-03 
2040	 9.81891136654758E-03 
2041	 1.07509446814113E-02 
2042	 1.09124189604848E-02 
2043	 1.07865454802198E-02 
2044	 1.06799038495019E-02 
2045	 0.010549228367565 
2046	 8.01466766073353E-03 
2047	 1.35607770151251E-03 
2048	-2.11060443666345E-03 
2049	-7.68307064349347E-04 
2050	 3.79617829821275E-04 
2051	 4.62372462681821E-04 
2052	 6.32383276411901E-04 
2053	-2.18868087571893E-03 
2054	-1.6200304024384E-03 
2055	 6.44422412197276E-03 
2056	 9.32321119674116E-03 
2057	 1.08104356052742E-02 
2058	 1.13166196081593E-02 
2059	 9.66342504047608E-03 
2060	 7.55421444768821E-03 
2061	 2.99359579748883E-03 
2062	 4.65341245845698E-03 
2063	 5.20464684846534E-03 
2064	 2.22590656456939E-03 
2065	 2.84901831451432E-03 
2066	 6.80748498788766E-03 
2067	 8.87119625822285E-03 
2068	 1.22693380220703E-02 
2069	 1.42721810047936E-02 
2070	 0.015979484562782 
2071	 1.86973257410504E-02 
2072	 1.57942078171016E-02 
2073	 1.31913901699364E-02 
2074	 7.92280297296059E-03 
2075	 6.24345906493886E-03 
2076	 4.55435355324339E-03 
2077	 4.77858405015898E-03 
2078	 8.59399187410746E-03 
2079	 9.36165658044775E-03 
2080	 9.31305239118612E-03 
2081	 9.13315530908513E-03 
2082	 7.50618485317143E-03 
2083	 7.1715357969262E-03 
2084	 6.05479531894831E-03 
2085	 6.39296324023883E-03 
2086	 6.30116948321627E-03 
2087	 5.70576714180368E-03 
2088	 8.00980590565987E-03 
2089	 8.04101511406705E-03 
2090	 8.00708523318714E-03 
2091	 1.00377442525031E-02 
2092	 9.94492284636979E-03 
2093	 7.66173116361007E-03 
2094	 7.57676268844948E-03 
2095	 6.94332265337801E-03 
2096	 6.59079566129866E-03 
2097	 7.49713203605226E-03 
2098	 7.95431518571928E-03 
2099	 7.29697983126756E-03 
2100	 1.02307825993444E-02 
2101	 1.17403928590553E-02 
2102	 1.27058471514359E-02 
2103	 1.38309587216858E-02 
2104	 1.32984165484452E-02 
2105	 1.10560308979428E-02 
2106	 9.79399666669136E-03 
2107	 8.5112846900921E-03 
2108	 5.62401078108175E-03 
2109	 6.50580305696866E-03 
2110	 8.47873193112488E-03 
2111	 8.4151675549531E-03 
2112	 9.23186150628924E-03 
2113	 9.28763935864978E-03 
2114	 8.17467602623933E-03 
2115	 6.07712926900379E-03 
2116	 3.8721207944084E-03 
2117	 2.02610079153369E-03 
2118	-2.97313567692788E-03 
2119	-3.86751092157692E-03 
2120	-2.06059199492942E-03 
2121	-7.04785979601951E-04 
2122	 1.5127669805508E-03 
2123	 5.08460423570612E-03 
2124	 8.36268713238962E-03 
2125	 8.47648867017102E-03 
2126	 0.008043597489406 
2127	 7.5545314797545E-03 
2128	 5.74392957565322E-03 
2129	 4.71259188312277E-03 
2130	 4.81757291278246E-03 
2131	 5.22249100880404E-03 
2132	 5.1651318670084E-03 
2133	 4.20423239581407E-03 
2134	 3.83383375398813E-03 
2135	 2.60238543181061E-03 
2136	 3.53273069411866E-03 
2137	 7.17832408419657E-03 
2138	 8.07369506444288E-03 
2139	 8.99701529416233E-03 
2140	 8.62408830652507E-03 
2141	 3.73192766151076E-03 
2142	 3.19301069467599E-03 
2143	 3.52823204892382E-03 
2144	 7.51444118723598E-03 
2145	 1.30478704735771E-02 
2146	 1.58151087773782E-02 
2147	 1.66718628016569E-02 
2148	 1.72434094180496E-02 
2149	 1.51855945742289E-02 
2150	 1.37939889330694E-02 
2151	 1.31620460285592E-02 
2152	 9.39620746363972E-03 
2153	 5.0116991610602E-03 
2154	 3.99257372290163E-03 
2155	 1.33064713919674E-03 
2156	-3.20678559572625E-03 
2157	-4.65627285979235E-03 
2158	-5.60044610569427E-03 
2159	-6.18512088295621E-03 
2160	-3.57312314687825E-03 
2161	-1.76747599062573E-03 
2162	-2.51282943575402E-04 
2163	 1.15138415555053E-03 
2164	 2.2462222761355E-03 
2165	 2.75501468940222E-03 
2166	 3.28179172059392E-03 
2167	 3.77024115875998E-03 
2168	 4.91799246041419E-03 
2169	 5.17313993022773E-03 
2170	 4.65325187726546E-03 
2171	 2.81733644396165E-03 
2172	 2.46614890434561E-03 
2173	 4.61393790524082E-03 
2174	 8.37899162646831E-03 
2175	 8.66169142561933E-03 
2176	 6.4061266848682E-03 
2177	 4.12536609680882E-03 
2178	 2.05953152717683E-03 
2179	 5.46891414189067E-04 
2180	-2.04661141290952E-03 
2181	-4.95789799959674E-03 
2182	-9.68735566934783E-03 
2183	-1.38087641050744E-02 
2184	-1.19120084068245E-02 
2185	-6.25408082881376E-03 
2186	-1.77202508220018E-03 
2187	 7.94039345879007E-03 
2188	 1.10529322007839E-02 
2189	 9.28581728602548E-03 
2190	 8.79649651643636E-03 
2191	 5.08065633934041E-03 
2192	 4.55908870979687E-03 
2193	 8.6403430128542E-03 
2194	 7.26243983624215E-03 
2195	 7.53109720639371E-04 
2196	-1.30107326012198E-03 
2197	-4.70687225177762E-03 
2198	-6.09525521898693E-03 
2199	-3.14468084604876E-03 
2200	 2.15144927760273E-03 
2201	 8.35541097625815E-05 
2202	-2.75742064529517E-03 
2203	-4.99042103681266E-03 
2204	-2.7473116409112E-03 
2205	 3.72414846167463E-03 
2206	 6.65531933586763E-03 
2207	 1.09255506725804E-02 
2208	 0.011226543987489 
2209	 7.40705086331078E-03 
2210	 5.25699506333403E-03 
2211	 3.21917242512997E-03 
2212	-1.29192799048053E-03 
2213	-5.68007712712102E-03 
2214	-4.17991681254249E-03 
2215	-4.93961330501029E-03 
2216	-4.09505180683409E-03 
2217	-4.04967502103396E-03 
2218	-5.09301569251926E-03 
2219	-5.60872362804523E-03 
2220	-6.68694869575236E-03 
2221	-4.44529484953682E-03 
2222	 2.47507215083531E-03 
2223	 4.46041328613292E-03 
2224	 6.03870625885137E-03 
2225	 5.77772555225285E-03 
2226	-1.04611259825628E-06 
2227	-1.02076566739999E-03 
2228	-2.03272586284827E-03 
2229	 1.65508431458724E-03 
2230	 1.45531448531053E-02 
2231	 0.0173165829237 
2232	 1.60553276347418E-02 
2233	 1.66520026813496E-02 
2234	 1.24871289295803E-02 
2235	 7.5862633964783E-03 
2236	 1.01506230928318E-02 
2237	 1.64042083571666E-02 
2238	 1.49033083896293E-02 
2239	 1.21681780814257E-02 
2240	 9.00118820529446E-03 
2241	 4.46767237428201E-03 
2242	 2.43673324630523E-03 
2243	 2.36199257260156E-03 
2244	-6.5663458012592E-04 
2245	-3.6520966755144E-03 
2246	-5.15973068905072E-05 
2247	-2.70667942100829E-03 
2248	-5.2034313452764E-03 
2249	-2.86500000003183E-03 
2250	-5.83863440193959E-03 
2251	-3.15154066712642E-03 
2252	-4.93983860532634E-03 
2253	-6.58140288030556E-03 
2254	-7.71911776280882E-04 
2255	-7.07257331748867E-03 
2256	-3.71220091940423E-03 
2257	 8.34208652237568E-03 
2258	 8.7609775494519E-03 
2259	 1.05955747304555E-02 
2260	 1.00164559470839E-02 
2261	 4.0085639475809E-03 
2262	 1.78610331441478E-03 
2263	-8.14281874705964E-04 
2264	 6.37613530601505E-04 
2265	 5.90399653793003E-03 
2266	 8.95244427641089E-03 
2267	 1.69939902219295E-02 
2268	 1.80562017612692E-02 
2269	 1.30469290725737E-02 
2270	 1.14930686660139E-02 
2271	 7.83289071944498E-03 
2272	 2.00562680148567E-03 
2273	-3.24682222146395E-03 
2274	-6.81475597465076E-03 
2275	-1.75128088345369E-02 
2276	-1.82958471464929E-02 
2277	-4.17041816791832E-03 
2278	-1.63053203792533E-03 
2279	-4.94889398092213E-03 
2280	-2.33440420961546E-03 
2281	 4.32621272116356E-04 
2282	-2.76593211434566E-03 
2283	-4.21027595603216E-03 
2284	 8.91074084948111E-03 
2285	 1.09272097573252E-02 
2286	 4.58975159274294E-03 
2287	 1.47478786912453E-03 
2288	-1.24594997579758E-03 
2289	-5.13857308000659E-04 
2290	-6.26729440576433E-03 
2291	 1.48819873815165E-03 
2292	 1.05424608737541E-02 
2293	 4.37995553661846E-03 
2294	 1.7999867604445E-04 
2295	-0.010996276363834 
2296	-2.08830008059014E-02 
2297	-1.96207621864048E-02 
2298	-1.08417070978945E-02 
2299	-1.75557231076159E-03 
2300	-3.92715748839931E-03 
2301	-9.64715273600265E-03 
2302	-1.89217961541506E-02 
2303	-2.57484721944363E-02 
2304	-2.28809481680497E-02 
2305	-0.0209571868805 
2306	-7.0384190300627E-03 
2307	 1.68428280396967E-02 
2308	 1.43222121261654E-02 
2309	-3.05844438845334E-03 
2310	-1.04722891460872E-02 
2311	-2.43542736640137E-02 
2312	-2.46273676728509E-02 
2313	-4.62360013015495E-03 
2314	 2.83991896440082E-03 
2315	 4.42005057983621E-03 
2316	 5.19093678268528E-03 
2317	-1.80120747936252E-03 
2318	-7.75041253778211E-03 
2319	-2.40339679745926E-03 
2320	-2.15937179781048E-03 
2321	-7.6283030551019E-03 
2322	-4.00706727466905E-03 
2323	-1.69461479345902E-02 
2324	-2.76002032193272E-02 
2325	-2.31291332182129E-02 
2326	-2.05682487127028E-02 
2327	 1.7138488416484E-03 
2328	 1.97221697743661E-02 
2329	 1.86881491612845E-02 
2330	 9.33582807282634E-03 
2331	-6.58490542017673E-03 
2332	-2.23606782514787E-02 
2333	-2.24554688812796E-02 
2334	-1.04569137833924E-02 
2335	-1.79759706956632E-02 
2336	-3.32804949425825E-03 
2337	 9.00540205586785E-03 
2338	 3.31336865173303E-03 
2339	 1.88230776422658E-02 
2340	-5.95881494111262E-03 
2341	-2.71176726481069E-02 
2342	-3.98731897272641E-02 
2343	-9.38756882200073E-02 
2344	-0.10312863552104 
2345	-9.25223167213684E-02 
2346	-8.46475751253582E-02 
2347	-6.11294865217222E-02 
2348	-1.89710155210904E-02 
2349	 2.03115246208016E-02 
2350	 3.48478067963866E-02 
2351	 6.31071263570287E-02 
2352	 5.62243633554409E-02 
2353	 1.96001962217376E-02 
2354	-7.13017755191879E-03 
2355	-1.31166683754992E-02 
2356	-1.57133235165537E-02 
2357	-4.71687808191382E-02 
2358	-6.98391380462933E-02 
2359	-8.49209196544859E-02 
2360	-0.100176951196925 
2361	-9.54435134489354E-02 
2362	-8.57881065272914E-02 
2363	-0.109759148389031 
2364	-0.131754708759617 
2365	-0.141735095361855 
2366	-0.180245292009684 
2367	-0.181847822863139 
2368	-0.122268816745793 
2369	-0.072760056403966 
2370	-4.77304289896394E-02 
2371	-2.67843314188327E-02 
2372	-2.13145477218283E-02 
2373	-5.52409484919889E-02 
2374	-5.12929210142277E-02 
2375	-1.43824541280849E-02 
2376	-9.67209680372717E-02 
2377	-0.174788451233108 
2378	-0.167132845521238 
2379	-0.266122744981451 
2380	-0.279618471373061 
2381	-0.234814352373737 
2382	-0.281639579878422 
2383	-0.264714393301356 
2384	-0.240735768093202 
2385	-7.00916946406994E-02 
2386	 0.10846510902589 
2387	 0.127147566173473 
2388	 0.141311532083316 
2389	 0.103653254097769 
2390	-4.89338131036126E-02 
2391	 3.53828379419537E-02 
2392	 0.165079354315218 
2393	 0.296246826050025 
2394	 0.295792532406951 
2395	 0.190415376418927 
2396	 0.167502443880604 
2397	 2.97329486241556E-02 
2398	-0.113929635602479 
2399	-0.104387195961557 
2400	-0.129159980965903 
2401	-0.180457441870194 
2402	-0.168431406186563 
2403	-0.104491938079554 
2404	-6.23346132517252E-02 
2405	 9.83692542705961E-02 
2406	 0.252108617507503 
2407	 0.279019995786109 
2408	 1.10240798701614 
2409	 3.06157806978896 
2410	 2.93197037133476 
2411	 1.6983245629774 
2412	 1.6507537529936 
2413	 1.0923676951686 
2414	 0.196950603002972 
2415	-0.234318602015968 
2416	-0.232719111567812 
2417	-0.289600142638046 
2418	-1.96366305459184 
2419	 0.822896426995737 
2420	 0.563555072779759 
2421	 1.30207552491873 
2422	 4.02617878604362 
2423	-1.76450336557904 
2424	-0.901142447478491 
2425	-1.19261457435211 
2426	-0.410368171196265 
2427	-0.562575245545581 
2428	-0.623938141453168 
2429	-0.186138925695332 
2430	-3.28257837520676E-03 
2431	-5.53152192611927E-02 
2432	-1.06866394895836E-02 
2433	-0.210356120199814 
2434	-1.07907813222388 
2435	 3.73920620628716 
2436	-0.317517685547938 
2437	-0.333319129462661 
2438	-0.243404426111984 
2439	-0.317712947099534 
2440	-0.100731876436027 
2441	-0.105032159097004 
2442	-1.05817965429571 
2443	-1.63777572648692 
2444	-3.50484130414458 
2445	 6.13513205809281 
2446	 50.515910530395 
2447	-2.97139412117619 
2448	-2.93672520526904 
2449	-2.35642379964956 
2450	-3.54635220762679 
2451	 10.208939662517 
2452	 1.03277536271924 
2453	 1.28427878331417 
2454	 0.836251856771591 
2455	 0.592312504602557 
2456	-1.97197471630446 
2457	-5.4741921064797 
2458	 0.736689485430112 
2459	 0.792823812450833 
2460	 0.438743088733279 
2461	 0.353700909079144 
2462	 1.23485649048106 
2463	 1.5187471546133 
2464	 0.8212221646932 
2465	 14.6733057703596 
2466	 8.07786555020204 
2467	-1.53720759683333 
2468	 7.28210721471563E-02 
2469	 4.05244685253483 
2470	 0.277498643545499 
2471	-0.456725670193635 
2472	-0.998737680314249 
2473	-0.765093786101403 
2474	 0.044775722848994 
2475	 0.498106470468102 
2476	-4.03702645110229 
2477	-27.3438335739626 
2478	 1.44991593429693 
2479	 0.869174438339648 
2480	-6.57930065507858E-02 
2481	 0.481983052698638 
2482	-0.195313646203382 
2483	-0.345699437963956 
2484	-0.346275088556324 
2485	-1.02936867130267 
2486	-1.11525136161082 
2487	-1.23779635587024 
2488	-1.42385870731391 
2489	 0.117305089343313 
2490	 1.93457547233773 
2491	 1.36572349297486 
2492	 0.660331574421866 
2493	 0.323267925485079 
2494	 0.30324252045476 
2495	 4.0369869042568E-03 
2496	-0.258466146677662 
2497	-1.72961008040657 
2498	-4.15829972711204 
2499	-2.55197551819933 
2500	 0.227094167491002 
