Wavelength	rt0801far100002.asd
350	 7.44506299853744E-02 
351	 7.33667432976074E-02 
352	 7.43696348642699E-02 
353	 7.47415802471679E-02 
354	 7.32059979661237E-02 
355	 7.33478625726643E-02 
356	 7.42895041630258E-02 
357	 7.46797122881998E-02 
358	 7.38353837774844E-02 
359	 7.47548668883128E-02 
360	 7.46960233381593E-02 
361	 7.41627033517054E-02 
362	 7.55213428812284E-02 
363	 0.074940023164808 
364	 7.42913308627439E-02 
365	 7.48068997280077E-02 
366	 0.075717696467461 
367	 0.075685360610307 
368	 7.51520790412389E-02 
369	 7.50175056564898E-02 
370	 7.59335724063805E-02 
371	 7.58162511518852E-02 
372	 0.075225232751961 
373	 7.60090444391415E-02 
374	 7.62134922468758E-02 
375	 7.62731405306991E-02 
376	 7.65516706147969E-02 
377	 7.69659823773752E-02 
378	 7.74040690124776E-02 
379	 7.75123616018517E-02 
380	 7.72305967242114E-02 
381	 7.75062623927228E-02 
382	 7.77453558639773E-02 
383	 7.79989561854481E-02 
384	 7.85449510897545E-02 
385	 7.89721973229987E-02 
386	 7.91806136329664E-02 
387	 7.92777750379534E-02 
388	 7.95495013400913E-02 
389	 7.98203231538133E-02 
390	 7.97058241213475E-02 
391	 7.93230943283998E-02 
392	 8.00862875440882E-02 
393	 8.06626326542141E-02 
394	 8.08210465009446E-02 
395	 8.08851936776594E-02 
396	 8.16301417918172E-02 
397	 8.19845286897012E-02 
398	 8.17607117518187E-02 
399	 8.16259639869406E-02 
400	 8.23742188299463E-02 
401	 8.29940685914957E-02 
402	 8.28375419941178E-02 
403	 8.25875299479391E-02 
404	 8.25622067176348E-02 
405	 8.28203325896437E-02 
406	 8.32242310872665E-02 
407	 8.33176567046881E-02 
408	 8.36667283787092E-02 
409	 8.42363639198269E-02 
410	 8.43825163406985E-02 
411	 8.45167742102886E-02 
412	 8.45827250618637E-02 
413	 8.46110954665366E-02 
414	 8.50588699613949E-02 
415	 8.54811806243126E-02 
416	 0.0858136053863 
417	 8.61177724377482E-02 
418	 8.61568109839678E-02 
419	 8.64293288026181E-02 
420	 8.68971618043394E-02 
421	 8.69258834735548E-02 
422	 8.71511975949189E-02 
423	 8.74690158074408E-02 
424	 0.087761019080929 
425	 8.83572789588639E-02 
426	 8.86552818290649E-02 
427	 8.87934522867601E-02 
428	 8.92308998374797E-02 
429	 0.08988480825766 
430	 9.02075787700336E-02 
431	 9.02668181516015E-02 
432	 9.08755462854921E-02 
433	 9.13446896966816E-02 
434	 9.19038627542404E-02 
435	 0.092665803806303 
436	 9.27565918877796E-02 
437	 0.093047206464598 
438	 9.36111196964986E-02 
439	 9.40851074082187E-02 
440	 9.45381128792806E-02 
441	 9.49705686518999E-02 
442	 9.53967526100441E-02 
443	 9.58637381344414E-02 
444	 9.60542187625397E-02 
445	 9.62677700023934E-02 
446	 9.67702675356444E-02 
447	 9.69859469332121E-02 
448	 9.73686032654536E-02 
449	 9.78450280445419E-02 
450	 9.79842810447127E-02 
451	 9.81865799175761E-02 
452	 9.83651012424054E-02 
453	 9.84754295219386E-02 
454	 9.87008242661809E-02 
455	 9.89767998023154E-02 
456	 9.92350466029915E-02 
457	 9.93992531711075E-02 
458	 9.93798328204104E-02 
459	 9.94134690526167E-02 
460	 9.96122284818286E-02 
461	 9.99278161739707E-02 
462	 0.099995223467899 
463	 0.100043688941307 
464	 0.100246534953881 
465	 0.100243440120153 
466	 0.100453818104875 
467	 0.100770399997376 
468	 0.100879647712611 
469	 0.10104889240602 
470	 0.101312561010155 
471	 0.101570883370919 
472	 0.101577146044742 
473	 0.101700871429505 
474	 0.101916834803743 
475	 0.102125161198936 
476	 0.10237640658927 
477	 0.102545497032141 
478	 0.102719489617852 
479	 0.103086327939951 
480	 0.103197638932784 
481	 0.103352607210538 
482	 0.103725662327478 
483	 0.104040097739279 
484	 0.104318276650745 
485	 0.10459104598831 
486	 0.104897413222886 
487	 0.105205718824275 
488	 0.105726683295139 
489	 0.106325067210295 
490	 0.106563383129132 
491	 0.106970950982251 
492	 0.107458208199847 
493	 0.107867756256358 
494	 0.10819818396747 
495	 0.108559922241327 
496	 0.109024387794059 
497	 0.109612825694325 
498	 0.110154514171123 
499	 0.110592244884264 
500	 0.111002311501897 
501	 0.111639141523529 
502	 0.112305463253526 
503	 0.112928181550468 
504	 0.113523100919119 
505	 0.114342040604563 
506	 0.114857877889778 
507	 0.115147336361607 
508	 0.115741569715258 
509	 0.116248815170578 
510	 0.116722804809637 
511	 0.117251181446631 
512	 0.117838814760052 
513	 0.118525213839762 
514	 0.119187848055527 
515	 0.119701316085967 
516	 0.120497559780753 
517	 0.121342597439404 
518	 0.122093483844841 
519	 0.122803534519054 
520	 0.123367043586059 
521	 0.124018395806602 
522	 0.124896879466473 
523	 0.125526484372442 
524	 0.126292338845015 
525	 0.127153277617729 
526	 0.12780788676152 
527	 0.128688729380306 
528	 0.129597608080893 
529	 0.130394830076798 
530	 0.131235204680991 
531	 0.13207502500287 
532	 0.132869086406882 
533	 0.133605325801473 
534	 0.134494097443341 
535	 0.135408383729143 
536	 0.136294729659649 
537	 0.137202565168931 
538	 0.138049629490915 
539	 0.138962253088354 
540	 0.140017301479892 
541	 0.140989263724649 
542	 0.141825400947231 
543	 0.142626060852834 
544	 0.143568668651236 
545	 0.144498964087436 
546	 0.145434927782278 
547	 0.146360123105484 
548	 0.147138905216856 
549	 0.148001485781964 
550	 0.148950661046508 
551	 0.149896564458405 
552	 0.150746836496378 
553	 0.151585059293232 
554	 0.152422493521241 
555	 0.153176254601846 
556	 0.154044776728933 
557	 0.155001491804026 
558	 0.155924861002212 
559	 0.156603196332801 
560	 0.15734698096971 
561	 0.158214429780308 
562	 0.159089445806414 
563	 0.159817897178975 
564	 0.160536944800517 
565	 0.161332117141531 
566	 0.162121296449079 
567	 0.162795320505642 
568	 0.163427620614774 
569	 0.164125056112511 
570	 0.164750854774467 
571	 0.165265805576555 
572	 0.165691827389852 
573	 0.166104311550099 
574	 0.166484513012436 
575	 0.166884291161097 
576	 0.167345282081556 
577	 0.167866912597893 
578	 0.168216314267119 
579	 0.168439582586239 
580	 0.168743709170098 
581	 0.169013675503135 
582	 0.169252553831935 
583	 0.169456835837462 
584	 0.16955755761964 
585	 0.169996550622509 
586	 0.17065283857124 
587	 0.171224446847448 
588	 0.171771577970029 
589	 0.172141220480361 
590	 0.172198445509974 
591	 0.171904136841467 
592	 0.17182264593597 
593	 0.171779883019801 
594	 0.171549808636979 
595	 0.171253616157975 
596	 0.170876314208908 
597	 0.170422804491129 
598	 0.169912731898746 
599	 0.169369993754484 
600	 0.168885851541263 
601	 0.168533761763155 
602	 0.168345866409945 
603	 0.168321246228271 
604	 0.168333520831303 
605	 0.168270309854282 
606	 0.16830024595678 
607	 0.168404668697107 
608	 0.168498474769074 
609	 0.168449630986462 
610	 0.168529162454321 
611	 0.168632938634636 
612	 0.168641083917054 
613	 0.168604564083738 
614	 0.168797497343434 
615	 0.169045249115428 
616	 0.168965027531075 
617	 0.168880264234859 
618	 0.168866509608799 
619	 0.168919545829773 
620	 0.168962112216283 
621	 0.168913680048769 
622	 0.168861260888144 
623	 0.168936128111396 
624	 0.169154327130285 
625	 0.169489074961203 
626	 0.169781063348126 
627	 0.169770947340137 
628	 0.169816797014143 
629	 0.169859978903871 
630	 0.169819524898664 
631	 0.169775003101252 
632	 0.169694705986683 
633	 0.169628559814295 
634	 0.169643794167722 
635	 0.169645986808956 
636	 0.169580748510564 
637	 0.169483510210066 
638	 0.169507828653695 
639	 0.16955809002178 
640	 0.169524441336318 
641	 0.16937528387901 
642	 0.169377315812434 
643	 0.169553181981685 
644	 0.169880731812587 
645	 0.170300125153609 
646	 0.17077834138572 
647	 0.170937942366797 
648	 0.170632976152952 
649	 0.170342198632867 
650	 0.17018851139658 
651	 0.170055098587125 
652	 0.16976335804337 
653	 0.169455375555121 
654	 0.169326325819215 
655	 0.169245139760268 
656	 0.168660060155235 
657	 0.168141694408296 
658	 0.167697821076249 
659	 0.167266559745491 
660	 0.16702651316109 
661	 0.166894108379697 
662	 0.166802087001163 
663	 0.166700081295053 
664	 0.166615224969783 
665	 0.166469019858875 
666	 0.166299324271532 
667	 0.166380717925376 
668	 0.166454004236939 
669	 0.166457402872733 
670	 0.166395876338747 
671	 0.166236478324175 
672	 0.166251698859265 
673	 0.166429838852198 
674	 0.166494603030302 
675	 0.166574314188102 
676	 0.166733392119398 
677	 0.166953316887679 
678	 0.167016613666449 
679	 0.16719811003513 
680	 0.167431277244096 
681	 0.167550287328993 
682	 0.167888082378564 
683	 0.16816692226436 
684	 0.168437861775234 
685	 0.169323421739516 
686	 0.17027209814355 
687	 0.170732963406535 
688	 0.170549624471105 
689	 0.170554068282105 
690	 0.17104149227589 
691	 0.171807102899762 
692	 0.172326431748548 
693	 0.172620817041628 
694	 0.172297078297699 
695	 0.171484560923176 
696	 0.170917763578472 
697	 0.170925650629485 
698	 0.171250533880708 
699	 0.171391188963938 
700	 0.17100512649607 
701	 0.170381310163407 
702	 0.169679908598703 
703	 0.168903322998113 
704	 0.168543989492872 
705	 0.168095871937704 
706	 0.167242932448737 
707	 0.166333718113509 
708	 0.165478367513379 
709	 0.164472085466614 
710	 0.163142359100628 
711	 0.162201276804795 
712	 0.161228909874113 
713	 0.160264709337826 
714	 0.159886299030749 
715	 0.160085717897919 
716	 0.160414612142692 
717	 0.160144966096269 
718	 0.159180187359602 
719	 0.156415556701493 
720	 0.15343486096628 
721	 0.151370290201396 
722	 0.150539105844786 
723	 0.14964274131417 
724	 0.148077742156525 
725	 0.14612609469545 
726	 0.144253236303182 
727	 0.142100740529461 
728	 0.139364664646196 
729	 0.136494362029708 
730	 0.132985866638647 
731	 0.129288821068977 
732	 0.125920431190203 
733	 0.123312891316602 
734	 0.121462169609792 
735	 0.120084352072076 
736	 0.118446487351156 
737	 0.117154119709715 
738	 0.116128046658734 
739	 0.115247404105259 
740	 0.11468747054562 
741	 0.114175079086188 
742	 0.113672909986367 
743	 0.11328317275997 
744	 0.113180794041355 
745	 0.113181822872784 
746	 0.113130317114486 
747	 0.112958954458465 
748	 0.113094192117105 
749	 0.113306816555509 
750	 0.113259661157096 
751	 0.112786850958974 
752	 0.112913678328931 
753	 0.113331212931195 
754	 0.113134694559505 
755	 0.113218775639497 
756	 0.113439980663597 
757	 0.113743980087451 
758	 0.114515509538976 
759	 0.116462682485646 
760	 0.118492151046307 
761	 0.117928922906984 
762	 0.117967119108942 
763	 0.117640610235328 
764	 0.116898593903555 
765	 0.1160481365814 
766	 0.115516039243827 
767	 0.115288830330665 
768	 0.115247016281658 
769	 0.115195903614688 
770	 0.115230656111347 
771	 0.115415621828607 
772	 0.115737779573539 
773	 0.116008688194541 
774	 0.116229207336019 
775	 0.116530660202886 
776	 0.117015789623531 
777	 0.117204334438416 
778	 0.117468761537414 
779	 0.117945247022479 
780	 0.118463512023731 
781	 0.118884834079991 
782	 0.11927753247449 
783	 0.119777489729644 
784	 0.12059314842979 
785	 0.121352013654984 
786	 0.121919611436442 
787	 0.122346673632081 
788	 0.123122627967265 
789	 0.123901388058046 
790	 0.124480363215029 
791	 0.124851992650402 
792	 0.124990271198844 
793	 0.12534911603706 
794	 0.126079285022938 
795	 0.126737794337895 
796	 0.127144251915109 
797	 0.127577885368131 
798	 0.12825670210478 
799	 0.128575210543144 
800	 0.129000592906029 
801	 0.129486624345421 
802	 0.129712623345487 
803	 0.129718248029401 
804	 0.129598181813061 
805	 0.129461684003647 
806	 0.129413805440594 
807	 0.129517784575433 
808	 0.129951047755979 
809	 0.130599309643391 
810	 0.130466800278639 
811	 0.13091247246465 
812	 0.131751286866151 
813	 0.132176922658943 
814	 0.132742415700192 
815	 0.132393043875243 
816	 0.131139907973428 
817	 0.129970809861217 
818	 0.128760250726423 
819	 0.127284806798766 
820	 0.125825457448533 
821	 0.125465972822782 
822	 0.124391827310361 
823	 0.122271575902598 
824	 0.119718224076116 
825	 0.117643981026222 
826	 0.116213431333476 
827	 0.114498855505049 
828	 0.111609967044671 
829	 0.109154391042544 
830	 0.107095574284109 
831	 0.105030523332637 
832	 0.102614466321425 
833	 0.101257919551595 
834	 0.100244728450958 
835	 9.90177045831242E-02 
836	 9.75974323293568E-02 
837	 9.66565840175329E-02 
838	 9.61977984433988E-02 
839	 9.59054619028663E-02 
840	 9.50995190858273E-02 
841	 9.43409937835842E-02 
842	 9.36859060053898E-02 
843	 9.30646890563202E-02 
844	 9.26999032763475E-02 
845	 9.22626375874929E-02 
846	 9.17913196553743E-02 
847	 9.15259700426794E-02 
848	 9.09501745749253E-02 
849	 9.07334376262706E-02 
850	 0.090808383783771 
851	 9.00858729495073E-02 
852	 8.98043629779892E-02 
853	 8.94658336594209E-02 
854	 8.87665736583033E-02 
855	 8.85451348036983E-02 
856	 8.84502518203931E-02 
857	 8.81405333383656E-02 
858	 8.74357984763043E-02 
859	 8.66182611929664E-02 
860	 8.64985222481948E-02 
861	 8.64132534765978E-02 
862	 8.53820950088335E-02 
863	 8.55174346263279E-02 
864	 8.55357069150278E-02 
865	 8.50778642014162E-02 
866	 8.48003396255918E-02 
867	 8.43360951653544E-02 
868	 8.40573183176367E-02 
869	 8.39403613362879E-02 
870	 8.33767494932228E-02 
871	 8.32358274249315E-02 
872	 8.28888510806844E-02 
873	 8.19538877064945E-02 
874	 8.12763467261852E-02 
875	 0.081258935957786 
876	 8.09250638862814E-02 
877	 7.97239404992024E-02 
878	 8.04216578358799E-02 
879	 7.96516688332611E-02 
880	 7.83139779497669E-02 
881	 7.87746239555342E-02 
882	 7.89029053416933E-02 
883	 7.82397419340175E-02 
884	 0.077181513683476 
885	 7.66478434358769E-02 
886	 7.64323404882114E-02 
887	 7.62356366768058E-02 
888	 7.58897261987683E-02 
889	 7.54584998879678E-02 
890	 7.58510722577524E-02 
891	 7.60024125348391E-02 
892	 7.57693941468686E-02 
893	 7.75716204239251E-02 
894	 7.80182558939442E-02 
895	 7.76811594529031E-02 
896	 7.78379707708429E-02 
897	 7.74125754093442E-02 
898	 7.69840221002687E-02 
899	 7.61167350174049E-02 
900	 7.46947407652745E-02 
901	 7.46471216968963E-02 
902	 7.47366338479967E-02 
903	 0.074330723431379 
904	 7.33662695653898E-02 
905	 7.30309489216685E-02 
906	 7.41421111113532E-02 
907	 7.48903718638699E-02 
908	 7.23562701037991E-02 
909	 0.072109867335261 
910	 7.30790907555295E-02 
911	 7.36465074160415E-02 
912	 7.27336045596776E-02 
913	 7.22760086008491E-02 
914	 7.08959693563468E-02 
915	 0.069055389720961 
916	 6.92212756064586E-02 
917	 6.78195576765969E-02 
918	 6.62147666040481E-02 
919	 6.53111982755935E-02 
920	 6.45670593174657E-02 
921	 0.064508719485128 
922	 6.42113754353241E-02 
923	 6.33488513968857E-02 
924	 6.34786098274627E-02 
925	 6.32366030385888E-02 
926	 6.31023511979674E-02 
927	 0.064079891880485 
928	 6.67224681275375E-02 
929	 6.68968249843121E-02 
930	 6.59257719523479E-02 
931	 6.92644758660577E-02 
932	 0.075482230458666 
933	 7.02138719108946E-02 
934	 6.65692547053057E-02 
935	 8.12393227093872E-02 
936	 7.34928706023876E-02 
937	 7.30131124591559E-02 
938	 7.20276035561144E-02 
939	 6.01724456911322E-02 
940	 6.43147652013936E-02 
941	 6.57612021583166E-02 
942	 6.72501136843123E-02 
943	 7.66446112699518E-02 
944	 6.24716022490328E-02 
945	 6.27764946992126E-02 
946	 6.91384356422267E-02 
947	 5.29925038557146E-02 
948	 6.00552952549576E-02 
949	 6.39107253423656E-02 
950	 6.38829119874876E-02 
951	 7.17202476632302E-02 
952	 5.74116568147029E-02 
953	 6.10834869984217E-02 
954	 7.29633168250591E-02 
955	 5.82710561815507E-02 
956	 5.86948720739863E-02 
957	 5.77254024659762E-02 
958	 5.43907187538081E-02 
959	 5.86487847290735E-02 
960	 6.11090155020084E-02 
961	 6.01678751518278E-02 
962	 5.75646195438036E-02 
963	 5.64258760894069E-02 
964	 5.81220418986459E-02 
965	 5.72253217501897E-02 
966	 5.24014562065743E-02 
967	 4.64873586813808E-02 
968	 5.04056193196928E-02 
969	 5.28353549958673E-02 
970	 5.14864085322744E-02 
971	 5.24437916382891E-02 
972	 5.21825313590729E-02 
973	 0.052804940011801 
974	 5.28998625952868E-02 
975	 4.88114637526808E-02 
976	 5.17065498999287E-02 
977	 5.31973284165412E-02 
978	 5.16291282548632E-02 
979	 5.23217757652713E-02 
980	 5.32395184617548E-02 
981	 5.20337264064552E-02 
982	 4.98204909298292E-02 
983	 0.049491019517685 
984	 4.57671012064372E-02 
985	 4.70271478672623E-02 
986	 5.12145160420629E-02 
987	 4.94884300287968E-02 
988	 5.01685839329872E-02 
989	 4.71127319210599E-02 
990	 0.043085673384774 
991	 4.58993302059253E-02 
992	 4.60796392035247E-02 
993	 4.57087094088537E-02 
994	 4.73071551657578E-02 
995	 5.13116717040703E-02 
996	 4.91258140834935E-02 
997	 4.49367133075898E-02 
998	 0.044963179263743 
999	 5.16753283989577E-02 
1000	 4.66266977916303E-02 
1001	 0.044753813592054 
1002	 4.44115731966064E-02 
1003	 4.43294428662346E-02 
1004	 4.41654998115233E-02 
1005	 0.044310405233564 
1006	 4.49826101002488E-02 
1007	 4.55771138339794E-02 
1008	 4.54052651391226E-02 
1009	 4.58211449854757E-02 
1010	 4.62145277005042E-02 
1011	 4.60391225632788E-02 
1012	 4.66041212833858E-02 
1013	 4.62774269717179E-02 
1014	 4.60963196411521E-02 
1015	 4.55768761516051E-02 
1016	 4.56602075865475E-02 
1017	 4.59476453301613E-02 
1018	 4.62018307118775E-02 
1019	 4.65877866174937E-02 
1020	 4.69232870418535E-02 
1021	 4.74931429066008E-02 
1022	 0.047706910636056 
1023	 0.046974099056276 
1024	 4.66202147526958E-02 
1025	 4.62937120579103E-02 
1026	 4.53905634417037E-02 
1027	 4.51685826735715E-02 
1028	 4.56397451709391E-02 
1029	 4.60131534085931E-02 
1030	 4.65542361150582E-02 
1031	 4.67485376553977E-02 
1032	 4.70096808840083E-02 
1033	 4.73324994585424E-02 
1034	 4.74236612597816E-02 
1035	 4.75237344897122E-02 
1036	 4.82561517534182E-02 
1037	 4.81795327470182E-02 
1038	 4.75908100383617E-02 
1039	 4.64511023505983E-02 
1040	 4.56733739526411E-02 
1041	 4.53920836460643E-02 
1042	 4.54925194549359E-02 
1043	 4.63865801690201E-02 
1044	 4.66713976403703E-02 
1045	 4.69559985605932E-02 
1046	 4.72627272706649E-02 
1047	 4.73341066888386E-02 
1048	 4.76428439701745E-02 
1049	 4.83774171091182E-02 
1050	 4.86691187047256E-02 
1051	 4.86114993549817E-02 
1052	 4.88516630273312E-02 
1053	 4.92694178024866E-02 
1054	 4.93378001351989E-02 
1055	 0.0491865155438 
1056	 4.93203516187797E-02 
1057	 4.94651564430196E-02 
1058	 4.93278091125022E-02 
1059	 4.94908348055198E-02 
1060	 5.02872214454864E-02 
1061	 5.02822678684332E-02 
1062	 4.95163652042707E-02 
1063	 0.049643698860315 
1064	 5.02371761984978E-02 
1065	 5.01888163945681E-02 
1066	 5.03170591992183E-02 
1067	 5.02970049855575E-02 
1068	 4.91331637653198E-02 
1069	 4.89986137920883E-02 
1070	 5.01057263831209E-02 
1071	 5.03854919833814E-02 
1072	 5.03577915879214E-02 
1073	 5.07708489635719E-02 
1074	 5.07034510844513E-02 
1075	 4.98112556014905E-02 
1076	 4.98495341242461E-02 
1077	 5.05707971637077E-02 
1078	 5.05412235728729E-02 
1079	 5.04245984100128E-02 
1080	 5.02993441816557E-02 
1081	 4.96233095951413E-02 
1082	 4.93119151706412E-02 
1083	 0.049448466927707 
1084	 4.93510094102064E-02 
1085	 4.88826143765161E-02 
1086	 4.88634328731319E-02 
1087	 4.93281721264921E-02 
1088	 4.93211577623216E-02 
1089	 4.91450184580283E-02 
1090	 4.93113206747253E-02 
1091	 4.92495091122296E-02 
1092	 4.86374165925593E-02 
1093	 4.85936134957563E-02 
1094	 4.89699770758615E-02 
1095	 4.92267275167581E-02 
1096	 4.96537939524335E-02 
1097	 4.99120851947052E-02 
1098	 5.00018972250051E-02 
1099	 5.03139567121527E-02 
1100	 5.07802525560966E-02 
1101	 5.10697829001452E-02 
1102	 5.17468398891569E-02 
1103	 5.20169806111088E-02 
1104	 5.16038230471382E-02 
1105	 5.13635165782842E-02 
1106	 5.14700992271636E-02 
1107	 5.14595939503407E-02 
1108	 5.19579607651518E-02 
1109	 5.35361902291395E-02 
1110	 5.44136320579935E-02 
1111	 5.50930609436771E-02 
1112	 0.056149088422327 
1113	 5.71731344405597E-02 
1114	 5.79609200079582E-02 
1115	 5.99035113920576E-02 
1116	 6.15240824921376E-02 
1117	 6.11942069551063E-02 
1118	 6.18026412023786E-02 
1119	 0.063816670363258 
1120	 6.48941810788121E-02 
1121	 6.22017995372229E-02 
1122	 6.49551619052394E-02 
1123	 7.82678616199345E-02 
1124	 0.083931156825713 
1125	 8.60206186653089E-02 
1126	 8.97067891121632E-02 
1127	 8.16304202697333E-02 
1128	 6.32497580251418E-02 
1129	 6.00862437724967E-02 
1130	 6.57585181559446E-02 
1131	 7.00263208521718E-02 
1132	 7.96291317895705E-02 
1133	 7.72682365479601E-02 
1134	 6.87712408706575E-02 
1135	 6.79990799587511E-02 
1136	 6.72494230127577E-02 
1137	 6.65358599572459E-02 
1138	 0.073132196956266 
1139	 6.78585109017455E-02 
1140	 5.84435114895615E-02 
1141	 0.057074377834081 
1142	 5.74004843229702E-02 
1143	 0.061046042019968 
1144	 6.53984311323465E-02 
1145	 6.54022460235054E-02 
1146	 0.061887467279818 
1147	 5.90137732451237E-02 
1148	 0.062479565061819 
1149	 6.13126451711255E-02 
1150	 5.80389699500172E-02 
1151	 5.31365959875474E-02 
1152	 0.055096382526952 
1153	 5.72809081508652E-02 
1154	 0.057058940013665 
1155	 6.07476610523838E-02 
1156	 5.83981421514465E-02 
1157	 5.45440269952643E-02 
1158	 5.51240219778811E-02 
1159	 5.38039053492871E-02 
1160	 5.25214596865869E-02 
1161	 5.31437184460097E-02 
1162	 5.30109717636486E-02 
1163	 5.35376493124968E-02 
1164	 5.34511376854791E-02 
1165	 5.12706857445105E-02 
1166	 5.05569735147067E-02 
1167	 5.07112691434587E-02 
1168	 5.12466725023114E-02 
1169	 5.31078593549324E-02 
1170	 5.30618429986979E-02 
1171	 5.26730913607777E-02 
1172	 5.15421682924455E-02 
1173	 5.12300078422153E-02 
1174	 0.050668177714028 
1175	 0.050381073248448 
1176	 5.06007726057317E-02 
1177	 4.98031302459897E-02 
1178	 4.89400973812164E-02 
1179	 4.91426230698852E-02 
1180	 4.96035570885146E-02 
1181	 5.03630800666455E-02 
1182	 5.16827432820932E-02 
1183	 5.14941479276372E-02 
1184	 4.98098043973233E-02 
1185	 4.97282823694651E-02 
1186	 5.05085384547668E-02 
1187	 5.00148338176569E-02 
1188	 0.049332959615233 
1189	 4.86003884359974E-02 
1190	 4.75827111977478E-02 
1191	 0.047259008527875 
1192	 4.70802943099955E-02 
1193	 4.79402951892436E-02 
1194	 0.048198863128674 
1195	 0.047906547734832 
1196	 4.81983903499078E-02 
1197	 4.87814804358506E-02 
1198	 4.96425446483758E-02 
1199	 5.02416488168685E-02 
1200	 4.96464052500588E-02 
1201	 4.92603277238881E-02 
1202	 4.91833516990718E-02 
1203	 4.85991160220012E-02 
1204	 4.81671177033184E-02 
1205	 4.76831399567689E-02 
1206	 4.74192216953096E-02 
1207	 4.74425606068948E-02 
1208	 4.74075102260378E-02 
1209	 0.048040317182162 
1210	 4.83932106608185E-02 
1211	 4.79182464398217E-02 
1212	 4.76911689176162E-02 
1213	 4.78866475239645E-02 
1214	 4.77208687591814E-02 
1215	 4.71529394989952E-02 
1216	 4.68391504375093E-02 
1217	 4.73856531783015E-02 
1218	 4.72737161116011E-02 
1219	 4.66172772699485E-02 
1220	 4.67173920396687E-02 
1221	 4.68191352486259E-02 
1222	 4.64577277523417E-02 
1223	 4.64034438350332E-02 
1224	 4.64772667700536E-02 
1225	 4.60965775409012E-02 
1226	 4.54857688612548E-02 
1227	 4.56180176490796E-02 
1228	 4.58427576987779E-02 
1229	 4.54009637818262E-02 
1230	 4.54413729327528E-02 
1231	 4.54086331628251E-02 
1232	 4.53011686479335E-02 
1233	 4.54599078579526E-02 
1234	 4.50839051766769E-02 
1235	 4.49646951332672E-02 
1236	 4.48450069984063E-02 
1237	 4.48245413332851E-02 
1238	 4.49535777411216E-02 
1239	 4.49977687340111E-02 
1240	 4.48119994208328E-02 
1241	 0.044778523991632 
1242	 4.48277075790347E-02 
1243	 0.044936591099036 
1244	 4.49786669694226E-02 
1245	 4.44364399192619E-02 
1246	 4.40125014114149E-02 
1247	 4.46022938649493E-02 
1248	 4.50611495606954E-02 
1249	 4.49391422680273E-02 
1250	 4.49024041622496E-02 
1251	 0.044354794170871 
1252	 4.38389830119103E-02 
1253	 0.044246222064384 
1254	 4.39008692127394E-02 
1255	 0.043108253225452 
1256	 4.33485728052348E-02 
1257	 4.44568580929223E-02 
1258	 4.45727892003593E-02 
1259	 4.48666921532241E-02 
1260	 4.52407884349781E-02 
1261	 4.50240656578676E-02 
1262	 4.48218025829297E-02 
1263	 4.48401823016485E-02 
1264	 4.52644170987853E-02 
1265	 4.50562987987569E-02 
1266	 4.46532214417558E-02 
1267	 0.044905172389115 
1268	 0.045544233202098 
1269	 4.60176108294986E-02 
1270	 0.045489651831761 
1271	 0.045615783098529 
1272	 4.61931669246776E-02 
1273	 4.55008631196131E-02 
1274	 4.50879451762008E-02 
1275	 4.52636640976006E-02 
1276	 4.46514186965189E-02 
1277	 4.42644288590254E-02 
1278	 4.48250487779677E-02 
1279	 4.50061211263603E-02 
1280	 0.044700471637522 
1281	 4.46847438943917E-02 
1282	 4.52239364634933E-02 
1283	 4.50718366452345E-02 
1284	 0.043955800744849 
1285	 4.39808557836798E-02 
1286	 4.48113297114558E-02 
1287	 4.46931882832971E-02 
1288	 0.044355200918267 
1289	 4.48530326972852E-02 
1290	 4.55720737367161E-02 
1291	 4.52807463560691E-02 
1292	 4.54224556439458E-02 
1293	 4.55682277114942E-02 
1294	 4.53548471123484E-02 
1295	 4.53271777661877E-02 
1296	 4.57206971260165E-02 
1297	 4.68109007550165E-02 
1298	 4.66674779844956E-02 
1299	 4.58853124406774E-02 
1300	 4.63350558784543E-02 
1301	 0.046465632200804 
1302	 4.65108692433857E-02 
1303	 0.046981283878363 
1304	 4.68344488148034E-02 
1305	 4.75005116527402E-02 
1306	 0.047769192085712 
1307	 4.78774018805737E-02 
1308	 0.047991754827159 
1309	 4.79354093903251E-02 
1310	 4.77919550460858E-02 
1311	 0.047775192914906 
1312	 4.82845699216531E-02 
1313	 4.90750165589446E-02 
1314	 0.049347262002224 
1315	 4.98636340843912E-02 
1316	 5.01678567072648E-02 
1317	 4.88938033940689E-02 
1318	 4.90463566571028E-02 
1319	 5.15884430144516E-02 
1320	 5.20971990503505E-02 
1321	 5.16317406104303E-02 
1322	 5.16149234850181E-02 
1323	 5.18270864838717E-02 
1324	 5.07428131537219E-02 
1325	 0.049648893081772 
1326	 5.07375722264437E-02 
1327	 5.20209983540449E-02 
1328	 5.26181559250018E-02 
1329	 5.46053625805812E-02 
1330	 0.055435049384005 
1331	 5.51160521302893E-02 
1332	 5.50857355389067E-02 
1333	 5.27132173505443E-02 
1334	 0.051315837275238 
1335	 5.25970104224337E-02 
1336	 5.65160548022611E-02 
1337	 5.66618230576606E-02 
1338	 5.70220037286272E-02 
1339	 5.96258766379803E-02 
1340	 6.08354375773024E-02 
1341	 5.93168371029557E-02 
1342	 5.89845139266812E-02 
1343	 6.11209710660514E-02 
1344	 0.06092003636194 
1345	 5.87720344012521E-02 
1346	 6.22922682587343E-02 
1347	 6.48495539804905E-02 
1348	 4.98203739690866E-02 
1349	 4.14975688807726E-02 
1350	 5.51196713561992E-02 
1351	 6.41904705639747E-02 
1352	 0.084363287884404 
1353	 0.100898325631727 
1354	 0.125615049406122 
1355	 9.12577723670081E-02 
1356	 8.37312393999318E-03 
1357	-7.96895314633061E-02 
1358	 1.84030589373661E-02 
1359	 0.213449381349488 
1360	 0.307241604336421 
1361	 0.191911903194401 
1362	 0.203318590423539 
1363	 0.310173102418214 
1364	 0.399101854791041 
1365	 0.559711349875828 
1366	 0.40970536706992 
1367	 0.143557030820192 
1368	 8.94223837415087E-02 
1369	 0.241379158867587 
1370	 0.226945836070772 
1371	-0.127717977132276 
1372	-0.228967623937311 
1373	 0.425951536880576 
1374	 0.595125987781566 
1375	 0.78772469357952 
1376	 1.17249265867944 
1377	 0.932947136544351 
1378	 0.732529193899643 
1379	 0.460355530493715 
1380	 0.595949933376754 
1381	 0.944924898922623 
1382	 0.34579263963736 
1383	 0.127477065340672 
1384	 6.44635387076796E-02 
1385	-0.220523991077298 
1386	-0.326090975487412 
1387	-0.292204566950264 
1388	-0.227634497621233 
1389	-0.354407543188204 
1390	-0.299568701173115 
1391	 0.026233409458063 
1392	 0.776968126370594 
1393	 0.652100698090068 
1394	 0.519430212566275 
1395	 0.346099186982791 
1396	 0.181087496127122 
1397	 3.35631759249739 
1398	-0.645681826597288 
1399	 0.078100332846432 
1400	 7.92447540499672 
1401	 0.161932520659133 
1402	 1.16339166711054 
1403	 2.50986478308561 
1404	 45.4567621308555 
1405	 18.7546408960427 
1406	 11.865769882648 
1407	 1.78045518805434 
1408	 0.306677614035626 
1409	 0.29542271404958 
1410	 1.30480115243778 
1411	-1.30989977940361 
1412	 0.463287838163905 
1413	 0.436050594933287 
1414	-0.129556933918349 
1415	-0.086555063840271 
1416	 0.186475640901109 
1417	 0.321168720807353 
1418	 0.238641537636551 
1419	 0.246813324551792 
1420	 0.404667500318621 
1421	 0.376624869564972 
1422	 0.238659364400261 
1423	 0.13581311478223 
1424	-1.02283497165602E-02 
1425	-1.83486903608083E-02 
1426	 8.45449928361443E-02 
1427	 8.82288189264164E-02 
1428	 4.04167476033738E-02 
1429	 6.87060796536134E-02 
1430	 0.109692745141975 
1431	 0.134728163429566 
1432	 0.295490874538473 
1433	 0.313642589028565 
1434	 0.136935963926946 
1435	 0.126905965738843 
1436	 0.206383120137328 
1437	 0.170470904572294 
1438	 9.10757956160743E-02 
1439	 0.103162970294554 
1440	 9.56267284769434E-02 
1441	 6.10017248250163E-02 
1442	 2.49385336736729E-02 
1443	 1.45745681373637E-02 
1444	 2.08457333175266E-02 
1445	-5.31279405526046E-03 
1446	 1.26463597193858E-02 
1447	 5.13569226663858E-02 
1448	 5.28291481113269E-02 
1449	 6.32455183299041E-02 
1450	 8.46572769237516E-02 
1451	 8.71108364459626E-02 
1452	 8.68518840686911E-02 
1453	 8.90827146596262E-02 
1454	 8.79303580988034E-02 
1455	 9.02345182244999E-02 
1456	 8.24785785781398E-02 
1457	 6.65467961456602E-02 
1458	 6.49392414732339E-02 
1459	 6.37380628898352E-02 
1460	 6.33492645868212E-02 
1461	 7.00924624846881E-02 
1462	 7.39409036212393E-02 
1463	 7.78181182347266E-02 
1464	 7.69764847601061E-02 
1465	 7.15989389544502E-02 
1466	 7.36169182400299E-02 
1467	 7.89129279368071E-02 
1468	 7.38476821377805E-02 
1469	 6.88004448718583E-02 
1470	 6.75617336765199E-02 
1471	 5.50801303547105E-02 
1472	 5.18549268662531E-02 
1473	 5.95379859419367E-02 
1474	 6.70277935665155E-02 
1475	 7.71467351522117E-02 
1476	 7.71740865820055E-02 
1477	 7.39542856911241E-02 
1478	 7.69998776846361E-02 
1479	 8.24223150237405E-02 
1480	 7.67135643205933E-02 
1481	 6.59974373336022E-02 
1482	 6.66797225619354E-02 
1483	 6.57486827330887E-02 
1484	 6.34991642652926E-02 
1485	 6.87282410486686E-02 
1486	 7.02307715058073E-02 
1487	 6.71239613343716E-02 
1488	 6.48893829885886E-02 
1489	 6.49497928833985E-02 
1490	 6.39671655967291E-02 
1491	 0.059643195603284 
1492	 5.87122291916852E-02 
1493	 6.09195655552173E-02 
1494	 6.04189537122699E-02 
1495	 0.058903602830797 
1496	 5.86845335394742E-02 
1497	 5.82741526804527E-02 
1498	 5.74920220864155E-02 
1499	 5.77866636171607E-02 
1500	 5.74344914077929E-02 
1501	 5.50935126250941E-02 
1502	 5.44553186695041E-02 
1503	 5.56457889874332E-02 
1504	 5.53508798455084E-02 
1505	 5.44403876713368E-02 
1506	 5.42496696398249E-02 
1507	 5.45889309846412E-02 
1508	 5.40167473710773E-02 
1509	 5.37054845877233E-02 
1510	 5.35249199849834E-02 
1511	 5.24733749535979E-02 
1512	 5.21322219106199E-02 
1513	 5.24152222637239E-02 
1514	 5.26575264004643E-02 
1515	 5.28015653649601E-02 
1516	 5.26622544201094E-02 
1517	 5.29318795458704E-02 
1518	 5.34258233805867E-02 
1519	 5.31174229087318E-02 
1520	 0.052291724377596 
1521	 5.17178248983008E-02 
1522	 5.12796210044137E-02 
1523	 5.08424899560199E-02 
1524	 5.07130192949303E-02 
1525	 5.06055179938332E-02 
1526	 5.03500927104586E-02 
1527	 5.00025764712085E-02 
1528	 4.99939641682118E-02 
1529	 5.06757275929945E-02 
1530	 5.05559971801227E-02 
1531	 5.01656639752615E-02 
1532	 5.05094140842718E-02 
1533	 5.03581302880296E-02 
1534	 4.98070534109999E-02 
1535	 4.95958524184541E-02 
1536	 4.92717379595519E-02 
1537	 4.83258446902127E-02 
1538	 4.78845704323344E-02 
1539	 4.83039214032455E-02 
1540	 4.86100547116096E-02 
1541	 4.90876067055977E-02 
1542	 0.049367749752969 
1543	 4.89343848431544E-02 
1544	 4.87312956575782E-02 
1545	 0.048377967616845 
1546	 4.77289943711059E-02 
1547	 4.78971526486758E-02 
1548	 4.82030807693426E-02 
1549	 4.79506443687823E-02 
1550	 4.77250827887578E-02 
1551	 4.80656991546987E-02 
1552	 4.86489563305746E-02 
1553	 4.87593297141547E-02 
1554	 4.86235346382254E-02 
1555	 4.81398360424664E-02 
1556	 4.74221468660838E-02 
1557	 4.75045385296648E-02 
1558	 4.82740147667002E-02 
1559	 4.89019889804551E-02 
1560	 4.89311905719251E-02 
1561	 4.83730144791206E-02 
1562	 4.75644046787772E-02 
1563	 4.71471473363394E-02 
1564	 4.72163789692799E-02 
1565	 4.70030782220426E-02 
1566	 4.73962553600069E-02 
1567	 4.85520516139148E-02 
1568	 4.83441881642203E-02 
1569	 4.76553874742052E-02 
1570	 4.79586456738424E-02 
1571	 4.81763694183891E-02 
1572	 4.81440536399281E-02 
1573	 4.85525316412707E-02 
1574	 4.88133757991243E-02 
1575	 4.81044074573365E-02 
1576	 4.78883030981555E-02 
1577	 4.83012357454892E-02 
1578	 4.84549837237811E-02 
1579	 4.87068411747274E-02 
1580	 4.86701673027816E-02 
1581	 4.87351112870615E-02 
1582	 4.91341866360305E-02 
1583	 4.93385221294044E-02 
1584	 4.89228138648841E-02 
1585	 4.80513254989214E-02 
1586	 4.76988968326113E-02 
1587	 4.76524940432619E-02 
1588	 4.69949090592812E-02 
1589	 4.67745338409162E-02 
1590	 4.72713349771445E-02 
1591	 4.66666818819468E-02 
1592	 0.046325480112688 
1593	 4.69301584091753E-02 
1594	 0.046748403430015 
1595	 4.69666481652823E-02 
1596	 4.74863984603153E-02 
1597	 4.79412901835499E-02 
1598	 4.89482495247534E-02 
1599	 4.91912680084116E-02 
1600	 4.91609381478862E-02 
1601	 4.90824007325914E-02 
1602	 4.80683704305792E-02 
1603	 4.70793346224012E-02 
1604	 4.71078198958837E-02 
1605	 4.76259243939197E-02 
1606	 4.74876686594446E-02 
1607	 0.047768284710753 
1608	 4.84687998282685E-02 
1609	 4.79489895175146E-02 
1610	 4.77246792164263E-02 
1611	 0.04800465844237 
1612	 4.75966279968746E-02 
1613	 0.04724181479183 
1614	 4.68797997270305E-02 
1615	 4.59840422460441E-02 
1616	 4.57912733376467E-02 
1617	 0.046615925214505 
1618	 4.70742975983646E-02 
1619	 4.72870725445272E-02 
1620	 0.047518154459534 
1621	 4.72797446262948E-02 
1622	 0.046848286809885 
1623	 4.64756990496706E-02 
1624	 4.61457376332217E-02 
1625	 4.61657107242693E-02 
1626	 4.61585794903923E-02 
1627	 4.63947946899074E-02 
1628	 4.71076547057196E-02 
1629	 4.71887518453954E-02 
1630	 4.70783210139588E-02 
1631	 0.047403420453244 
1632	 4.72653676318016E-02 
1633	 4.69600230302413E-02 
1634	 4.72454533010486E-02 
1635	 0.047129354353617 
1636	 4.65825389116785E-02 
1637	 0.045987047198246 
1638	 4.54609185496786E-02 
1639	 4.63548286336221E-02 
1640	 0.047748796597524 
1641	 4.78899773030629E-02 
1642	 4.73233405572351E-02 
1643	 4.67986019287908E-02 
1644	 4.65820785212939E-02 
1645	 4.66250807932584E-02 
1646	 4.69493743655867E-02 
1647	 4.70494658904972E-02 
1648	 4.63643388265814E-02 
1649	 4.64622726064976E-02 
1650	 4.77452351153396E-02 
1651	 4.84593026022819E-02 
1652	 4.81992650903005E-02 
1653	 4.77216528046258E-02 
1654	 4.77407988557787E-02 
1655	 0.047513730557624 
1656	 4.70651366509653E-02 
1657	 4.70645339065268E-02 
1658	 4.70011761634455E-02 
1659	 4.60342687474807E-02 
1660	 4.65711734447391E-02 
1661	 4.86665437044584E-02 
1662	 4.86335496061465E-02 
1663	 4.82528386861393E-02 
1664	 4.81646761156397E-02 
1665	 4.66552258596934E-02 
1666	 4.63158804064198E-02 
1667	 4.72184858486176E-02 
1668	 4.69819545108781E-02 
1669	 4.73355253541458E-02 
1670	 4.71021353392436E-02 
1671	 4.64169323327856E-02 
1672	 4.69222149593995E-02 
1673	 0.046727612943028 
1674	 4.62138825873458E-02 
1675	 4.65106404648384E-02 
1676	 4.65523615225004E-02 
1677	 4.71327527221905E-02 
1678	 0.047761228734321 
1679	 4.75339150686391E-02 
1680	 4.67836711521931E-02 
1681	 4.57205078784937E-02 
1682	 4.60915456306995E-02 
1683	 4.66973742950783E-02 
1684	 4.63217712573159E-02 
1685	 0.046836278621258 
1686	 4.64182083401712E-02 
1687	 4.61106433901067E-02 
1688	 4.73835331142006E-02 
1689	 4.65595394727939E-02 
1690	 4.58948289237316E-02 
1691	 4.70429614350667E-02 
1692	 4.64088960575783E-02 
1693	 4.53781055770822E-02 
1694	 4.61976058860443E-02 
1695	 4.64925188630435E-02 
1696	 4.61469167561384E-02 
1697	 4.75270289881071E-02 
1698	 4.83345949543457E-02 
1699	 4.71887982948644E-02 
1700	 4.75450731237555E-02 
1701	 4.85912895267592E-02 
1702	 0.047853221728409 
1703	 4.75329570094325E-02 
1704	 4.78637261588962E-02 
1705	 4.79627392746288E-02 
1706	 4.82621181435429E-02 
1707	 4.78384009958635E-02 
1708	 4.76766429961591E-02 
1709	 4.78618253096501E-02 
1710	 4.76449764691775E-02 
1711	 4.85167782794142E-02 
1712	 4.89030696278217E-02 
1713	 4.80183063387986E-02 
1714	 4.81778137372043E-02 
1715	 4.82744406364275E-02 
1716	 4.78088635373356E-02 
1717	 4.79689819579952E-02 
1718	 4.80337551815644E-02 
1719	 4.82915870787584E-02 
1720	 4.88178389137668E-02 
1721	 4.93038269660515E-02 
1722	 4.95105170269679E-02 
1723	 4.87667647704536E-02 
1724	 4.85956511420398E-02 
1725	 4.90671380554691E-02 
1726	 4.87918858879963E-02 
1727	 4.94437104076918E-02 
1728	 0.04877048908859 
1729	 4.69658506576155E-02 
1730	 4.76861316580337E-02 
1731	 4.78189770057305E-02 
1732	 4.79250231030778E-02 
1733	 4.98137294068228E-02 
1734	 5.03370192849367E-02 
1735	 4.97097464934543E-02 
1736	 4.95169160672688E-02 
1737	 4.94881992226341E-02 
1738	 4.85798856987784E-02 
1739	 4.79755765702741E-02 
1740	 0.049462043487107 
1741	 4.99807459406369E-02 
1742	 4.93844432049025E-02 
1743	 5.04049447181208E-02 
1744	 5.02020693109608E-02 
1745	 4.98198662470425E-02 
1746	 5.09242534411024E-02 
1747	 5.10095346004983E-02 
1748	 5.17106431876202E-02 
1749	 5.16621902094776E-02 
1750	 5.00521313702667E-02 
1751	 4.98389115663069E-02 
1752	 4.94577737705289E-02 
1753	 4.89172243997113E-02 
1754	 4.95283974247279E-02 
1755	 0.050995466101545 
1756	 5.31589068854811E-02 
1757	 0.055089264871963 
1758	 5.46796321768642E-02 
1759	 0.052458908564884 
1760	 5.16437663649883E-02 
1761	 0.053732668565632 
1762	 5.55564922910487E-02 
1763	 0.056549431593458 
1764	 5.62540402083001E-02 
1765	 5.43532440489084E-02 
1766	 5.39404974552129E-02 
1767	 5.52395290977067E-02 
1768	 5.53253824664846E-02 
1769	 5.30542263631192E-02 
1770	 5.20656670724357E-02 
1771	 5.06463114028759E-02 
1772	 4.91494375421429E-02 
1773	 5.48292470572413E-02 
1774	 5.87440960436588E-02 
1775	 5.60244504898955E-02 
1776	 5.71107919964826E-02 
1777	 5.46059907823466E-02 
1778	 5.32255312971511E-02 
1779	 6.07485924286377E-02 
1780	 5.99011952606074E-02 
1781	 4.71487140249459E-02 
1782	 4.79275894945796E-02 
1783	 5.50024095313588E-02 
1784	 5.39897672120496E-02 
1785	 5.93446438207989E-02 
1786	 5.94230755876574E-02 
1787	 4.28265089479549E-02 
1788	 0.04333293852289 
1789	 6.08981161775849E-02 
1790	 5.62512834413286E-02 
1791	 5.98270336926806E-02 
1792	 4.67109882154917E-02 
1793	 2.37275106339058E-02 
1794	 2.99690991301103E-02 
1795	 0.034488634987121 
1796	 5.80959946499214E-02 
1797	 9.91369595868811E-02 
1798	 7.39791236965965E-02 
1799	 4.31589730707364E-02 
1800	 3.43797903423308E-02 
1801	 1.72411549528663E-02 
1802	 0.128593594352744 
1803	 0.163877977939697 
1804	 3.76622472840515E-03 
1805	-5.04353013551404E-02 
1806	-0.144603403850921 
1807	-0.185590726897871 
1808	-9.01901030942988E-02 
1809	 4.02581876234629E-02 
1810	 0.399218449688278 
1811	 0.650161311416314 
1812	-2.67148058121294 
1813	-0.970771668334744 
1814	 7.41884962711969 
1815	-1.82364890217631 
1816	 9.25553175414583E-02 
1817	-0.203551757311327 
1818	-1.00691057210426 
1819	-1.43144460187216 
1820	-1.21975864053315 
1821	 0.726804439240993 
1822	 0.86559471274998 
1823	 1.06318561421164 
1824	 0.830689398524517 
1825	-0.740956555697024 
1826	-1.12905859299887 
1827	-0.277658971475156 
1828	-2.86840118303178E-02 
1829	 0.391288307294326 
1830	 0.557153102234947 
1831	 0.64543080120819 
1832	 2.0312076036378 
1833	-1.86137068790513 
1834	-2.2662939347041 
1835	-2.37016519483858 
1836	-1.83391351778805 
1837	-2.54487361384462 
1838	-4.84290415283272 
1839	-2.46956790610285 
1840	-1.41963302913845 
1841	-4.51262311040229 
1842	 0.326529281507964 
1843	 0.845342463633169 
1844	-2.16143257427823 
1845	-1.52300390523805 
1846	-1.88477889707875 
1847	-1.95435660477945 
1848	-1.02613492907365 
1849	-3.49518994492051 
1850	-4.17729785275128 
1851	-2.09083901374615 
1852	-6.67550430569013 
1853	-1.95704219592747 
1854	-1.20123945122883 
1855	-0.370409929161924 
1856	 0.263806254841827 
1857	 0.483412343182696 
1858	 0.979546930423856 
1859	-67.0933648212223 
1860	 0.833642288495698 
1861	 0.595737035222607 
1862	 1.51256150093859 
1863	 1.4075076656428 
1864	 0.893328176770333 
1865	 0.903331701105263 
1866	 2.54818372607821 
1867	 14.4821759364987 
1868	-2.2736470324016 
1869	-0.793779701773689 
1870	-0.468496438304278 
1871	-0.546207452710986 
1872	-0.842426397293811 
1873	-0.401671030994788 
1874	 2.95480653731837E-02 
1875	 1.00608055592041 
1876	 7.68559166764145 
1877	-0.814374163490698 
1878	 0.239350542106959 
1879	 1.33914594964905 
1880	 1.73628434187956 
1881	 2.5069812336417 
1882	 3.17002120021493 
1883	 4.14727379639748 
1884	-449.56827376269 
1885	-1.60746953094913 
1886	 0.302179082240475 
1887	 1.32465034638436 
1888	 1.52762631401404 
1889	 1.19821609733783 
1890	 0.69027145353302 
1891	 0.722507215774779 
1892	 0.291369413205304 
1893	 14.3784121546177 
1894	-61.0692130160845 
1895	 4.98498724989005 
1896	-2.83442241025863 
1897	-1.96635938771729 
1898	-4.51082066803559 
1899	 2.72903266072198 
1900	 0.779357741351114 
1901	-0.19806452363977 
1902	-0.61875199442236 
1903	-4.52230395809887 
1904	 0.697459918979373 
1905	 1.09814623167169 
1906	 0.840841443303476 
1907	 1.33807034406763 
1908	 0.796302195017058 
1909	 0.236769188226172 
1910	 0.169403868027537 
1911	 4.22810767027426E-02 
1912	 6.00640489381185 
1913	 1.06285046354263 
1914	 1.10959798084234 
1915	 1.08955366046781 
1916	 1.13895601952871 
1917	 1.3754189672372 
1918	 0.578052346479748 
1919	 6.61852908301716E-02 
1920	-5.06487290881475E-02 
1921	 0.210078877836281 
1922	 1.16259986892551 
1923	 3.81242241356089 
1924	 2.66381101403603 
1925	 3.2010393063628 
1926	 3.45695360701221 
1927	 6.12964451188333 
1928	 3.0841047179208 
1929	 3.03618489079805 
1930	 4.63347066555717 
1931	-21.7832714555119 
1932	-1.87923929196363 
1933	-0.208362748202728 
1934	 0.231346759661293 
1935	 1.23185923029054 
1936	 1.38777943563538 
1937	-0.350903071000609 
1938	 0.241143723960396 
1939	 1.22345285788357 
1940	-1.1372144995016 
1941	-2.44334590238934 
1942	-34.7494616729699 
1943	 14.2963259516482 
1944	 1.90966332662608 
1945	 1.06766840485175 
1946	 1.08881905526785 
1947	 0.661813303710455 
1948	 0.235223488312609 
1949	 0.110614494950006 
1950	-0.182488940987182 
1951	-0.159516158721429 
1952	-0.171037325672858 
1953	-2.69540670708283E-02 
1954	-0.153691833163981 
1955	-0.132923895028023 
1956	 0.113235105243245 
1957	 0.123759466017352 
1958	 0.128316845143462 
1959	 0.224341498466581 
1960	 0.135390896061776 
1961	 7.28963672115957E-02 
1962	 0.114602121841091 
1963	 0.124825192797769 
1964	 0.10127560300815 
1965	 0.101329935584564 
1966	 0.102553694016644 
1967	 0.102086292154582 
1968	 0.092218314934655 
1969	 0.100256597386143 
1970	 0.112019278673639 
1971	 0.108296284391556 
1972	 9.72311797411642E-02 
1973	 7.93243453859194E-02 
1974	 5.46551029092096E-02 
1975	 3.51032371044845E-02 
1976	 3.63644370975157E-02 
1977	 3.97293854437329E-02 
1978	 3.93717704308485E-02 
1979	 4.44376711669235E-02 
1980	 5.52038169655997E-02 
1981	 5.76615536546799E-02 
1982	 5.71245373528957E-02 
1983	 5.85189438636397E-02 
1984	 0.056323703333446 
1985	 5.53281499141771E-02 
1986	 5.97890115070858E-02 
1987	 6.81973237863916E-02 
1988	 7.43444383066021E-02 
1989	 7.44808884184516E-02 
1990	 6.88949434704715E-02 
1991	 6.01523534399942E-02 
1992	 5.35836412879919E-02 
1993	 4.99983325400036E-02 
1994	 4.54711219463695E-02 
1995	 4.12642107260456E-02 
1996	 4.17639300866729E-02 
1997	 4.62422115144059E-02 
1998	 0.040202809397955 
1999	 3.55324749495608E-02 
2000	 3.76485991097718E-02 
2001	 0.035140435822761 
2002	 4.07068624714851E-02 
2003	 5.16952635059977E-02 
2004	 5.38695916345049E-02 
2005	 4.81067221159992E-02 
2006	 0.051500877990396 
2007	 6.60864984150489E-02 
2008	 8.04380068474245E-02 
2009	 7.92752472870638E-02 
2010	 6.07327624792146E-02 
2011	 5.64411913934577E-02 
2012	 5.01586269639489E-02 
2013	 3.80769915166488E-02 
2014	 4.42469095389064E-02 
2015	 4.75336288940294E-02 
2016	 0.047497893407467 
2017	 5.58072156323585E-02 
2018	 6.42800359173979E-02 
2019	 8.06063375239823E-02 
2020	 8.22724000399919E-02 
2021	 0.07691860263367 
2022	 0.076947950711662 
2023	 6.99707950241545E-02 
2024	 6.46565128813008E-02 
2025	 6.18595224819778E-02 
2026	 5.82072587351805E-02 
2027	 5.15410103417025E-02 
2028	 0.048456157883541 
2029	 5.05374254448906E-02 
2030	 4.91753831165033E-02 
2031	 4.82486209632112E-02 
2032	 4.92637260832599E-02 
2033	 0.04808770377602 
2034	 4.69816766356853E-02 
2035	 0.05284228188901 
2036	 5.63668218412012E-02 
2037	 5.59144197735828E-02 
2038	 5.83608928821235E-02 
2039	 5.92555139167505E-02 
2040	 5.80017889237898E-02 
2041	 5.70026278463871E-02 
2042	 5.53764717785179E-02 
2043	 5.43350180802018E-02 
2044	 5.21375622115695E-02 
2045	 5.07819185488642E-02 
2046	 5.27277929952706E-02 
2047	 0.055501196730365 
2048	 5.68829303840734E-02 
2049	 5.26248219488027E-02 
2050	 4.89190599416393E-02 
2051	 4.83507390401565E-02 
2052	 4.39381712551271E-02 
2053	 4.59140640246349E-02 
2054	 4.57908019395746E-02 
2055	 4.36575026152325E-02 
2056	 4.48195295903858E-02 
2057	 0.04801901701309 
2058	 5.02492909831904E-02 
2059	 5.51287586053779E-02 
2060	 5.71747717875621E-02 
2061	 5.70519947230602E-02 
2062	 6.17672142802995E-02 
2063	 5.74867390782576E-02 
2064	 5.58618234986927E-02 
2065	 6.35816676369399E-02 
2066	 6.07994587538179E-02 
2067	 5.73512305075748E-02 
2068	 5.81467958123914E-02 
2069	 5.03884363939694E-02 
2070	 4.48741951495439E-02 
2071	 4.89193153734261E-02 
2072	 0.052354160219791 
2073	 5.30731312986029E-02 
2074	 5.21205832750405E-02 
2075	 5.34465445880445E-02 
2076	 5.47302327155501E-02 
2077	 5.60894339436252E-02 
2078	 6.02993944424139E-02 
2079	 6.11050908952976E-02 
2080	 6.10715645353399E-02 
2081	 0.056986585526358 
2082	 5.32421006591979E-02 
2083	 5.15925942978888E-02 
2084	 5.09612390436971E-02 
2085	 5.03385997811347E-02 
2086	 5.05626009671183E-02 
2087	 5.40419005922986E-02 
2088	 5.87109584538369E-02 
2089	 5.84253696448144E-02 
2090	 5.91224823133274E-02 
2091	 6.11226929003312E-02 
2092	 5.94344438275468E-02 
2093	 5.42916472599357E-02 
2094	 5.34771807409171E-02 
2095	 5.17573594130249E-02 
2096	 4.95199495196463E-02 
2097	 4.87651672372388E-02 
2098	 4.79166053271805E-02 
2099	 4.46739649915566E-02 
2100	 4.65354778996386E-02 
2101	 5.02084246684826E-02 
2102	 0.053831984486621 
2103	 5.62212577255279E-02 
2104	 5.51240791861863E-02 
2105	 5.30004440701276E-02 
2106	 0.051282186617192 
2107	 4.80610785213917E-02 
2108	 4.66740996503533E-02 
2109	 4.74378452514169E-02 
2110	 0.048306143510993 
2111	 5.26269069258975E-02 
2112	 5.71866701463938E-02 
2113	 5.77020599827277E-02 
2114	 5.38860657473592E-02 
2115	 0.052819557731884 
2116	 4.90735375466885E-02 
2117	 4.86908437289205E-02 
2118	 5.31179121709255E-02 
2119	 5.46072664293175E-02 
2120	 5.61687913755846E-02 
2121	 5.58174643186267E-02 
2122	 5.54536732757793E-02 
2123	 5.35625998661458E-02 
2124	 5.25987525864615E-02 
2125	 5.41898282986592E-02 
2126	 5.43776513217235E-02 
2127	 5.51263421662625E-02 
2128	 5.61608391329075E-02 
2129	 5.56254384857463E-02 
2130	 5.55092625531366E-02 
2131	 5.52826419071909E-02 
2132	 5.55221976731367E-02 
2133	 5.55473043737763E-02 
2134	 5.56890846404261E-02 
2135	 5.64856398541364E-02 
2136	 5.72437987711403E-02 
2137	 5.78362500744212E-02 
2138	 5.77948332438748E-02 
2139	 5.92645640476854E-02 
2140	 5.76004661891599E-02 
2141	 0.051334181225863 
2142	 4.91990507899804E-02 
2143	 4.82998576124811E-02 
2144	 4.59975606842176E-02 
2145	 4.48254395289379E-02 
2146	 4.74992708350793E-02 
2147	 0.045921356119799 
2148	 4.51405637089315E-02 
2149	 4.91407673647354E-02 
2150	 5.26902260853257E-02 
2151	 5.95009590476942E-02 
2152	 6.26213590035793E-02 
2153	 6.07042179951142E-02 
2154	 6.03298158359836E-02 
2155	 5.91110584854366E-02 
2156	 5.90735131898875E-02 
2157	 5.93844825861635E-02 
2158	 6.28102442003569E-02 
2159	 6.19109360649029E-02 
2160	 5.87264027015862E-02 
2161	 5.61897484214169E-02 
2162	 5.11028028780674E-02 
2163	 4.81215291657622E-02 
2164	 4.62243324675147E-02 
2165	 4.42997732587706E-02 
2166	 4.08669177252714E-02 
2167	 4.20580185120691E-02 
2168	 4.83459558826224E-02 
2169	 5.06431487742143E-02 
2170	 5.39008551951278E-02 
2171	 5.74296765757575E-02 
2172	 5.42930329679523E-02 
2173	 5.07167237416462E-02 
2174	 5.02557483903913E-02 
2175	 4.74535993961173E-02 
2176	 4.32114125025947E-02 
2177	 3.91616561365157E-02 
2178	 3.67740932269377E-02 
2179	 3.57096041968481E-02 
2180	 3.79122712585551E-02 
2181	 4.04937215043417E-02 
2182	 3.92781259851443E-02 
2183	 4.16840900007874E-02 
2184	 4.71823469283268E-02 
2185	 5.03380361737576E-02 
2186	 5.12253982800718E-02 
2187	 5.02956101465912E-02 
2188	 5.02516816669519E-02 
2189	 4.52612203284921E-02 
2190	 4.75694615681148E-02 
2191	 0.057857702326933 
2192	 6.23881659778666E-02 
2193	 6.67790233791755E-02 
2194	 7.05294700007202E-02 
2195	 7.22394406334533E-02 
2196	 7.13329423504747E-02 
2197	 7.09135728876068E-02 
2198	 6.88035398359106E-02 
2199	 6.03857383187039E-02 
2200	 5.53256649014527E-02 
2201	 5.89009933110227E-02 
2202	 5.73199607649367E-02 
2203	 5.98993123812776E-02 
2204	 6.46002054202746E-02 
2205	 6.40065913330719E-02 
2206	 6.50238508918483E-02 
2207	 6.30904673761977E-02 
2208	 5.74850707276402E-02 
2209	 5.52010780463565E-02 
2210	 0.05327995137756 
2211	 4.94984664191207E-02 
2212	 4.90111727035987E-02 
2213	 4.81478445286498E-02 
2214	 0.04420260500535 
2215	 4.71915862488367E-02 
2216	 5.18952660884424E-02 
2217	 5.19513796072776E-02 
2218	 5.08309298485661E-02 
2219	 5.18131824848373E-02 
2220	 4.95370854698623E-02 
2221	 4.84830380624871E-02 
2222	 4.92108176023559E-02 
2223	 4.92377171213701E-02 
2224	 4.98413691629189E-02 
2225	 4.77898520277959E-02 
2226	 4.48932515372855E-02 
2227	 4.34978307191751E-02 
2228	 3.85469283319784E-02 
2229	 3.75519804262943E-02 
2230	 4.21132720166384E-02 
2231	 4.44234582972369E-02 
2232	 4.52183501931968E-02 
2233	 4.71684576438068E-02 
2234	 5.20707057946281E-02 
2235	 5.07045971228306E-02 
2236	 4.63224301297667E-02 
2237	 4.92493678500015E-02 
2238	 4.89765093331605E-02 
2239	 4.81770560438444E-02 
2240	 0.054184623391618 
2241	 5.57210248439234E-02 
2242	 5.54355802773056E-02 
2243	 5.69387166454017E-02 
2244	 5.79703601520742E-02 
2245	 5.26095873666033E-02 
2246	 0.045225283080233 
2247	 4.59992529192319E-02 
2248	 4.60779947165407E-02 
2249	 5.06255390214888E-02 
2250	 0.054549409275361 
2251	 4.97743767322192E-02 
2252	 4.90062511696538E-02 
2253	 0.050517551948666 
2254	 0.053392578466306 
2255	 5.87475358268461E-02 
2256	 5.71275433886813E-02 
2257	 5.05423627479385E-02 
2258	 4.58426291903604E-02 
2259	 4.71652792647163E-02 
2260	 5.02661624535383E-02 
2261	 6.18558221684806E-02 
2262	 6.44074328192848E-02 
2263	 0.065491820420995 
2264	 0.063226708911817 
2265	 0.054950860206885 
2266	 5.25800003392012E-02 
2267	 4.82947266966528E-02 
2268	 4.73469918940244E-02 
2269	 5.12722192277634E-02 
2270	 5.26607215156488E-02 
2271	 5.88446714640792E-02 
2272	 5.76964563162579E-02 
2273	 4.85818415955867E-02 
2274	 0.04463396221304 
2275	 4.00905605563511E-02 
2276	 0.035892821386147 
2277	 3.16408059656963E-02 
2278	 3.29955472629386E-02 
2279	 3.90142658270931E-02 
2280	 3.97324319907275E-02 
2281	 4.25767534179886E-02 
2282	 4.39570563596815E-02 
2283	 4.28378677654723E-02 
2284	 4.31098830465219E-02 
2285	 5.76776663535389E-02 
2286	 6.98109701292597E-02 
2287	 0.066435068565466 
2288	 6.52151571343643E-02 
2289	 5.56078191577079E-02 
2290	 4.59129145734477E-02 
2291	 6.27471311627869E-02 
2292	 7.63620442713725E-02 
2293	 7.65000344938175E-02 
2294	 8.30297571040166E-02 
2295	 8.45662202588373E-02 
2296	 6.72207901232878E-02 
2297	 5.43589322522164E-02 
2298	 6.28725816869836E-02 
2299	 6.06454531986574E-02 
2300	 6.00270796645044E-02 
2301	 7.78132475184634E-02 
2302	 7.81622424306878E-02 
2303	 7.48406676365142E-02 
2304	 7.57098345356914E-02 
2305	 5.43952374174196E-02 
2306	 4.73603995153589E-02 
2307	 5.22143784979314E-02 
2308	 4.36094889273773E-02 
2309	 4.98086295631609E-02 
2310	 5.32522105376529E-02 
2311	 4.69640825470809E-02 
2312	 5.55978251827412E-02 
2313	 6.33784953126742E-02 
2314	 5.93262018068991E-02 
2315	 6.35623069055692E-02 
2316	 7.94354773279538E-02 
2317	 9.03137339534102E-02 
2318	 9.54579257353326E-02 
2319	 9.89823870468697E-02 
2320	 8.30075479481299E-02 
2321	 7.97993874655545E-02 
2322	 8.79245751402377E-02 
2323	 7.37892655783787E-02 
2324	 0.083796824923195 
2325	 7.44146296471137E-02 
2326	 5.46495952758766E-02 
2327	 0.053571693545586 
2328	 1.41276561489403E-02 
2329	-6.39347740738709E-03 
2330	 5.01865112682452E-03 
2331	 8.66503864025732E-03 
2332	 2.57859720876458E-02 
2333	 0.044182448847604 
2334	 5.39857102008636E-02 
2335	 7.32770811286976E-02 
2336	 8.75176042644892E-02 
2337	 0.104996365182528 
2338	 0.121869617270404 
2339	 0.103190583646965 
2340	 0.092936846171757 
2341	 8.98392121796754E-02 
2342	 6.85245569504974E-02 
2343	 5.20335484739134E-02 
2344	 1.93577725126934E-02 
2345	-1.41025887319716E-02 
2346	-2.27644316887973E-02 
2347	 1.11931651645272E-02 
2348	 6.96392213209892E-02 
2349	 0.088633122518868 
2350	 8.22007927378456E-02 
2351	 3.58405175209804E-02 
2352	 1.62844270073151E-02 
2353	 5.81486092024395E-02 
2354	 9.18532717173907E-02 
2355	 0.133242119678288 
2356	 0.103652328669906 
2357	 3.88624723711637E-02 
2358	 4.44787063033358E-02 
2359	 5.26062114208941E-02 
2360	 9.38760702886993E-02 
2361	 0.149718359640175 
2362	 0.123010631320536 
2363	 0.113584255529446 
2364	 9.28168551290178E-02 
2365	 1.05278211730797E-02 
2366	-4.22488390829541E-02 
2367	-8.14138980343194E-02 
2368	-0.105452087531024 
2369	-0.117694232004448 
2370	-0.092926108196977 
2371	-8.50367143423478E-02 
2372	-0.098513607364833 
2373	-2.13814217256713E-02 
2374	 2.85060417832669E-02 
2375	 3.68930102851112E-02 
2376	 6.54487789477055E-02 
2377	 8.18374358171059E-02 
2378	 4.34449681543828E-02 
2379	 0.118554970456211 
2380	 0.24754409392609 
2381	 0.254519784124546 
2382	 0.372059100159244 
2383	 0.354519680822423 
2384	 6.94948565054568E-02 
2385	 8.77841800855614E-02 
2386	 0.187696208144973 
2387	 0.137719221917988 
2388	 0.340282193452476 
2389	 0.484472673374009 
2390	 0.340844204010525 
2391	 0.359318696915725 
2392	 0.394414723211929 
2393	 0.247159968114317 
2394	 0.157299894717846 
2395	 0.126473629210978 
2396	-7.5258298092575E-03 
2397	-4.16259154821523E-02 
2398	-2.05394941457768E-02 
2399	-1.52660650764476E-02 
2400	 3.67636061941219E-02 
2401	 7.56513533902185E-02 
2402	 3.58114908693867E-02 
2403	 2.20398514086062E-02 
2404	 6.00042801151461E-02 
2405	 9.54607956435427E-02 
2406	 0.267274142299949 
2407	 0.331514853610174 
2408	 0.467477616673262 
2409	 0.618042520042174 
2410	 0.394955844420072 
2411	 0.625079062270166 
2412	 0.731449272872625 
2413	 0.50465097293291 
2414	 0.70702878148045 
2415	 0.637957154160163 
2416	 0.622407754661772 
2417	 0.638640336424643 
2418	 0.378637474439418 
2419	 8.54512403693529E-02 
2420	-0.175181069088686 
2421	-0.615402288660388 
2422	-1.18971142119946 
2423	 83.3012390049792 
2424	 10.9388192597397 
2425	-4.02569155970791 
2426	 0.061851182080849 
2427	 1.48124167067293 
2428	 0.840014540797102 
2429	-1.44331379966857 
2430	-1.25972587310029 
2431	-1.06482422113222 
2432	-0.798077146944027 
2433	-0.246684020343812 
2434	-0.372014895097512 
2435	-0.911032777218216 
2436	-0.484714530865846 
2437	-0.463571111460807 
2438	-0.222467026423083 
2439	 1.11470304712748 
2440	 0.220536102022904 
2441	 0.116496434759222 
2442	 0.32784485636056 
2443	 0.195843697389542 
2444	 0.198735560143213 
2445	 9.24972818008189E-03 
2446	-0.868240016994741 
2447	 1.57157370687539 
2448	 2.50071798920495 
2449	 3.62140761550269 
2450	 4.44179730050629 
2451	 0.966170008809232 
2452	 1.07388629506944 
2453	 0.680666335865263 
2454	 0.116842019150032 
2455	 0.384794057433047 
2456	 0.745086497712076 
2457	 1.19935478226843 
2458	 0.338986566062765 
2459	 0.865305027947068 
2460	 0.584940802327307 
2461	 0.458979899343464 
2462	 0.549725337236015 
2463	-1.22257133298685 
2464	-0.776104237698202 
2465	 0.209698732314177 
2466	 0.905558697899617 
2467	 0.56273449278834 
2468	 0.796858761888136 
2469	 0.674180355555168 
2470	 0.906077783995656 
2471	 6.98447006970934 
2472	-8.58831427625279 
2473	-1.17375903039581 
2474	-0.899476017042225 
2475	-0.929275377089869 
2476	 0.258837521919518 
2477	-0.37170339254744 
2478	-0.914592691000057 
2479	-1.4134673837256 
2480	 5.27106350059158 
2481	 2.75628342434504 
2482	 1.87014342238913 
2483	 0.87119923114597 
2484	 0.168982209047137 
2485	-0.125636119681393 
2486	 0.040321991712449 
2487	 0.806243064114014 
2488	 3.27969886749388 
2489	-6.73312380370371 
2490	-11.9934836950128 
2491	 0.874564969444278 
2492	-9.44859161874892E-02 
2493	 0.201966819235847 
2494	 0.764017424066345 
2495	 1.59764248655331 
2496	 1.87547780310841 
2497	 1.92459916922455 
2498	 1.36883670154261 
2499	 0.794856407477962 
2500	 0.487619726696108 
