Wavelength	rt0801far00005.asd
350	 0.163478763155233 
351	 0.163699637364431 
352	 0.164121869719109 
353	 0.163867206051511 
354	 0.162945862230212 
355	 0.163362268486815 
356	 0.163291581490078 
357	 0.163287251467026 
358	 0.16397932693379 
359	 0.163097369108193 
360	 0.162350476893255 
361	 0.162578244491795 
362	 0.16371058978828 
363	 0.164268444558657 
364	 0.16396248035592 
365	 0.163277000906771 
366	 0.163549571771279 
367	 0.163495547919351 
368	 0.163303918153159 
369	 0.163375115662761 
370	 0.163452262240272 
371	 0.16340904565849 
372	 0.163389636499709 
373	 0.163625709962646 
374	 0.163605481930013 
375	 0.163601108918914 
376	 0.163771693885271 
377	 0.164005007052129 
378	 0.16394225796049 
379	 0.163984273750243 
380	 0.164431655321648 
381	 0.164758565131932 
382	 0.164544956444004 
383	 0.164247672312834 
384	 0.164613455536694 
385	 0.165080484133376 
386	 0.165299090707318 
387	 0.165267479028295 
388	 0.165351054381683 
389	 0.165953547050318 
390	 0.166300730479911 
391	 0.166065184223215 
392	 0.166557384555232 
393	 0.166655249206375 
394	 0.166580580192431 
395	 0.166937977597747 
396	 0.167602690592909 
397	 0.167716751630651 
398	 0.167483238895804 
399	 0.167944841363475 
400	 0.168119944483489 
401	 0.168134981251683 
402	 0.168236955720613 
403	 0.168552037314351 
404	 0.168861363209363 
405	 0.168928859090234 
406	 0.168696821312464 
407	 0.169083104316938 
408	 0.169418540064142 
409	 0.169447465933802 
410	 0.169430939214794 
411	 0.169755778710501 
412	 0.170038440798282 
413	 0.170070017264738 
414	 0.170416682853639 
415	 0.17066819280822 
416	 0.170852529136627 
417	 0.171145131491769 
418	 0.171463127545713 
419	 0.171777158185993 
420	 0.172123834086099 
421	 0.172598005160292 
422	 0.172965297470309 
423	 0.17309905118809 
424	 0.173104278371696 
425	 0.173670845406479 
426	 0.173986803910523 
427	 0.174191675043073 
428	 0.174784078054919 
429	 0.175230081681474 
430	 0.175703606591796 
431	 0.176319698482854 
432	 0.177047621473652 
433	 0.177494672795659 
434	 0.177850734732595 
435	 0.17828985127277 
436	 0.178470792785063 
437	 0.179002299117323 
438	 0.179655559082904 
439	 0.179847480950019 
440	 0.180288675190873 
441	 0.18074096104649 
442	 0.18112147066457 
443	 0.181733358000984 
444	 0.182168945373097 
445	 0.182550383220553 
446	 0.183022736806539 
447	 0.183208001744879 
448	 0.183458753951938 
449	 0.183834972989928 
450	 0.184167164542427 
451	 0.184435940190343 
452	 0.184558285932811 
453	 0.184600721509697 
454	 0.184956480922921 
455	 0.185163166063476 
456	 0.18529270281204 
457	 0.18554077179088 
458	 0.185661299042553 
459	 0.185747915172707 
460	 0.185869747506033 
461	 0.186041966094587 
462	 0.185973680852725 
463	 0.186022618960438 
464	 0.186373390857259 
465	 0.186366761616337 
466	 0.186455192770113 
467	 0.186639227184482 
468	 0.186728620583856 
469	 0.186861582453456 
470	 0.186957927559008 
471	 0.187031244907262 
472	 0.187241110569012 
473	 0.187490727008218 
474	 0.187676215959866 
475	 0.187758331858086 
476	 0.187916883874423 
477	 0.188116392328094 
478	 0.188362439876459 
479	 0.188680077736822 
480	 0.189002510010579 
481	 0.189202191370275 
482	 0.189321004144132 
483	 0.189763863631515 
484	 0.190123666433421 
485	 0.190404315655968 
486	 0.190750743423794 
487	 0.191176630544087 
488	 0.191608694214749 
489	 0.191983506769257 
490	 0.192269749084226 
491	 0.192855419171451 
492	 0.193293494435838 
493	 0.193360354144779 
494	 0.19388567982258 
495	 0.194495569698942 
496	 0.195064300323557 
497	 0.195581829934254 
498	 0.195983964119226 
499	 0.196381434279231 
500	 0.196879046278195 
501	 0.197546135322683 
502	 0.198132423251147 
503	 0.198616283640638 
504	 0.199084821482301 
505	 0.199737592125976 
506	 0.200336946459176 
507	 0.200907981316306 
508	 0.201661698429939 
509	 0.202198415399229 
510	 0.202728574155577 
511	 0.203416277615818 
512	 0.204095587331435 
513	 0.204795477744532 
514	 0.205466612573457 
515	 0.206055314456856 
516	 0.206701714625475 
517	 0.207509182106185 
518	 0.208441634214851 
519	 0.20931012910096 
520	 0.209989917036061 
521	 0.210633588634266 
522	 0.21139705398825 
523	 0.212205104059544 
524	 0.212851225105171 
525	 0.213510058909301 
526	 0.21456731282189 
527	 0.215462634095325 
528	 0.216185162961598 
529	 0.216863406045656 
530	 0.217743440882549 
531	 0.218553915091437 
532	 0.219320273981911 
533	 0.220166486954591 
534	 0.221121825929334 
535	 0.222021713399813 
536	 0.222833541528928 
537	 0.223678174793386 
538	 0.224575534809672 
539	 0.225415240180368 
540	 0.226165094453009 
541	 0.227176934364565 
542	 0.228064734091045 
543	 0.228879140071882 
544	 0.229904780869292 
545	 0.230740288305438 
546	 0.231549892403398 
547	 0.232436040518839 
548	 0.233240273969811 
549	 0.234089244595217 
550	 0.234979028688798 
551	 0.235864638230539 
552	 0.236753405356547 
553	 0.237552764388446 
554	 0.238313618614397 
555	 0.239241037095992 
556	 0.239996197871507 
557	 0.240736542203851 
558	 0.24160250868228 
559	 0.242294134352504 
560	 0.243018591115889 
561	 0.243771606651547 
562	 0.244431660996691 
563	 0.245088121023365 
564	 0.245749061214137 
565	 0.246394557302907 
566	 0.246966493451224 
567	 0.247576892928641 
568	 0.248183091682093 
569	 0.248698176249163 
570	 0.249171638219162 
571	 0.249550360540678 
572	 0.249888456486364 
573	 0.250348927962345 
574	 0.250666352261344 
575	 0.250959658065901 
576	 0.251357596308017 
577	 0.251757337357444 
578	 0.251948162061688 
579	 0.252070003758722 
580	 0.252425092956962 
581	 0.25256823153629 
582	 0.252587998342386 
583	 0.252600281794456 
584	 0.252649571457002 
585	 0.25265011060156 
586	 0.25260672871931 
587	 0.25254367345652 
588	 0.252380418616955 
589	 0.252324744730544 
590	 0.252342490112327 
591	 0.25213510328348 
592	 0.251940700299422 
593	 0.25171310728529 
594	 0.25138234807178 
595	 0.250950880545256 
596	 0.250593399115917 
597	 0.250169521063738 
598	 0.249422339304454 
599	 0.248759156137536 
600	 0.248231944985796 
601	 0.247845534001173 
602	 0.24761175576019 
603	 0.247404709938726 
604	 0.247273592482161 
605	 0.247276200069617 
606	 0.24719096762459 
607	 0.247104189652226 
608	 0.247095914060153 
609	 0.247212315640029 
610	 0.247178856550689 
611	 0.247119472609413 
612	 0.24716865381415 
613	 0.247239697405651 
614	 0.247197295027547 
615	 0.247129586006282 
616	 0.247205903915218 
617	 0.247032176413985 
618	 0.246934489066522 
619	 0.247009552332551 
620	 0.246860967443709 
621	 0.246783189516569 
622	 0.246751773897036 
623	 0.246678187883608 
624	 0.24668112342971 
625	 0.246623090358673 
626	 0.246533921283839 
627	 0.246596692618605 
628	 0.24653089933476 
629	 0.246485150570911 
630	 0.24655678994345 
631	 0.246472875622394 
632	 0.246566872529044 
633	 0.24663075418954 
634	 0.246311993443322 
635	 0.246278894046754 
636	 0.246350482331135 
637	 0.246339970041666 
638	 0.246170608641077 
639	 0.246082558593734 
640	 0.246054842720647 
641	 0.245986843154328 
642	 0.245795125659448 
643	 0.245688800130217 
644	 0.245675142630468 
645	 0.245595682979356 
646	 0.245544351096344 
647	 0.245392165398609 
648	 0.245132561911215 
649	 0.24513353012559 
650	 0.244953188327775 
651	 0.244650099809357 
652	 0.244434431672571 
653	 0.244059327557616 
654	 0.243674969662707 
655	 0.243248752773059 
656	 0.242539437734702 
657	 0.242141702975352 
658	 0.241776482647475 
659	 0.241197041360571 
660	 0.240828074001711 
661	 0.240544288822512 
662	 0.240301101189538 
663	 0.240099278796456 
664	 0.239843617415153 
665	 0.239643481880845 
666	 0.239552224180331 
667	 0.239489692801911 
668	 0.239391890312651 
669	 0.23924143104145 
670	 0.239061941535811 
671	 0.238961074340646 
672	 0.238821475250616 
673	 0.238731924395823 
674	 0.238956250214125 
675	 0.239121966216466 
676	 0.239313992399742 
677	 0.239552910476354 
678	 0.239422881660927 
679	 0.239563382839029 
680	 0.239880158170698 
681	 0.23998679689904 
682	 0.240035922442161 
683	 0.240345504168056 
684	 0.240823129759792 
685	 0.240828581771769 
686	 0.241140642160191 
687	 0.241560326948124 
688	 0.241693662599346 
689	 0.24178975917006 
690	 0.24193367339115 
691	 0.242088616964731 
692	 0.242123186670783 
693	 0.241883173060159 
694	 0.24160284791232 
695	 0.241366185575858 
696	 0.240867429382016 
697	 0.240494420333903 
698	 0.240202995485645 
699	 0.239852522195723 
700	 0.239378547447335 
701	 0.238631663896796 
702	 0.237772436113651 
703	 0.237111524776601 
704	 0.236254313547803 
705	 0.235365883040373 
706	 0.234546801886252 
707	 0.233489351185197 
708	 0.232259071439556 
709	 0.230990080413451 
710	 0.229773930198178 
711	 0.22823654838195 
712	 0.226619737090314 
713	 0.225075287253776 
714	 0.223584860647488 
715	 0.222419406200722 
716	 0.220948925710772 
717	 0.218634254907567 
718	 0.216455066330152 
719	 0.213930136138425 
720	 0.211742410772685 
721	 0.210006494828203 
722	 0.208034019438628 
723	 0.205861880353839 
724	 0.203809607236908 
725	 0.201539700805598 
726	 0.19890575159398 
727	 0.196087678414498 
728	 0.193198343502734 
729	 0.189937161242961 
730	 0.186280800903537 
731	 0.182826341862259 
732	 0.179927005733621 
733	 0.177282571104713 
734	 0.175130398597188 
735	 0.173416848846331 
736	 0.171597781124305 
737	 0.170540481758752 
738	 0.169812406655074 
739	 0.168978960365338 
740	 0.168443497543858 
741	 0.16809739408699 
742	 0.167898278879989 
743	 0.167823358553295 
744	 0.167797941570239 
745	 0.16783426425108 
746	 0.167872724980898 
747	 0.167747610691777 
748	 0.167818514325084 
749	 0.167868733386501 
750	 0.167708396619716 
751	 0.167741888416638 
752	 0.167712678503247 
753	 0.167685593610503 
754	 0.167852092666945 
755	 0.16788359543472 
756	 0.16802267928791 
757	 0.168325740059022 
758	 0.168540010953813 
759	 0.168791156841017 
760	 0.168794546448952 
761	 0.168518184352666 
762	 0.169198377932993 
763	 0.169173306135723 
764	 0.168920450817235 
765	 0.169245858834274 
766	 0.169297617708961 
767	 0.169422024968328 
768	 0.169751535682967 
769	 0.17019680170625 
770	 0.170449968172796 
771	 0.170546243841582 
772	 0.170661229436883 
773	 0.171137459472854 
774	 0.171578366879373 
775	 0.171922890518405 
776	 0.172279649314452 
777	 0.172777586239919 
778	 0.173162337956521 
779	 0.173425713162785 
780	 0.173831503423056 
781	 0.174387207589024 
782	 0.175032454009346 
783	 0.17565163217463 
784	 0.176027224509478 
785	 0.176570090117199 
786	 0.177251007369447 
787	 0.177866652594971 
788	 0.178296256383619 
789	 0.178903387565926 
790	 0.179655923291661 
791	 0.180206085928518 
792	 0.180583902649518 
793	 0.181151139306932 
794	 0.181904654882905 
795	 0.182132169906574 
796	 0.182762344042988 
797	 0.183473778450256 
798	 0.183843908989441 
799	 0.184262628281131 
800	 0.184600726158446 
801	 0.184930768494255 
802	 0.185383047863028 
803	 0.185630914031095 
804	 0.185697154415356 
805	 0.185741621451819 
806	 0.186001447382318 
807	 0.186040155266963 
808	 0.185906049662551 
809	 0.185760616539812 
810	 0.185803181854601 
811	 0.185785613221429 
812	 0.18555440809867 
813	 0.185032450486316 
814	 0.184421975505129 
815	 0.183910066024589 
816	 0.183402608035755 
817	 0.182592572352847 
818	 0.181575180851718 
819	 0.180471296698851 
820	 0.179262204768129 
821	 0.177846981945888 
822	 0.176043021184576 
823	 0.174216341983373 
824	 0.172526194302096 
825	 0.170117138888655 
826	 0.167462461981324 
827	 0.164677253625036 
828	 0.162028694821843 
829	 0.159811800990556 
830	 0.157261670752506 
831	 0.154727420816911 
832	 0.153256978067672 
833	 0.151271058158068 
834	 0.14967489914711 
835	 0.148761228781349 
836	 0.147756308034868 
837	 0.146967402403634 
838	 0.146226139771678 
839	 0.145517266871046 
840	 0.145500463143514 
841	 0.145039594396804 
842	 0.14424380034141 
843	 0.143647465372407 
844	 0.143345448354287 
845	 0.143030688310496 
846	 0.142577791279764 
847	 0.142034205492077 
848	 0.141652604601371 
849	 0.141311872717459 
850	 0.140865568760623 
851	 0.140212063127634 
852	 0.139626120346653 
853	 0.139091337749127 
854	 0.13862795314109 
855	 0.138448473787631 
856	 0.138310600024227 
857	 0.138032596169058 
858	 0.137564356630576 
859	 0.137184920705921 
860	 0.137068955510434 
861	 0.136869133859295 
862	 0.136146718704194 
863	 0.135647511338662 
864	 0.135209303361002 
865	 0.13478291491341 
866	 0.13447062476465 
867	 0.13434542978479 
868	 0.133953398619234 
869	 0.133147903831612 
870	 0.132270545491493 
871	 0.132023572810029 
872	 0.131925995322986 
873	 0.131430093793493 
874	 0.13044302792032 
875	 0.13006447893108 
876	 0.129680555796853 
877	 0.128669562123359 
878	 0.128565655570122 
879	 0.127785314434147 
880	 0.126544836110343 
881	 0.125825112201082 
882	 0.12531967292629 
883	 0.125119286027834 
884	 0.124969061055861 
885	 0.12438894306849 
886	 0.123278458202394 
887	 0.122672418685882 
888	 0.122624171809243 
889	 0.122009749005795 
890	 0.121580691606652 
891	 0.121218265042246 
892	 0.120751708964592 
893	 0.120195865260375 
894	 0.119937038428667 
895	 0.11920395733343 
896	 0.117738584022998 
897	 0.118268933509027 
898	 0.117762420320513 
899	 0.116416491526636 
900	 0.115663293507193 
901	 0.116318908582982 
902	 0.115707199369875 
903	 0.11476974775054 
904	 0.114965914187924 
905	 0.113023196681753 
906	 0.111449634698496 
907	 0.110910150493598 
908	 0.110498075671402 
909	 0.110005902369812 
910	 0.109907981340478 
911	 0.109772935852328 
912	 0.108434141193685 
913	 0.106107835829039 
914	 0.105301264313614 
915	 0.105439845876264 
916	 0.102793007139745 
917	 0.101313552682094 
918	 0.100833165651785 
919	 0.10021032097532 
920	 9.80644440907719E-02 
921	 9.69967477547362E-02 
922	 9.56669858484943E-02 
923	 9.33607726273585E-02 
924	 0.092413990186806 
925	 9.10189537095333E-02 
926	 8.94904685393684E-02 
927	 8.88481941368214E-02 
928	 8.99281252707914E-02 
929	 9.07744309107185E-02 
930	 9.10316316231164E-02 
931	 9.12206806755538E-02 
932	 9.01043363756845E-02 
933	 8.71185648228687E-02 
934	 7.93188756382232E-02 
935	 6.90627101225935E-02 
936	 7.35154982944956E-02 
937	 7.56036790904555E-02 
938	 7.38681240269309E-02 
939	 7.27164965816695E-02 
940	 7.78220844978083E-02 
941	 7.40363538862969E-02 
942	 6.70315293160939E-02 
943	 6.96309146728199E-02 
944	 6.47284987342059E-02 
945	 0.057730339898228 
946	 5.24616801508632E-02 
947	 5.17311980916171E-02 
948	 6.51670200874189E-02 
949	 6.28419803837296E-02 
950	 5.03916430255429E-02 
951	 5.12188828633717E-02 
952	 5.01879948904001E-02 
953	 0.051165110948562 
954	 0.053971655777723 
955	 5.51856385647723E-02 
956	 5.44862606852177E-02 
957	 4.95480255648078E-02 
958	 4.28583824332287E-02 
959	 4.00561736205685E-02 
960	 4.26492489213893E-02 
961	 4.43580229577234E-02 
962	 4.42376943607266E-02 
963	 4.49633352963237E-02 
964	 4.48088506860073E-02 
965	 4.53265833725988E-02 
966	 0.04381248350813 
967	 3.69605604918649E-02 
968	 3.88639562504824E-02 
969	 4.30566067526517E-02 
970	 4.43759817948877E-02 
971	 4.14535942343592E-02 
972	 0.041092339337029 
973	 4.19575070874139E-02 
974	 4.17765485592004E-02 
975	 3.93277400833992E-02 
976	 0.041341873204928 
977	 4.02792140778923E-02 
978	 3.82264452959659E-02 
979	 4.39103159728748E-02 
980	 4.45482085814097E-02 
981	 0.043312359435199 
982	 4.29818583027484E-02 
983	 4.38696072282802E-02 
984	 4.03142636820084E-02 
985	 4.13950279782379E-02 
986	 0.044900019809071 
987	 4.14972770168974E-02 
988	 4.20679865341778E-02 
989	 4.44247974760389E-02 
990	 4.50501124323921E-02 
991	 4.19887367993579E-02 
992	 4.33845725534445E-02 
993	 4.50518729644886E-02 
994	 4.55807607467079E-02 
995	 4.58306992299621E-02 
996	 4.28272165044022E-02 
997	 4.37074018789609E-02 
998	 0.046966453324673 
999	 0.046638932904847 
1000	 4.68993757927297E-02 
1001	 4.97561322806361E-02 
1002	 5.13616540444369E-02 
1003	 5.19857321902701E-02 
1004	 0.052119301348327 
1005	 5.25717222230237E-02 
1006	 5.24556992485947E-02 
1007	 5.28378602628721E-02 
1008	 5.38993221483988E-02 
1009	 5.49602417848826E-02 
1010	 5.61646180605665E-02 
1011	 5.76159222603666E-02 
1012	 5.81918008851603E-02 
1013	 0.057979761125436 
1014	 5.80567109055868E-02 
1015	 5.71411915301435E-02 
1016	 5.72238470804617E-02 
1017	 5.80178195289095E-02 
1018	 5.87243954597939E-02 
1019	 5.98980913204501E-02 
1020	 6.06021908581706E-02 
1021	 6.13381263360902E-02 
1022	 6.16638915660119E-02 
1023	 6.17131036179667E-02 
1024	 0.061727016781132 
1025	 6.16854847266052E-02 
1026	 6.16996779113977E-02 
1027	 6.23169834882198E-02 
1028	 6.32326352441496E-02 
1029	 6.43550389243528E-02 
1030	 6.63517667002302E-02 
1031	 6.74891037678088E-02 
1032	 6.85297799600399E-02 
1033	 0.069304282199243 
1034	 6.93082570268303E-02 
1035	 6.99238034679002E-02 
1036	 7.07602127334645E-02 
1037	 7.14200098355709E-02 
1038	 0.072366535344336 
1039	 7.30617727724357E-02 
1040	 7.29397489539884E-02 
1041	 7.38011407035519E-02 
1042	 0.074594019603823 
1043	 7.56230734986161E-02 
1044	 7.61983505726464E-02 
1045	 7.68380199141276E-02 
1046	 7.74715310523387E-02 
1047	 7.75723946892604E-02 
1048	 0.078250823976022 
1049	 7.96585369567803E-02 
1050	 8.03964376688763E-02 
1051	 8.08894377699413E-02 
1052	 8.14774350884009E-02 
1053	 8.17580001171489E-02 
1054	 8.22129259774274E-02 
1055	 8.30050738670115E-02 
1056	 8.35187440108953E-02 
1057	 8.39236502444946E-02 
1058	 8.41933142159754E-02 
1059	 8.45241434234376E-02 
1060	 8.47354694553851E-02 
1061	 0.084994338157199 
1062	 8.53360863407473E-02 
1063	 8.55631718226395E-02 
1064	 8.56675238976502E-02 
1065	 8.58435643974329E-02 
1066	 8.59032339556663E-02 
1067	 8.61918981598221E-02 
1068	 8.68449623102669E-02 
1069	 8.70970162758239E-02 
1070	 8.73377595424387E-02 
1071	 8.74327761926839E-02 
1072	 8.70510488009918E-02 
1073	 8.68267666466509E-02 
1074	 0.08679634920307 
1075	 8.69985117082956E-02 
1076	 8.69237976762723E-02 
1077	 8.67923019887071E-02 
1078	 8.67701830529193E-02 
1079	 8.69407283934091E-02 
1080	 8.64296699875514E-02 
1081	 8.55827838136202E-02 
1082	 8.49958097326507E-02 
1083	 8.33750760755297E-02 
1084	 8.30872724135489E-02 
1085	 8.45375598071317E-02 
1086	 8.45865777037788E-02 
1087	 0.084606272001967 
1088	 8.42526880927554E-02 
1089	 8.23042897450344E-02 
1090	 8.13136841793815E-02 
1091	 0.080724745510332 
1092	 8.06647027444506E-02 
1093	 8.04165455416659E-02 
1094	 8.07168294053377E-02 
1095	 8.03328182638273E-02 
1096	 7.97586994688046E-02 
1097	 7.88995733012143E-02 
1098	 7.72225555069535E-02 
1099	 7.63428623346988E-02 
1100	 0.0755985964094 
1101	 7.48275955331245E-02 
1102	 7.43756437693152E-02 
1103	 7.40256801880866E-02 
1104	 7.35250419552355E-02 
1105	 0.073499576277041 
1106	 7.37285665273399E-02 
1107	 7.43204787043863E-02 
1108	 7.41184883206186E-02 
1109	 7.28916512135975E-02 
1110	 7.25918053324358E-02 
1111	 7.23989827996102E-02 
1112	 7.23033914061964E-02 
1113	 7.33565029490802E-02 
1114	 7.32434116445271E-02 
1115	 7.06829868449359E-02 
1116	 6.99520316943336E-02 
1117	 7.13429460664496E-02 
1118	 7.12369564395437E-02 
1119	 7.33571418404006E-02 
1120	 7.38381341330139E-02 
1121	 6.96191852476592E-02 
1122	 6.19401576430844E-02 
1123	 6.41329359201164E-02 
1124	 6.68876166645702E-02 
1125	 6.70894747196863E-02 
1126	 0.071611603753973 
1127	 7.34114212073796E-02 
1128	 7.16874543505501E-02 
1129	 6.69301685127955E-02 
1130	 0.059263767634618 
1131	 5.67716290456254E-02 
1132	 0.051506722834958 
1133	 0.05254761737168 
1134	 6.64577515978636E-02 
1135	 6.60015282897605E-02 
1136	 5.65237233673047E-02 
1137	 0.05451704501517 
1138	 5.26475833909157E-02 
1139	 4.54742717778589E-02 
1140	 4.92977582316903E-02 
1141	 5.10719325729424E-02 
1142	 3.71125592634637E-02 
1143	 2.91985274881279E-02 
1144	 3.17485362793492E-02 
1145	 3.67256763579877E-02 
1146	 4.44057126490774E-02 
1147	 4.89206971993185E-02 
1148	 4.04453590502815E-02 
1149	 2.95070160271849E-02 
1150	 2.79230945003178E-02 
1151	 3.39055214136958E-02 
1152	 3.37605879848345E-02 
1153	 3.42694980652573E-02 
1154	 3.27168157443031E-02 
1155	 2.86006005368328E-02 
1156	 2.65571803029558E-02 
1157	 2.71282414949729E-02 
1158	 2.94108114514747E-02 
1159	 2.93824969047527E-02 
1160	 2.82211495812849E-02 
1161	 2.87193556758635E-02 
1162	 2.90877657768592E-02 
1163	 2.85759261193372E-02 
1164	 0.029435564834133 
1165	 3.11687621730562E-02 
1166	 3.06245139718259E-02 
1167	 3.03777384463978E-02 
1168	 3.11841823376543E-02 
1169	 2.97762940423056E-02 
1170	 2.91306234323648E-02 
1171	 2.91598683738741E-02 
1172	 3.01458986003588E-02 
1173	 3.01933679644387E-02 
1174	 3.02000680502857E-02 
1175	 3.04164533291779E-02 
1176	 2.98016603237397E-02 
1177	 0.029623466856503 
1178	 2.99750018507131E-02 
1179	 2.98494558029064E-02 
1180	 3.02513180582717E-02 
1181	 0.030817313454145 
1182	 3.04154778465683E-02 
1183	 3.01202876898923E-02 
1184	 2.96772532594013E-02 
1185	 0.029368096388246 
1186	 2.98567516098718E-02 
1187	 2.96318533988084E-02 
1188	 2.90756965196668E-02 
1189	 2.94253142412215E-02 
1190	 2.93626206164336E-02 
1191	 2.89069103801997E-02 
1192	 2.88937482681445E-02 
1193	 2.94721481373871E-02 
1194	 0.029009173619761 
1195	 2.82031642096916E-02 
1196	 2.91133822465383E-02 
1197	 3.00252487116376E-02 
1198	 2.97318584883064E-02 
1199	 2.94367297744828E-02 
1200	 2.93176545427986E-02 
1201	 2.87772218163723E-02 
1202	 2.85640850889827E-02 
1203	 2.94305266034803E-02 
1204	 2.98640590577806E-02 
1205	 2.93175695514845E-02 
1206	 2.88304680317559E-02 
1207	 2.88099632281718E-02 
1208	 2.87689155498091E-02 
1209	 2.85662039815738E-02 
1210	 2.89331353351136E-02 
1211	 2.95950156179972E-02 
1212	 2.96637371098658E-02 
1213	 0.02944200130231 
1214	 2.94948597826777E-02 
1215	 2.96883910909941E-02 
1216	 2.94173636475176E-02 
1217	 2.94876150185273E-02 
1218	 3.03523329761634E-02 
1219	 3.02276569265457E-02 
1220	 2.96924793078586E-02 
1221	 2.99867245333125E-02 
1222	 3.00538310873733E-02 
1223	 2.96901822090297E-02 
1224	 2.99044987812666E-02 
1225	 2.99603796249505E-02 
1226	 2.91251880063478E-02 
1227	 2.90283244418743E-02 
1228	 2.96830390993964E-02 
1229	 2.97110904659009E-02 
1230	 2.95619468121598E-02 
1231	 2.95212375255441E-02 
1232	 0.029412305817914 
1233	 2.93569602475884E-02 
1234	 2.95891823642624E-02 
1235	 2.98042919770307E-02 
1236	 3.01381093803494E-02 
1237	 3.03798135399688E-02 
1238	 3.07323320131836E-02 
1239	 3.07433705032603E-02 
1240	 3.03601137497239E-02 
1241	 3.03841092257001E-02 
1242	 3.04402935045948E-02 
1243	 3.04884617556385E-02 
1244	 3.07198857968664E-02 
1245	 3.09481902052785E-02 
1246	 3.08375811699473E-02 
1247	 3.05107706994827E-02 
1248	 3.07006111475785E-02 
1249	 3.09128671622442E-02 
1250	 3.07830378056931E-02 
1251	 3.08456475752054E-02 
1252	 3.09617381506558E-02 
1253	 3.13290718640512E-02 
1254	 3.15652673826415E-02 
1255	 3.13769647115116E-02 
1256	 3.14549516502305E-02 
1257	 3.15126163366493E-02 
1258	 3.14137410078938E-02 
1259	 3.13435812663939E-02 
1260	 3.14714939769298E-02 
1261	 3.15847101272583E-02 
1262	 3.15551084617169E-02 
1263	 3.16744307112351E-02 
1264	 3.16389325424884E-02 
1265	 3.09673375104709E-02 
1266	 3.09107186431958E-02 
1267	 3.13283842187362E-02 
1268	 3.15035025480177E-02 
1269	 3.18729590728643E-02 
1270	 3.20966170220012E-02 
1271	 3.19142470360672E-02 
1272	 3.17108986379965E-02 
1273	 3.16605409988439E-02 
1274	 3.12732049875435E-02 
1275	 0.030744508577708 
1276	 3.05549935864207E-02 
1277	 3.07155545200943E-02 
1278	 3.06569012911153E-02 
1279	 3.02495392687083E-02 
1280	 3.02867461915394E-02 
1281	 3.03152754045831E-02 
1282	 3.04436199037384E-02 
1283	 3.04249722177798E-02 
1284	 0.03016810388657 
1285	 3.03326951700242E-02 
1286	 3.11427202425408E-02 
1287	 3.10619605536709E-02 
1288	 3.07396273778812E-02 
1289	 3.06486189409835E-02 
1290	 3.02335061105256E-02 
1291	 2.90766441488404E-02 
1292	 2.89691866931696E-02 
1293	 2.91053708359256E-02 
1294	 2.83947186905445E-02 
1295	 2.79035476485895E-02 
1296	 2.80889413555943E-02 
1297	 2.84121802728927E-02 
1298	 2.88299291205088E-02 
1299	 0.029709994742054 
1300	 3.00628421794942E-02 
1301	 0.029263660804096 
1302	 2.89519368649262E-02 
1303	 2.89724015780755E-02 
1304	 2.87195236637132E-02 
1305	 2.86053436293934E-02 
1306	 2.83879281563883E-02 
1307	 2.80650814489098E-02 
1308	 2.76936723199837E-02 
1309	 2.71600501437327E-02 
1310	 2.67997302569231E-02 
1311	 2.61657702114688E-02 
1312	 2.60312483023133E-02 
1313	 2.69497348778568E-02 
1314	 2.66338568593883E-02 
1315	 2.53982635251938E-02 
1316	 2.51615993869353E-02 
1317	 2.47387604247206E-02 
1318	 2.42948347356524E-02 
1319	 2.47124528921946E-02 
1320	 2.52359931598189E-02 
1321	 2.51716831627938E-02 
1322	 2.58141906240125E-02 
1323	 2.66006049736806E-02 
1324	 2.61978416866873E-02 
1325	 2.63779139479097E-02 
1326	 2.60306988917368E-02 
1327	 2.53839637284974E-02 
1328	 2.59515215800183E-02 
1329	 2.51730959411288E-02 
1330	 2.41070169962808E-02 
1331	 2.44773381494068E-02 
1332	 2.50982955013234E-02 
1333	 2.63935174463463E-02 
1334	 2.66449407521434E-02 
1335	 2.66971809148425E-02 
1336	 0.02719244297176 
1337	 2.61875316426356E-02 
1338	 2.31011593625296E-02 
1339	 2.19793050064843E-02 
1340	 0.019823864174248 
1341	 1.82130856177062E-02 
1342	 1.77518926087089E-02 
1343	 1.87262257616231E-02 
1344	 2.40172675303295E-02 
1345	 2.43402531750282E-02 
1346	 0.020861144653405 
1347	 2.23974236586687E-02 
1348	 1.83041262225056E-02 
1349	 1.79375472818173E-02 
1350	 0.043843073880085 
1351	 6.40364820403557E-02 
1352	 7.01359645137511E-02 
1353	 7.52878887499432E-02 
1354	 7.16325061731701E-02 
1355	 2.20984779213741E-02 
1356	 0.012382869563953 
1357	 0.139048027796102 
1358	 0.181234991945238 
1359	 0.370633929958176 
1360	 0.758749738938677 
1361	 0.631295215340239 
1362	 0.464262726581392 
1363	 0.879235105662062 
1364	 1.75576861818348 
1365	 3.18247015058593 
1366	 11.9754801972285 
1367	 8.62801347658292 
1368	 18.2217352254655 
1369	 48.8074727032204 
1370	 2.42581733237438 
1371	 1.17012680628465 
1372	 0.765111914262529 
1373	 0.201058646073436 
1374	 0.102801466378575 
1375	-1.53852358214532E-02 
1376	-3.66268964421866E-02 
1377	 0.225063636636489 
1378	 1.16863766857721 
1379	 2.12616802408641 
1380	 2.20255084797656 
1381	 2.98304535466103 
1382	 2.10390059407153 
1383	 0.687597407342124 
1384	 0.231332762719394 
1385	-0.547804407658718 
1386	-0.590043532698574 
1387	-0.350034211318402 
1388	-0.38070852177539 
1389	 0.120312932201571 
1390	 0.272667076587355 
1391	 6.61123710845444E-02 
1392	-0.35986236674205 
1393	 0.224074744122661 
1394	 0.973398891399129 
1395	 0.338519502580628 
1396	 0.688819074045495 
1397	 2.39269419934825 
1398	 1.82601013247652 
1399	 0.82729664495413 
1400	 0.750092068538724 
1401	 0.559734931466464 
1402	-4.20360814577184E-03 
1403	-0.138893009754701 
1404	 0.128123469074274 
1405	 0.274074392977556 
1406	 0.262781322840276 
1407	 0.376027249531768 
1408	 1.39404841889032 
1409	 1.93719042243209 
1410	 0.876265479024693 
1411	 1.34590465093649 
1412	 2.42456775102728 
1413	 1.92736745020838 
1414	 0.977791486369895 
1415	 0.847113062773354 
1416	 0.659637211346812 
1417	 0.415916149126415 
1418	 0.415208165047848 
1419	 0.470423910451607 
1420	 0.577812250758311 
1421	 0.539738533818435 
1422	 0.566081314356579 
1423	 0.512273145118152 
1424	 0.342623387409 
1425	 0.257925357921365 
1426	 0.133497202017972 
1427	 0.1059492153328 
1428	 0.171744294125374 
1429	 0.142094064290554 
1430	 9.24849085612174E-02 
1431	 8.82309138005491E-02 
1432	 5.39780813953783E-02 
1433	 5.60698961857421E-02 
1434	 0.125440148045402 
1435	 0.160632500932728 
1436	 0.194144482663009 
1437	 0.228051000599596 
1438	 0.115270900671606 
1439	 6.98340913589401E-02 
1440	 8.55325441878463E-02 
1441	 2.43312468427484E-02 
1442	 4.20927723343736E-03 
1443	 0.025202893367799 
1444	-8.68603625124019E-03 
1445	-3.55266848443012E-02 
1446	-1.02616232385051E-02 
1447	 8.11811807767877E-03 
1448	 1.50911076811615E-02 
1449	 3.82953937747782E-02 
1450	 3.65651940153046E-02 
1451	 1.18532192893921E-02 
1452	 9.53391150568276E-03 
1453	 6.09751182452667E-03 
1454	 8.79720243700333E-03 
1455	 2.72224230060756E-02 
1456	 2.51602025317363E-02 
1457	 1.15129834945063E-02 
1458	 1.26415157827891E-02 
1459	 1.35946323879456E-02 
1460	 1.23993351595954E-02 
1461	 1.99856594681137E-02 
1462	 1.94619074509972E-02 
1463	 5.20666758693772E-03 
1464	 6.59178206365914E-03 
1465	 1.97546826092827E-02 
1466	 2.01650249002349E-02 
1467	 1.87817849449834E-02 
1468	 2.50737959179045E-02 
1469	 3.22192014678619E-02 
1470	 2.71839765690374E-02 
1471	 2.06209251766296E-02 
1472	 2.23879778577734E-02 
1473	 1.30460981305408E-02 
1474	 1.35642714770405E-02 
1475	 3.34816619462548E-02 
1476	 0.035861953200207 
1477	 2.62752976354213E-02 
1478	 2.47468667909751E-02 
1479	 2.37243800440443E-02 
1480	 2.44457294301335E-02 
1481	 2.89578710619192E-02 
1482	 2.83950568061092E-02 
1483	 0.026702413228397 
1484	 2.48155311862654E-02 
1485	 1.89294027500884E-02 
1486	 1.91255019572417E-02 
1487	 2.50847532708457E-02 
1488	 2.35558374020419E-02 
1489	 1.91305171699655E-02 
1490	 1.85505654459324E-02 
1491	 1.68674641511599E-02 
1492	 1.59655440577323E-02 
1493	 1.75832447770581E-02 
1494	 0.018102738577678 
1495	 0.01680161639233 
1496	 1.67891258049819E-02 
1497	 1.89068243344461E-02 
1498	 1.90949767017111E-02 
1499	 1.77202722652083E-02 
1500	 1.75752739870254E-02 
1501	 0.017998865513345 
1502	 1.73456391414244E-02 
1503	 1.60182079768939E-02 
1504	 1.61561173168568E-02 
1505	 1.71932177095238E-02 
1506	 1.62029779035323E-02 
1507	 1.56591880337767E-02 
1508	 1.62389169239681E-02 
1509	 1.63966063728412E-02 
1510	 1.60986052306403E-02 
1511	 1.58422446092425E-02 
1512	 1.62808618799146E-02 
1513	 1.63185535337493E-02 
1514	 1.49764361270046E-02 
1515	 1.46107977506451E-02 
1516	 1.56764666377475E-02 
1517	 1.56648876091985E-02 
1518	 1.55167611909488E-02 
1519	 1.65463827414672E-02 
1520	 1.68783567958203E-02 
1521	 1.63316808202253E-02 
1522	 1.66788371661141E-02 
1523	 1.69712412318473E-02 
1524	 1.62439163332845E-02 
1525	 1.60162204750348E-02 
1526	 0.015888419233852 
1527	 1.54426704066656E-02 
1528	 1.57845052835019E-02 
1529	 1.61909118843787E-02 
1530	 0.016403829976554 
1531	 1.67616931030755E-02 
1532	 1.65449424474467E-02 
1533	 1.59584359519909E-02 
1534	 1.60112489966184E-02 
1535	 1.63249182664034E-02 
1536	 0.016243724066767 
1537	 1.60708875019098E-02 
1538	 1.59171026687863E-02 
1539	 1.64646993582283E-02 
1540	 0.017116689658897 
1541	 1.69652606240055E-02 
1542	 1.70731159846716E-02 
1543	 1.69207919907801E-02 
1544	 1.61923720642976E-02 
1545	 1.63252959834269E-02 
1546	 1.67579053834185E-02 
1547	 1.64552625977384E-02 
1548	 1.64345138984866E-02 
1549	 1.72081464170323E-02 
1550	 1.75676076853238E-02 
1551	 1.77472206323987E-02 
1552	 1.81889545002556E-02 
1553	 1.80779924380003E-02 
1554	 1.79719247558774E-02 
1555	 1.80375885886205E-02 
1556	 0.017925164054749 
1557	 1.82645145277706E-02 
1558	 0.018325118567418 
1559	 1.76719289965235E-02 
1560	 1.73964436698159E-02 
1561	 1.69207995919844E-02 
1562	 1.67339688721533E-02 
1563	 1.74014287126795E-02 
1564	 1.72522590479668E-02 
1565	 1.70758070262988E-02 
1566	 1.73646946198475E-02 
1567	 1.71763349051608E-02 
1568	 0.017284627526466 
1569	 0.018057802554887 
1570	 1.81944094212762E-02 
1571	 1.74633227203778E-02 
1572	 1.78448047881898E-02 
1573	 1.84030833072919E-02 
1574	 1.74886334190266E-02 
1575	 1.72667423968085E-02 
1576	 1.79540439545739E-02 
1577	 1.74872711268151E-02 
1578	 1.68769724982973E-02 
1579	 1.71902309086248E-02 
1580	 1.68122176077817E-02 
1581	 1.60447506726465E-02 
1582	 1.62602174011631E-02 
1583	 1.69585170668634E-02 
1584	 1.72168421775445E-02 
1585	 1.69758814713693E-02 
1586	 0.016640936495705 
1587	 1.61550033027291E-02 
1588	 1.60236920553307E-02 
1589	 1.66210523799329E-02 
1590	 1.72232279454499E-02 
1591	 1.71229347146327E-02 
1592	 1.64909879139881E-02 
1593	 1.60380633811703E-02 
1594	 1.61483118609645E-02 
1595	 1.68107678462102E-02 
1596	 1.71791499373882E-02 
1597	 1.71935509275515E-02 
1598	 1.76728862267008E-02 
1599	 1.80396723788977E-02 
1600	 1.80611999830911E-02 
1601	 1.82562169956217E-02 
1602	 1.78828400667241E-02 
1603	 1.66370832956994E-02 
1604	 1.62623667461608E-02 
1605	 1.70854238931933E-02 
1606	 1.75313439832409E-02 
1607	 1.78349208815286E-02 
1608	 1.81872027334623E-02 
1609	 1.76998679276233E-02 
1610	 1.71792925721575E-02 
1611	 1.73898699638031E-02 
1612	 1.76562269789154E-02 
1613	 1.77554227709484E-02 
1614	 1.77538323199852E-02 
1615	 1.80915071032406E-02 
1616	 1.90768748337753E-02 
1617	 1.95776139506497E-02 
1618	 1.91268165095387E-02 
1619	 1.86200527709072E-02 
1620	 1.85820690473327E-02 
1621	 1.85003386831323E-02 
1622	 1.84142209151817E-02 
1623	 1.90386232313013E-02 
1624	 1.92216406379017E-02 
1625	 1.86281918599229E-02 
1626	 1.92118773723925E-02 
1627	 1.98200208056415E-02 
1628	 1.87187449222254E-02 
1629	 1.82597458944028E-02 
1630	 1.85670533907931E-02 
1631	 0.01852041777528 
1632	 1.87950767847392E-02 
1633	 0.018615848885977 
1634	 1.83750519896541E-02 
1635	 1.81575952439209E-02 
1636	 1.74859687701344E-02 
1637	 1.77574223870525E-02 
1638	 1.84334633343142E-02 
1639	 1.85070294354439E-02 
1640	 1.87666820116981E-02 
1641	 1.89325917670312E-02 
1642	 0.018763228309185 
1643	 1.88387748231769E-02 
1644	 1.89247603008332E-02 
1645	 1.88851918184875E-02 
1646	 0.018844258926267 
1647	 1.84307285597321E-02 
1648	 1.77415687186599E-02 
1649	 1.79013469367184E-02 
1650	 1.86192640553289E-02 
1651	 1.88180273706928E-02 
1652	 1.88427025872708E-02 
1653	 1.87120076033497E-02 
1654	 1.84586491982158E-02 
1655	 0.017835294604396 
1656	 1.80127396647504E-02 
1657	 1.90482218486206E-02 
1658	 1.89648245107545E-02 
1659	 1.84528153058394E-02 
1660	 1.84006256278477E-02 
1661	 1.77756714224077E-02 
1662	 1.75944523276488E-02 
1663	 1.80606530480287E-02 
1664	 1.83680601951366E-02 
1665	 1.90678715382285E-02 
1666	 1.90077080457776E-02 
1667	 1.79716230534346E-02 
1668	 1.89910071398726E-02 
1669	 0.019359569775188 
1670	 0.019063896619683 
1671	 1.99275914527431E-02 
1672	 1.96990814081308E-02 
1673	 1.80823648137439E-02 
1674	 0.017750864661923 
1675	 1.83816473995476E-02 
1676	 1.87850666225703E-02 
1677	 1.87826334854689E-02 
1678	 1.86705497315537E-02 
1679	 0.019081683936565 
1680	 1.86437245107749E-02 
1681	 1.85150770035251E-02 
1682	 1.96908508778744E-02 
1683	 1.96623487248388E-02 
1684	 1.90721816142819E-02 
1685	 1.93590908064937E-02 
1686	 1.91714273282288E-02 
1687	 1.83903913216426E-02 
1688	 1.86686488206782E-02 
1689	 1.90150928221678E-02 
1690	 1.85260071970593E-02 
1691	 1.83550558757378E-02 
1692	 1.80590804208854E-02 
1693	 1.75405365677501E-02 
1694	 1.77297553081043E-02 
1695	 0.018238130548915 
1696	 1.87368446574117E-02 
1697	 1.89577168190745E-02 
1698	 1.84276434131115E-02 
1699	 1.84471253518743E-02 
1700	 1.90665009626761E-02 
1701	 1.95849392880029E-02 
1702	 2.00416073280378E-02 
1703	 1.92042119980398E-02 
1704	 1.82107697029092E-02 
1705	 1.86772151589324E-02 
1706	 1.95259652994141E-02 
1707	 1.98345004168817E-02 
1708	 1.94982756998516E-02 
1709	 1.87266119104034E-02 
1710	 0.017624033815676 
1711	 1.75882493317846E-02 
1712	 1.85946762937252E-02 
1713	 1.83011335207025E-02 
1714	 1.80790983483255E-02 
1715	 1.77125863244817E-02 
1716	 1.81763300563454E-02 
1717	 1.74319215481124E-02 
1718	 1.76519820466868E-02 
1719	 1.86165643666795E-02 
1720	 1.78153207701074E-02 
1721	 1.81246012346602E-02 
1722	 1.91199557231446E-02 
1723	 1.86971036323602E-02 
1724	 1.89990883845756E-02 
1725	 1.94159196920559E-02 
1726	 1.94979644069984E-02 
1727	 1.98056951130647E-02 
1728	 1.94642976249282E-02 
1729	 1.97818807967436E-02 
1730	 1.97300257735512E-02 
1731	 1.84423759541845E-02 
1732	 1.76603511843879E-02 
1733	 1.72724375975544E-02 
1734	 1.66223912049946E-02 
1735	 1.64159965840075E-02 
1736	 1.77147555046987E-02 
1737	 1.87451475415251E-02 
1738	 1.76908814078504E-02 
1739	 1.70935176332061E-02 
1740	 1.61863656364461E-02 
1741	 1.43630644418183E-02 
1742	 1.68724902779586E-02 
1743	 1.89600643057602E-02 
1744	 1.80022624171499E-02 
1745	 1.93535046150558E-02 
1746	 1.67874689762197E-02 
1747	 1.64394249409892E-02 
1748	 1.96091787690177E-02 
1749	 1.96468878156247E-02 
1750	 1.86263834818326E-02 
1751	 1.83355204439192E-02 
1752	 1.56686780593579E-02 
1753	 1.51917984890491E-02 
1754	 1.71375731216596E-02 
1755	 0.018128615029139 
1756	 1.94630880620277E-02 
1757	 2.00049674245936E-02 
1758	 2.00578701561209E-02 
1759	 1.94345038582936E-02 
1760	 1.92715180728715E-02 
1761	 1.87978858288311E-02 
1762	 1.83222787405708E-02 
1763	 1.86739941978154E-02 
1764	 2.08698358053256E-02 
1765	 2.28860887177909E-02 
1766	 0.020854143756918 
1767	 1.89340007957647E-02 
1768	 1.96258760080657E-02 
1769	 2.14093559123616E-02 
1770	 2.28323033682121E-02 
1771	 2.13365272196661E-02 
1772	 1.98245498885006E-02 
1773	 1.98184717085024E-02 
1774	 2.00492898165179E-02 
1775	 1.89817003051988E-02 
1776	 1.94279230145278E-02 
1777	 1.61346113484746E-02 
1778	 1.57605252165514E-02 
1779	 2.46811914140882E-02 
1780	 2.49305740089399E-02 
1781	 1.60824157187429E-02 
1782	 1.53977606802843E-02 
1783	 1.48873342966373E-02 
1784	 1.38571367141698E-02 
1785	 2.01613281004961E-02 
1786	 2.09200482464516E-02 
1787	 1.56025805851011E-02 
1788	 1.80348248587717E-02 
1789	 2.32666893083431E-02 
1790	 2.16172069196565E-02 
1791	 2.33108960986995E-02 
1792	 2.52789306191536E-03 
1793	 5.02302362942678E-03 
1794	 4.04587907868116E-02 
1795	 4.82627715535272E-02 
1796	 4.94151379088761E-02 
1797	 4.95996874560161E-02 
1798	-0.015190890254784 
1799	-4.03962417734185E-02 
1800	 0.047921778257477 
1801	 8.26135381149879E-02 
1802	 0.141386778861067 
1803	 0.1965675108353 
1804	 0.119847772721008 
1805	 7.88262364608942E-02 
1806	 4.22175635659581E-02 
1807	 5.13385831507343E-02 
1808	 0.133204399450696 
1809	 0.177853553326172 
1810	 0.389142074695168 
1811	 0.36408905359295 
1812	 4.55539613708581E-02 
1813	 5.72895148885487E-02 
1814	 0.326083543650269 
1815	 0.693134539159694 
1816	-1.06504609020925 
1817	 8.39423305049298 
1818	 0.424794182358627 
1819	 0.798668922443807 
1820	 0.698171151794098 
1821	 0.812140062509446 
1822	 0.747345194235361 
1823	-4.36895151683025E-02 
1824	-0.248328537232058 
1825	 3.39648526449938 
1826	 1.11316616809892 
1827	 3.39549747437559 
1828	 1.65277551450271 
1829	-0.403255677385064 
1830	-0.419551144682351 
1831	-1.15192476393986 
1832	-1.48379864394756 
1833	-2.6944764800071 
1834	-9.283652798489 
1835	 0.793377999401313 
1836	 0.28059769942126 
1837	 5.56679613316758E-03 
1838	-0.124119832401248 
1839	-0.328931446681845 
1840	-0.400018220567788 
1841	-0.218895974704003 
1842	-0.254632074985931 
1843	-0.285509364169734 
1844	-0.298048082381698 
1845	-0.315939815972159 
1846	-0.557991352693758 
1847	-0.553059208972269 
1848	-0.25274932657627 
1849	-0.282275651030859 
1850	-0.178232414045295 
1851	 0.476735898288895 
1852	 1.18797240943112 
1853	 0.991282634772982 
1854	 0.833127663680679 
1855	 0.298864117141521 
1856	 0.262077664377243 
1857	 0.373035169994927 
1858	 0.357715916311355 
1859	 0.288541257082567 
1860	 0.288169330762817 
1861	 0.17195159816589 
1862	 0.390813531355666 
1863	 1.17517549658968 
1864	 0.783745038744197 
1865	 1.16963419515911 
1866	 1.76816569973527 
1867	 4.11539448568739 
1868	 14.1163334309918 
1869	-2.4708349369477 
1870	-0.078044019416916 
1871	 0.309469527083851 
1872	 0.643377154388309 
1873	 0.865521786989454 
1874	 1.00710691094717 
1875	 0.934565860919728 
1876	 0.799179586342985 
1877	 0.406477922470022 
1878	 0.317750360029472 
1879	 0.371252892227558 
1880	 0.333075216146126 
1881	 0.391942600901079 
1882	 2.33148559569052E-02 
1883	 8.9708977104876 
1884	 1.38741970667317 
1885	 2.02735285373836 
1886	 1.69777917771135 
1887	 1.67383580019828 
1888	 2.54897523896577 
1889	 3.56045974807079 
1890	-0.231644372948625 
1891	 1.82459958889707 
1892	-1.92906128130262 
1893	-7.73113668602573 
1894	-5.00547084274467 
1895	-1.26756675102337 
1896	-0.836404228204003 
1897	-0.397469125255879 
1898	 6.30312051092057E-02 
1899	 0.324579074816428 
1900	 0.447448294906194 
1901	 0.419899692531661 
1902	 0.544428900289554 
1903	 0.683834838092052 
1904	 1.37645428464482 
1905	 1.96773072146131 
1906	-2.36694669566265 
1907	-0.581449687754224 
1908	-9.41493590588911E-03 
1909	 0.102473987050994 
1910	-0.152023477503726 
1911	-0.333387610285084 
1912	-0.113292156104843 
1913	 0.133246030991012 
1914	 1.76968995322714 
1915	 5.47864807325189 
1916	-2.4411749012895 
1917	-0.449909399922057 
1918	 0.426278101799061 
1919	 3.01743091836545E-03 
1920	-0.790602396976405 
1921	-1.4911463684827 
1922	 0.584745152476059 
1923	 0.38441754768964 
1924	 0.323707611652025 
1925	 1.06703971604019 
1926	 2.03089429150985 
1927	 7.40365788101828 
1928	-3.53130539145506 
1929	-1.83226318985801 
1930	-2.80335429282392 
1931	-2.87155945195883 
1932	-41.8704971710364 
1933	 1.24958399807719 
1934	 0.87878997647462 
1935	-0.515478561407425 
1936	-0.96590925450156 
1937	 51.3559671350556 
1938	 4.89948346980427 
1939	 5.48937693782371 
1940	 4.46287134758146 
1941	 7.24240700531682 
1942	-16.1419593844583 
1943	 13.0945494830664 
1944	 2.68661098714635 
1945	 1.26431943344602 
1946	 0.961986211235502 
1947	 1.08173017299122 
1948	 0.905387186848192 
1949	 0.146247640754561 
1950	-0.616649872508195 
1951	-1.65648556987549 
1952	-1.51913526987078 
1953	-0.769976109513769 
1954	-0.397614135539612 
1955	-0.41098006177141 
1956	-0.235171019294237 
1957	-0.066660710167786 
1958	-4.05790288869257E-03 
1959	 0.044113662405965 
1960	 0.115020374025284 
1961	 0.105517368784345 
1962	 8.41907288838426E-02 
1963	 0.105075485715248 
1964	 0.100916807981275 
1965	 0.085851246854078 
1966	 7.40697099945641E-02 
1967	 6.67018446218434E-02 
1968	 5.37797830417047E-02 
1969	 3.53518848090739E-02 
1970	 1.72981656087156E-02 
1971	 1.31559525450689E-02 
1972	 1.32083482487125E-02 
1973	 1.85824255019642E-02 
1974	 4.02258144503698E-02 
1975	 5.08980861675203E-02 
1976	 0.043647354124231 
1977	 4.02072995351883E-02 
1978	 3.23577020464227E-02 
1979	 2.47423134754671E-02 
1980	 1.21906385705671E-02 
1981	 1.37535419900733E-02 
1982	 1.51706539979052E-02 
1983	 7.20829395526049E-03 
1984	 3.55060969577573E-03 
1985	 4.69680361056922E-03 
1986	 1.83096434464896E-03 
1987	 5.05270182678068E-03 
1988	 1.06410271630118E-02 
1989	 0.014357324326943 
1990	 1.93762894999796E-02 
1991	 1.49034611423373E-02 
1992	 9.18776126691339E-03 
1993	 7.05263991420561E-03 
1994	 5.3304877191582E-03 
1995	 2.68917024947791E-03 
1996	 4.99332938084144E-03 
1997	 9.4474467548456E-03 
1998	 1.00894131365771E-02 
1999	 4.66634275542915E-03 
2000	 7.43375053483043E-03 
2001	 1.03630387239963E-02 
2002	 1.87307146013848E-02 
2003	 2.09535653928448E-02 
2004	 0.007702787899788 
2005	 8.66495935036451E-03 
2006	 1.66427935152574E-03 
2007	-4.84797026475002E-03 
2008	-6.19537519466362E-03 
2009	-1.9123018081221E-03 
2010	 4.45195775287836E-03 
2011	 7.64130615543231E-03 
2012	 9.92932066274216E-03 
2013	 2.70686469655796E-02 
2014	 3.51247343507647E-02 
2015	 0.041453929507655 
2016	 4.38202605458194E-02 
2017	 4.10394509222961E-02 
2018	 3.41076065814907E-02 
2019	 0.020105666952367 
2020	 1.04206542350187E-02 
2021	 3.8679702905909E-03 
2022	 3.74122938589169E-03 
2023	 1.17109652113571E-02 
2024	 1.16000978874405E-02 
2025	 0.010373374789873 
2026	 8.50423797265217E-03 
2027	 4.93919693760878E-03 
2028	-2.07900918851539E-03 
2029	-5.24010461371915E-03 
2030	 5.16419020691121E-04 
2031	 4.50714739324835E-03 
2032	 7.19477107221116E-03 
2033	 1.30610335098552E-02 
2034	 1.59236649316466E-02 
2035	 1.59364424295123E-02 
2036	 1.55716304705773E-02 
2037	 1.29143783754996E-02 
2038	 8.4312018694066E-03 
2039	 7.02187099970449E-03 
2040	 7.27358118899016E-03 
2041	 7.93309556575413E-03 
2042	 1.04207151708463E-02 
2043	 1.34305002034107E-02 
2044	 1.81150715718707E-02 
2045	 2.03570690545847E-02 
2046	 2.12306727085543E-02 
2047	 2.16138678309726E-02 
2048	 2.08966001353251E-02 
2049	 1.67949038263982E-02 
2050	 0.015134208649544 
2051	 1.36273732417857E-02 
2052	 1.02742315679777E-02 
2053	 1.13548826335471E-02 
2054	 1.41492923655466E-02 
2055	 1.54754828113066E-02 
2056	 1.45845932888054E-02 
2057	 1.12554166746925E-02 
2058	 9.6387133791035E-03 
2059	 3.84166442671757E-03 
2060	 4.00836091636033E-03 
2061	 9.3386378464314E-03 
2062	 1.22946431445785E-02 
2063	 1.37875416153445E-02 
2064	 1.54131927211178E-02 
2065	 1.27253080300989E-02 
2066	 8.08038150653799E-03 
2067	 7.18827958258715E-03 
2068	 1.18472567329579E-02 
2069	 1.26427614328785E-02 
2070	 1.06581656513492E-02 
2071	 1.36390521864779E-02 
2072	 1.20352552917266E-02 
2073	 1.12332379484803E-02 
2074	 1.38437726938796E-02 
2075	 1.46651125469114E-02 
2076	 1.24258926774081E-02 
2077	 1.16149182037299E-02 
2078	 1.00259885891026E-02 
2079	 1.07623700671162E-02 
2080	 1.27924663823561E-02 
2081	 0.014517921832723 
2082	 1.66749910287043E-02 
2083	 1.72918022832596E-02 
2084	 1.60572727667125E-02 
2085	 1.57311487521977E-02 
2086	 1.52964704947007E-02 
2087	 1.68362414177941E-02 
2088	 1.78034291587837E-02 
2089	 1.90337760406051E-02 
2090	 2.16796035696792E-02 
2091	 2.28904505554384E-02 
2092	 2.28783126590467E-02 
2093	 0.021243633209897 
2094	 1.97488644538414E-02 
2095	 1.64084446992828E-02 
2096	 1.52051671637099E-02 
2097	 1.49856733352094E-02 
2098	 1.54890803852492E-02 
2099	 1.75830239832281E-02 
2100	 1.88246930848792E-02 
2101	 1.69353843518728E-02 
2102	 1.47410499142256E-02 
2103	 1.46805982019167E-02 
2104	 1.43319082037776E-02 
2105	 1.61345664206085E-02 
2106	 1.83175743361389E-02 
2107	 1.73545263250616E-02 
2108	 0.015781875656215 
2109	 0.014005828719403 
2110	 1.36038084033311E-02 
2111	 1.36708382130694E-02 
2112	 1.14788812650681E-02 
2113	 1.02536828392596E-02 
2114	 9.29079183497989E-03 
2115	 8.92713912077128E-03 
2116	 8.59974836051637E-03 
2117	 8.9488149703634E-03 
2118	 1.22532023484385E-02 
2119	 1.22813202561595E-02 
2120	 1.01698255772985E-02 
2121	 8.2638854902248E-03 
2122	 7.97506563295227E-03 
2123	 6.18287142357652E-03 
2124	 9.23852258750214E-03 
2125	 1.33982915157821E-02 
2126	 1.62563170546018E-02 
2127	 1.70861296398111E-02 
2128	 1.55057128779329E-02 
2129	 1.38807833417964E-02 
2130	 1.24729075370106E-02 
2131	 1.43763562136623E-02 
2132	 1.36467624621503E-02 
2133	 1.44611749100326E-02 
2134	 0.016146198482176 
2135	 1.82656819897358E-02 
2136	 0.017447442093238 
2137	 1.68105746342592E-02 
2138	 1.65418027325747E-02 
2139	 0.013474349727389 
2140	 1.21560985437999E-02 
2141	 1.44822002374983E-02 
2142	 1.32594576943238E-02 
2143	 7.98700768949696E-03 
2144	 7.05003171749922E-03 
2145	 6.74328665945877E-03 
2146	 6.3853769205283E-03 
2147	 1.00807889178157E-02 
2148	 1.25214182095137E-02 
2149	 1.20890950903047E-02 
2150	 1.34112106362482E-02 
2151	 1.55771713752057E-02 
2152	 1.60272179326444E-02 
2153	 1.78455567018138E-02 
2154	 1.81423414228404E-02 
2155	 1.80065552808575E-02 
2156	 1.75606579095662E-02 
2157	 1.68059186194064E-02 
2158	 1.72217196675122E-02 
2159	 1.68170499654623E-02 
2160	 1.43406007954727E-02 
2161	 1.36370399778419E-02 
2162	 1.36906550048443E-02 
2163	 1.27088821548704E-02 
2164	 1.15884761991392E-02 
2165	 1.19547112360935E-02 
2166	 1.29717408673048E-02 
2167	 1.35535727553159E-02 
2168	 1.53570697678251E-02 
2169	 1.52899655055687E-02 
2170	 1.31989971484784E-02 
2171	 1.30329821189091E-02 
2172	 1.08736370282109E-02 
2173	 9.74414450524828E-03 
2174	 1.15826726707269E-02 
2175	 1.15455310432536E-02 
2176	 1.26212509660564E-02 
2177	 1.65177629966332E-02 
2178	 1.49674959383793E-02 
2179	 1.17721383262932E-02 
2180	 0.013596350431997 
2181	 1.19820083221123E-02 
2182	 1.22078967686927E-02 
2183	 1.53236208024617E-02 
2184	 0.013054708024118 
2185	 1.32495648409904E-02 
2186	 1.21885913733009E-02 
2187	 1.07657866761118E-02 
2188	 7.96998912066868E-03 
2189	 1.88291386174485E-03 
2190	 1.72162730957038E-04 
2191	-6.62024480495033E-04 
2192	-3.57242676360294E-04 
2193	 6.93252464463694E-03 
2194	 8.90032571028376E-03 
2195	 5.23247351147215E-03 
2196	 6.95435823771837E-03 
2197	 8.58506377060768E-03 
2198	 1.02202760255004E-02 
2199	 1.34758749226089E-02 
2200	 2.30134855497616E-02 
2201	 2.61174432959349E-02 
2202	 2.74375143180712E-02 
2203	 2.87751069461212E-02 
2204	 2.63044330171792E-02 
2205	 2.48717468688773E-02 
2206	 2.91409993550545E-02 
2207	 3.17195211084779E-02 
2208	 2.98518839944535E-02 
2209	 3.10169509683933E-02 
2210	 3.00872728761381E-02 
2211	 0.025591686231062 
2212	 2.02916298602904E-02 
2213	 1.27178670380461E-02 
2214	 9.78416086284047E-03 
2215	 0.011503776567076 
2216	 1.49244311008549E-02 
2217	 1.72898422219625E-02 
2218	 2.15636038056867E-02 
2219	 2.17281608298335E-02 
2220	 1.85106194568605E-02 
2221	 1.64523145317986E-02 
2222	 0.014557222341921 
2223	 1.27004691839936E-02 
2224	 0.011552369012449 
2225	 8.56872253704346E-03 
2226	 2.71111390394504E-03 
2227	-9.74697681213061E-04 
2228	-8.5024759922996E-03 
2229	-8.50857055926823E-03 
2230	 1.23914544047291E-03 
2231	 3.03237397738965E-03 
2232	 2.19715162014112E-03 
2233	 5.53435646207332E-03 
2234	 7.62341317871246E-03 
2235	 1.08929566464544E-02 
2236	 1.71738743108362E-02 
2237	 2.77286058653115E-02 
2238	 2.99964524628611E-02 
2239	 2.61937864680928E-02 
2240	 2.47629491855528E-02 
2241	 1.92118738528007E-02 
2242	 1.27589429309972E-02 
2243	 1.19388280912425E-02 
2244	 1.39777401949503E-02 
2245	 1.60571044387555E-02 
2246	 2.05085933672823E-02 
2247	 2.32095434785608E-02 
2248	 2.18933352675762E-02 
2249	 1.76235363984385E-02 
2250	 1.05785206436779E-02 
2251	 2.97493256115015E-03 
2252	-5.25684015945933E-03 
2253	-1.51674000168232E-02 
2254	-1.59558591744683E-02 
2255	-1.10904515134961E-02 
2256	-1.08930189655113E-02 
2257	-1.67396870736418E-04 
2258	 1.14006779066622E-02 
2259	 0.013028075980256 
2260	 1.42769749264541E-02 
2261	 1.13955571013946E-02 
2262	 1.33663519071487E-02 
2263	 1.86267352855842E-02 
2264	 1.75930079267503E-02 
2265	 1.73814974394801E-02 
2266	 1.57247058064009E-02 
2267	 4.59203732313105E-04 
2268	-1.22958486230044E-03 
2269	 1.08324215798263E-02 
2270	 1.38832489538549E-02 
2271	 1.80447398264161E-02 
2272	 1.72800410107295E-02 
2273	 8.3865471907134E-03 
2274	 4.28716037989647E-03 
2275	 1.86991791098549E-03 
2276	-6.74516348025305E-04 
2277	 1.1300286317369E-04 
2278	-2.70624381607334E-03 
2279	-1.30393729317427E-02 
2280	-0.015881992726747 
2281	-1.47871830995304E-02 
2282	-1.89400002504351E-02 
2283	-1.62802686207873E-02 
2284	-1.43960603252799E-03 
2285	 8.32318424010917E-03 
2286	 8.22208155504133E-03 
2287	 1.16120753409488E-02 
2288	 9.84127689799209E-03 
2289	-2.60476696987606E-03 
2290	-2.76048870499324E-03 
2291	 5.79310076720622E-03 
2292	 1.06346223406991E-02 
2293	 1.75535483148329E-02 
2294	 2.46840582159314E-02 
2295	 2.06482045494993E-02 
2296	 6.04830175447086E-03 
2297	-5.9636113291565E-03 
2298	-1.35149007156796E-02 
2299	-1.90477385191541E-02 
2300	-0.020129306159044 
2301	-1.65914305297874E-02 
2302	-5.86106925284395E-03 
2303	 4.34287324191999E-03 
2304	 7.44256507859809E-03 
2305	 5.78414899586614E-03 
2306	 8.99046124866153E-04 
2307	-1.10981243977974E-02 
2308	-1.46989861200797E-02 
2309	-1.02690775899502E-02 
2310	-8.21635719792754E-03 
2311	 2.49014526174472E-03 
2312	 1.03461076458814E-02 
2313	 1.43463135176547E-02 
2314	 8.66893190436326E-03 
2315	 6.78739505478887E-03 
2316	 1.90513804460765E-02 
2317	 0.024243175690305 
2318	 2.51528005051808E-02 
2319	 0.031830422293892 
2320	 2.04537892924273E-02 
2321	-3.74058657353977E-03 
2322	 1.51490199109936E-03 
2323	 2.89153423234121E-03 
2324	-2.02049199067883E-03 
2325	 1.60854584587211E-03 
2326	-8.28996471537099E-04 
2327	-2.7046898324497E-03 
2328	 6.18596859618862E-03 
2329	 3.65684026695169E-02 
2330	 0.066893885839002 
2331	 7.67748935784466E-02 
2332	 5.82113247766076E-02 
2333	 3.00868587482919E-02 
2334	 6.70643139039895E-04 
2335	-2.08255684907856E-02 
2336	-7.82358275801163E-03 
2337	 6.52175596133265E-03 
2338	 2.80907556916207E-02 
2339	 4.80929600176748E-02 
2340	 3.11515087574024E-02 
2341	 1.76595381934872E-02 
2342	 7.50429318559072E-03 
2343	-1.19311524993908E-02 
2344	 6.79130197987712E-04 
2345	 4.68339084818432E-04 
2346	-4.34626046718418E-02 
2347	-6.39166441177257E-02 
2348	-4.97229279223207E-02 
2349	-1.50542117075704E-02 
2350	 4.70722412045221E-02 
2351	 9.46768455728233E-02 
2352	 6.99439855381505E-02 
2353	 1.29048804072116E-02 
2354	-1.97726633358988E-02 
2355	-4.27400078142504E-02 
2356	-5.96085398459275E-02 
2357	-0.061827108211556 
2358	-6.20972740328838E-02 
2359	-7.16010850738523E-02 
2360	-6.94041968737809E-02 
2361	-2.00940711425199E-03 
2362	 6.50677619761058E-02 
2363	 9.26919189527745E-02 
2364	 0.12026268648101 
2365	 0.108094553497818 
2366	 0.065683056739424 
2367	 2.30313435556543E-02 
2368	 7.81048015730123E-03 
2369	 0.048671172786029 
2370	 8.03185674475537E-02 
2371	 0.086249668563703 
2372	 0.11989535105765 
2373	 0.103169919468672 
2374	 4.10190131639988E-02 
2375	 2.12012954957769E-02 
2376	-9.17664967275612E-02 
2377	-0.190119280925711 
2378	-0.224493057924056 
2379	-0.276631758942404 
2380	-0.238402366515395 
2381	-0.261283988852053 
2382	-0.389455585029208 
2383	-0.374538037641019 
2384	-0.238452053207981 
2385	-4.57817488443845E-02 
2386	 0.149529341624469 
2387	 0.202414585527228 
2388	 0.158490349824427 
2389	 8.16547115941601E-02 
2390	-0.122255583857252 
2391	-0.125788644800086 
2392	-5.85960300702332E-02 
2393	-0.119815206158903 
2394	-1.86067610355818E-02 
2395	-5.55123744011535E-03 
2396	-0.098177654834108 
2397	-0.161054347014733 
2398	-0.194258214242676 
2399	-0.117906189729672 
2400	-0.177149928482299 
2401	-0.160019982168854 
2402	-8.80910458080299E-02 
2403	-0.101543527196494 
2404	-1.97061190024645E-02 
2405	 7.86425991348402E-02 
2406	 0.174857405227433 
2407	 3.79807116241831E-02 
2408	 0.342816089546397 
2409	 2.38077596192252 
2410	 1.65064554697833 
2411	 0.743086393540834 
2412	 0.571419339082345 
2413	 1.52259697074407E-02 
2414	-0.361288075053728 
2415	-0.316991860389529 
2416	-0.357389352383 
2417	-0.55205305073985 
2418	-0.132073204598145 
2419	 0.322736149224463 
2420	-0.07079515267636 
2421	-0.207549527320085 
2422	 2.0290088639551 
2423	-0.785128442334658 
2424	-0.828274766992962 
2425	-1.70747770244996 
2426	-1.32491900452452 
2427	-0.778241007171759 
2428	-0.718109249548538 
2429	-0.585015377227538 
2430	-0.33558959675492 
2431	-0.177601408157806 
2432	 1.94502421805546E-02 
2433	 0.588986612599146 
2434	 0.679646575615513 
2435	 2.40935890915646 
2436	 0.150835786922319 
2437	-6.37120407156709E-02 
2438	-0.222693969867821 
2439	-0.468287427489721 
2440	-5.45749942116167E-02 
2441	 0.23314860717052 
2442	-8.37238728260718E-02 
2443	-0.668239919315162 
2444	-4.03248112402632 
2445	 17.5099265910413 
2446	-243.109326421261 
2447	-0.566440237793816 
2448	-0.751012829082461 
2449	-0.38630151110087 
2450	 0.422663068376308 
2451	-18.6889478665523 
2452	-3.03902066868812 
2453	-0.799435650422533 
2454	-0.67105200119909 
2455	-1.21448449593921 
2456	-1.98635284414982 
2457	-8.82878758806037 
2458	 1.37138935469755 
2459	 0.831037011412438 
2460	 0.48087736128149 
2461	 0.325141084927681 
2462	-9.06578690780433E-02 
2463	-0.333330404278555 
2464	 0.412851540213721 
2465	-7.86930101687452 
2466	-4.59329308014719 
2467	 2.83382626806517 
2468	 1.53588656304054 
2469	 2.12465912713034 
2470	 0.959884481982135 
2471	 0.195372480051601 
2472	-0.670817500091204 
2473	-0.252155462672523 
2474	-9.96372563743063E-02 
2475	 3.2060317786986 
2476	 10.817056926147 
2477	 48.9087394896458 
2478	-2.25435514681038 
2479	-1.17537622658939 
2480	 1.15588369506438 
2481	 0.160083431148814 
2482	 0.376551248073739 
2483	 0.408789298792082 
2484	 0.347939681726026 
2485	-0.363659385578416 
2486	-0.695079176626657 
2487	-1.40336854662481 
2488	-2.94346471801144 
2489	-2.88783326954552 
2490	-1.53139896423702 
2491	-0.563555902652036 
2492	-0.142668460781459 
2493	-9.34474652273201E-02 
2494	-0.279417209930649 
2495	-0.399808587254481 
2496	-0.156481239978241 
2497	-7.36729644180989E-02 
2498	 1.09095620756871 
2499	 1.89338088364976 
2500	-0.731979025154087 
