Wavelength	rt0801far200008.asd
350	 7.39368334037286E-02 
351	 7.39257364505753E-02 
352	 7.45296370822512E-02 
353	 7.50960416030012E-02 
354	 7.50241365763017E-02 
355	 7.40098726148859E-02 
356	 7.35896855696376E-02 
357	 7.37383220851728E-02 
358	 0.07397733905297 
359	 7.44378318341195E-02 
360	 7.46945938165902E-02 
361	 7.46258581787978E-02 
362	 7.43942730356115E-02 
363	 0.074631969518022 
364	 7.48306629427048E-02 
365	 7.48169340745505E-02 
366	 0.075163054012589 
367	 7.46542268903064E-02 
368	 7.41355900149279E-02 
369	 0.074523752137608 
370	 7.49703989184741E-02 
371	 7.56456678234552E-02 
372	 7.59774430556759E-02 
373	 7.52764050359738E-02 
374	 7.56339422949764E-02 
375	 7.60922689443038E-02 
376	 7.61889229587106E-02 
377	 7.65816276826577E-02 
378	 7.65857198228208E-02 
379	 7.63763021032287E-02 
380	 7.63691661951923E-02 
381	 7.70967435112725E-02 
382	 7.74187553451418E-02 
383	 7.74770877031069E-02 
384	 7.79472893400075E-02 
385	 0.078403533525684 
386	 7.83207348534793E-02 
387	 7.79933175726835E-02 
388	 7.85487363469354E-02 
389	 7.90891098773992E-02 
390	 7.89166538347707E-02 
391	 0.078227183925492 
392	 7.92379506982391E-02 
393	 7.96317640645516E-02 
394	 7.96375956953323E-02 
395	 8.02033643754242E-02 
396	 8.05881859225774E-02 
397	 8.07843463005844E-02 
398	 8.08440414022959E-02 
399	 0.080840428440201 
400	 8.11447502014864E-02 
401	 8.12803288523814E-02 
402	 8.11046273956769E-02 
403	 8.14934948418405E-02 
404	 8.20107793776151E-02 
405	 8.23439095647279E-02 
406	 8.23420055598029E-02 
407	 8.25081375272072E-02 
408	 8.26915067493891E-02 
409	 8.28544006552975E-02 
410	 8.30945836696727E-02 
411	 8.29361682493407E-02 
412	 0.083117044902367 
413	 8.39495979117604E-02 
414	 8.42828573341232E-02 
415	 0.084292963899133 
416	 8.41825153837801E-02 
417	 8.42134108562946E-02 
418	 8.47308777317961E-02 
419	 8.51450439092512E-02 
420	 8.53791704664058E-02 
421	 8.59532371318215E-02 
422	 8.61168874471313E-02 
423	 8.62873314303228E-02 
424	 8.67695438231912E-02 
425	 8.68370660040068E-02 
426	 8.71039511129243E-02 
427	 8.76522745279787E-02 
428	 8.82726436302091E-02 
429	 0.088783723234253 
430	 8.90482680984115E-02 
431	 8.91813742652595E-02 
432	 8.95639559642804E-02 
433	 9.01803776996322E-02 
434	 9.07958479748223E-02 
435	 0.091223106872547 
436	 9.15529193933605E-02 
437	 9.19441272893931E-02 
438	 9.23327029982936E-02 
439	 0.092585446540448 
440	 9.31583877915823E-02 
441	 9.37089166992896E-02 
442	 9.40692001565837E-02 
443	 9.44553467438009E-02 
444	 9.47497178881282E-02 
445	 0.09503692238372 
446	 9.54058213545601E-02 
447	 9.57587488918203E-02 
448	 9.60928355680976E-02 
449	 0.096414066311778 
450	 9.67278213045881E-02 
451	 9.69482672740313E-02 
452	 9.70396262099311E-02 
453	 9.70953800037843E-02 
454	 9.74606156173218E-02 
455	 9.78085865841433E-02 
456	 9.79837161184685E-02 
457	 9.79753035358789E-02 
458	 9.81588419405745E-02 
459	 9.83444649957235E-02 
460	 9.84795715631099E-02 
461	 9.86712503045503E-02 
462	 9.87547460894601E-02 
463	 9.88400512073792E-02 
464	 9.90385252689217E-02 
465	 9.93415927207508E-02 
466	 9.94327674882224E-02 
467	 9.94312091818894E-02 
468	 9.96336163630738E-02 
469	 9.98117028141851E-02 
470	 9.99847650121415E-02 
471	 0.100187857316243 
472	 0.100447685280707 
473	 0.100641660620296 
474	 0.100784520997019 
475	 0.100939721165218 
476	 0.10120689020509 
477	 0.101361523239637 
478	 0.101473200954445 
479	 0.101791297088062 
480	 0.102149918165273 
481	 0.102339848688017 
482	 0.102395020662836 
483	 0.102861179727677 
484	 0.103213838180374 
485	 0.103454204659608 
486	 0.103770896999775 
487	 0.10425047111466 
488	 0.104510436827271 
489	 0.104649519386679 
490	 0.105216641125203 
491	 0.105687698556335 
492	 0.106131872409042 
493	 0.106640024415769 
494	 0.107042244306291 
495	 0.107442519695333 
496	 0.107903598005364 
497	 0.108456193676017 
498	 0.109038964663922 
499	 0.109615391941469 
500	 0.110201497731344 
501	 0.11089060475701 
502	 0.111487872760849 
503	 0.112105407344102 
504	 0.112842191829038 
505	 0.113356144010399 
506	 0.113908685774491 
507	 0.114481481492732 
508	 0.114857120515456 
509	 0.115511490442214 
510	 0.116142915981313 
511	 0.116593512517779 
512	 0.117368563953126 
513	 0.117934872707994 
514	 0.118476571486624 
515	 0.11939392807919 
516	 0.120270896027079 
517	 0.12100134891471 
518	 0.121659605125868 
519	 0.122497921813789 
520	 0.123305060813317 
521	 0.124109852996325 
522	 0.124935955189827 
523	 0.125551157425208 
524	 0.126284051429216 
525	 0.127151907856194 
526	 0.127958149441693 
527	 0.128806159105342 
528	 0.129692317829417 
529	 0.130579793777861 
530	 0.131387865955857 
531	 0.132290655222537 
532	 0.133252402170404 
533	 0.134159859855449 
534	 0.134968158559162 
535	 0.135886094266111 
536	 0.136906820595698 
537	 0.137762098751613 
538	 0.138775331408999 
539	 0.139811452244875 
540	 0.140750669001889 
541	 0.141931926677845 
542	 0.142900542937056 
543	 0.143717381180462 
544	 0.14473791182541 
545	 0.145686550886286 
546	 0.146578274149535 
547	 0.147465326558238 
548	 0.148403878851266 
549	 0.149371624285447 
550	 0.15031760465459 
551	 0.151200078472794 
552	 0.15208671575542 
553	 0.152963734709415 
554	 0.153848006973722 
555	 0.154791677258333 
556	 0.155846273309022 
557	 0.156838031816651 
558	 0.157637153561414 
559	 0.158467318163095 
560	 0.159303442273013 
561	 0.160141972647411 
562	 0.160988600249864 
563	 0.161783438278622 
564	 0.162486318782784 
565	 0.163164779304497 
566	 0.164103870620592 
567	 0.164979362178147 
568	 0.165683981658405 
569	 0.166241416707709 
570	 0.166921823362467 
571	 0.167504588586031 
572	 0.167938907963165 
573	 0.168383186554246 
574	 0.168837992687087 
575	 0.169296150842821 
576	 0.169733934352299 
577	 0.170116786530075 
578	 0.170414271949059 
579	 0.170701095855945 
580	 0.17109780067965 
581	 0.171500983896891 
582	 0.17176310261312 
583	 0.171921133943179 
584	 0.172352387715608 
585	 0.172890607616034 
586	 0.173489055776976 
587	 0.174111744179089 
588	 0.174581442222605 
589	 0.174944225149561 
590	 0.175138443396321 
591	 0.175022298237181 
592	 0.174947546436957 
593	 0.174954541070785 
594	 0.174915234437857 
595	 0.174403893342751 
596	 0.173920615610493 
597	 0.17353508733076 
598	 0.173082103307059 
599	 0.172634699885834 
600	 0.172282744432788 
601	 0.172036312050115 
602	 0.171761508551129 
603	 0.171616590745596 
604	 0.171642880515542 
605	 0.171790663779864 
606	 0.171754986729556 
607	 0.171847953922492 
608	 0.172078749900649 
609	 0.172122303880131 
610	 0.1721334949808 
611	 0.172183132705583 
612	 0.172300017955514 
613	 0.172448176668973 
614	 0.172536661961922 
615	 0.172509258907309 
616	 0.172386964427589 
617	 0.172607840681823 
618	 0.172795157110313 
619	 0.172747572589349 
620	 0.172672667920234 
621	 0.172750564888341 
622	 0.172878902027828 
623	 0.172921235272814 
624	 0.173119809103531 
625	 0.173347418326128 
626	 0.173530423246903 
627	 0.173656807877374 
628	 0.17364804407234 
629	 0.173576040859943 
630	 0.173549466711595 
631	 0.173725185222355 
632	 0.173648637223203 
633	 0.173446249385484 
634	 0.173476831899023 
635	 0.173483583589882 
636	 0.173465082731152 
637	 0.173454646361813 
638	 0.173505085502536 
639	 0.173430974326826 
640	 0.173313232067458 
641	 0.173295210895406 
642	 0.173408699227369 
643	 0.173549599719847 
644	 0.173774725803483 
645	 0.174256027514812 
646	 0.174722415472954 
647	 0.174744392231146 
648	 0.174266311725474 
649	 0.174085666895585 
650	 0.174033935158282 
651	 0.173940454153424 
652	 0.173673880877848 
653	 0.173506703712808 
654	 0.173255166517101 
655	 0.172877085675943 
656	 0.172614634628079 
657	 0.172221100081927 
658	 0.171868755326147 
659	 0.171629143310418 
660	 0.17101938529417 
661	 0.170697586576309 
662	 0.17071382322659 
663	 0.170718471172994 
664	 0.17046158764024 
665	 0.17031071668626 
666	 0.170409109729145 
667	 0.170359522834354 
668	 0.170295132847325 
669	 0.170290738432319 
670	 0.170393127976601 
671	 0.170591075062686 
672	 0.170579833546057 
673	 0.170470301087899 
674	 0.170734701861948 
675	 0.170864552589881 
676	 0.170959045523439 
677	 0.171135378223499 
678	 0.17123863773753 
679	 0.171519052603129 
680	 0.171847034036256 
681	 0.171984348402226 
682	 0.172279292696659 
683	 0.172497453418796 
684	 0.172734861798811 
685	 0.173660346675494 
686	 0.174403935099581 
687	 0.174892319268654 
688	 0.175263513371717 
689	 0.175279623092708 
690	 0.175682587415457 
691	 0.176463285660313 
692	 0.177123916969518 
693	 0.177363011565938 
694	 0.177110649979775 
695	 0.176564147275511 
696	 0.176039919773122 
697	 0.17591119624655 
698	 0.176099029719714 
699	 0.176325103851909 
700	 0.176271259504414 
701	 0.175753426889816 
702	 0.174913706736956 
703	 0.174098977975598 
704	 0.17360781285269 
705	 0.173183892385219 
706	 0.172540822602334 
707	 0.171423537290677 
708	 0.170582489474782 
709	 0.169898863910518 
710	 0.168961359839112 
711	 0.167715935646387 
712	 0.166493800903519 
713	 0.165615442602814 
714	 0.165348986010987 
715	 0.165484173807608 
716	 0.165810289710287 
717	 0.165833696764631 
718	 0.164762510273319 
719	 0.161813796374382 
720	 0.158700633911005 
721	 0.156547670523971 
722	 0.155820915778156 
723	 0.155065213302784 
724	 0.153506706807461 
725	 0.151362685275386 
726	 0.149113563165506 
727	 0.146763090098035 
728	 0.144194664967239 
729	 0.141388376471875 
730	 0.13783196461795 
731	 0.134027786401115 
732	 0.130572391340975 
733	 0.127823625634649 
734	 0.125764203638448 
735	 0.124211274460191 
736	 0.122685081963293 
737	 0.121256944358307 
738	 0.120006584348931 
739	 0.119014275256794 
740	 0.118221591435381 
741	 0.117778996572965 
742	 0.117546521461641 
743	 0.117258685802677 
744	 0.116992672643535 
745	 0.116924358104733 
746	 0.117007373960669 
747	 0.116890533809815 
748	 0.116816345574287 
749	 0.116726801206234 
750	 0.116584151820634 
751	 0.116654127329449 
752	 0.116730709429306 
753	 0.116833916008601 
754	 0.117052482524425 
755	 0.116931938111513 
756	 0.116918379815819 
757	 0.117284374401904 
758	 0.118149504253634 
759	 0.120120157665347 
760	 0.12218861688052 
761	 0.121844145947671 
762	 0.122139949702656 
763	 0.121513610939642 
764	 0.120431540873812 
765	 0.119741833342972 
766	 0.119247598324493 
767	 0.118988708314743 
768	 0.118908335691924 
769	 0.118860723376414 
770	 0.118812433956049 
771	 0.118936198359682 
772	 0.119298036465831 
773	 0.119569788110167 
774	 0.119914280308031 
775	 0.120254443419995 
776	 0.120482982390534 
777	 0.120904587740734 
778	 0.121404143280542 
779	 0.121842587373381 
780	 0.122118624691636 
781	 0.122611159892114 
782	 0.123105638572171 
783	 0.123492913038519 
784	 0.124164913012461 
785	 0.124872357247724 
786	 0.125587370898054 
787	 0.126363098568881 
788	 0.127318682476483 
789	 0.127912273689304 
790	 0.128128811386878 
791	 0.128421892437547 
792	 0.128780959801814 
793	 0.129176175020038 
794	 0.129678317142185 
795	 0.130526193330764 
796	 0.13114918000239 
797	 0.131631608604398 
798	 0.13217016231905 
799	 0.13249537372803 
800	 0.132930042083659 
801	 0.133329053645663 
802	 0.133362891632976 
803	 0.133465601483266 
804	 0.133368529566925 
805	 0.133090383233875 
806	 0.133002453813359 
807	 0.133226987477487 
808	 0.133616025256194 
809	 0.133972477885571 
810	 0.134130972207573 
811	 0.134533088506409 
812	 0.135242883742902 
813	 0.136026062857236 
814	 0.136264999538714 
815	 0.135831626315883 
816	 0.134945519718954 
817	 0.133995409829311 
818	 0.132443479621756 
819	 0.130983770274661 
820	 0.129917808031968 
821	 0.129174175001933 
822	 0.127258291774847 
823	 0.124786708728504 
824	 0.122716985080922 
825	 0.120837498155327 
826	 0.119247296187355 
827	 0.117254519668341 
828	 0.114255233120897 
829	 0.111196485670636 
830	 0.108815810492867 
831	 0.106970252391367 
832	 0.105023867194575 
833	 0.103230993770422 
834	 0.10190460496471 
835	 0.10086604440298 
836	 9.93866869551419E-02 
837	 9.80056816470675E-02 
838	 9.71910950054859E-02 
839	 9.69534788326967E-02 
840	 0.096289030258764 
841	 9.53592087981485E-02 
842	 9.45290376917764E-02 
843	 9.41190243163833E-02 
844	 9.37558471485201E-02 
845	 9.33544929712564E-02 
846	 9.28847012810391E-02 
847	 9.23680254222505E-02 
848	 9.19508642390263E-02 
849	 9.15070052709832E-02 
850	 9.09927759253888E-02 
851	 9.05066924448916E-02 
852	 9.00735388855285E-02 
853	 0.089846401901946 
854	 8.97366157802778E-02 
855	 8.91394884516552E-02 
856	 8.83607513564988E-02 
857	 8.77973557581298E-02 
858	 8.76731652823832E-02 
859	 8.75999780087648E-02 
860	 8.73307212286185E-02 
861	 8.68421120827445E-02 
862	 8.62637771158294E-02 
863	 8.56917893229487E-02 
864	 8.57797452734623E-02 
865	 8.60792123947818E-02 
866	 8.52927965773102E-02 
867	 8.45013221552035E-02 
868	 8.37533444735405E-02 
869	 8.31888467776427E-02 
870	 8.32127532960803E-02 
871	 8.28240606541142E-02 
872	 0.082243219052763 
873	 0.08181396815633 
874	 8.15403578809327E-02 
875	 0.080763154443656 
876	 8.00827040155914E-02 
877	 8.00305145722826E-02 
878	 7.93643178901553E-02 
879	 0.078896790815457 
880	 7.84947944733231E-02 
881	 7.77556032889641E-02 
882	 7.75059264223489E-02 
883	 7.72803409585622E-02 
884	 7.65426998761962E-02 
885	 7.50596306529151E-02 
886	 7.49125879632329E-02 
887	 7.46262506948673E-02 
888	 0.073950045006371 
889	 0.074360999611821 
890	 7.42440561393741E-02 
891	 7.41121819451017E-02 
892	 7.44957266474142E-02 
893	 7.51801897706619E-02 
894	 7.46662381809995E-02 
895	 7.40910786119026E-02 
896	 7.46680896900215E-02 
897	 0.074511713126288 
898	 7.45064332032147E-02 
899	 0.074655860140077 
900	 7.45960388829981E-02 
901	 7.40127146987114E-02 
902	 7.24812728570733E-02 
903	 7.11195357594854E-02 
904	 7.11279502349303E-02 
905	 7.13720986912796E-02 
906	 0.071215199268944 
907	 7.07918393354378E-02 
908	 7.07243268369232E-02 
909	 7.01061903247072E-02 
910	 7.03644714634954E-02 
911	 7.09887178018603E-02 
912	 6.98904967381958E-02 
913	 6.92933956612371E-02 
914	 6.82512601238909E-02 
915	 6.68680611821568E-02 
916	 6.65283691968989E-02 
917	 6.45176398529981E-02 
918	 6.24687476493472E-02 
919	 0.061379091440558 
920	 6.06448611284594E-02 
921	 0.059731588801999 
922	 0.058155039892888 
923	 5.62956120020704E-02 
924	 5.63406160980487E-02 
925	 0.0549092314079 
926	 5.37664253657696E-02 
927	 5.56586520824246E-02 
928	 5.94686629529088E-02 
929	 0.062567117263174 
930	 0.060809355484561 
931	 5.10517247504483E-02 
932	 4.83456261986368E-02 
933	 6.03065542115144E-02 
934	 6.70260234386665E-02 
935	 4.90194075796801E-02 
936	 4.46402620358467E-02 
937	 0.052531287321309 
938	 5.92690583734901E-02 
939	 0.055356286009315 
940	 5.31665829263038E-02 
941	 5.50970155219734E-02 
942	 5.32721118867452E-02 
943	 3.98399938991062E-02 
944	 4.23306374184333E-02 
945	 4.82251282679224E-02 
946	 5.13251196055438E-02 
947	 5.21505511802437E-02 
948	 5.19219668414609E-02 
949	 5.01241822601559E-02 
950	 4.85822605030831E-02 
951	 4.95882210031412E-02 
952	 5.03089501071079E-02 
953	 0.0462549618681 
954	 4.46882486940713E-02 
955	 5.50328672139597E-02 
956	 5.43840167717787E-02 
957	 4.73852808111074E-02 
958	 4.26340643924685E-02 
959	 4.64513261846525E-02 
960	 4.62439124021829E-02 
961	 4.65564044287015E-02 
962	 4.86937637094976E-02 
963	 5.02511189532277E-02 
964	 4.67306264728641E-02 
965	 4.43106975077626E-02 
966	 0.045194695831279 
967	 4.76236921352807E-02 
968	 4.72779894915459E-02 
969	 4.35471048057889E-02 
970	 3.99753051971232E-02 
971	 4.19303467129433E-02 
972	 4.28702727157934E-02 
973	 4.41406424061677E-02 
974	 4.44380288790081E-02 
975	 4.04235492680743E-02 
976	 3.97706746467825E-02 
977	 3.96436722344125E-02 
978	 3.91063626124325E-02 
979	 3.98872007244033E-02 
980	 4.27513408248585E-02 
981	 4.37246037828158E-02 
982	 4.20639174761612E-02 
983	 3.99125295332338E-02 
984	 3.78264008858875E-02 
985	 3.94974873031738E-02 
986	 4.19043083958487E-02 
987	 3.88030819171612E-02 
988	 3.96138067738196E-02 
989	 3.95567713410651E-02 
990	 3.80517713596064E-02 
991	 3.81242923118984E-02 
992	 3.84312305000391E-02 
993	 3.82783550458007E-02 
994	 3.80122837856885E-02 
995	 3.81867065441794E-02 
996	 3.61277186705273E-02 
997	 3.42298270312792E-02 
998	 3.62540593214277E-02 
999	 4.32989964155806E-02 
1000	 4.21069046152524E-02 
1001	 4.01819164685248E-02 
1002	 4.01701600939476E-02 
1003	 3.99115921464552E-02 
1004	 3.97461760018005E-02 
1005	 3.94790164845371E-02 
1006	 3.88432651789156E-02 
1007	 3.84217913334632E-02 
1008	 3.79883416566789E-02 
1009	 3.76355952814224E-02 
1010	 3.76892717946642E-02 
1011	 3.78416822290247E-02 
1012	 3.82479381039049E-02 
1013	 0.038801744915953 
1014	 3.93083533738169E-02 
1015	 4.00914149795719E-02 
1016	 0.040071874872463 
1017	 3.98184911437272E-02 
1018	 3.95314247807743E-02 
1019	 3.82654926444309E-02 
1020	 3.77651199551611E-02 
1021	 3.79276930838147E-02 
1022	 3.74503476326511E-02 
1023	 3.77142572824043E-02 
1024	 3.75336097930322E-02 
1025	 3.79573138393438E-02 
1026	 3.85502341530988E-02 
1027	 3.88993835874323E-02 
1028	 3.93429981157119E-02 
1029	 3.98638212127798E-02 
1030	 4.03499952124722E-02 
1031	 4.08106942600804E-02 
1032	 0.041868985945891 
1033	 4.17734262551594E-02 
1034	 4.04668631670687E-02 
1035	 0.040060819094325 
1036	 3.93787472509553E-02 
1037	 3.90808678984059E-02 
1038	 3.95226007885369E-02 
1039	 0.039907300511987 
1040	 4.00453592913158E-02 
1041	 0.039796886208691 
1042	 4.00860031893423E-02 
1043	 4.07270677863531E-02 
1044	 4.09229012395669E-02 
1045	 4.11830920487299E-02 
1046	 0.04130509644061 
1047	 4.11814470238236E-02 
1048	 4.09853279042686E-02 
1049	 4.05604932555596E-02 
1050	 4.05155723433099E-02 
1051	 4.00054065020734E-02 
1052	 4.02932815742696E-02 
1053	 4.18610159374079E-02 
1054	 0.042583138163355 
1055	 4.37129267215365E-02 
1056	 4.40971769717278E-02 
1057	 4.39374117641616E-02 
1058	 4.27096778447306E-02 
1059	 4.23781979978796E-02 
1060	 4.14839108972267E-02 
1061	 4.18743594390268E-02 
1062	 4.35655953363434E-02 
1063	 4.41578209333504E-02 
1064	 4.52313774820572E-02 
1065	 0.045454413388543 
1066	 4.44533363333994E-02 
1067	 4.41168254103066E-02 
1068	 4.35363382413798E-02 
1069	 4.34658713853127E-02 
1070	 4.43131866282391E-02 
1071	 0.044363998757074 
1072	 4.43510718231237E-02 
1073	 0.043909036665586 
1074	 4.39154765169703E-02 
1075	 4.35379060679582E-02 
1076	 4.34395636246218E-02 
1077	 4.37350840079764E-02 
1078	 4.41954432580554E-02 
1079	 0.044953150795852 
1080	 4.48961275133634E-02 
1081	 4.50116193970176E-02 
1082	 4.46542278428835E-02 
1083	 4.26447974645736E-02 
1084	 4.21073985085078E-02 
1085	 4.23858071680488E-02 
1086	 4.25900078567195E-02 
1087	 4.36743324297016E-02 
1088	 4.41378027758121E-02 
1089	 4.45234919092534E-02 
1090	 4.42911104630381E-02 
1091	 4.44463977556731E-02 
1092	 0.044823113174167 
1093	 4.43743381044404E-02 
1094	 4.30633335549122E-02 
1095	 4.32080581380783E-02 
1096	 4.32920972775846E-02 
1097	 4.35230097886635E-02 
1098	 0.04595963619219 
1099	 4.64391048102186E-02 
1100	 4.43870236373092E-02 
1101	 4.44871448106044E-02 
1102	 4.59148377209257E-02 
1103	 4.59444702087408E-02 
1104	 4.57198046253758E-02 
1105	 4.66315766463262E-02 
1106	 4.61309188721871E-02 
1107	 4.59620066924469E-02 
1108	 4.74932505712912E-02 
1109	 4.89646612411828E-02 
1110	 0.048846217968649 
1111	 4.58257635858527E-02 
1112	 4.52088655565471E-02 
1113	 4.44334998277744E-02 
1114	 4.49337774736824E-02 
1115	 4.97741566159421E-02 
1116	 5.19895269607249E-02 
1117	 5.41697926836037E-02 
1118	 0.054939196964274 
1119	 4.65834102231197E-02 
1120	 4.54481066293167E-02 
1121	 5.12023389103267E-02 
1122	 5.65307340599989E-02 
1123	 5.86902322591316E-02 
1124	 0.071766951030756 
1125	 7.84044299461902E-02 
1126	 6.77015617013573E-02 
1127	 5.98010594384482E-02 
1128	 6.89473761988298E-02 
1129	 7.27337883317408E-02 
1130	 7.13759316414787E-02 
1131	 7.36802595300687E-02 
1132	 8.46081007949014E-02 
1133	 8.13721918376869E-02 
1134	 6.74146030305352E-02 
1135	 0.067753442937644 
1136	 7.18647978107676E-02 
1137	 7.13896167892201E-02 
1138	 7.48526325935332E-02 
1139	 7.83690019317735E-02 
1140	 6.80024593398269E-02 
1141	 5.52164872345623E-02 
1142	 5.75316133712584E-02 
1143	 6.27974300710505E-02 
1144	 6.20033906980426E-02 
1145	 6.21959682365482E-02 
1146	 5.91925458834895E-02 
1147	 5.57080005614601E-02 
1148	 6.02365901082586E-02 
1149	 5.93281962265913E-02 
1150	 5.84671240519499E-02 
1151	 0.056195506954176 
1152	 5.40106276040782E-02 
1153	 5.09635636391748E-02 
1154	 5.12577428963579E-02 
1155	 5.38106537490174E-02 
1156	 0.051396466236281 
1157	 4.93574289709983E-02 
1158	 4.88543839903205E-02 
1159	 4.73221019361801E-02 
1160	 4.56984380398517E-02 
1161	 0.045942783502193 
1162	 4.58419621880202E-02 
1163	 4.45798676055637E-02 
1164	 4.41507752901208E-02 
1165	 4.42595666805416E-02 
1166	 0.043745642996997 
1167	 4.30709614878049E-02 
1168	 4.26260816633481E-02 
1169	 4.20257464188343E-02 
1170	 4.17663685500197E-02 
1171	 4.17240326536322E-02 
1172	 4.27776501274932E-02 
1173	 4.24771195529466E-02 
1174	 4.13332395791019E-02 
1175	 4.10089496995557E-02 
1176	 4.06415973093923E-02 
1177	 4.00741437378566E-02 
1178	 0.039898188126935 
1179	 3.98882656950116E-02 
1180	 0.039913985045819 
1181	 4.01647949984843E-02 
1182	 4.08743056490258E-02 
1183	 4.12174635588072E-02 
1184	 4.10104438880378E-02 
1185	 4.05038747820696E-02 
1186	 4.01117012808738E-02 
1187	 3.99558007932425E-02 
1188	 3.98149521787771E-02 
1189	 4.01185773167879E-02 
1190	 4.03510176987605E-02 
1191	 4.02730902650024E-02 
1192	 0.040161272389954 
1193	 3.98226815417034E-02 
1194	 0.039577165737622 
1195	 3.97628089612907E-02 
1196	 0.039594584999941 
1197	 3.95705850943946E-02 
1198	 3.98858386114238E-02 
1199	 3.93067131492291E-02 
1200	 3.90651483457382E-02 
1201	 3.93843768600999E-02 
1202	 3.93644640352258E-02 
1203	 3.95451713356334E-02 
1204	 0.039338616772476 
1205	 3.89857719489194E-02 
1206	 0.038868142705581 
1207	 3.87078518816689E-02 
1208	 3.86820144946332E-02 
1209	 3.82334395122054E-02 
1210	 3.78618724727506E-02 
1211	 3.81601932482074E-02 
1212	 0.038290222018669 
1213	 3.78310128711009E-02 
1214	 3.78737032679112E-02 
1215	 3.79113494568434E-02 
1216	 3.79537478838021E-02 
1217	 3.79825471512626E-02 
1218	 3.83565030322792E-02 
1219	 3.83847873084356E-02 
1220	 3.77646866464483E-02 
1221	 3.72556691469819E-02 
1222	 3.76797202956998E-02 
1223	 3.77686229426141E-02 
1224	 3.74714034793476E-02 
1225	 3.76613208280624E-02 
1226	 3.71267490257861E-02 
1227	 3.63866842165017E-02 
1228	 3.60510609121866E-02 
1229	 0.036124444739526 
1230	 3.68819213434837E-02 
1231	 3.71728933943167E-02 
1232	 3.70490701182823E-02 
1233	 3.71367664466685E-02 
1234	 3.65001733305517E-02 
1235	 3.60622694891264E-02 
1236	 3.61354738254231E-02 
1237	 0.036212551495917 
1238	 3.60560188935137E-02 
1239	 3.58539102026045E-02 
1240	 3.62271439172753E-02 
1241	 3.62029033387883E-02 
1242	 3.56073036163991E-02 
1243	 3.51016160014215E-02 
1244	 3.51720835956553E-02 
1245	 3.52887830136637E-02 
1246	 3.55058815110302E-02 
1247	 3.57227194763039E-02 
1248	 3.56335260950499E-02 
1249	 0.035795223186201 
1250	 3.57749449118221E-02 
1251	 3.56900518710482E-02 
1252	 3.60298816014891E-02 
1253	 3.60728160218622E-02 
1254	 3.58702629709358E-02 
1255	 0.035966299495377 
1256	 3.59577993685549E-02 
1257	 3.54953398173331E-02 
1258	 3.53337205452556E-02 
1259	 3.54353384555106E-02 
1260	 3.57351480226783E-02 
1261	 3.65343435864489E-02 
1262	 0.036558800134279 
1263	 3.64167834925462E-02 
1264	 3.59765489040639E-02 
1265	 0.03555155558649 
1266	 0.035099520516514 
1267	 3.50843432398477E-02 
1268	 0.035433083350479 
1269	 3.56472189060856E-02 
1270	 3.59217645004136E-02 
1271	 3.60632766565778E-02 
1272	 3.58168062569886E-02 
1273	 3.52408099817569E-02 
1274	 3.54545984524823E-02 
1275	 3.57465193739244E-02 
1276	 3.49060356768523E-02 
1277	 3.47597546285604E-02 
1278	 3.49054127998144E-02 
1279	 3.43376745919115E-02 
1280	 3.46272181118719E-02 
1281	 3.49461526102079E-02 
1282	 0.035296988758096 
1283	 3.51676041658558E-02 
1284	 0.034984184435023 
1285	 3.52203714642926E-02 
1286	 3.55105011351428E-02 
1287	 3.54444555733888E-02 
1288	 3.57007168174155E-02 
1289	 3.58279026922445E-02 
1290	 3.56611904608803E-02 
1291	 0.034717430797772 
1292	 3.49119769843941E-02 
1293	 3.57342927851741E-02 
1294	 3.60789228810553E-02 
1295	 3.60369463989082E-02 
1296	 3.58341836720822E-02 
1297	 3.60408242396143E-02 
1298	 3.58192165533331E-02 
1299	 3.57602077545916E-02 
1300	 3.68404206460819E-02 
1301	 3.71080454733725E-02 
1302	 3.68709388613942E-02 
1303	 3.74046828854689E-02 
1304	 3.79582796773306E-02 
1305	 3.79735181294898E-02 
1306	 3.81382345078289E-02 
1307	 3.90679564766664E-02 
1308	 0.039497115355074 
1309	 0.038972561112593 
1310	 3.89197249318312E-02 
1311	 3.90282868982377E-02 
1312	 3.96139239050996E-02 
1313	 4.12249052206129E-02 
1314	 4.15115672887895E-02 
1315	 4.10315973037028E-02 
1316	 4.09554683270634E-02 
1317	 3.99156138646874E-02 
1318	 3.95530753990346E-02 
1319	 3.98974634543832E-02 
1320	 4.05108282279252E-02 
1321	 4.12674874641608E-02 
1322	 4.26678492160175E-02 
1323	 4.22366810599039E-02 
1324	 4.27974807216277E-02 
1325	 4.39715021529717E-02 
1326	 4.39347415238061E-02 
1327	 4.51220086274848E-02 
1328	 4.42697314110519E-02 
1329	 4.25800635504449E-02 
1330	 4.33578329770191E-02 
1331	 4.44397648735511E-02 
1332	 4.59919711163786E-02 
1333	 4.72776755209105E-02 
1334	 4.48288655651306E-02 
1335	 4.50566999469495E-02 
1336	 4.59267005822609E-02 
1337	 4.82353188364219E-02 
1338	 5.52234925970335E-02 
1339	 5.63354617206428E-02 
1340	 5.25248125439375E-02 
1341	 5.20536201167547E-02 
1342	 5.03137954367801E-02 
1343	 4.67307712037013E-02 
1344	 4.21947737359527E-02 
1345	 4.21375947734902E-02 
1346	 4.18626890233795E-02 
1347	 0.041015455316285 
1348	 5.06737235287082E-02 
1349	 6.28895708678561E-02 
1350	 7.84641541493997E-02 
1351	 9.83919309646904E-02 
1352	 0.13573368748487 
1353	 0.192088161144184 
1354	 0.261436381825916 
1355	 0.300110197763943 
1356	 0.375639185950037 
1357	 0.695186960988013 
1358	 1.1565524630013 
1359	 1.40357390159823 
1360	 1.26072758382425 
1361	 0.913117772016592 
1362	 0.831890927805255 
1363	 0.904963677480598 
1364	 0.475628820024626 
1365	 0.449836595391065 
1366	 1.40183359483042 
1367	 1.95379953834015 
1368	 2.01942348755937 
1369	 1.95728482745042 
1370	 2.10410257120475 
1371	 1.64348545622486 
1372	 1.16851981799361 
1373	 1.44035590660058 
1374	 0.993732494133969 
1375	-0.128489713245745 
1376	-0.129279623920277 
1377	 8.84499149796535 
1378	-1.47513373973417 
1379	-9.30989679267024 
1380	-4.01376112840341 
1381	-0.992737811628287 
1382	-1.10661916443916 
1383	-2.99027693217224 
1384	-2.19669479563986 
1385	 4.09408087086881 
1386	 3.97332990176237 
1387	-1.14653693749445 
1388	-0.534211085043097 
1389	-0.628053195531986 
1390	-0.421863106909739 
1391	-2.05233683050937E-02 
1392	-0.543840245638653 
1393	 8.4842326492023 
1394	 0.635021528126269 
1395	 6.56835938177392E-02 
1396	-0.428687603690609 
1397	-0.892696671823208 
1398	-3.51514036693776 
1399	 4.81729135133765 
1400	 0.446801512032618 
1401	 0.570379139557425 
1402	-1.1253957752195 
1403	-9.48971436780167 
1404	 12.4083104311097 
1405	 23.4386295761396 
1406	-1.44014285049942 
1407	-1.34899340614821 
1408	-1.57794461475169 
1409	-5.07174762053245 
1410	 4.46368153885972 
1411	 2.45764593893573 
1412	 0.455667410150171 
1413	 0.353808791849331 
1414	 1.88151334075639 
1415	-7.88042474604663 
1416	 12.5329342093656 
1417	 1.26587512909403 
1418	 0.692585246296391 
1419	 0.405131521012639 
1420	 0.072946759875746 
1421	 0.135346526488231 
1422	 0.419117346208444 
1423	 0.299082851341503 
1424	 0.263602469411803 
1425	 0.231522061563553 
1426	-0.178400966381427 
1427	-0.279342389859553 
1428	-0.174860521840489 
1429	-0.111712601619501 
1430	-6.73605993219117E-02 
1431	-4.28458699555793E-02 
1432	 8.56950154324579E-02 
1433	 0.147345352073864 
1434	 0.122308055505294 
1435	 7.96837838394831E-02 
1436	-4.18660215957458E-02 
1437	-6.63830597311101E-02 
1438	-1.99867163433935E-02 
1439	 9.18124425721512E-02 
1440	 8.88162890741126E-02 
1441	 7.85117484546738E-02 
1442	 0.163902104566079 
1443	 0.134251155348198 
1444	 0.100606219015686 
1445	 0.141404525379521 
1446	 0.103686706796803 
1447	 0.062060700725123 
1448	 7.08008357376322E-02 
1449	 7.63500693071833E-02 
1450	 4.61304379853636E-02 
1451	 1.99043368143873E-02 
1452	 0.044943665858071 
1453	 6.25214232590238E-02 
1454	 5.81399607716615E-02 
1455	 4.80572399363756E-02 
1456	 5.57356080836172E-02 
1457	 0.059858619733112 
1458	 5.41075572156678E-02 
1459	 0.056902105284471 
1460	 0.058926097488708 
1461	 0.04609165657217 
1462	 4.15540900639914E-02 
1463	 5.40572451290011E-02 
1464	 5.24859821346522E-02 
1465	 3.02081474346945E-02 
1466	 0.027294617450172 
1467	 3.60907674948164E-02 
1468	 4.08892725770835E-02 
1469	 5.38917097985253E-02 
1470	 5.99585370980597E-02 
1471	 5.74942810265152E-02 
1472	 6.22701826189179E-02 
1473	 7.69308765691207E-02 
1474	 0.07628471983489 
1475	 6.64330279513684E-02 
1476	 6.36463718741268E-02 
1477	 5.59509834243723E-02 
1478	 5.22534714003166E-02 
1479	 5.38828747180273E-02 
1480	 5.62427305507019E-02 
1481	 6.07832017790268E-02 
1482	 5.90183782809201E-02 
1483	 5.45837982466074E-02 
1484	 5.50817022709459E-02 
1485	 5.58610570697811E-02 
1486	 5.35480666670833E-02 
1487	 5.27063773192272E-02 
1488	 5.24714271253811E-02 
1489	 5.00509021801699E-02 
1490	 4.89001589237141E-02 
1491	 0.049433978516711 
1492	 4.91408657484639E-02 
1493	 4.86956936708495E-02 
1494	 4.75760939787118E-02 
1495	 4.52637987553757E-02 
1496	 4.53072675053649E-02 
1497	 4.70320886331407E-02 
1498	 4.66507675080332E-02 
1499	 4.57744677265947E-02 
1500	 4.58308070118885E-02 
1501	 4.51837883473649E-02 
1502	 4.43812354366316E-02 
1503	 4.46355220419741E-02 
1504	 4.46919667973017E-02 
1505	 4.45664756827387E-02 
1506	 4.32252361508808E-02 
1507	 4.24010288197883E-02 
1508	 4.20438821217483E-02 
1509	 4.17283063439736E-02 
1510	 4.16831896373936E-02 
1511	 4.09690555599018E-02 
1512	 4.07589341936329E-02 
1513	 4.04646067193294E-02 
1514	 0.039625139144602 
1515	 3.99826941700571E-02 
1516	 4.04700685081146E-02 
1517	 4.06424528564148E-02 
1518	 4.08592001377616E-02 
1519	 4.07031141410876E-02 
1520	 4.04486839263451E-02 
1521	 3.99940794876614E-02 
1522	 3.95243397943057E-02 
1523	 3.95456699705597E-02 
1524	 3.91744407298193E-02 
1525	 3.85633380610337E-02 
1526	 3.86777427522101E-02 
1527	 3.79835437978906E-02 
1528	 3.68458705843728E-02 
1529	 3.72290733294628E-02 
1530	 3.77516223240879E-02 
1531	 0.037769413602254 
1532	 3.82157139206901E-02 
1533	 3.82079490688561E-02 
1534	 3.77158657585025E-02 
1535	 3.78926952672723E-02 
1536	 0.03845956442424 
1537	 3.91132424465017E-02 
1538	 0.038812918703813 
1539	 3.75790368830008E-02 
1540	 3.73044433873607E-02 
1541	 3.71727313177543E-02 
1542	 3.66207398648379E-02 
1543	 0.036733670238996 
1544	 3.70929638195188E-02 
1545	 3.68684785355043E-02 
1546	 3.67519655757941E-02 
1547	 3.72951647740406E-02 
1548	 3.76514538394157E-02 
1549	 3.77295425307811E-02 
1550	 3.78100984225295E-02 
1551	 3.78954635997996E-02 
1552	 0.037699113092594 
1553	 3.68034757791276E-02 
1554	 3.61402301011986E-02 
1555	 3.61400493134003E-02 
1556	 3.63513596311704E-02 
1557	 0.036770411974381 
1558	 3.69744745984289E-02 
1559	 3.68311943329391E-02 
1560	 3.66493347732751E-02 
1561	 3.65304784952968E-02 
1562	 3.66508656364564E-02 
1563	 3.69420701015168E-02 
1564	 3.67309282314691E-02 
1565	 3.63951543926321E-02 
1566	 3.67597158040668E-02 
1567	 3.70371117776298E-02 
1568	 3.68526009810827E-02 
1569	 3.67102030835324E-02 
1570	 3.66857002713785E-02 
1571	 3.68176125516731E-02 
1572	 3.68436533809909E-02 
1573	 0.036505621374978 
1574	 0.03631945732725 
1575	 3.59777252042508E-02 
1576	 3.56924570968098E-02 
1577	 3.58419645654281E-02 
1578	 3.58132768772535E-02 
1579	 3.62206491199444E-02 
1580	 3.60909186159479E-02 
1581	 3.53191132473834E-02 
1582	 3.55992416798168E-02 
1583	 3.59461251893545E-02 
1584	 3.54626992700487E-02 
1585	 3.54552104272122E-02 
1586	 3.63786576817543E-02 
1587	 0.03628265242708 
1588	 3.56798358630119E-02 
1589	 3.58715990637229E-02 
1590	 3.55988809784036E-02 
1591	 3.55006166989985E-02 
1592	 3.55985853100275E-02 
1593	 3.51457205624489E-02 
1594	 3.46727344172893E-02 
1595	 3.45056831786483E-02 
1596	 0.035264477278152 
1597	 3.57002337866524E-02 
1598	 3.58006788820944E-02 
1599	 3.63283539668981E-02 
1600	 3.57067040965015E-02 
1601	 3.50113568875974E-02 
1602	 3.48936509594924E-02 
1603	 3.40263068064896E-02 
1604	 3.37415670388049E-02 
1605	 3.49810751596415E-02 
1606	 3.60328038988579E-02 
1607	 3.59511091883348E-02 
1608	 3.58275170106654E-02 
1609	 3.58783550203176E-02 
1610	 0.034641634433926 
1611	 3.28585643167825E-02 
1612	 0.032712149753411 
1613	 3.27230653951188E-02 
1614	 3.27760394151017E-02 
1615	 3.40322863058345E-02 
1616	 3.43559901481321E-02 
1617	 3.36040091713572E-02 
1618	 3.33174515043478E-02 
1619	 3.34192034745874E-02 
1620	 3.37064340923142E-02 
1621	 3.41720767518309E-02 
1622	 3.42601856730302E-02 
1623	 3.45399435787921E-02 
1624	 0.035079168560225 
1625	 3.47964601299868E-02 
1626	 0.034464429170279 
1627	 3.47316460349043E-02 
1628	 3.43324896596934E-02 
1629	 3.31643569733043E-02 
1630	 0.032691228855886 
1631	 3.19350782894029E-02 
1632	 3.10076073221293E-02 
1633	 3.22732275594374E-02 
1634	 3.35880471934128E-02 
1635	 3.31008541043672E-02 
1636	 3.30433067836145E-02 
1637	 3.37996761068843E-02 
1638	 3.43662556036135E-02 
1639	 3.47547819422046E-02 
1640	 3.48758780520984E-02 
1641	 0.034416703983269 
1642	 3.36263075883309E-02 
1643	 0.033254397582655 
1644	 3.36732717800762E-02 
1645	 3.33368440368142E-02 
1646	 3.20179512640667E-02 
1647	 3.19896519299958E-02 
1648	 3.24281123015918E-02 
1649	 3.21927041624759E-02 
1650	 3.23879484007154E-02 
1651	 3.32371203870869E-02 
1652	 3.38405051337778E-02 
1653	 3.35772224522827E-02 
1654	 3.37258677692317E-02 
1655	 3.30341097580742E-02 
1656	 3.28303190167955E-02 
1657	 3.36283407307738E-02 
1658	 3.38345190468664E-02 
1659	 3.35352844609345E-02 
1660	 3.36232502377859E-02 
1661	 3.41988938478282E-02 
1662	 3.42932850514148E-02 
1663	 3.40161553707243E-02 
1664	 3.38662665956568E-02 
1665	 3.33936689058275E-02 
1666	 3.33312372193147E-02 
1667	 3.35081035150948E-02 
1668	 3.28952932209895E-02 
1669	 3.28500360375763E-02 
1670	 3.16942584837189E-02 
1671	 3.20150154102494E-02 
1672	 3.35919854999049E-02 
1673	 3.34867848418284E-02 
1674	 3.27166197243778E-02 
1675	 3.24478886001643E-02 
1676	 3.25003622557469E-02 
1677	 3.30538948905572E-02 
1678	 0.034113340414322 
1679	 3.40211247457775E-02 
1680	 0.03239241962617 
1681	 3.21907492925633E-02 
1682	 3.29665449076802E-02 
1683	 3.22095186940841E-02 
1684	 3.21040651372012E-02 
1685	 3.28604158177072E-02 
1686	 3.32176924819004E-02 
1687	 3.38741171327078E-02 
1688	 3.37945574003816E-02 
1689	 3.30734435952487E-02 
1690	 3.14768428731724E-02 
1691	 3.04282245595351E-02 
1692	 3.16205426936274E-02 
1693	 3.21728090901403E-02 
1694	 0.031913383177337 
1695	 3.26519729258287E-02 
1696	 3.27265557835019E-02 
1697	 0.032160472165372 
1698	 3.32493655628129E-02 
1699	 3.40755151189935E-02 
1700	 3.39937894310364E-02 
1701	 3.41438865653576E-02 
1702	 3.32149217779498E-02 
1703	 3.29174923003211E-02 
1704	 3.45379011544083E-02 
1705	 3.49726881164103E-02 
1706	 3.41758321749872E-02 
1707	 3.30728759216101E-02 
1708	 3.10993324467803E-02 
1709	 0.029961817801026 
1710	 3.01097187588117E-02 
1711	 3.09975721889462E-02 
1712	 3.10988204985673E-02 
1713	 3.15185945080779E-02 
1714	 3.20682789318754E-02 
1715	 3.22050303418361E-02 
1716	 3.22874268573631E-02 
1717	 3.17428478958584E-02 
1718	 3.14523399392299E-02 
1719	 3.24792032254142E-02 
1720	 3.23810416234421E-02 
1721	 3.17908889706649E-02 
1722	 0.032824334689142 
1723	 3.30940689415301E-02 
1724	 3.37761021737618E-02 
1725	 3.62780429781615E-02 
1726	 3.43633278025812E-02 
1727	 3.11108540656724E-02 
1728	 3.22515917751907E-02 
1729	 0.031820192724727 
1730	 3.18805239237919E-02 
1731	 3.45489803725099E-02 
1732	 3.44032230206182E-02 
1733	 3.30385286533524E-02 
1734	 3.23535515393365E-02 
1735	 3.20244660104448E-02 
1736	 3.15373861365639E-02 
1737	 3.12307906984671E-02 
1738	 3.29731736038856E-02 
1739	 3.39725316165656E-02 
1740	 3.38680751146351E-02 
1741	 3.53752919325774E-02 
1742	 3.57324590933657E-02 
1743	 3.55056781709882E-02 
1744	 3.60919937209838E-02 
1745	 3.48663241794345E-02 
1746	 3.37544120038618E-02 
1747	 3.36208327655718E-02 
1748	 3.35803210661512E-02 
1749	 3.27589665188203E-02 
1750	 3.14088950902248E-02 
1751	 3.17840594456013E-02 
1752	 3.33000761874643E-02 
1753	 0.033688905260052 
1754	 3.46750646554563E-02 
1755	 3.58892056650616E-02 
1756	 3.58062871031657E-02 
1757	 3.51826757665565E-02 
1758	 3.72067557544763E-02 
1759	 3.70851981324705E-02 
1760	 0.033438218986689 
1761	 3.20445128394513E-02 
1762	 3.10373158885821E-02 
1763	 0.030188945090643 
1764	 3.39410364548776E-02 
1765	 3.86359741273752E-02 
1766	 3.93422693574497E-02 
1767	 3.76384341376489E-02 
1768	 3.74868045064995E-02 
1769	 3.93639228039951E-02 
1770	 4.08531488658546E-02 
1771	 4.26035373500876E-02 
1772	 4.05993579911842E-02 
1773	 3.10838101834643E-02 
1774	 3.04384644640002E-02 
1775	 4.06041102866889E-02 
1776	 4.15557609428092E-02 
1777	 4.49532781434413E-02 
1778	 4.56657747837527E-02 
1779	 3.12463007790856E-02 
1780	 3.05480973859721E-02 
1781	 4.53029575475903E-02 
1782	 4.44125933556209E-02 
1783	 3.63068485807305E-02 
1784	 0.036560366750622 
1785	 3.22852599477349E-02 
1786	 3.37460583305293E-02 
1787	 4.96767274777332E-02 
1788	 5.27267735345861E-02 
1789	 4.57094334155298E-02 
1790	 3.77183511395883E-02 
1791	 4.08860783863041E-02 
1792	 4.92378156639038E-02 
1793	 4.45547827359663E-02 
1794	 5.42399291745974E-02 
1795	 6.35874467931425E-02 
1796	 6.86018101583552E-02 
1797	 8.86325903131886E-02 
1798	 0.081896976844459 
1799	 6.67239434151909E-02 
1800	 3.24759362879324E-02 
1801	 2.12909309378695E-02 
1802	 6.47545505112386E-02 
1803	 6.37634828665584E-02 
1804	 3.78826173600917E-02 
1805	 1.82232806670561E-02 
1806	-9.00007439851909E-02 
1807	-8.84018778969021E-02 
1808	 0.12699750826285 
1809	 0.289840630845967 
1810	 0.507054013933143 
1811	 0.593128049659011 
1812	 0.419407004016987 
1813	 0.414291783107383 
1814	-19.8310339044849 
1815	-0.722754776847328 
1816	 4.91948757791254 
1817	-2.71974218100262 
1818	-4.13478468230766 
1819	-0.276823648009901 
1820	 1.50610698197128 
1821	 11.8480713912499 
1822	-28.5625519438805 
1823	-1619.86813011096 
1824	-0.20216212101108 
1825	 2.1652600150499 
1826	 2.35584374148879 
1827	 8.05701014221081 
1828	 6.57371974805237 
1829	 4.73637257062063 
1830	 5.87406789445114 
1831	-1.39668123225683 
1832	-1.90951661634798 
1833	 1.92510076450071 
1834	 1.40976372416693 
1835	 0.748304474868677 
1836	 2.7552651738355 
1837	-0.611513846846297 
1838	-0.555217631240867 
1839	-0.995602645687967 
1840	-1.08133736981341 
1841	-4.40186183901109 
1842	 0.554318427881708 
1843	 0.412783761596569 
1844	 0.464095171126173 
1845	 0.213246564661975 
1846	-0.101965141040877 
1847	-3.34279625067722E-02 
1848	 0.425271564845993 
1849	 91.8026464048382 
1850	 0.338013476311888 
1851	 12.6153298331282 
1852	-100.191639841104 
1853	-0.900161921477944 
1854	-0.485469232232359 
1855	 1.35589205769778 
1856	 1.40558793349562 
1857	-6.81680122872527 
1858	-8.87768813609487 
1859	-30.1242733652554 
1860	-5.16041516419131 
1861	-1.88355422162772 
1862	-2.16459931053083E-02 
1863	 8.08732046460149E-02 
1864	-0.19753874517488 
1865	-0.21991916871099 
1866	-0.137444186860126 
1867	-0.30672529938765 
1868	-0.482048848149606 
1869	-0.930151761400009 
1870	 3.00505296084155 
1871	 8.85901047670204 
1872	 3.21633660037588 
1873	 39.5266604836167 
1874	 0.789887436115552 
1875	-1.8069068739114 
1876	-0.157514693862939 
1877	-1.59414718211102 
1878	-2.1985557089888 
1879	-1.90992359697793 
1880	-3.76416997178257 
1881	 0.964827756260547 
1882	 0.463156127965058 
1883	 0.53192189121289 
1884	 0.562062451159036 
1885	 0.491982994670251 
1886	 0.221343563082571 
1887	 0.271758368012186 
1888	 0.294729827923873 
1889	 0.280279511471418 
1890	 0.373078986943441 
1891	 0.307767986391046 
1892	-0.433781806110297 
1893	-5.3563489824433 
1894	-2.02590174565431 
1895	-0.324631492875189 
1896	 1.17570020697298 
1897	 1.28431806695656 
1898	 0.66945590880695 
1899	 1.47836979863897 
1900	 4.99261602596418 
1901	-0.138185362962974 
1902	 1.632716744834 
1903	-0.323283743953725 
1904	-0.616180875339756 
1905	-0.126458948032741 
1906	 1.09833298658599 
1907	-1.02068280226141 
1908	-2.21267501484283 
1909	-4.97379764736471 
1910	 1.2130719598446 
1911	 0.905116923111887 
1912	 1.19541520881209 
1913	 1.71557907968518 
1914	 22.7931042256464 
1915	 63.2735759342207 
1916	 23.7078487476331 
1917	-3.27984603556038 
1918	-17.3578521767964 
1919	 12.551831440303 
1920	-2.79035103559994 
1921	-4.63895737980801 
1922	-0.529173438391805 
1923	 6.90192718916374E-02 
1924	-0.189617149329621 
1925	-0.273815758635901 
1926	-0.275930149011761 
1927	-0.449322059173036 
1928	-0.655667423674161 
1929	-0.110668292443662 
1930	 0.218539719352663 
1931	 0.591104032145967 
1932	 1.14897743738826 
1933	 2.02122837590941 
1934	 58.5267671089971 
1935	 1.95940002971906 
1936	 0.930410224093187 
1937	 1.10699914296442 
1938	 0.947757662613226 
1939	 0.806351949073183 
1940	-3.53862278468483 
1941	-8.13469089572504 
1942	 0.778372098967526 
1943	 0.175364695265998 
1944	 0.402758221348 
1945	 0.299907281868211 
1946	 0.305303686174126 
1947	 0.574832733958744 
1948	 0.579468514340401 
1949	 0.837107725962916 
1950	 0.845464605347035 
1951	 0.387177618310365 
1952	 0.281303088159841 
1953	 0.133562701025494 
1954	 1.27791337698354E-02 
1955	 0.289230106623426 
1956	 0.609281569063191 
1957	 0.586950138744564 
1958	 0.442287275857302 
1959	 0.279489682842279 
1960	 0.160802390853261 
1961	 0.143615185768808 
1962	 0.12407775828269 
1963	 0.109289500057826 
1964	 9.91617653307488E-02 
1965	 8.86800558156937E-02 
1966	 7.92753800089843E-02 
1967	 6.57886330847859E-02 
1968	 5.27546440634958E-02 
1969	 6.41684172071162E-02 
1970	 6.77112310201104E-02 
1971	 5.54116967750651E-02 
1972	 5.51660224547485E-02 
1973	 5.39179319638439E-02 
1974	 0.051427410432803 
1975	 6.02939520270181E-02 
1976	 7.06090025145514E-02 
1977	 6.57837483624521E-02 
1978	 5.99481554694635E-02 
1979	 0.061412198331002 
1980	 6.51442688185989E-02 
1981	 6.75216304017136E-02 
1982	 7.23953176043433E-02 
1983	 7.13917222497662E-02 
1984	 6.48873383783253E-02 
1985	 5.73996006666382E-02 
1986	 4.85894633185057E-02 
1987	 4.49118808473156E-02 
1988	 4.25079003857587E-02 
1989	 4.16323582294133E-02 
1990	 4.29272497157229E-02 
1991	 4.24977165899664E-02 
1992	 0.044441114652643 
1993	 5.11418937447509E-02 
1994	 5.45852380549986E-02 
1995	 5.92680547320569E-02 
1996	 6.19418819695247E-02 
1997	 5.89189315509145E-02 
1998	 5.17034309005417E-02 
1999	 4.74856349673872E-02 
2000	 5.28290007551631E-02 
2001	 6.80826351426093E-02 
2002	 7.08137255536953E-02 
2003	 6.27187948920905E-02 
2004	 6.76584005105708E-02 
2005	 7.08069794220481E-02 
2006	 6.49137072473301E-02 
2007	 7.61974610467906E-02 
2008	 8.21880984134063E-02 
2009	 7.86454804499118E-02 
2010	 6.59921813530839E-02 
2011	 6.89069597048546E-02 
2012	 7.55524373987431E-02 
2013	 6.67052569009416E-02 
2014	 7.40003426388259E-02 
2015	 7.97797908740436E-02 
2016	 6.69914319536054E-02 
2017	 5.80853478583119E-02 
2018	 5.32821344498797E-02 
2019	 5.20629289984002E-02 
2020	 5.74883238661713E-02 
2021	 6.88801720292806E-02 
2022	 7.26523624957415E-02 
2023	 6.03419282403927E-02 
2024	 5.52373142730824E-02 
2025	 4.62983608769618E-02 
2026	 4.17546170968648E-02 
2027	 3.67496417348964E-02 
2028	 4.32440439221208E-02 
2029	 4.63631694564749E-02 
2030	 4.38230764602968E-02 
2031	 4.12151166917124E-02 
2032	 4.01483195754205E-02 
2033	 0.042430859448392 
2034	 4.46638631910364E-02 
2035	 4.93257207167157E-02 
2036	 5.32985952812937E-02 
2037	 5.29223079235299E-02 
2038	 0.051873560717809 
2039	 5.24859317453829E-02 
2040	 5.55493083930815E-02 
2041	 5.57190506190415E-02 
2042	 5.44668963908151E-02 
2043	 5.42229857177351E-02 
2044	 5.37661413444526E-02 
2045	 5.08907054037934E-02 
2046	 4.93694547030306E-02 
2047	 0.047100798351496 
2048	 4.48254544785505E-02 
2049	 4.25982683069881E-02 
2050	 3.92447066052944E-02 
2051	 4.05499099865698E-02 
2052	 4.43020806518052E-02 
2053	 4.59843723492149E-02 
2054	 4.81495265337157E-02 
2055	 5.00880077857908E-02 
2056	 5.00660031203426E-02 
2057	 4.43181947785672E-02 
2058	 0.044396909559169 
2059	 4.74396024296843E-02 
2060	 4.82164509812675E-02 
2061	 5.04479524657087E-02 
2062	 5.22966313035624E-02 
2063	 4.77436656604214E-02 
2064	 4.40309575525465E-02 
2065	 4.36229819495309E-02 
2066	 4.44125891769942E-02 
2067	 4.37363432647084E-02 
2068	 0.043726868802305 
2069	 4.39922089219591E-02 
2070	 3.94760396186991E-02 
2071	 4.11458515916245E-02 
2072	 4.54790525022302E-02 
2073	 4.49672113669393E-02 
2074	 4.21918478711854E-02 
2075	 4.01906073215242E-02 
2076	 3.53918803460702E-02 
2077	 0.03397204895576 
2078	 3.47147901585075E-02 
2079	 3.53810018107228E-02 
2080	 3.87511801759574E-02 
2081	 3.61473570739615E-02 
2082	 3.37800712030613E-02 
2083	 3.58477182242523E-02 
2084	 3.63213278243219E-02 
2085	 4.18735072869302E-02 
2086	 0.048464073716833 
2087	 4.73127556634809E-02 
2088	 4.63960742594894E-02 
2089	 4.54605045342772E-02 
2090	 4.38525235553911E-02 
2091	 4.57921924507073E-02 
2092	 4.58959123020879E-02 
2093	 4.51646357407897E-02 
2094	 4.43823059336022E-02 
2095	 4.33972321038026E-02 
2096	 4.27734369999385E-02 
2097	 4.32715713459688E-02 
2098	 4.34200774839305E-02 
2099	 4.37860309196817E-02 
2100	 4.17743463246751E-02 
2101	 4.02285895768053E-02 
2102	 3.99387371794147E-02 
2103	 4.19633216665956E-02 
2104	 4.13705172010509E-02 
2105	 4.14277834830631E-02 
2106	 4.09099857696794E-02 
2107	 3.88838996965183E-02 
2108	 4.17399624302855E-02 
2109	 4.37063689644801E-02 
2110	 4.23454562486532E-02 
2111	 0.042226168441186 
2112	 4.13304676599241E-02 
2113	 4.12506595136677E-02 
2114	 4.39341334270171E-02 
2115	 4.42235653782171E-02 
2116	 4.33563164507883E-02 
2117	 4.18217077173908E-02 
2118	 3.56183712055909E-02 
2119	 3.55297982731597E-02 
2120	 3.94452699897619E-02 
2121	 4.14170833515181E-02 
2122	 4.30035610710654E-02 
2123	 4.51386960969568E-02 
2124	 4.08930053265279E-02 
2125	 3.75773911896718E-02 
2126	 3.84964805765527E-02 
2127	 3.89290092198571E-02 
2128	 3.88136421925284E-02 
2129	 3.61431639568334E-02 
2130	 3.37381887614963E-02 
2131	 3.14138397044162E-02 
2132	 0.025519371582995 
2133	 2.53855857431086E-02 
2134	 2.62258777978603E-02 
2135	 2.73411357359055E-02 
2136	 2.89379106910106E-02 
2137	 3.46771725846601E-02 
2138	 3.68396473203998E-02 
2139	 3.72978386207875E-02 
2140	 0.03740228577802 
2141	 3.77874193901909E-02 
2142	 3.72674974373466E-02 
2143	 3.45920879204238E-02 
2144	 0.032060702723004 
2145	 3.22171696269592E-02 
2146	 0.031017622581149 
2147	 3.32307160941481E-02 
2148	 3.77296470177484E-02 
2149	 3.81333888777786E-02 
2150	 3.68019837159892E-02 
2151	 3.59161342808618E-02 
2152	 3.39073761998018E-02 
2153	 3.62005913273375E-02 
2154	 4.02050975859301E-02 
2155	 3.99536107599565E-02 
2156	 4.04093897419235E-02 
2157	 4.04418170039139E-02 
2158	 3.85710542471586E-02 
2159	 3.74975213611217E-02 
2160	 3.74501132246813E-02 
2161	 3.67764857710463E-02 
2162	 3.50131169116757E-02 
2163	 3.45902710066613E-02 
2164	 3.54085432649073E-02 
2165	 3.42335660401444E-02 
2166	 0.031541617377151 
2167	 3.15742647903237E-02 
2168	 0.03377263466576 
2169	 3.36096502713365E-02 
2170	 0.032380745503184 
2171	 3.34238505167498E-02 
2172	 3.44905564458964E-02 
2173	 0.034296224309489 
2174	 3.90103691762554E-02 
2175	 3.97537503518542E-02 
2176	 3.84692876409915E-02 
2177	 3.83761943028852E-02 
2178	 4.24733756882403E-02 
2179	 4.51889458908072E-02 
2180	 0.045146030391942 
2181	 4.83662631444318E-02 
2182	 4.28402480121988E-02 
2183	 4.08917268939688E-02 
2184	 4.50037249344944E-02 
2185	 4.00213108097055E-02 
2186	 3.73049959374484E-02 
2187	 3.46305871203345E-02 
2188	 0.03342692120321 
2189	 3.13014364895985E-02 
2190	 3.10517233190839E-02 
2191	 3.46273041479758E-02 
2192	 0.036874227262584 
2193	 3.76099671227768E-02 
2194	 3.88346284868111E-02 
2195	 4.29369276595558E-02 
2196	 4.38310579225655E-02 
2197	 4.24789467566857E-02 
2198	 4.15129858511673E-02 
2199	 3.93145025028699E-02 
2200	 3.42513434661638E-02 
2201	 3.98713246855839E-02 
2202	 4.50554094452905E-02 
2203	 4.37890011228919E-02 
2204	 0.045615847009719 
2205	 4.35268533274159E-02 
2206	 0.035791521786678 
2207	 3.93383442673197E-02 
2208	 4.33149580050597E-02 
2209	 3.75683342443783E-02 
2210	 3.81636430477706E-02 
2211	 3.70034537993891E-02 
2212	 3.02420737438513E-02 
2213	 2.59973209450528E-02 
2214	 2.24117934651432E-02 
2215	 1.92750739400932E-02 
2216	 2.08086011233589E-02 
2217	 2.40474539841751E-02 
2218	 3.22002366551956E-02 
2219	 3.41825179295001E-02 
2220	 3.65091601367839E-02 
2221	 3.66075061083437E-02 
2222	 3.05592171965227E-02 
2223	 3.11191875097262E-02 
2224	 0.033795810987947 
2225	 3.65124155131685E-02 
2226	 4.47781759068167E-02 
2227	 4.62050909555944E-02 
2228	 4.32650035037123E-02 
2229	 4.37577840202099E-02 
2230	 4.23965793574069E-02 
2231	 4.14582208258999E-02 
2232	 4.05445337795877E-02 
2233	 4.12866709980985E-02 
2234	 4.13412636651195E-02 
2235	 4.60719907511423E-02 
2236	 4.86930748708535E-02 
2237	 0.055926508847879 
2238	 5.82014842603564E-02 
2239	 5.09397283757232E-02 
2240	 4.71306919395057E-02 
2241	 4.72384607630927E-02 
2242	 4.64250527154981E-02 
2243	 4.79536872876871E-02 
2244	 4.47983017612146E-02 
2245	 4.25671175526329E-02 
2246	 4.69582303288906E-02 
2247	 4.67186971885175E-02 
2248	 4.40490877794137E-02 
2249	 0.038451819841167 
2250	 3.45897566551474E-02 
2251	 3.41448571814755E-02 
2252	 3.40701568907345E-02 
2253	 0.036232123143887 
2254	 3.88712772898009E-02 
2255	 4.08804094706901E-02 
2256	 3.84463912271137E-02 
2257	 3.93400207778445E-02 
2258	 3.76844170833135E-02 
2259	 2.45857828780174E-02 
2260	 1.99795640993725E-02 
2261	 1.81408812508517E-02 
2262	 2.35512909621873E-02 
2263	 3.97770195297809E-02 
2264	 4.61370774285185E-02 
2265	 5.72845347605141E-02 
2266	 5.84946416288582E-02 
2267	 4.37337418330649E-02 
2268	 0.038360238505101 
2269	 3.19916637381275E-02 
2270	 3.14551417747858E-02 
2271	 4.01757490599947E-02 
2272	 4.20057800586505E-02 
2273	 4.21144141215219E-02 
2274	 4.24766099217186E-02 
2275	 3.90621543377631E-02 
2276	 3.78865894722676E-02 
2277	 4.48195179081874E-02 
2278	 4.39748304538695E-02 
2279	 3.30397989116531E-02 
2280	 3.08978971031752E-02 
2281	 0.028294171738597 
2282	 2.68877654578652E-02 
2283	 4.01740200072613E-02 
2284	 4.84106119193353E-02 
2285	 4.97077897199947E-02 
2286	 4.73894382913433E-02 
2287	 0.041553351433258 
2288	 4.51811597921582E-02 
2289	 4.07828921937658E-02 
2290	 3.68738763027913E-02 
2291	 4.49394772099591E-02 
2292	 4.54810203986988E-02 
2293	 0.04880326480318 
2294	 5.49271150953859E-02 
2295	 4.67882805923947E-02 
2296	 3.35910260887369E-02 
2297	 2.62138604101772E-02 
2298	 0.020354302424746 
2299	 1.70732597068279E-02 
2300	 1.62748972220486E-02 
2301	 4.30393375048216E-03 
2302	 3.93888326088799E-03 
2303	 1.00199820228815E-02 
2304	 6.88008088082125E-03 
2305	 2.63657509045719E-02 
2306	 3.94920207671335E-02 
2307	 4.34320268702255E-02 
2308	 5.13917623920733E-02 
2309	 3.06605498476839E-02 
2310	 1.34647131015283E-02 
2311	 2.29048755780673E-03 
2312	-6.83507811131745E-03 
2313	 0.010007019515008 
2314	 2.80223090848385E-02 
2315	 4.32680822645218E-02 
2316	 5.17507703394837E-02 
2317	 5.52528793619792E-02 
2318	 5.83877328855702E-02 
2319	 5.69102011911331E-02 
2320	 7.67316629606482E-02 
2321	 8.75591270911533E-02 
2322	 7.36686288170127E-02 
2323	 8.65257834598132E-02 
2324	 8.91122963666674E-02 
2325	 6.62302454631816E-02 
2326	 6.79026922257761E-02 
2327	 5.28130604473159E-02 
2328	 1.04873404054981E-02 
2329	 1.13849677132198E-03 
2330	 9.14566606251748E-03 
2331	-2.45385352204565E-03 
2332	-2.9104057476228E-03 
2333	 6.13162100019992E-03 
2334	 1.24583213276798E-02 
2335	 3.23684853150987E-02 
2336	 4.77877177092536E-02 
2337	 5.92532453331934E-02 
2338	 6.36805700133588E-02 
2339	 5.73000371471073E-02 
2340	 5.12585673631136E-02 
2341	 5.11549863043717E-02 
2342	 2.37514219397645E-02 
2343	-0.01375200832178 
2344	-1.53324473358301E-03 
2345	 0.023265302169074 
2346	 7.26158506984693E-02 
2347	 0.105337184134225 
2348	 7.46508069317661E-02 
2349	 4.24115673960157E-02 
2350	 1.05348865652449E-02 
2351	 2.91265927148158E-02 
2352	 0.115993290316253 
2353	 0.173951545055813 
2354	 0.201627280330196 
2355	 0.183734524088442 
2356	 0.12918867939871 
2357	 7.81124723790945E-02 
2358	 7.87881309434622E-03 
2359	-2.62178599859162E-02 
2360	 4.99274495035598E-03 
2361	 5.05310824817828E-02 
2362	 0.128618679495012 
2363	 0.188451634630856 
2364	 0.165404935671675 
2365	 0.14774524414402 
2366	 5.80899527789885E-02 
2367	-6.85991338338964E-02 
2368	-3.89157359099816E-02 
2369	-3.07817064780765E-02 
2370	 5.2689730981825E-03 
2371	 8.58534485702245E-02 
2372	 1.76109551994745E-02 
2373	-3.24340998216099E-02 
2374	 1.85064455403389E-02 
2375	 5.52141140341118E-02 
2376	 0.166666423024396 
2377	 0.30408758222053 
2378	 0.18414000915648 
2379	 8.60320507628345E-02 
2380	 9.24999178656078E-02 
2381	 7.02778767095075E-02 
2382	 3.98376661324045E-02 
2383	 5.84291538966785E-02 
2384	 0.032993326628498 
2385	-0.104903828603674 
2386	 5.72617546758627E-02 
2387	 0.212562776496849 
2388	 0.17511856549888 
2389	 0.236744342827427 
2390	 0.250027286235603 
2391	 0.208708789386816 
2392	 0.395921535851805 
2393	 0.323161115804124 
2394	 4.15333149213799E-02 
2395	-8.71197426231671E-02 
2396	-0.205400405715711 
2397	-8.66155387163543E-02 
2398	 0.106218657742256 
2399	 0.203509133094763 
2400	 0.236217735055769 
2401	 1.58169311426092E-02 
2402	-0.189482851288892 
2403	-0.292236030854739 
2404	-0.228479860702931 
2405	-0.207823916103849 
2406	-0.404712959234538 
2407	-0.677423949934875 
2408	-1.27729109290317 
2409	-2.16768372232731 
2410	-0.298487078806579 
2411	 0.15080945418401 
2412	 0.22721320666234 
2413	 0.294647836500739 
2414	 0.203452717396057 
2415	-8.78358951974656E-02 
2416	-0.229377367817684 
2417	-5.16429687463847E-02 
2418	 0.158450344876465 
2419	 0.582918177761132 
2420	 0.3990716160283 
2421	 0.152139092592508 
2422	-1.96864248716464 
2423	-0.689909188400799 
2424	-0.567695933418465 
2425	-1.15739059944208 
2426	-0.362482919265357 
2427	-0.360400733925501 
2428	-0.165602395719084 
2429	-0.22518312154708 
2430	 0.452307832337384 
2431	-1.11795726352793 
2432	 5.32774177355846E-02 
2433	 0.181229898595385 
2434	 0.138289570565864 
2435	 1.05380644444256 
2436	 8.71213052488707 
2437	-0.027731516992613 
2438	-4.09994081458527E-02 
2439	-0.052461882611976 
2440	 0.219742273078346 
2441	-0.156458435246178 
2442	 7.11384752243456 
2443	 0.43020737972618 
2444	 0.170485679598177 
2445	-0.638740691956775 
2446	-0.634579002749454 
2447	-0.623607015494075 
2448	-0.830359415001521 
2449	-1.10035885731872 
2450	-1.73816559192571 
2451	-3.12223541240096 
2452	-2.69989838908621 
2453	-3.06785143499826 
2454	-1.55435513999462 
2455	-0.201940016728529 
2456	 1.50667853446325 
2457	 2.72330055085081 
2458	 2.6087483964707 
2459	 1.97197523237882 
2460	 1.81113080462004 
2461	 0.644828435457716 
2462	 0.483369051855935 
2463	 0.238520262407393 
2464	 0.144392025900802 
2465	 0.688892203487876 
2466	 9.12589064473361 
2467	-5.69909832341038E-02 
2468	 1.5402463867974 
2469	 0.808249214722057 
2470	 0.615443220211096 
2471	 0.525349432815181 
2472	 0.594384226621188 
2473	 0.559716628201123 
2474	 0.122132054816815 
2475	-0.117135584506921 
2476	-0.749983470863866 
2477	-0.860939167399236 
2478	-0.507170148405301 
2479	-0.463286239280428 
2480	-0.733600731587755 
2481	-1.14372875235015 
2482	-2.677840508361 
2483	-1.21083699445149 
2484	 0.442083880997261 
2485	 2.48782358800088 
2486	 3.03059551404807 
2487	 6.93907535420443 
2488	-30.6978819214516 
2489	-11.6154948992452 
2490	-5.54714761716947 
2491	 3.15255095133607 
2492	 0.614633211301382 
2493	 0.404291197414268 
2494	 1.09274202075176 
2495	 0.369071168003654 
2496	 0.709947883901252 
2497	-0.350207219143603 
2498	-0.218587841460757 
2499	-2.51236341325273 
2500	 13.4925819598803 
