Wavelength	rt0801far200006.asd
350	 6.18563286104672E-02 
351	 6.26449856442355E-02 
352	 6.32426961820067E-02 
353	 6.34823770989213E-02 
354	 6.34876631625863E-02 
355	 6.32432604091313E-02 
356	 0.062761991927708 
357	 6.24324611795688E-02 
358	 0.062685275739523 
359	 6.38235533610108E-02 
360	 6.37856750475255E-02 
361	 6.31969599063066E-02 
362	 6.41977689005698E-02 
363	 6.40783472433011E-02 
364	 6.35668089460621E-02 
365	 6.35347359275709E-02 
366	 6.44495555121502E-02 
367	 6.40507647678263E-02 
368	 6.32448293479391E-02 
369	 6.33131503697486E-02 
370	 6.36090043003829E-02 
371	 6.40042039294205E-02 
372	 6.42887170841494E-02 
373	 6.42930542349153E-02 
374	 6.44763810146332E-02 
375	 6.47670792184273E-02 
376	 0.065132252851185 
377	 0.06566385115783 
378	 6.55969331386039E-02 
379	 6.51921904262046E-02 
380	 6.50187235241244E-02 
381	 6.57833525080216E-02 
382	 6.61539611172016E-02 
383	 6.61726803634368E-02 
384	 6.65175785081828E-02 
385	 6.70412090315143E-02 
386	 6.73224027181489E-02 
387	 6.72725656992038E-02 
388	 6.72063557026596E-02 
389	 6.75426160636491E-02 
390	 6.79087513781231E-02 
391	 6.79440849866139E-02 
392	 6.76506569319444E-02 
393	 6.77872802431565E-02 
394	 0.068207680398698 
395	 0.06850037652118 
396	 6.89549488964196E-02 
397	 6.93401153781991E-02 
398	 6.95955494974505E-02 
399	 6.98186830377683E-02 
400	 6.96312020290236E-02 
401	 6.95449306741853E-02 
402	 6.98495664866252E-02 
403	 7.00652215045115E-02 
404	 7.04714344832275E-02 
405	 7.07782100914335E-02 
406	 7.06678580337534E-02 
407	 7.08933561230303E-02 
408	 0.070997041004225 
409	 7.10002487044756E-02 
410	 7.14174857253536E-02 
411	 7.13828718917186E-02 
412	 7.16203508407762E-02 
413	 7.24615660708009E-02 
414	 7.26365507608805E-02 
415	 7.27705581942186E-02 
416	 7.28542813362805E-02 
417	 7.27847819310478E-02 
418	 7.34781784814974E-02 
419	 7.38046040463079E-02 
420	 7.37109726757313E-02 
421	 7.43927018909713E-02 
422	 7.44816617739454E-02 
423	 7.45617614300535E-02 
424	 7.51369243577826E-02 
425	 7.53082637753365E-02 
426	 7.58081399006959E-02 
427	 7.64384193940234E-02 
428	 7.66761083544679E-02 
429	 7.71805925867916E-02 
430	 7.75135589630418E-02 
431	 7.76807276526853E-02 
432	 7.83059473611333E-02 
433	 7.88428001802028E-02 
434	 0.079262704062123 
435	 7.96536134160307E-02 
436	 8.00741848671986E-02 
437	 8.05474532450424E-02 
438	 8.09708156750674E-02 
439	 8.12310695689321E-02 
440	 8.17850131357304E-02 
441	 8.22410190323243E-02 
442	 8.25008395953611E-02 
443	 8.30374574061265E-02 
444	 8.32891413081511E-02 
445	 8.35044268714078E-02 
446	 8.39775898392628E-02 
447	 8.42816784098324E-02 
448	 8.45846179434346E-02 
449	 0.084896880314027 
450	 8.51166228623648E-02 
451	 8.53520957520646E-02 
452	 8.54795572981111E-02 
453	 8.55215355062333E-02 
454	 8.58763930852072E-02 
455	 8.61344361640528E-02 
456	 8.62963879568082E-02 
457	 8.64766584787874E-02 
458	 8.65448228375041E-02 
459	 8.65999697172772E-02 
460	 0.086714837348856 
461	 8.69160090291923E-02 
462	 8.70947542867261E-02 
463	 8.71707531974127E-02 
464	 8.71546470127179E-02 
465	 0.087274038063288 
466	 8.73878987035025E-02 
467	 8.75020303301199E-02 
468	 8.76841852792931E-02 
469	 8.79109640639403E-02 
470	 8.81057289034167E-02 
471	 8.82626663851203E-02 
472	 8.84754626710933E-02 
473	 8.85538604942032E-02 
474	 8.86089241801049E-02 
475	 0.088784733776547 
476	 8.90469431610783E-02 
477	 8.93060858986421E-02 
478	 8.95303575944946E-02 
479	 8.97399255652383E-02 
480	 0.090029669890956 
481	 9.02615021307303E-02 
482	 9.04017612201864E-02 
483	 9.06880260101184E-02 
484	 9.10279825113507E-02 
485	 9.13593798529562E-02 
486	 9.16684708116988E-02 
487	 9.21988304578554E-02 
488	 9.24202213677386E-02 
489	 0.092477437081286 
490	 9.31495382423395E-02 
491	 9.37246602775634E-02 
492	 9.41612313887323E-02 
493	 9.45568187982069E-02 
494	 9.50137851392043E-02 
495	 0.095505683908971 
496	 9.60109112953293E-02 
497	 9.65074501326497E-02 
498	 0.096958359451555 
499	 9.74887628730383E-02 
500	 9.81245962914032E-02 
501	 9.87174239680072E-02 
502	 9.92665852620111E-02 
503	 9.98786644609522E-02 
504	 0.100615021307537 
505	 0.101218298645125 
506	 0.101817885782633 
507	 0.102396085088978 
508	 0.102838771021192 
509	 0.103547011134661 
510	 0.104219682907889 
511	 0.104694559519371 
512	 0.105411816972428 
513	 0.10607091578861 
514	 0.106735852246885 
515	 0.107584916532967 
516	 0.108494966505282 
517	 0.109297235068803 
518	 0.109989039565379 
519	 0.110771829930486 
520	 0.111481533676836 
521	 0.112284223522416 
522	 0.113250521550849 
523	 0.113826534861129 
524	 0.114560651954342 
525	 0.115503603314476 
526	 0.116357361184355 
527	 0.117238553250901 
528	 0.118121819889331 
529	 0.118982107670691 
530	 0.119823303070954 
531	 0.120757096645966 
532	 0.121720934218001 
533	 0.122614971287455 
534	 0.123577561748607 
535	 0.124527274075964 
536	 0.125461779380451 
537	 0.126474188988441 
538	 0.127422739060605 
539	 0.12839234749924 
540	 0.12947420464632 
541	 0.130622944898997 
542	 0.131608314023138 
543	 0.13247401612857 
544	 0.133433495054735 
545	 0.134457400783489 
546	 0.135475067090631 
547	 0.13645262829764 
548	 0.137439940281293 
549	 0.138508573754912 
550	 0.139503238697722 
551	 0.140280000553703 
552	 0.14122704423676 
553	 0.142271454760356 
554	 0.143292983819784 
555	 0.14415250542317 
556	 0.145101659293719 
557	 0.146082726168938 
558	 0.146984728911393 
559	 0.147822365155249 
560	 0.148589575933732 
561	 0.149399138085542 
562	 0.150397232323838 
563	 0.151213815389268 
564	 0.151960777292014 
565	 0.152752763346159 
566	 0.153591330260031 
567	 0.154354581288496 
568	 0.155042351612856 
569	 0.155705929297948 
570	 0.156396999705103 
571	 0.156992280066965 
572	 0.157483142105453 
573	 0.157989396058216 
574	 0.158506041046847 
575	 0.159014127656951 
576	 0.15948908003988 
577	 0.159925372882946 
578	 0.160331861183184 
579	 0.160714770265557 
580	 0.161092448064937 
581	 0.161622148597654 
582	 0.162089909317951 
583	 0.162392936380764 
584	 0.162692582964404 
585	 0.163182550853996 
586	 0.163729308662701 
587	 0.16412101512459 
588	 0.16455044834727 
589	 0.164931238339444 
590	 0.165221789916485 
591	 0.165480726642861 
592	 0.165632290490391 
593	 0.165741035226292 
594	 0.165820456377938 
595	 0.165640792717021 
596	 0.165575332249081 
597	 0.165582065015128 
598	 0.165408781979659 
599	 0.165218779829383 
600	 0.165109926935161 
601	 0.165092284417703 
602	 0.165036475496476 
603	 0.165095804200732 
604	 0.1652689711762 
605	 0.1654760780585 
606	 0.165514720767929 
607	 0.16562563805177 
608	 0.16582403956031 
609	 0.165877775687113 
610	 0.165951436782362 
611	 0.166036795194717 
612	 0.166118858827839 
613	 0.166284939533451 
614	 0.166321041047846 
615	 0.166303667601268 
616	 0.166443724122899 
617	 0.166533727151305 
618	 0.166541627421845 
619	 0.16653450612512 
620	 0.166710747689572 
621	 0.166805354711279 
622	 0.166882499082731 
623	 0.16705105327184 
624	 0.167078138764178 
625	 0.167170251879008 
626	 0.167342383475261 
627	 0.167414901698174 
628	 0.167461582919195 
629	 0.167503668010471 
630	 0.167559659414304 
631	 0.16767403259958 
632	 0.16770248384069 
633	 0.16760650494569 
634	 0.167447714117724 
635	 0.167571965295405 
636	 0.167710931554916 
637	 0.167720601324372 
638	 0.16772265556316 
639	 0.167636310537479 
640	 0.167602836723813 
641	 0.167728894276354 
642	 0.167716706690822 
643	 0.167730568407696 
644	 0.167945399343002 
645	 0.168494207411792 
646	 0.168688065649076 
647	 0.168525874989731 
648	 0.168244275406374 
649	 0.168216533720872 
650	 0.168357943224658 
651	 0.168410557347011 
652	 0.168159060737273 
653	 0.168212609595891 
654	 0.168220812262615 
655	 0.168036342376315 
656	 0.167910465626834 
657	 0.167693318871309 
658	 0.167554496420485 
659	 0.167550267338128 
660	 0.167214136434889 
661	 0.167037108426101 
662	 0.167072846218527 
663	 0.167097569423588 
664	 0.167054320112809 
665	 0.1670109884537 
666	 0.167032842204331 
667	 0.167154226293117 
668	 0.167194952531064 
669	 0.167205673510646 
670	 0.16731007402355 
671	 0.167589160683318 
672	 0.167639044310731 
673	 0.167548215575725 
674	 0.167848164085557 
675	 0.168064288351838 
676	 0.168298897502938 
677	 0.168611057246152 
678	 0.168652252356524 
679	 0.168787751859499 
680	 0.169089648277812 
681	 0.169467717879052 
682	 0.169736584020306 
683	 0.170064962911435 
684	 0.170556006296059 
685	 0.171245647092559 
686	 0.17194369977474 
687	 0.172556129644628 
688	 0.173027661129904 
689	 0.173349805220101 
690	 0.17374010511684 
691	 0.174325478756916 
692	 0.175132611289647 
693	 0.175608414756026 
694	 0.175784818399131 
695	 0.175832105830003 
696	 0.17590506908246 
697	 0.176072488377127 
698	 0.176273582828865 
699	 0.17644175500875 
700	 0.17690794605055 
701	 0.176904299829802 
702	 0.176506751278071 
703	 0.176428848986261 
704	 0.17631613070386 
705	 0.1761400214368 
706	 0.175912634797379 
707	 0.175616292444847 
708	 0.175292196468279 
709	 0.175027670343673 
710	 0.174841688960482 
711	 0.174281391646337 
712	 0.17380174930802 
713	 0.173595129984048 
714	 0.173527212671082 
715	 0.173780702244406 
716	 0.174317565185804 
717	 0.174809136448455 
718	 0.174577370766865 
719	 0.172830349646811 
720	 0.170832845693871 
721	 0.169586648468768 
722	 0.169436167468412 
723	 0.169192480832478 
724	 0.168227601950142 
725	 0.166943670607928 
726	 0.165660039636577 
727	 0.164254723849044 
728	 0.162629262673969 
729	 0.161173932776015 
730	 0.158960021891614 
731	 0.156382989275289 
732	 0.154161808017563 
733	 0.152455667216688 
734	 0.151030561695478 
735	 0.149803949383277 
736	 0.148854978257745 
737	 0.148135894164531 
738	 0.147345354754703 
739	 0.146425775336331 
740	 0.146121811130197 
741	 0.145931329009912 
742	 0.145707167762531 
743	 0.145512991510522 
744	 0.145517907091909 
745	 0.145590188381072 
746	 0.145618017124955 
747	 0.145559977837109 
748	 0.145666634290019 
749	 0.145756993205627 
750	 0.145680962318606 
751	 0.14577293252032 
752	 0.145841126772467 
753	 0.145878346300163 
754	 0.145970251651598 
755	 0.146044579600572 
756	 0.146237903312558 
757	 0.146594249423845 
758	 0.14710347908995 
759	 0.148224099892857 
760	 0.14949911522959 
761	 0.149503478527965 
762	 0.14988558883949 
763	 0.149678547262142 
764	 0.149039501996455 
765	 0.148474754240773 
766	 0.148285015306646 
767	 0.148050929343969 
768	 0.147859672481964 
769	 0.148252830788748 
770	 0.148242696857984 
771	 0.148123802310966 
772	 0.148278724425344 
773	 0.148602433291307 
774	 0.148957530081616 
775	 0.149218406854593 
776	 0.149335850444629 
777	 0.14957671461666 
778	 0.149875215895825 
779	 0.150200511622578 
780	 0.150579364017804 
781	 0.150953181142308 
782	 0.151284114503856 
783	 0.151593181687462 
784	 0.152021561804428 
785	 0.152491989279632 
786	 0.152956588810948 
787	 0.153411160137743 
788	 0.154064917643074 
789	 0.154594422410504 
790	 0.154809247110559 
791	 0.15474652474957 
792	 0.155064320369766 
793	 0.1552758559459 
794	 0.155346720696437 
795	 0.156245044215708 
796	 0.156682158739065 
797	 0.156854727152822 
798	 0.157232014370751 
799	 0.157584729222848 
800	 0.15776305459753 
801	 0.157826366943559 
802	 0.157936897787876 
803	 0.157948215459522 
804	 0.157739261430869 
805	 0.157486382802504 
806	 0.157637585160061 
807	 0.157761681585552 
808	 0.157879380384452 
809	 0.158037510562909 
810	 0.158100724010474 
811	 0.158271082414297 
812	 0.158710245066612 
813	 0.1594042346973 
814	 0.159476024872351 
815	 0.159189595527992 
816	 0.158697576078045 
817	 0.157956420077407 
818	 0.156716531388588 
819	 0.155512972345089 
820	 0.154573742573454 
821	 0.153856355370736 
822	 0.152648898482078 
823	 0.151014053234383 
824	 0.149351789875034 
825	 0.147870857662699 
826	 0.146617463506339 
827	 0.145068793942835 
828	 0.142746722903417 
829	 0.140209385555726 
830	 0.138294422189387 
831	 0.136943364887311 
832	 0.135527971769333 
833	 0.134099157641565 
834	 0.132863878312616 
835	 0.131880483394637 
836	 0.131015832848557 
837	 0.129745485178289 
838	 0.128819307269203 
839	 0.128648637193477 
840	 0.128193133004427 
841	 0.127184506988502 
842	 0.126288377918674 
843	 0.126220108531294 
844	 0.126128347909622 
845	 0.125686261947081 
846	 0.12501447842898 
847	 0.124503581445471 
848	 0.124059530161604 
849	 0.123521879737879 
850	 0.122985372950604 
851	 0.122835691272591 
852	 0.122450088023876 
853	 0.121906769082737 
854	 0.121451606249974 
855	 0.121335544132604 
856	 0.120751272470744 
857	 0.1201542023606 
858	 0.120069558058568 
859	 0.120010787982279 
860	 0.119595515973086 
861	 0.118972970914897 
862	 0.118517395303551 
863	 0.117995723902255 
864	 0.118036620312525 
865	 0.118220397537123 
866	 0.117336157889654 
867	 0.116734574173173 
868	 0.116242325072057 
869	 0.115785627927511 
870	 0.115678187251066 
871	 0.115262957317048 
872	 0.114385832750755 
873	 0.113351619916516 
874	 0.113171779658354 
875	 0.113213301117762 
876	 0.112654821981036 
877	 0.111313169713323 
878	 0.111391345025648 
879	 0.111372794415155 
880	 0.110839944559056 
881	 0.110037335965553 
882	 0.10939624575709 
883	 0.109008740267157 
884	 0.108532285499106 
885	 0.107523863166654 
886	 0.107380387790367 
887	 0.107299141841629 
888	 0.106953831457547 
889	 0.106817176905383 
890	 0.106392463648862 
891	 0.105714842636978 
892	 0.105270456766168 
893	 0.106234830512743 
894	 0.105889387642957 
895	 0.105383819707233 
896	 0.106058262414201 
897	 0.105213490576314 
898	 0.105417512110085 
899	 0.105815258346196 
900	 0.104895254361889 
901	 0.103467274063022 
902	 0.102778711288022 
903	 0.102538334091834 
904	 0.102014757741396 
905	 0.101498158584306 
906	 0.101181557626856 
907	 0.100949340495834 
908	 0.100362651180145 
909	 9.85693825987673E-02 
910	 9.80416686490041E-02 
911	 9.84061616936382E-02 
912	 9.69591155783638E-02 
913	 9.79148170619208E-02 
914	 9.75584430571427E-02 
915	 9.50998949759074E-02 
916	 9.39010418467924E-02 
917	 9.13842642194544E-02 
918	 8.93870794691059E-02 
919	 8.85262375590136E-02 
920	 8.72182555341404E-02 
921	 8.52218001914197E-02 
922	 8.32370403606146E-02 
923	 8.18382170328012E-02 
924	 8.08618224331193E-02 
925	 0.080453453955682 
926	 7.89650423079551E-02 
927	 7.56850206223669E-02 
928	 7.65569492148366E-02 
929	 7.85575040271572E-02 
930	 7.66240738459352E-02 
931	 6.64943559725845E-02 
932	 6.99928221136434E-02 
933	 7.94240337189841E-02 
934	 7.84962222183501E-02 
935	 5.96627702979274E-02 
936	 4.63049249196352E-02 
937	 5.02088115815325E-02 
938	 5.76452923002869E-02 
939	 5.45191004723488E-02 
940	 5.04123944401369E-02 
941	 5.10232408967867E-02 
942	 4.98908099675252E-02 
943	 3.95885092277167E-02 
944	 4.93403367991433E-02 
945	 5.16402617187448E-02 
946	 4.62119483444331E-02 
947	 4.89965695716001E-02 
948	 5.32184817634183E-02 
949	 4.67517437927759E-02 
950	 3.91972669576637E-02 
951	 4.71899753127597E-02 
952	 4.83035499959238E-02 
953	 4.10428627508076E-02 
954	 3.73422299971626E-02 
955	 4.93845098671673E-02 
956	 4.61417357807661E-02 
957	 4.37671144385239E-02 
958	 4.34743400500423E-02 
959	 3.69537001463044E-02 
960	 3.88381912328402E-02 
961	 3.72387276809616E-02 
962	 3.39165857926699E-02 
963	 3.78068075485592E-02 
964	 3.56237931811486E-02 
965	 3.52851576249299E-02 
966	 3.76797363479703E-02 
967	 3.85272893218753E-02 
968	 0.040034241097202 
969	 3.88091593304646E-02 
970	 3.58132543315424E-02 
971	 3.52911368743177E-02 
972	 3.43798824041808E-02 
973	 3.35435191951711E-02 
974	 3.36896577784373E-02 
975	 3.52926228094657E-02 
976	 3.48216278476328E-02 
977	 3.50949353426212E-02 
978	 3.61907964383815E-02 
979	 3.57019207817973E-02 
980	 0.035319024827025 
981	 3.55872129473366E-02 
982	 3.65023137542613E-02 
983	 3.73171173622579E-02 
984	 3.43099840532024E-02 
985	 3.35433958998307E-02 
986	 3.50047655890944E-02 
987	 3.41439276626871E-02 
988	 3.45276937759147E-02 
989	 0.033895067355397 
990	 3.23720467287666E-02 
991	 3.21249532827871E-02 
992	 3.42023433856344E-02 
993	 0.034050972160645 
994	 3.23630597324394E-02 
995	 3.30288886453366E-02 
996	 3.35984378206232E-02 
997	 3.29602596454611E-02 
998	 3.30181831864406E-02 
999	 3.60164629232706E-02 
1000	 0.036340755461366 
1001	 3.61165015972498E-02 
1002	 3.64367707400739E-02 
1003	 3.66187549117975E-02 
1004	 3.67913638159838E-02 
1005	 3.67613349314472E-02 
1006	 3.61415666165535E-02 
1007	 3.60370605240107E-02 
1008	 0.036499013416384 
1009	 0.037231547220982 
1010	 3.80675513832305E-02 
1011	 3.84853374989174E-02 
1012	 0.038809565289307 
1013	 3.83067163833578E-02 
1014	 3.79006475608019E-02 
1015	 3.71124976676835E-02 
1016	 3.70036829260189E-02 
1017	 3.68563554560045E-02 
1018	 3.70853085173792E-02 
1019	 3.77808646451523E-02 
1020	 3.87802030349475E-02 
1021	 4.04508859238394E-02 
1022	 4.11531943681849E-02 
1023	 4.24063533004116E-02 
1024	 0.043481067837475 
1025	 4.33192935874363E-02 
1026	 4.39218930148739E-02 
1027	 4.44812416619169E-02 
1028	 4.54757964921555E-02 
1029	 4.53933662815174E-02 
1030	 4.42177896316482E-02 
1031	 4.47094542221252E-02 
1032	 4.55915851783519E-02 
1033	 4.61029464136159E-02 
1034	 4.79809822684888E-02 
1035	 4.87564885174782E-02 
1036	 4.78490253026149E-02 
1037	 4.79989696941977E-02 
1038	 4.82391471234431E-02 
1039	 4.93922329850268E-02 
1040	 5.02664763233361E-02 
1041	 5.08948415336822E-02 
1042	 5.18870318864059E-02 
1043	 5.29940734638824E-02 
1044	 5.39411880665036E-02 
1045	 5.52921824568967E-02 
1046	 0.056033595233908 
1047	 5.61341201375591E-02 
1048	 5.66835655579833E-02 
1049	 5.73255710531226E-02 
1050	 5.78305615819451E-02 
1051	 5.84783625377688E-02 
1052	 5.89951598970945E-02 
1053	 5.88804151234716E-02 
1054	 0.059429667775984 
1055	 6.08518521491775E-02 
1056	 6.15479702366155E-02 
1057	 6.20911491806045E-02 
1058	 6.27309879562307E-02 
1059	 0.063253421837046 
1060	 6.30581902176725E-02 
1061	 6.36073947695735E-02 
1062	 6.52432244336197E-02 
1063	 6.53760254453314E-02 
1064	 6.46111378347277E-02 
1065	 0.064513977329087 
1066	 6.35247366911496E-02 
1067	 0.063517614106223 
1068	 6.49032886241488E-02 
1069	 6.54655091528992E-02 
1070	 6.61264522321076E-02 
1071	 6.64006316904444E-02 
1072	 6.63216633770552E-02 
1073	 6.57549384265442E-02 
1074	 6.56191181624214E-02 
1075	 6.54242045901013E-02 
1076	 6.51260267691903E-02 
1077	 6.49429635782216E-02 
1078	 6.46267672147436E-02 
1079	 0.064024741069248 
1080	 6.37091047588875E-02 
1081	 6.36865586661667E-02 
1082	 6.33580895331246E-02 
1083	 6.28814601633604E-02 
1084	 6.24522258869437E-02 
1085	 6.18732148907413E-02 
1086	 6.13075420710981E-02 
1087	 6.07723152242821E-02 
1088	 6.02938765186532E-02 
1089	 5.95771024633772E-02 
1090	 5.92098928459008E-02 
1091	 5.89786698531359E-02 
1092	 0.059196206554694 
1093	 5.88758003608963E-02 
1094	 5.84782497490727E-02 
1095	 5.77468183809767E-02 
1096	 5.63096339431702E-02 
1097	 5.55215540356409E-02 
1098	 5.46345217027015E-02 
1099	 5.46242749114267E-02 
1100	 5.58506054860409E-02 
1101	 5.57997500958066E-02 
1102	 0.055970066484015 
1103	 5.56030461224064E-02 
1104	 5.29986401138875E-02 
1105	 5.26639685839903E-02 
1106	 5.33869753668521E-02 
1107	 5.18474779353791E-02 
1108	 5.30278112362073E-02 
1109	 5.61504274723239E-02 
1110	 5.61570219161666E-02 
1111	 5.46766080877647E-02 
1112	 5.39481380313158E-02 
1113	 4.97741542089376E-02 
1114	 4.76580980077792E-02 
1115	 4.86060787663937E-02 
1116	 4.87841586471273E-02 
1117	 4.76101668784493E-02 
1118	 4.76525272887635E-02 
1119	 5.31480596387264E-02 
1120	 5.75238967985427E-02 
1121	 6.44607224491215E-02 
1122	 6.77151246877056E-02 
1123	 6.86398711936686E-02 
1124	 5.35378549853075E-02 
1125	 4.68843042974414E-02 
1126	 5.87530311211432E-02 
1127	 5.90181454474258E-02 
1128	 0.050297069430961 
1129	 4.85458179358472E-02 
1130	 4.14590845895783E-02 
1131	 4.01908370226581E-02 
1132	 4.63284284041584E-02 
1133	 4.65698118453667E-02 
1134	 4.50845077296551E-02 
1135	 4.29009371846706E-02 
1136	 0.040596345508426 
1137	 3.81880654862972E-02 
1138	 0.035305415807769 
1139	 3.03812535678414E-02 
1140	 2.88497413410375E-02 
1141	 2.56594416545146E-02 
1142	 2.74846281012366E-02 
1143	 3.20409507500942E-02 
1144	 0.030611209893925 
1145	 3.15471548438684E-02 
1146	 3.76305683370393E-02 
1147	 4.23154557658164E-02 
1148	 4.28736054259181E-02 
1149	 4.31052509266189E-02 
1150	 4.43123049223265E-02 
1151	 4.31811761227353E-02 
1152	 4.17896436767656E-02 
1153	 4.29658701134503E-02 
1154	 4.26101870160263E-02 
1155	 4.17390698969504E-02 
1156	 3.78500623999952E-02 
1157	 3.66554533710494E-02 
1158	 3.69362028108066E-02 
1159	 3.60300137835981E-02 
1160	 3.39346856738759E-02 
1161	 3.28668646474575E-02 
1162	 3.34524907146772E-02 
1163	 3.26682915295434E-02 
1164	 3.34903501955684E-02 
1165	 3.61000262675526E-02 
1166	 3.52546836442332E-02 
1167	 3.38659325269984E-02 
1168	 3.39996146815441E-02 
1169	 3.27978105722359E-02 
1170	 3.20729536609127E-02 
1171	 3.20167132847367E-02 
1172	 3.31560398539838E-02 
1173	 3.28122644095573E-02 
1174	 3.19766133524472E-02 
1175	 0.031804380253349 
1176	 3.12725121786647E-02 
1177	 3.12132925574976E-02 
1178	 3.15266657255252E-02 
1179	 3.17277371014237E-02 
1180	 3.14787609069721E-02 
1181	 3.16705985589728E-02 
1182	 3.26892850234046E-02 
1183	 3.28026926121766E-02 
1184	 3.24685182237179E-02 
1185	 3.25894910069683E-02 
1186	 3.23074268082282E-02 
1187	 3.17696170659617E-02 
1188	 3.15645661506894E-02 
1189	 3.14757953352805E-02 
1190	 3.19837901448402E-02 
1191	 3.25430650955261E-02 
1192	 3.24487063431924E-02 
1193	 3.22623493364117E-02 
1194	 3.17512673822324E-02 
1195	 3.13991420061998E-02 
1196	 3.17499117679918E-02 
1197	 3.24529311373034E-02 
1198	 3.32070103968324E-02 
1199	 0.032725488264824 
1200	 3.16892394289447E-02 
1201	 3.16452215790762E-02 
1202	 3.14748483286973E-02 
1203	 3.15311398430997E-02 
1204	 3.18740863709411E-02 
1205	 3.21507358685019E-02 
1206	 3.27257032829398E-02 
1207	 3.27619637091194E-02 
1208	 3.22993730546198E-02 
1209	 3.19734822010944E-02 
1210	 3.20544339612619E-02 
1211	 3.25137100722256E-02 
1212	 3.23285661866936E-02 
1213	 3.17976722702873E-02 
1214	 3.16860225454428E-02 
1215	 3.12933585868589E-02 
1216	 3.07581037175029E-02 
1217	 3.09846806243559E-02 
1218	 0.03124820763243 
1219	 3.08210458418683E-02 
1220	 3.07512851805992E-02 
1221	 3.10366598969989E-02 
1222	 3.11219556939566E-02 
1223	 3.10521325274506E-02 
1224	 3.10702271869942E-02 
1225	 3.09456271124622E-02 
1226	 3.06614501329035E-02 
1227	 3.03801863009367E-02 
1228	 3.02544108227263E-02 
1229	 3.03755422266515E-02 
1230	 0.030624121419843 
1231	 3.09803918394261E-02 
1232	 3.10528149337124E-02 
1233	 0.030520769648401 
1234	 3.00357269240065E-02 
1235	 2.98946325654562E-02 
1236	 0.029932367565222 
1237	 2.98381842400903E-02 
1238	 2.97814580679538E-02 
1239	 3.02654047973203E-02 
1240	 3.06412544588152E-02 
1241	 3.05081041410956E-02 
1242	 3.05886741384726E-02 
1243	 3.05646614397493E-02 
1244	 3.00795529999896E-02 
1245	 3.02898923246835E-02 
1246	 3.06820309523458E-02 
1247	 0.030392541179978 
1248	 2.98824278909459E-02 
1249	 2.96190524613164E-02 
1250	 2.95198524875003E-02 
1251	 2.94100598283838E-02 
1252	 2.98358768281583E-02 
1253	 3.01767802483503E-02 
1254	 2.99459941368942E-02 
1255	 2.98807235690895E-02 
1256	 2.99867606074861E-02 
1257	 3.01095524824098E-02 
1258	 3.01302689210638E-02 
1259	 3.02493131087457E-02 
1260	 3.05016181854558E-02 
1261	 3.07600864339812E-02 
1262	 3.07751971314757E-02 
1263	 3.07428561347511E-02 
1264	 3.10721567188781E-02 
1265	 3.11743704734393E-02 
1266	 3.08424080103771E-02 
1267	 3.07601765326195E-02 
1268	 3.05393791714041E-02 
1269	 3.03681245363785E-02 
1270	 3.06025559241561E-02 
1271	 3.06286989829364E-02 
1272	 3.08071436770094E-02 
1273	 3.07225360355072E-02 
1274	 3.03561837648529E-02 
1275	 3.02206358113975E-02 
1276	 0.030195107474643 
1277	 3.03675220689643E-02 
1278	 3.04060918954567E-02 
1279	 3.07946265311729E-02 
1280	 3.11897597574467E-02 
1281	 3.11528302405884E-02 
1282	 3.06457270698076E-02 
1283	 3.07056242585285E-02 
1284	 3.07426608177555E-02 
1285	 3.06421892425329E-02 
1286	 3.08594880886559E-02 
1287	 3.09663229307851E-02 
1288	 0.030893138561853 
1289	 3.06518690339303E-02 
1290	 3.02474558970618E-02 
1291	 3.02179099520727E-02 
1292	 0.030506845592338 
1293	 0.030631447937477 
1294	 3.12634408231112E-02 
1295	 3.16333536338893E-02 
1296	 3.11575584642294E-02 
1297	 3.11319517026062E-02 
1298	 3.15901248784495E-02 
1299	 0.03149656066084 
1300	 3.11014751401549E-02 
1301	 3.17021757557927E-02 
1302	 0.032501073810971 
1303	 3.16987317049809E-02 
1304	 3.14292102811896E-02 
1305	 3.20128696629863E-02 
1306	 0.032056116173957 
1307	 3.21881163031866E-02 
1308	 3.21261838388773E-02 
1309	 0.031471686347009 
1310	 3.10905454328084E-02 
1311	 3.06309181269135E-02 
1312	 3.04945195929612E-02 
1313	 3.09966596711128E-02 
1314	 3.08754659982369E-02 
1315	 3.00481272226268E-02 
1316	 3.03417581878605E-02 
1317	 3.12573196631875E-02 
1318	 3.15693114734847E-02 
1319	 3.24037772943698E-02 
1320	 3.27749440220407E-02 
1321	 3.20594020917744E-02 
1322	 3.23555208636594E-02 
1323	 3.31072354489764E-02 
1324	 3.46041887947399E-02 
1325	 3.41112528851982E-02 
1326	 3.38744964284668E-02 
1327	 3.65419195524996E-02 
1328	 3.54213298795641E-02 
1329	 3.27042766825197E-02 
1330	 3.32116200722585E-02 
1331	 3.39096881513749E-02 
1332	 3.43601241453882E-02 
1333	 3.44650850190657E-02 
1334	 3.63329205014921E-02 
1335	 3.79609535307757E-02 
1336	 3.60169071983455E-02 
1337	 3.41658624911996E-02 
1338	 3.44490336928595E-02 
1339	 3.56932556225371E-02 
1340	 0.03428489349338 
1341	 0.035365226866549 
1342	 4.48003147630724E-02 
1343	 4.83071370940355E-02 
1344	 4.17260890563598E-02 
1345	 4.30629329220087E-02 
1346	 5.69093806807372E-02 
1347	 5.92795411060535E-02 
1348	 4.92555750014796E-02 
1349	 5.09005220799561E-02 
1350	 0.042077586354924 
1351	 3.63199226942418E-02 
1352	 7.63991094379096E-02 
1353	 0.133076433699065 
1354	 0.228527577258337 
1355	 0.318172479410497 
1356	 0.527728048760391 
1357	 0.661133438408029 
1358	 0.269098089740249 
1359	 3.54332242988463E-02 
1360	 0.93220226267315 
1361	 0.725965441811111 
1362	 0.707255596817639 
1363	 1.1979329215289 
1364	 0.545993716633737 
1365	 0.59755302312489 
1366	 0.678694130594672 
1367	-0.708675471942745 
1368	-0.660908287653011 
1369	-0.987432187712058 
1370	-1.7809278032031 
1371	-1.52832671841601 
1372	-7.56600048727594E-02 
1373	-0.301741631109393 
1374	-0.388264320125066 
1375	 0.355471035086065 
1376	 0.587249354226961 
1377	 0.359157307586229 
1378	 0.755540325529864 
1379	-10.1245546386507 
1380	-4.58828719311245 
1381	 0.972131590580763 
1382	 0.348284730085049 
1383	-0.143898184652889 
1384	-0.577184269594493 
1385	 5.4501146080384 
1386	 4.89338325692969 
1387	-2.51829041641452 
1388	-0.756977492494772 
1389	 2.17098135966635 
1390	 2.18130915476541 
1391	 0.594874287877296 
1392	-2.29686450586434 
1393	 61.2367658948058 
1394	 7.97889309593612 
1395	 5.35802240437593 
1396	 3.77984906743162 
1397	 2.05834425867374 
1398	 2.77426405375981 
1399	-6.06453095853975 
1400	-1.22816867994013 
1401	-3.39369265620741 
1402	 3.09907502196733 
1403	-29.3585396537486 
1404	 12.4362575486174 
1405	 12.7754754914266 
1406	-0.616736704940068 
1407	-0.376560567397598 
1408	 0.428960509959137 
1409	 1.78803546540983 
1410	-0.342289171865864 
1411	-6.64464582428433E-02 
1412	 0.167762641279411 
1413	 0.155714023724925 
1414	-0.187927898379142 
1415	-6.5454975624338 
1416	 16.7337098691875 
1417	 0.419230862561199 
1418	-0.102406267447452 
1419	 4.97761499665614E-02 
1420	 0.248199989345701 
1421	 0.229533611382198 
1422	 0.265869136659309 
1423	 0.351605210200898 
1424	 0.293546268504738 
1425	 0.175906530094654 
1426	 0.17059283487448 
1427	 0.183423142570287 
1428	 8.64102038163033E-02 
1429	 4.65597172155881E-02 
1430	 0.106114815038145 
1431	 0.117144746459638 
1432	 0.100597057154079 
1433	 0.062047692476195 
1434	-4.61282689628724E-02 
1435	-4.99880095215719E-02 
1436	 1.78852420237786E-02 
1437	-2.21887703587172E-02 
1438	 3.83523499516106E-03 
1439	 0.146629757213853 
1440	 0.124272215403406 
1441	 3.63672774293516E-02 
1442	 5.40461071118649E-02 
1443	 0.085911653969557 
1444	 6.76163834933239E-02 
1445	 5.68915011554235E-02 
1446	 5.95580123801138E-02 
1447	 6.14346633101314E-02 
1448	 5.57617222385082E-02 
1449	 5.76414304049982E-02 
1450	 6.84812979125928E-02 
1451	 6.34730938119774E-02 
1452	 5.20370503464258E-02 
1453	 0.057497406077505 
1454	 5.47240736188135E-02 
1455	 3.75143817729132E-02 
1456	 0.041645497474161 
1457	 0.060253041485727 
1458	 5.69601924166934E-02 
1459	 5.22214798351608E-02 
1460	 4.94027507851683E-02 
1461	 3.14012506682198E-02 
1462	 3.16871054718225E-02 
1463	 5.06154312588292E-02 
1464	 5.20926328321445E-02 
1465	 4.82502133237945E-02 
1466	 4.69520305109082E-02 
1467	 0.038399629880396 
1468	 3.70405187849905E-02 
1469	 4.30829939549105E-02 
1470	 0.045171846967262 
1471	 4.49754728934455E-02 
1472	 4.67695601488676E-02 
1473	 0.049737943192791 
1474	 5.00870395556336E-02 
1475	 5.09991994104174E-02 
1476	 5.21186285282124E-02 
1477	 5.20946121318028E-02 
1478	 5.13040802101869E-02 
1479	 4.85268612856069E-02 
1480	 5.05940098007763E-02 
1481	 5.59713535319941E-02 
1482	 5.47347353074683E-02 
1483	 5.47537952562105E-02 
1484	 0.053801884153315 
1485	 4.81944785318279E-02 
1486	 4.41759875527517E-02 
1487	 4.23917618786797E-02 
1488	 4.12543384767274E-02 
1489	 3.93245129044777E-02 
1490	 3.80265739563665E-02 
1491	 3.72347187133849E-02 
1492	 3.71248916068802E-02 
1493	 3.80709499963526E-02 
1494	 3.75190426492987E-02 
1495	 3.68056265561691E-02 
1496	 3.64434247010805E-02 
1497	 3.48489033518016E-02 
1498	 3.37680719487985E-02 
1499	 3.32892601135634E-02 
1500	 3.36787615685597E-02 
1501	 3.51626589717779E-02 
1502	 3.48000643443695E-02 
1503	 3.33518534328159E-02 
1504	 3.33425812648418E-02 
1505	 3.29440589567241E-02 
1506	 3.26605858040394E-02 
1507	 3.32826653694154E-02 
1508	 3.41430069767325E-02 
1509	 3.44726838328315E-02 
1510	 3.40618712448946E-02 
1511	 3.38668597679935E-02 
1512	 3.40946856166883E-02 
1513	 3.33443011991665E-02 
1514	 3.32006205716441E-02 
1515	 3.37602035892525E-02 
1516	 0.03289733014682 
1517	 3.24817103872762E-02 
1518	 3.33554235006338E-02 
1519	 3.29418039883221E-02 
1520	 3.24688118419321E-02 
1521	 3.26799200083969E-02 
1522	 3.21493950779363E-02 
1523	 3.23553390466163E-02 
1524	 3.27725339618518E-02 
1525	 3.25333058117829E-02 
1526	 3.22034503348212E-02 
1527	 3.17844404636913E-02 
1528	 3.21971510867917E-02 
1529	 3.24711260116552E-02 
1530	 0.031843831601933 
1531	 3.21112081787155E-02 
1532	 3.26616184112889E-02 
1533	 3.22893958031296E-02 
1534	 3.20629256764122E-02 
1535	 3.16622705232168E-02 
1536	 0.030961490470497 
1537	 0.031042849771125 
1538	 3.16284648432111E-02 
1539	 3.21311756455775E-02 
1540	 3.24220984132271E-02 
1541	 3.25926167007386E-02 
1542	 0.032415506419819 
1543	 3.18302475186262E-02 
1544	 0.031690834637022 
1545	 3.18115069355588E-02 
1546	 3.17417841671516E-02 
1547	 3.18695243291762E-02 
1548	 3.16951143999399E-02 
1549	 3.11080876808243E-02 
1550	 3.09746616111764E-02 
1551	 3.15399619448822E-02 
1552	 3.16877123398002E-02 
1553	 3.11229258562137E-02 
1554	 3.12393870972083E-02 
1555	 3.12199671818895E-02 
1556	 0.030615822220091 
1557	 3.04670421809233E-02 
1558	 3.00967673668365E-02 
1559	 2.96371567735445E-02 
1560	 2.95916310291921E-02 
1561	 0.029488728932098 
1562	 2.94347141073886E-02 
1563	 2.97759529243052E-02 
1564	 2.99534242780506E-02 
1565	 3.04229224666045E-02 
1566	 3.10540718853368E-02 
1567	 3.05129402725926E-02 
1568	 0.029973425762432 
1569	 2.98833648076111E-02 
1570	 2.95493618727071E-02 
1571	 2.96417007439863E-02 
1572	 3.01258155932664E-02 
1573	 3.04927025690919E-02 
1574	 3.10879705362713E-02 
1575	 3.11336852702508E-02 
1576	 3.04051363520295E-02 
1577	 3.04774316433555E-02 
1578	 0.030563078643647 
1579	 3.05158185571257E-02 
1580	 3.09389064772929E-02 
1581	 3.03290020994201E-02 
1582	 2.98675290647669E-02 
1583	 3.00993893429974E-02 
1584	 2.94384038298881E-02 
1585	 2.92241972110532E-02 
1586	 2.98858928028397E-02 
1587	 2.97831338843744E-02 
1588	 2.94775930501521E-02 
1589	 2.99445298832653E-02 
1590	 3.01072200974855E-02 
1591	 2.93509246027608E-02 
1592	 0.028938962279873 
1593	 2.93717619944203E-02 
1594	 2.96686786553818E-02 
1595	 2.95451822342905E-02 
1596	 2.97762781943027E-02 
1597	 3.05013658292603E-02 
1598	 3.03781865741767E-02 
1599	 2.95375834348974E-02 
1600	 2.98528868515091E-02 
1601	 3.03261549595037E-02 
1602	 2.98680028458048E-02 
1603	 3.00082762196948E-02 
1604	 3.03878423586587E-02 
1605	 3.06432235084232E-02 
1606	 3.04918592323465E-02 
1607	 2.93935275356566E-02 
1608	 2.98905897590941E-02 
1609	 3.09783639354866E-02 
1610	 2.99994669176196E-02 
1611	 2.96515907202082E-02 
1612	 3.02435731601097E-02 
1613	 2.98135848357996E-02 
1614	 0.029360364328554 
1615	 3.00304485959687E-02 
1616	 3.09341618082657E-02 
1617	 3.08794528760018E-02 
1618	 3.07221509343508E-02 
1619	 3.06282565543127E-02 
1620	 0.030387949640867 
1621	 3.01100312101657E-02 
1622	 2.95575505932646E-02 
1623	 2.95066500369602E-02 
1624	 2.97919014738938E-02 
1625	 2.94407602240796E-02 
1626	 2.89447616383938E-02 
1627	 2.87589501779169E-02 
1628	 2.85442954336427E-02 
1629	 2.86804836347259E-02 
1630	 2.90188044262132E-02 
1631	 2.93226368255815E-02 
1632	 2.96778483944344E-02 
1633	 2.90691864629844E-02 
1634	 2.87252688908028E-02 
1635	 2.96526616545705E-02 
1636	 2.95114112741239E-02 
1637	 2.91617094095197E-02 
1638	 3.00009489925711E-02 
1639	 0.030030442481059 
1640	 2.90857551004306E-02 
1641	 2.88470144308723E-02 
1642	 2.97450590357121E-02 
1643	 3.02818718124343E-02 
1644	 3.01799869738112E-02 
1645	 3.09569860282321E-02 
1646	 3.15893475967285E-02 
1647	 3.05712364760852E-02 
1648	 3.04870337065215E-02 
1649	 3.18804418572933E-02 
1650	 3.12729427741761E-02 
1651	 3.04242204335583E-02 
1652	 3.07072608604137E-02 
1653	 2.96342776067906E-02 
1654	 2.93698759734852E-02 
1655	 3.06384914297255E-02 
1656	 3.05515396544373E-02 
1657	 2.92983704895166E-02 
1658	 2.90114245253071E-02 
1659	 0.028553220565336 
1660	 2.91127657671839E-02 
1661	 3.16807270147586E-02 
1662	 3.14688252368954E-02 
1663	 2.94701086031779E-02 
1664	 2.95586229472384E-02 
1665	 2.93866255003023E-02 
1666	 2.89473357298476E-02 
1667	 2.97956517716985E-02 
1668	 2.98779319110836E-02 
1669	 2.97666433487436E-02 
1670	 2.96942533243418E-02 
1671	 2.95765840959156E-02 
1672	 2.92628517833198E-02 
1673	 0.029463790107444 
1674	 2.95323520555672E-02 
1675	 2.89418990906998E-02 
1676	 2.93669724585742E-02 
1677	 2.99090066052911E-02 
1678	 2.94348290912588E-02 
1679	 2.95309331997962E-02 
1680	 3.00311652739891E-02 
1681	 2.96501657346074E-02 
1682	 2.92536696110169E-02 
1683	 2.99924499887152E-02 
1684	 3.06435235715977E-02 
1685	 3.03232699100586E-02 
1686	 3.03562219265586E-02 
1687	 3.09910729761156E-02 
1688	 3.04940417752394E-02 
1689	 2.97137197583426E-02 
1690	 3.02983682020767E-02 
1691	 3.01147728748521E-02 
1692	 2.97657136330891E-02 
1693	 3.04374422554604E-02 
1694	 3.00992102415628E-02 
1695	 2.98694168462687E-02 
1696	 3.05858818161591E-02 
1697	 3.02907407335058E-02 
1698	 3.00032990388163E-02 
1699	 3.09417139022191E-02 
1700	 3.05802505991524E-02 
1701	 2.96519832562506E-02 
1702	 3.03843701753385E-02 
1703	 3.04300309630025E-02 
1704	 3.02482406175748E-02 
1705	 3.14180531969916E-02 
1706	 3.08872108487798E-02 
1707	 2.99390172044725E-02 
1708	 3.06925442374781E-02 
1709	 3.04752524783319E-02 
1710	 0.030141100600604 
1711	 3.03873843475858E-02 
1712	 2.94314889631022E-02 
1713	 2.94723897223146E-02 
1714	 2.99558508467359E-02 
1715	 3.06945159337803E-02 
1716	 3.08219960264285E-02 
1717	 0.031229907652775 
1718	 3.08321398397263E-02 
1719	 3.08080283291496E-02 
1720	 3.22519094243987E-02 
1721	 3.23885637900572E-02 
1722	 3.01848106387536E-02 
1723	 2.93397094107618E-02 
1724	 3.03846366694183E-02 
1725	 3.04323916439105E-02 
1726	 0.030050028821874 
1727	 3.02582403994131E-02 
1728	 3.00932350407976E-02 
1729	 2.95790225256674E-02 
1730	 3.05770129041362E-02 
1731	 3.19952289906091E-02 
1732	 3.08341708774929E-02 
1733	 2.96580322162339E-02 
1734	 3.07568306345472E-02 
1735	 0.031698106868751 
1736	 3.16929333309825E-02 
1737	 3.22775114833936E-02 
1738	 3.25425989108234E-02 
1739	 3.13114427398968E-02 
1740	 3.14634175213406E-02 
1741	 3.21469279635875E-02 
1742	 3.09249191589956E-02 
1743	 0.030893900300798 
1744	 3.25530572149283E-02 
1745	 3.27435009792166E-02 
1746	 3.29627626338384E-02 
1747	 3.29172597857982E-02 
1748	 3.02981692371331E-02 
1749	 2.95658333059234E-02 
1750	 3.01663052756958E-02 
1751	 3.06836082192865E-02 
1752	 3.26414354606045E-02 
1753	 3.37735252477474E-02 
1754	 3.44743705943596E-02 
1755	 3.42066656028627E-02 
1756	 3.26744015063992E-02 
1757	 3.12877429398153E-02 
1758	 3.19507982908089E-02 
1759	 3.44917473350484E-02 
1760	 3.45210481792709E-02 
1761	 3.27102499042589E-02 
1762	 0.031829378487814 
1763	 3.25560484517181E-02 
1764	 0.034723572893713 
1765	 3.65134796288908E-02 
1766	 3.56508703720105E-02 
1767	 3.11001035003693E-02 
1768	 2.76795053142463E-02 
1769	 2.82442886480816E-02 
1770	 2.92887439266799E-02 
1771	 3.18519782400146E-02 
1772	 3.47638498898966E-02 
1773	 3.50136496823632E-02 
1774	 3.64305902021871E-02 
1775	 3.58526898173168E-02 
1776	 0.036287632701008 
1777	 3.69323610799983E-02 
1778	 3.67333376819046E-02 
1779	 0.039648052766093 
1780	 3.70639264491735E-02 
1781	 2.36223618609172E-02 
1782	 2.50515105603732E-02 
1783	 3.58815470823779E-02 
1784	 0.035185129376587 
1785	 3.92129353615388E-02 
1786	 0.040378948731142 
1787	 2.67769089619179E-02 
1788	 2.72970546758143E-02 
1789	 4.28435669617764E-02 
1790	 3.76149971038364E-02 
1791	 3.79009394200845E-02 
1792	 2.35974479842703E-02 
1793	 9.53457240240893E-03 
1794	 2.52494371657848E-02 
1795	 2.89283851036162E-02 
1796	 3.60466354796411E-02 
1797	 8.69112047998933E-02 
1798	 0.114120635807212 
1799	 0.112353252482387 
1800	 2.33269147506784E-03 
1801	-4.21712188994394E-02 
1802	-9.02564589092335E-02 
1803	-0.126737665161205 
1804	 4.92699982810482E-02 
1805	 0.178302947671687 
1806	 0.154972179072995 
1807	 0.22246182734766 
1808	 0.465482580776099 
1809	 0.442933870629389 
1810	 9.74956197241669E-02 
1811	 0.071844231335792 
1812	-5.10879722000114E-02 
1813	-0.146739666426091 
1814	 46.8873467397526 
1815	-1.23986783173822 
1816	-2.6036633036828 
1817	 1.17150939442855 
1818	 0.951557920325252 
1819	-0.502348614698526 
1820	-1.25026429545437 
1821	-4.51048996553842 
1822	 8.99315646312135 
1823	 504.707786845695 
1824	-164.428057784795 
1825	-1.45122092341408 
1826	-1.97252994575052 
1827	 13.5408607694609 
1828	 5.09061595644708 
1829	 0.560700238521247 
1830	 3.98009643226342E-02 
1831	-0.743646907063933 
1832	-1.11189329624386 
1833	-0.683477525353806 
1834	-0.230795925046787 
1835	 1.83890388148882 
1836	 7.51047412596475 
1837	-1.68747737305885 
1838	-1.38269650774088 
1839	-0.432682379120712 
1840	-0.312792414414684 
1841	-3.33856477551093 
1842	 0.770551418036315 
1843	 0.612161514289721 
1844	 0.458065560639421 
1845	 0.902252079440694 
1846	-0.61638047993216 
1847	-0.561637797274212 
1848	-1.82646278043087 
1849	-205.550324945045 
1850	 5.08167575930967 
1851	 8.91513537149217 
1852	-19.728094363066 
1853	-0.282172888811405 
1854	-0.157025561954665 
1855	-0.656163203456464 
1856	-1.57010473150299 
1857	-4.2500935300822 
1858	-5.6806871443542 
1859	-30.5819847454044 
1860	-6.4200583214075 
1861	-2.57551287825495 
1862	-1.18953576059396 
1863	-0.72293914602581 
1864	-0.230559580427778 
1865	 9.93249265627728E-02 
1866	 0.773656066569727 
1867	 1.24805613090117 
1868	 0.513409991360854 
1869	 0.628716269894129 
1870	-1.90203717858282 
1871	 0.567498508512441 
1872	 4.33800316352861 
1873	 70.4692297799252 
1874	-12.8792938354487 
1875	 10.8922606172654 
1876	-12.9591390559806 
1877	-0.670374917286382 
1878	-0.203129609583461 
1879	 0.309960987159036 
1880	 0.491642223118811 
1881	 6.00217064828492E-02 
1882	 0.433045330414782 
1883	 0.827241120694473 
1884	 0.610462273564411 
1885	 0.524414200538533 
1886	 0.225640472514627 
1887	-0.107616298082845 
1888	-2.20247840855033E-03 
1889	 5.37066491041028E-02 
1890	 0.368314987436341 
1891	 0.598622771680631 
1892	 1.39663704665067 
1893	 5.484670703052 
1894	 6.82204645216815 
1895	 2.57367636596359 
1896	 1.78765096235929 
1897	 1.86274418226398 
1898	 1.44708182395728 
1899	 1.53134532346524 
1900	 3.10906222336846 
1901	 0.258437422535805 
1902	 1.44055669011816 
1903	 0.330740480313415 
1904	 1.11629155734432E-03 
1905	 0.605396149416607 
1906	 2.08675900840555 
1907	 0.273692133540641 
1908	 0.248773270895054 
1909	-0.204275016467239 
1910	 3.43581726355248E-02 
1911	 0.353515943480599 
1912	 1.03095201289016 
1913	 2.70328479468563 
1914	 58.7027182510219 
1915	 148.423116167951 
1916	 56.2205217068242 
1917	-7.05982392079355 
1918	-26.369156561896 
1919	 6.72060000188547 
1920	-1.91319197691748 
1921	 20.8541464461306 
1922	 2.06961456652096 
1923	 0.881899122594439 
1924	 0.745433413054591 
1925	-0.298523404225467 
1926	-0.29733786617728 
1927	 0.209980229793606 
1928	 0.813526192020898 
1929	 1.22139766299953 
1930	 1.18266316411584 
1931	 1.30675816092685 
1932	 1.57307418361806 
1933	 2.0494123616068 
1934	 34.4377473602365 
1935	 2.69581527477038 
1936	 2.94390896254132 
1937	 4.91969650145264 
1938	 6.57156839234763 
1939	 5.76754265065267 
1940	-9.06963538770917 
1941	-7.19647061633766 
1942	 0.257783035128994 
1943	-8.03948642674711E-02 
1944	-5.09025754764685E-04 
1945	 0.175661519277383 
1946	 0.30222864709229 
1947	 0.314536410817987 
1948	 0.319964487867525 
1949	 0.36053442547946 
1950	 0.60108625547067 
1951	 0.93006183255963 
1952	 0.948729907427624 
1953	 0.93709625306192 
1954	 0.594309525694214 
1955	 0.266254377520141 
1956	 6.29255672479216E-02 
1957	 5.93667782732436E-02 
1958	 8.84262120908431E-02 
1959	 0.060717208819259 
1960	 0.143991121906037 
1961	 0.173309096987318 
1962	 0.145242932816732 
1963	 0.157410566273431 
1964	 0.143676247395629 
1965	 0.125311156555657 
1966	 0.107937524216051 
1967	 0.105409337098541 
1968	 8.25275710915354E-02 
1969	 5.72280862995651E-02 
1970	 3.93404470186022E-02 
1971	 4.16974591596156E-02 
1972	 5.36266827470901E-02 
1973	 5.57908045343294E-02 
1974	 4.76135788897481E-02 
1975	 3.64478045758631E-02 
1976	 0.031160371329977 
1977	 3.00964664433932E-02 
1978	 3.82959258864639E-02 
1979	 4.10171288804317E-02 
1980	 4.32763129494491E-02 
1981	 4.05290172686039E-02 
1982	 4.31689401656474E-02 
1983	 3.71018722599296E-02 
1984	 3.08835165985387E-02 
1985	 3.08630101461071E-02 
1986	 2.77559296061418E-02 
1987	 2.75316554338637E-02 
1988	 3.14291275736523E-02 
1989	 3.50877205090039E-02 
1990	 3.51129463524203E-02 
1991	 3.28480698886211E-02 
1992	 3.39827962980272E-02 
1993	 3.64342930369933E-02 
1994	 3.58689096845659E-02 
1995	 3.38745793885046E-02 
1996	 3.23586276865835E-02 
1997	 3.09891523868364E-02 
1998	 2.92159312540306E-02 
1999	 3.40793864451196E-02 
2000	 4.66526403366163E-02 
2001	 5.71637106955035E-02 
2002	 5.87813957431891E-02 
2003	 5.50891734381892E-02 
2004	 5.99083264771609E-02 
2005	 7.29733758483124E-02 
2006	 8.11475425572246E-02 
2007	 8.10783046809759E-02 
2008	 0.077004531667138 
2009	 7.34267535215478E-02 
2010	 6.43157596260091E-02 
2011	 5.34141341443891E-02 
2012	 3.97959411291329E-02 
2013	 3.78846753407843E-02 
2014	 2.72339689785418E-02 
2015	 0.028417259054657 
2016	 4.58233011132978E-02 
2017	 4.93483900304539E-02 
2018	 5.14676590885967E-02 
2019	 5.20611045219474E-02 
2020	 5.01905435427019E-02 
2021	 4.49051006429651E-02 
2022	 3.63331024082425E-02 
2023	 3.24775319600301E-02 
2024	 3.05346552798797E-02 
2025	 2.69030552267815E-02 
2026	 2.83504583532711E-02 
2027	 3.46719082190502E-02 
2028	 3.78038044021093E-02 
2029	 3.81570304677392E-02 
2030	 3.95515762586291E-02 
2031	 0.038410589765789 
2032	 3.56272208776994E-02 
2033	 3.52940770525622E-02 
2034	 3.67484158506292E-02 
2035	 4.00809614856383E-02 
2036	 4.63015858298039E-02 
2037	 5.07214929383945E-02 
2038	 0.050985493979081 
2039	 0.050379756802221 
2040	 0.045243121870554 
2041	 4.33319254666723E-02 
2042	 4.28942532010151E-02 
2043	 4.05410634925941E-02 
2044	 3.82118039111425E-02 
2045	 3.37135448610713E-02 
2046	 3.17715673659709E-02 
2047	 3.15975230083527E-02 
2048	 3.12127577756628E-02 
2049	 3.50350791655874E-02 
2050	 3.63828840054835E-02 
2051	 3.46345705066335E-02 
2052	 0.034109556432154 
2053	 3.26563582642615E-02 
2054	 3.03390971610477E-02 
2055	 2.85837782651117E-02 
2056	 2.74907229216476E-02 
2057	 2.80201854959507E-02 
2058	 2.84939140911958E-02 
2059	 2.95142477556613E-02 
2060	 3.02713407305502E-02 
2061	 3.22772000989929E-02 
2062	 0.032230008637918 
2063	 3.09073951993495E-02 
2064	 3.35222327484467E-02 
2065	 0.038421198736356 
2066	 4.03431035065292E-02 
2067	 0.042757183398408 
2068	 4.31352308310707E-02 
2069	 3.72606413423624E-02 
2070	 3.75425811719496E-02 
2071	 3.98803623766952E-02 
2072	 3.74919123632056E-02 
2073	 0.036761645380273 
2074	 3.63985995089662E-02 
2075	 0.036245025111316 
2076	 3.72047672808645E-02 
2077	 3.61480113793643E-02 
2078	 3.25710616379786E-02 
2079	 3.24766359595229E-02 
2080	 0.032102590922832 
2081	 3.44904959211384E-02 
2082	 3.68847899423856E-02 
2083	 3.89458103956887E-02 
2084	 3.98847747564457E-02 
2085	 3.91424419932809E-02 
2086	 4.04027304730871E-02 
2087	 4.36485865741813E-02 
2088	 4.72041720109705E-02 
2089	 4.33945627243839E-02 
2090	 3.86891873652128E-02 
2091	 3.79165696458974E-02 
2092	 3.56026608534123E-02 
2093	 3.21788682505915E-02 
2094	 3.13451584764254E-02 
2095	 3.11705103221531E-02 
2096	 3.04634388168899E-02 
2097	 3.06351284921901E-02 
2098	 3.15019596327345E-02 
2099	 0.032855836676147 
2100	 3.45288245469883E-02 
2101	 3.57676187512893E-02 
2102	 3.58288154938649E-02 
2103	 3.55136365063661E-02 
2104	 3.51619515774379E-02 
2105	 3.57172345741161E-02 
2106	 3.75367141705143E-02 
2107	 4.19041483921473E-02 
2108	 4.36232930569325E-02 
2109	 4.42595802298946E-02 
2110	 0.0451800048665 
2111	 4.22818701620374E-02 
2112	 3.96375625224153E-02 
2113	 3.75008081296307E-02 
2114	 3.49547469119518E-02 
2115	 0.034265658555264 
2116	 3.46555570663632E-02 
2117	 0.034660363830922 
2118	 3.63182176645146E-02 
2119	 3.66803173844923E-02 
2120	 3.54415507061246E-02 
2121	 3.53745531676298E-02 
2122	 3.96383280938562E-02 
2123	 4.20559317078327E-02 
2124	 4.16242553226426E-02 
2125	 4.28739227080009E-02 
2126	 3.97824340592539E-02 
2127	 3.61674886789437E-02 
2128	 3.80308319643177E-02 
2129	 3.78604071799321E-02 
2130	 3.85961883572618E-02 
2131	 4.05364551706703E-02 
2132	 3.91333344160236E-02 
2133	 3.83279780427375E-02 
2134	 3.82462056657164E-02 
2135	 0.038483720050424 
2136	 3.72595445662922E-02 
2137	 3.68302011629216E-02 
2138	 3.63702136487851E-02 
2139	 3.26651394256641E-02 
2140	 3.18715022477576E-02 
2141	 3.38918487665357E-02 
2142	 3.36506875899712E-02 
2143	 3.19015038025524E-02 
2144	 3.47910955935272E-02 
2145	 3.44808716792119E-02 
2146	 3.39514104580833E-02 
2147	 3.53944464508545E-02 
2148	 3.38215188884563E-02 
2149	 3.27277363357948E-02 
2150	 3.17408748398205E-02 
2151	 2.89516617654259E-02 
2152	 2.89430558021937E-02 
2153	 0.031258916993232 
2154	 3.07237392262038E-02 
2155	 0.031637720793279 
2156	 3.21733136338058E-02 
2157	 3.30648925817379E-02 
2158	 3.49260197699162E-02 
2159	 3.57523634425667E-02 
2160	 0.036904795927284 
2161	 3.66093074740453E-02 
2162	 3.17037165370402E-02 
2163	 3.12953868011429E-02 
2164	 3.44068788964504E-02 
2165	 3.55386664412864E-02 
2166	 3.90736037673622E-02 
2167	 4.06753650687447E-02 
2168	 3.82555548232333E-02 
2169	 3.68542979324803E-02 
2170	 3.41918450519808E-02 
2171	 3.63873119177363E-02 
2172	 3.69123101833374E-02 
2173	 3.70828354806585E-02 
2174	 4.20376033108606E-02 
2175	 0.041812069046963 
2176	 4.04662714075149E-02 
2177	 4.35525793723105E-02 
2178	 4.07885947339892E-02 
2179	 0.039340205142414 
2180	 3.86109803444969E-02 
2181	 0.036820336385486 
2182	 4.07123040768298E-02 
2183	 4.21273450009192E-02 
2184	 4.14659903137739E-02 
2185	 0.040442680520977 
2186	 3.87601651345002E-02 
2187	 3.35256199559825E-02 
2188	 3.09719181258343E-02 
2189	 3.05859580084878E-02 
2190	 3.00749380397064E-02 
2191	 2.74419957678819E-02 
2192	 2.77329670442649E-02 
2193	 3.15735271626266E-02 
2194	 3.19345934965805E-02 
2195	 3.18422205187345E-02 
2196	 3.48807064195954E-02 
2197	 3.86840733931167E-02 
2198	 4.10295223293886E-02 
2199	 4.73432621030971E-02 
2200	 4.62871244971792E-02 
2201	 4.45626772546199E-02 
2202	 4.15886562471885E-02 
2203	 3.59183379866879E-02 
2204	 0.034001052832745 
2205	 3.46958756998372E-02 
2206	 3.40242368915887E-02 
2207	 3.23851075184448E-02 
2208	 3.31125848513554E-02 
2209	 2.90038520214079E-02 
2210	 2.54042445282252E-02 
2211	 2.74855633795019E-02 
2212	 2.74664813944001E-02 
2213	 3.03863987704115E-02 
2214	 3.74267828714733E-02 
2215	 4.04197142797061E-02 
2216	 4.70101926266493E-02 
2217	 4.89085447584888E-02 
2218	 4.55839858641228E-02 
2219	 4.49215333439318E-02 
2220	 4.14358416854579E-02 
2221	 4.18851067632085E-02 
2222	 4.99226271129205E-02 
2223	 4.88792173374283E-02 
2224	 0.042774774447012 
2225	 4.17834677572386E-02 
2226	 3.72022123053222E-02 
2227	 3.52812842257407E-02 
2228	 4.14724231070628E-02 
2229	 4.15127434706752E-02 
2230	 3.65458529894911E-02 
2231	 3.38985786431564E-02 
2232	 3.10025835214714E-02 
2233	 2.77136299341235E-02 
2234	 2.30786582271836E-02 
2235	 2.07521638146124E-02 
2236	 2.28597727593091E-02 
2237	 2.14862584745561E-02 
2238	 2.76293496718708E-02 
2239	 2.59462818010623E-02 
2240	 2.02480844828714E-02 
2241	 2.46453198989288E-02 
2242	 2.60797234743945E-02 
2243	 3.42657143962366E-02 
2244	 4.21966451037985E-02 
2245	 4.26312547582014E-02 
2246	 4.20977190993313E-02 
2247	 4.27172369608347E-02 
2248	 4.84312779485743E-02 
2249	 5.05837610179958E-02 
2250	 5.11190876239071E-02 
2251	 4.92550210160218E-02 
2252	 4.21684473211519E-02 
2253	 4.35854856968771E-02 
2254	 4.88293343075053E-02 
2255	 5.10445824602216E-02 
2256	 5.39807481155621E-02 
2257	 5.30444633431192E-02 
2258	 4.75773675113231E-02 
2259	 4.31561125337179E-02 
2260	 4.32492661695236E-02 
2261	 4.80980951936954E-02 
2262	 4.76551000565181E-02 
2263	 4.68963520624787E-02 
2264	 5.04474606426357E-02 
2265	 5.34250680721597E-02 
2266	 5.30291828369969E-02 
2267	 5.75832024148901E-02 
2268	 5.79047596591596E-02 
2269	 4.80567490486098E-02 
2270	 4.43920711806286E-02 
2271	 0.047332436690242 
2272	 4.64766183541427E-02 
2273	 4.52035722702468E-02 
2274	 4.22920495716694E-02 
2275	 3.47775433376675E-02 
2276	 2.93986461199903E-02 
2277	 2.25269149838942E-02 
2278	 2.00396535023964E-02 
2279	 2.22378130514996E-02 
2280	 2.24144643033419E-02 
2281	 2.20212358775079E-02 
2282	 2.41461604569836E-02 
2283	 3.23811041427779E-02 
2284	 3.88707179323241E-02 
2285	 0.043215128689122 
2286	 4.16435443511525E-02 
2287	 2.13058332140105E-02 
2288	 1.88810881891261E-03 
2289	-1.01401563361258E-03 
2290	 4.55629612485389E-03 
2291	 1.60467462888452E-02 
2292	 3.98483979347366E-02 
2293	 5.66353135616788E-02 
2294	 0.058240386120692 
2295	 6.66857088204663E-02 
2296	 7.29983639067743E-02 
2297	 6.24292915404109E-02 
2298	 5.46246607237905E-02 
2299	 0.04749791359231 
2300	 3.99934736199495E-02 
2301	 3.79443473375973E-02 
2302	 3.31800386167544E-02 
2303	 3.17269457348394E-02 
2304	 2.32905727414106E-02 
2305	 1.72372869955219E-02 
2306	 2.32049582754008E-02 
2307	 1.94581518151505E-02 
2308	 5.19061074383775E-03 
2309	-1.13756370740785E-04 
2310	 1.70122466964037E-03 
2311	-1.27818190388707E-03 
2312	 1.37518207746235E-02 
2313	 3.70388739383525E-02 
2314	 3.88748957731441E-02 
2315	 3.71162730127011E-02 
2316	 2.95224551507502E-02 
2317	 1.04229321031405E-02 
2318	 8.50124137177552E-03 
2319	 0.013872995989852 
2320	 1.79355973335124E-02 
2321	 3.14344835243591E-02 
2322	 3.49726970848003E-02 
2323	 4.33538606849039E-02 
2324	 5.05869400405208E-02 
2325	 4.13812296630681E-02 
2326	 4.41735843880912E-02 
2327	 4.40613947229513E-02 
2328	 4.91965277525238E-02 
2329	 7.46192712232756E-02 
2330	 7.05334768075105E-02 
2331	 4.29310203472035E-02 
2332	 0.034069490707583 
2333	 6.80568598725707E-03 
2334	-3.35362897885481E-02 
2335	-5.52479274246311E-02 
2336	-6.13697546226904E-02 
2337	-4.07237005049121E-02 
2338	-3.68603528378264E-02 
2339	-3.62805381203481E-02 
2340	-2.30573402204865E-02 
2341	-4.48987180161179E-02 
2342	-3.03398906571092E-02 
2343	 2.35899798272383E-02 
2344	 1.47375445593093E-02 
2345	 1.84117635258048E-02 
2346	 3.72908265278873E-02 
2347	 1.46456103028805E-02 
2348	 3.57031862797346E-02 
2349	 9.38935418955232E-02 
2350	 0.134517920215149 
2351	 0.193067496666408 
2352	 0.212972371817004 
2353	 0.139561390369294 
2354	 9.35900265351529E-02 
2355	 1.79987482088617E-02 
2356	-2.58382653578964E-02 
2357	 3.22879100184427E-02 
2358	 3.78475209249062E-02 
2359	 7.25665641917618E-02 
2360	 0.111053170312992 
2361	 0.106033519937181 
2362	 0.124014577376651 
2363	 0.111608129993307 
2364	 0.117749212982278 
2365	 0.168882966212753 
2366	 0.15568718828685 
2367	 0.175931609428995 
2368	 0.236154782758626 
2369	 0.134155830589095 
2370	 4.14006931374389E-02 
2371	 2.29520010957987E-02 
2372	-5.31927029336451E-02 
2373	-6.57854110194695E-02 
2374	-1.13486313162252E-02 
2375	-4.16786498315579E-03 
2376	-1.30994293410018E-02 
2377	 0.077912583116412 
2378	 0.145097196999566 
2379	 0.176374824421895 
2380	 0.184039135051538 
2381	 0.171026514006394 
2382	 0.19994679374431 
2383	 0.119696457825646 
2384	 0.112633120336897 
2385	 7.43003983913078E-02 
2386	-4.72018616053333E-02 
2387	-3.23227706823002E-03 
2388	-4.33227016054597E-02 
2389	-5.12766719506943E-02 
2390	-2.23546744071189E-02 
2391	 1.64536665325252E-02 
2392	 0.279533115634703 
2393	 0.356192819330796 
2394	 0.514418266749126 
2395	 0.581822987667348 
2396	 0.357617629855082 
2397	 0.302789388324973 
2398	 0.248112532416316 
2399	 8.22733956424159E-02 
2400	-1.94041889843989E-03 
2401	 0.27642438014165 
2402	 0.556368015060304 
2403	 0.782119782170143 
2404	 0.792989982352395 
2405	 0.26830853911228 
2406	-8.30696603607111E-02 
2407	-0.54943675992013 
2408	-1.65773549872633 
2409	-3.06986012868232 
2410	-1.22611995801552 
2411	-0.342667650904208 
2412	-0.149522957678271 
2413	 0.113841113851957 
2414	 0.306482686901885 
2415	 0.701839179256614 
2416	 1.87873219104793 
2417	 2.900523685766 
2418	 1.47557665835743 
2419	 1.53808253481732 
2420	 0.726325202469408 
2421	 0.456859632951399 
2422	 2.01383117834937 
2423	 2.08469766499598 
2424	 1.11326781343264 
2425	 1.07343536581921 
2426	 1.17877552920526 
2427	 0.824236814419508 
2428	 0.344908011585304 
2429	 0.125204050429252 
2430	-1.05740322589268 
2431	 1.4307752999832 
2432	 0.431429635305095 
2433	 0.228226473345363 
2434	 0.346204902864401 
2435	 1.00541274016301 
2436	 11.079764525018 
2437	-1.73876127326244 
2438	-0.920741182076958 
2439	-0.772518497559733 
2440	-0.486499957592146 
2441	-0.657661414577456 
2442	 2.82528963214307 
2443	-1.56091284638774 
2444	-1.67753682075314 
2445	-0.490593115570405 
2446	-0.321363421027157 
2447	-0.614386145438453 
2448	-0.552031121224299 
2449	-0.782353782778653 
2450	-1.00134441504143 
2451	-0.406496484831995 
2452	 0.270921807309565 
2453	 0.808134909616465 
2454	 1.29983541170923 
2455	 2.34905208930958 
2456	 0.727640911544937 
2457	 0.169821157270081 
2458	 0.393939304170487 
2459	-0.296637854564425 
2460	-1.42712814215759 
2461	-0.995823165978556 
2462	-2.30109708069974 
2463	-3.38179898250819 
2464	-2.35981013033834 
2465	 2.63190794747478 
2466	 15.4935344160917 
2467	-0.79138696476096 
2468	-3.28256830485263 
2469	-1.7372694631421 
2470	-0.915878962466813 
2471	-0.997782677940634 
2472	-0.980767183561102 
2473	-0.808467613450654 
2474	-0.804009230560503 
2475	-1.21509967849589 
2476	-0.850041935556425 
2477	-0.42845029705627 
2478	-0.81022765104366 
2479	-0.623064357594378 
2480	-0.428812459650973 
2481	-1.76031220928452 
2482	-4.44710660039476 
2483	-4.04683448091643 
2484	-3.31539862052366 
2485	-3.81801844901978 
2486	-4.70694696786556 
2487	-11.9379043080029 
2488	 42.3484526596408 
2489	 10.8471230963196 
2490	 1.86656155032244 
2491	 2.43744874508589 
2492	 12.1409030970069 
2493	 1.5834214124322 
2494	-0.268188694112389 
2495	-2.7848719106459 
2496	-8.92368802995428 
2497	 1.69537497572516 
2498	 0.402509556387285 
2499	-0.926689150143602 
2500	 4.02143927261419 
