Wavelength	rt0801far200002.asd
350	 7.36636450593305E-02 
351	 7.35934798876114E-02 
352	 0.074502449109764 
353	 7.50301996809095E-02 
354	 7.46584023856927E-02 
355	 7.50582296784863E-02 
356	 7.41695404409739E-02 
357	 7.35146969698419E-02 
358	 7.47184389449561E-02 
359	 7.50191886484065E-02 
360	 7.49185323447039E-02 
361	 7.47472251302656E-02 
362	 7.46860422203514E-02 
363	 7.54519718442528E-02 
364	 7.56189743986037E-02 
365	 7.49194543960878E-02 
366	 7.51931657721124E-02 
367	 7.52359503252881E-02 
368	 7.50593018061528E-02 
369	 0.075020495990392 
370	 7.56081552707355E-02 
371	 7.57650373519707E-02 
372	 7.56663012417913E-02 
373	 7.60967840645025E-02 
374	 7.61380150955521E-02 
375	 7.62252418140426E-02 
376	 7.65488419654931E-02 
377	 7.67771361802961E-02 
378	 7.71064796152147E-02 
379	 7.70680933484827E-02 
380	 7.66548832556633E-02 
381	 7.78010838010609E-02 
382	 7.81302924829046E-02 
383	 7.78732514492785E-02 
384	 7.83757995598015E-02 
385	 7.89819591906442E-02 
386	 7.90426322742453E-02 
387	 7.86958026017042E-02 
388	 7.88962377879211E-02 
389	 0.078845167880306 
390	 7.88209691534601E-02 
391	 0.079116866977238 
392	 7.96026699774104E-02 
393	 7.98922346611706E-02 
394	 8.00860174835036E-02 
395	 8.04521173371531E-02 
396	 8.10645953092335E-02 
397	 8.13513878660956E-02 
398	 8.12832115845329E-02 
399	 8.13105348397961E-02 
400	 8.15605060537901E-02 
401	 8.17847046678619E-02 
402	 8.18575558622495E-02 
403	 8.20361664168655E-02 
404	 8.24266350777554E-02 
405	 8.27222105150962E-02 
406	 8.26278824206055E-02 
407	 8.28874296781974E-02 
408	 8.29969470539143E-02 
409	 8.30177633583091E-02 
410	 8.35781240230586E-02 
411	 8.36601596215179E-02 
412	 8.38815615482455E-02 
413	 8.45909222144072E-02 
414	 8.47825253631357E-02 
415	 8.50086596163652E-02 
416	 8.52003453308493E-02 
417	 8.51743264002117E-02 
418	 8.56090149025521E-02 
419	 8.59842043748773E-02 
420	 8.61790929389579E-02 
421	 8.65762974971769E-02 
422	 8.66571258132705E-02 
423	 8.68239691357213E-02 
424	 8.73681358716001E-02 
425	 8.77520047874714E-02 
426	 8.81208379232697E-02 
427	 8.84774738189225E-02 
428	 8.88030340487005E-02 
429	 8.93820845766667E-02 
430	 8.98529725633939E-02 
431	 9.01270069776458E-02 
432	 9.05018470240223E-02 
433	 9.10813312405308E-02 
434	 9.16912761461867E-02 
435	 9.21639193447204E-02 
436	 9.25571517068874E-02 
437	 9.28722035297354E-02 
438	 9.32040266555829E-02 
439	 9.36719490678146E-02 
440	 9.41635327315404E-02 
441	 9.45636606259951E-02 
442	 9.49243141986822E-02 
443	 9.55490324377478E-02 
444	 9.58196779617199E-02 
445	 9.59906221531128E-02 
446	 9.64141407644126E-02 
447	 9.68287196306468E-02 
448	 9.71633497120025E-02 
449	 9.74640964955853E-02 
450	 9.78336369159949E-02 
451	 9.79116581418683E-02 
452	 0.097957214304344 
453	 9.81699078350931E-02 
454	 9.84487905903864E-02 
455	 9.87213937580668E-02 
456	 0.098937133122186 
457	 9.90860913150257E-02 
458	 9.92974100224063E-02 
459	 9.93983850537032E-02 
460	 9.94054163936603E-02 
461	 9.95333427094636E-02 
462	 9.97597463848146E-02 
463	 9.99519640257064E-02 
464	 0.100030895930396 
465	 0.100125761936812 
466	 0.100225416476345 
467	 0.100329613746908 
468	 0.100452008995236 
469	 0.100697043681235 
470	 0.100897394404225 
471	 0.101022456740702 
472	 0.101253796211004 
473	 0.101515412335872 
474	 0.101712360592616 
475	 0.101814558220754 
476	 0.102034093024877 
477	 0.102272007988847 
478	 0.102511727429161 
479	 0.102792124975282 
480	 0.10310556174206 
481	 0.103277670735976 
482	 0.103309019699478 
483	 0.103579497536753 
484	 0.104089012798964 
485	 0.104547694089563 
486	 0.104699219509973 
487	 0.105146972991913 
488	 0.105539310165259 
489	 0.105800448380994 
490	 0.106170225068889 
491	 0.10674844890672 
492	 0.107361943233584 
493	 0.107829542836071 
494	 0.108075020673135 
495	 0.108564127092085 
496	 0.109213172715107 
497	 0.109671231599141 
498	 0.109972286772218 
499	 0.110547883765511 
500	 0.111411526821103 
501	 0.111875798256975 
502	 0.112458492540032 
503	 0.113122465107364 
504	 0.113722686897996 
505	 0.114332591630954 
506	 0.115010098163482 
507	 0.115655726293517 
508	 0.116076753938072 
509	 0.116638388695527 
510	 0.117233184936267 
511	 0.117799900824779 
512	 0.118615525880861 
513	 0.119170959855787 
514	 0.119690560261732 
515	 0.120623004511541 
516	 0.121528361724266 
517	 0.122280188425888 
518	 0.122945184902198 
519	 0.123784573852084 
520	 0.124507961191048 
521	 0.125222571574029 
522	 0.126032975968367 
523	 0.126660396653417 
524	 0.127514822198192 
525	 0.128513865084113 
526	 0.12926140467744 
527	 0.130100412369501 
528	 0.130967629260449 
529	 0.13180550851082 
530	 0.132682919380099 
531	 0.133644983351933 
532	 0.134574534864294 
533	 0.135354404247348 
534	 0.136274893533735 
535	 0.13724924966115 
536	 0.138196904888552 
537	 0.139069691755954 
538	 0.140119385200048 
539	 0.141199665849005 
540	 0.142167057338353 
541	 0.143254732454994 
542	 0.144158888335037 
543	 0.144993600957452 
544	 0.146088152146654 
545	 0.147034285064208 
546	 0.147915967129741 
547	 0.148834443500712 
548	 0.149798649056384 
549	 0.150871716611118 
550	 0.151863423532817 
551	 0.152602121652489 
552	 0.153551673342611 
553	 0.154488079679189 
554	 0.155332698986627 
555	 0.156212463154157 
556	 0.1572071204616 
557	 0.158196330499804 
558	 0.159056317570567 
559	 0.159857707245122 
560	 0.160678239943043 
561	 0.161547492707235 
562	 0.162449117351467 
563	 0.163208248353985 
564	 0.163953781319374 
565	 0.164774719522954 
566	 0.165609098205838 
567	 0.166434035849287 
568	 0.167176336933318 
569	 0.167782353160206 
570	 0.16840745011758 
571	 0.168975700539791 
572	 0.169483720142022 
573	 0.170014082872362 
574	 0.170484203281018 
575	 0.170959126884317 
576	 0.171464773901871 
577	 0.171810380398196 
578	 0.172082426403113 
579	 0.172402803851547 
580	 0.172883019740726 
581	 0.173333203677477 
582	 0.173641170038715 
583	 0.173857624524485 
584	 0.174303133512489 
585	 0.174841622803116 
586	 0.175416180522252 
587	 0.175997414558856 
588	 0.176612681341618 
589	 0.176984606052603 
590	 0.177057597225571 
591	 0.177069784818685 
592	 0.177171966031911 
593	 0.177264347890869 
594	 0.177199597606125 
595	 0.176865406306992 
596	 0.176608630499741 
597	 0.176400985961586 
598	 0.176034471026136 
599	 0.175786113474573 
600	 0.175547665399311 
601	 0.175278248187986 
602	 0.175119907948696 
603	 0.175151785413033 
604	 0.175297279608083 
605	 0.175423783042382 
606	 0.175424490373938 
607	 0.175525743145256 
608	 0.175717250062363 
609	 0.175736847461541 
610	 0.175770101094925 
611	 0.17584370208903 
612	 0.175950079534885 
613	 0.176094509314818 
614	 0.176139580747479 
615	 0.176124452443017 
616	 0.176186697006535 
617	 0.176336155052276 
618	 0.176378948367342 
619	 0.176312835839509 
620	 0.17647851359522 
621	 0.176590212002898 
622	 0.17667503339687 
623	 0.176820483915576 
624	 0.176889542859552 
625	 0.177075457855202 
626	 0.177331705703343 
627	 0.177382898153223 
628	 0.177415564838411 
629	 0.177425907071171 
630	 0.177418908111161 
631	 0.177540008128608 
632	 0.177450280145418 
633	 0.177264661588814 
634	 0.177290035868073 
635	 0.177457956437647 
636	 0.177466232021505 
637	 0.177305274566648 
638	 0.177408250363893 
639	 0.177484781194942 
640	 0.177472910588124 
641	 0.177404481601082 
642	 0.177395744364535 
643	 0.177501520166261 
644	 0.177782342525898 
645	 0.178280603301407 
646	 0.178643243373282 
647	 0.178695089013054 
648	 0.178451345835635 
649	 0.178204225061153 
650	 0.178134276069565 
651	 0.178133293359887 
652	 0.177998304999445 
653	 0.177807965662295 
654	 0.177598569880822 
655	 0.177358576529398 
656	 0.17705044802291 
657	 0.176758994099343 
658	 0.176593323692785 
659	 0.176503600275329 
660	 0.175924583823828 
661	 0.175703249590165 
662	 0.175831496278243 
663	 0.175781551936491 
664	 0.175643022747893 
665	 0.175501273625426 
666	 0.175430830684736 
667	 0.1754872126294 
668	 0.175505690582494 
669	 0.175505185903933 
670	 0.175563741746409 
671	 0.175711417671005 
672	 0.175851607688766 
673	 0.175943572047787 
674	 0.17600959036355 
675	 0.176109762154961 
676	 0.176280556007125 
677	 0.176496849983273 
678	 0.176585743077723 
679	 0.176740671096172 
680	 0.177070223510206 
681	 0.177567016398841 
682	 0.177750578207355 
683	 0.177929386643766 
684	 0.178362434829944 
685	 0.179221987061906 
686	 0.179965969688687 
687	 0.180470547182214 
688	 0.180812123169663 
689	 0.181101719055582 
690	 0.181496692332898 
691	 0.182133520329668 
692	 0.183056549741763 
693	 0.183334111618832 
694	 0.183100590655129 
695	 0.182704988415262 
696	 0.182339793532176 
697	 0.182504500385675 
698	 0.182820402702222 
699	 0.182761157790662 
700	 0.182885980881701 
701	 0.182697232829871 
702	 0.182101640476138 
703	 0.181376733121434 
704	 0.181092454848556 
705	 0.180864078866898 
706	 0.180349813692936 
707	 0.179569793023208 
708	 0.178941510320885 
709	 0.178410366790568 
710	 0.177753920287421 
711	 0.176923498323823 
712	 0.176132929524258 
713	 0.175561270546463 
714	 0.175332583844638 
715	 0.17567909473725 
716	 0.176269193668993 
717	 0.176431715860021 
718	 0.175916427926369 
719	 0.173601048585895 
720	 0.170833528519536 
721	 0.168747903413483 
722	 0.168320125723408 
723	 0.167887279465393 
724	 0.166617822305723 
725	 0.165079436069031 
726	 0.163154088227908 
727	 0.161011403411207 
728	 0.158831382177238 
729	 0.156798180840901 
730	 0.153864366342634 
731	 0.150413489505402 
732	 0.147231104538844 
733	 0.144925699066443 
734	 0.143126873588083 
735	 0.141608861256226 
736	 0.140305919442981 
737	 0.139192404358685 
738	 0.13819706981963 
739	 0.137309768206662 
740	 0.136626858469757 
741	 0.136169749489654 
742	 0.135855293030537 
743	 0.135571199448633 
744	 0.135522478947114 
745	 0.135426475168736 
746	 0.135242492852259 
747	 0.135306611957129 
748	 0.135445639976274 
749	 0.135445974149717 
750	 0.135263641577997 
751	 0.135455810373349 
752	 0.135443574387447 
753	 0.135313738397134 
754	 0.135470233126583 
755	 0.135608164325318 
756	 0.135759155981176 
757	 0.136115246919364 
758	 0.137349218080759 
759	 0.13920383055031 
760	 0.140675168119721 
761	 0.140330437777873 
762	 0.140827835445521 
763	 0.140236344264828 
764	 0.139038449691591 
765	 0.138267220227403 
766	 0.13793799610769 
767	 0.137706020225553 
768	 0.137568283276803 
769	 0.137813368109594 
770	 0.137751099596796 
771	 0.137718449019701 
772	 0.138020457173016 
773	 0.138310592435872 
774	 0.138552941332478 
775	 0.138799453294628 
776	 0.139130491660248 
777	 0.139443305198972 
778	 0.139808667430294 
779	 0.140262149208981 
780	 0.140781379775847 
781	 0.141137926915267 
782	 0.141354294414863 
783	 0.141621311352371 
784	 0.142404332870726 
785	 0.143259178764909 
786	 0.143934214659283 
787	 0.144377768870899 
788	 0.145233639660349 
789	 0.14586114550474 
790	 0.146118478059588 
791	 0.146346865741196 
792	 0.146518952624779 
793	 0.146861047407275 
794	 0.147472114467668 
795	 0.148198755175555 
796	 0.148615504222795 
797	 0.148913426518802 
798	 0.149382536729499 
799	 0.149897948088663 
800	 0.150248806457291 
801	 0.150500265056224 
802	 0.150806523294835 
803	 0.150609752044815 
804	 0.150328201726573 
805	 0.150231731931913 
806	 0.150321820201689 
807	 0.150454346374517 
808	 0.150675582168075 
809	 0.151020817240121 
810	 0.151394166836016 
811	 0.151801276202625 
812	 0.152266452185866 
813	 0.152816948013545 
814	 0.153576795144591 
815	 0.153323531411095 
816	 0.152135968161553 
817	 0.151201660384768 
818	 0.149910759777752 
819	 0.148638238257804 
820	 0.147608152567115 
821	 0.146943636088236 
822	 0.145181127253078 
823	 0.142918895571661 
824	 0.141083734547675 
825	 0.13956984668118 
826	 0.137789146728556 
827	 0.135638818846323 
828	 0.133314994104761 
829	 0.130415998548792 
830	 0.128097392112043 
831	 0.12645202821599 
832	 0.124818143987164 
833	 0.12303724202696 
834	 0.121506983558315 
835	 0.120352155718057 
836	 0.119298925606976 
837	 0.117660018103986 
838	 0.116685404417823 
839	 0.116954404863235 
840	 0.116439162252098 
841	 0.115396462841324 
842	 0.114281985220369 
843	 0.11360190372159 
844	 0.113408718446522 
845	 0.1131380714055 
846	 0.112608704128358 
847	 0.11198778815476 
848	 0.111828247468564 
849	 0.111448540398206 
850	 0.110683051711624 
851	 0.110182377243573 
852	 0.109709063872144 
853	 0.109359525917649 
854	 0.109159602151852 
855	 0.108887717216351 
856	 0.108205194554686 
857	 0.107608185939796 
858	 0.107515345028371 
859	 0.107267173135373 
860	 0.106744969648089 
861	 0.106261688313222 
862	 0.106162495852604 
863	 0.105508002169365 
864	 0.105197050958778 
865	 0.105163671833254 
866	 0.104478288765828 
867	 0.104023658985335 
868	 0.103609208542775 
869	 0.103099668942682 
870	 0.102624861444394 
871	 0.102199427949402 
872	 0.101614664996593 
873	 0.100869998451004 
874	 0.100540817558633 
875	 9.99460609145318E-02 
876	 9.94443998569997E-02 
877	 9.93230290437185E-02 
878	 9.83567180735817E-02 
879	 9.79325146396324E-02 
880	 9.78391548833659E-02 
881	 9.72474495803323E-02 
882	 9.67111448409003E-02 
883	 9.62694721109217E-02 
884	 9.57975069000368E-02 
885	 9.51209902199004E-02 
886	 9.46436721844661E-02 
887	 9.37383931182354E-02 
888	 9.29335482374992E-02 
889	 9.39279624427296E-02 
890	 9.35725057294658E-02 
891	 9.26388409872307E-02 
892	 9.22734393917214E-02 
893	 0.092897544570054 
894	 9.35645229221645E-02 
895	 9.41548672304303E-02 
896	 9.45251866410128E-02 
897	 9.36551447652827E-02 
898	 9.27352888661876E-02 
899	 9.25091682679201E-02 
900	 9.29019738673565E-02 
901	 9.24084301040874E-02 
902	 9.12402391440255E-02 
903	 9.03251906460992E-02 
904	 0.090327379658772 
905	 8.93066686867297E-02 
906	 8.91248513187495E-02 
907	 8.96910632818778E-02 
908	 8.92948983196257E-02 
909	 0.087249727472342 
910	 8.66606733163535E-02 
911	 8.76855507374449E-02 
912	 8.75897719268008E-02 
913	 8.72859770136776E-02 
914	 8.63098475556738E-02 
915	 8.42086799011673E-02 
916	 0.081056099885231 
917	 8.03392529768981E-02 
918	 7.97445064626079E-02 
919	 7.81371508741722E-02 
920	 7.68608394108996E-02 
921	 7.52886566656761E-02 
922	 7.35062563416112E-02 
923	 7.18982603459377E-02 
924	 7.12203938770989E-02 
925	 0.070939543440064 
926	 7.02981735454429E-02 
927	 6.93481896990436E-02 
928	 7.19792356863135E-02 
929	 7.44953963912053E-02 
930	 7.24474449249729E-02 
931	 6.32285464514194E-02 
932	 6.69543000932912E-02 
933	 7.75682019096362E-02 
934	 7.68733230772729E-02 
935	 5.71704958941426E-02 
936	 5.54877954566355E-02 
937	 5.94264646443241E-02 
938	 6.18899197910461E-02 
939	 0.061455145810636 
940	 6.63976434339536E-02 
941	 7.06458320115766E-02 
942	 6.44919372551391E-02 
943	 4.46296019313986E-02 
944	 5.77144553651692E-02 
945	 6.37547636649104E-02 
946	 5.81848204769116E-02 
947	 0.059545391995108 
948	 6.02584219291654E-02 
949	 5.55522726282674E-02 
950	 0.052263983314886 
951	 6.02582556498106E-02 
952	 6.76745181214038E-02 
953	 5.99991179088625E-02 
954	 5.02035699836507E-02 
955	 6.02483412792307E-02 
956	 5.42775243489292E-02 
957	 5.38593310422169E-02 
958	 0.05718971777205 
959	 4.88756491495066E-02 
960	 4.86104993762253E-02 
961	 5.07093101610431E-02 
962	 5.05520254994923E-02 
963	 4.75527035740209E-02 
964	 4.91342825790944E-02 
965	 4.98551942828369E-02 
966	 4.79926739097362E-02 
967	 4.55992891855973E-02 
968	 4.82825455539921E-02 
969	 4.73159898256616E-02 
970	 4.28904370958386E-02 
971	 4.28691246827488E-02 
972	 4.63933155073844E-02 
973	 4.69598001376993E-02 
974	 0.043705932246878 
975	 4.20970448511554E-02 
976	 4.47388748444219E-02 
977	 4.62601354245294E-02 
978	 4.46843203520994E-02 
979	 4.24502874877622E-02 
980	 4.41610754289295E-02 
981	 4.60561705755249E-02 
982	 4.54183356868924E-02 
983	 4.20414180211147E-02 
984	 4.11380015893111E-02 
985	 4.21619278473136E-02 
986	 4.36312294482733E-02 
987	 4.40722725567766E-02 
988	 4.41216524498162E-02 
989	 4.25395157255593E-02 
990	 4.04940063201282E-02 
991	 4.05253111583965E-02 
992	 4.16134195326027E-02 
993	 4.22582777272065E-02 
994	 4.24148693439672E-02 
995	 4.25515484386268E-02 
996	 3.90584201491718E-02 
997	 3.76040892964242E-02 
998	 4.02039345588882E-02 
999	 4.46576931469783E-02 
1000	 4.44426050934758E-02 
1001	 4.37992866646842E-02 
1002	 4.21541124142674E-02 
1003	 4.18272098158833E-02 
1004	 4.21676502530731E-02 
1005	 4.21231852576968E-02 
1006	 4.24848317118635E-02 
1007	 4.30823955635032E-02 
1008	 4.23009775994935E-02 
1009	 4.14448860585459E-02 
1010	 4.15182766728467E-02 
1011	 4.13249516206953E-02 
1012	 0.041484109335369 
1013	 4.20309757107702E-02 
1014	 4.26000976847915E-02 
1015	 4.33999289000872E-02 
1016	 4.37510255675504E-02 
1017	 4.40567780238914E-02 
1018	 4.44291321968072E-02 
1019	 4.45507882031372E-02 
1020	 4.46616774512792E-02 
1021	 4.51667658904808E-02 
1022	 4.52205038582763E-02 
1023	 4.44474486344305E-02 
1024	 4.38651138834083E-02 
1025	 4.25443626631737E-02 
1026	 4.21242524014516E-02 
1027	 4.25646979695013E-02 
1028	 4.36958546487586E-02 
1029	 4.46603491163525E-02 
1030	 4.70647663225241E-02 
1031	 4.77239181532187E-02 
1032	 4.76426115708838E-02 
1033	 4.74937008898948E-02 
1034	 0.045857869978374 
1035	 4.57727619194872E-02 
1036	 4.65141695079381E-02 
1037	 4.68564828628976E-02 
1038	 4.76183151915648E-02 
1039	 4.86422515607071E-02 
1040	 4.89766669297659E-02 
1041	 4.95589782170285E-02 
1042	 4.95494371155611E-02 
1043	 4.93574768633651E-02 
1044	 4.92984875921408E-02 
1045	 0.048557544208959 
1046	 4.85758115027176E-02 
1047	 4.92321444741422E-02 
1048	 4.96970935153075E-02 
1049	 5.02196905551171E-02 
1050	 5.08012630173173E-02 
1051	 5.17116735733749E-02 
1052	 0.052245216842162 
1053	 5.25402934744311E-02 
1054	 5.29194696118946E-02 
1055	 5.33649219740561E-02 
1056	 0.053496622858953 
1057	 5.34944004054081E-02 
1058	 5.32732180015082E-02 
1059	 5.35801171261131E-02 
1060	 5.37533887284816E-02 
1061	 5.41997427729733E-02 
1062	 5.56259547199874E-02 
1063	 5.59038709023538E-02 
1064	 5.53933086874785E-02 
1065	 5.53925283603256E-02 
1066	 5.49747597325794E-02 
1067	 5.50529676537205E-02 
1068	 5.58320829374275E-02 
1069	 5.61768582517786E-02 
1070	 5.66517566221031E-02 
1071	 5.67659695417524E-02 
1072	 5.59665996701699E-02 
1073	 0.056246588459267 
1074	 0.056037622295811 
1075	 5.54989976621746E-02 
1076	 5.54992140550272E-02 
1077	 5.58952489088615E-02 
1078	 5.58538617294068E-02 
1079	 5.61033821553656E-02 
1080	 5.57692819263029E-02 
1081	 0.054407492771251 
1082	 5.42083051365635E-02 
1083	 5.44589354236709E-02 
1084	 5.45353060856206E-02 
1085	 5.59685383830086E-02 
1086	 5.58091729670089E-02 
1087	 5.36866606660618E-02 
1088	 5.28288320433722E-02 
1089	 5.14215847115795E-02 
1090	 5.09758196931139E-02 
1091	 0.051027234358751 
1092	 5.27949860094879E-02 
1093	 5.29862065743486E-02 
1094	 5.28291133497377E-02 
1095	 5.26916975930821E-02 
1096	 5.17118433771886E-02 
1097	 5.15959382040908E-02 
1098	 5.20430242736824E-02 
1099	 5.21910411341965E-02 
1100	 5.31782775604127E-02 
1101	 5.30643680795481E-02 
1102	 5.10274093132665E-02 
1103	 5.08038299293379E-02 
1104	 5.13357351033999E-02 
1105	 5.16561756762565E-02 
1106	 5.14958112698046E-02 
1107	 5.29599151339155E-02 
1108	 5.33930871804737E-02 
1109	 5.19865493831411E-02 
1110	 5.14811089341575E-02 
1111	 5.24882206804122E-02 
1112	 5.21478851730244E-02 
1113	 4.91998192786786E-02 
1114	 4.87634640133994E-02 
1115	 5.04660518122323E-02 
1116	 5.11384640003481E-02 
1117	 5.25762386087845E-02 
1118	 5.52209026235059E-02 
1119	 6.25745339692717E-02 
1120	 6.47302347997555E-02 
1121	 6.31688487629469E-02 
1122	 5.87605491689296E-02 
1123	 4.68131763790126E-02 
1124	 0.03267689689271 
1125	 3.76144123007644E-02 
1126	 6.10878111176113E-02 
1127	 6.59758237883928E-02 
1128	 0.055015269687594 
1129	 5.50541260663856E-02 
1130	 4.61466424763797E-02 
1131	 4.67064028418977E-02 
1132	 6.28466811975009E-02 
1133	 6.51243715669044E-02 
1134	 0.055129303117586 
1135	 5.60071127025815E-02 
1136	 6.48875968421135E-02 
1137	 6.06644766907278E-02 
1138	 4.74923584482822E-02 
1139	 5.19330457423981E-02 
1140	 5.75331497250168E-02 
1141	 5.13727573286056E-02 
1142	 5.57914326487089E-02 
1143	 6.13167610259855E-02 
1144	 4.87967812324177E-02 
1145	 0.047002103429405 
1146	 6.01349680172541E-02 
1147	 5.93256280109222E-02 
1148	 5.13684300627333E-02 
1149	 4.71502725399629E-02 
1150	 4.63048126147811E-02 
1151	 4.19935142967286E-02 
1152	 4.40794513428593E-02 
1153	 5.46403437716021E-02 
1154	 5.47603224503392E-02 
1155	 5.10901218024648E-02 
1156	 4.91910032221446E-02 
1157	 4.89428320873811E-02 
1158	 4.81070066374706E-02 
1159	 4.80351427973157E-02 
1160	 4.89142861756117E-02 
1161	 4.75910537175293E-02 
1162	 4.54240951194847E-02 
1163	 4.51958643521778E-02 
1164	 4.50376695812174E-02 
1165	 4.42788281780102E-02 
1166	 4.50011460850373E-02 
1167	 4.53880600032887E-02 
1168	 4.44249676525517E-02 
1169	 4.40800010326149E-02 
1170	 4.36547869957863E-02 
1171	 0.043304339394261 
1172	 4.31090928954047E-02 
1173	 4.31048614425957E-02 
1174	 4.30015232066286E-02 
1175	 4.32331688510798E-02 
1176	 4.36410725072979E-02 
1177	 4.40544338156084E-02 
1178	 4.41402701706875E-02 
1179	 4.39880095387193E-02 
1180	 4.40663810611399E-02 
1181	 4.43558719423903E-02 
1182	 4.46788148058893E-02 
1183	 4.46506253349267E-02 
1184	 4.39707831563749E-02 
1185	 4.31668435779447E-02 
1186	 4.31884686674025E-02 
1187	 4.37998609835203E-02 
1188	 4.44115031867092E-02 
1189	 4.44055881717891E-02 
1190	 4.33564903696905E-02 
1191	 4.21715922348457E-02 
1192	 4.17587634236136E-02 
1193	 4.16570744316127E-02 
1194	 4.22139469625003E-02 
1195	 4.27064462566377E-02 
1196	 4.24799317690719E-02 
1197	 0.042112630891756 
1198	 4.21464322606668E-02 
1199	 4.22492060866454E-02 
1200	 4.24812717334687E-02 
1201	 4.24251395622409E-02 
1202	 0.042321778220629 
1203	 4.28217745042886E-02 
1204	 4.33895284156793E-02 
1205	 4.36751410397637E-02 
1206	 4.35278829913806E-02 
1207	 4.27476399634445E-02 
1208	 4.16119269676189E-02 
1209	 4.14336618690803E-02 
1210	 4.17250131860507E-02 
1211	 4.18161284957738E-02 
1212	 4.25858333460155E-02 
1213	 4.28183712199473E-02 
1214	 4.26814889057045E-02 
1215	 4.20214800600428E-02 
1216	 0.041633432151034 
1217	 4.11360457351526E-02 
1218	 4.10480656746097E-02 
1219	 4.13869385168839E-02 
1220	 0.041109251658278 
1221	 4.06029271892211E-02 
1222	 4.09054811329354E-02 
1223	 0.041302234338106 
1224	 4.13379759274125E-02 
1225	 4.12797354830896E-02 
1226	 4.09686814058245E-02 
1227	 4.05551340132612E-02 
1228	 4.04929845765818E-02 
1229	 4.05965210609059E-02 
1230	 4.03260210385383E-02 
1231	 3.98455782724071E-02 
1232	 3.97230034751141E-02 
1233	 4.00588753494851E-02 
1234	 4.02383145657272E-02 
1235	 4.02415352212924E-02 
1236	 4.01222629329915E-02 
1237	 0.040062999040108 
1238	 3.98534589332123E-02 
1239	 3.96315589081662E-02 
1240	 3.95601414384533E-02 
1241	 0.039255732966744 
1242	 3.88119507062525E-02 
1243	 3.87558302957384E-02 
1244	 3.89521794018502E-02 
1245	 3.89511876193951E-02 
1246	 3.87831884188048E-02 
1247	 3.89646916392501E-02 
1248	 3.93000397771736E-02 
1249	 0.039381778274211 
1250	 3.95028009555273E-02 
1251	 3.92860364139947E-02 
1252	 3.87628018515252E-02 
1253	 0.038415554446267 
1254	 0.038534957106307 
1255	 0.039041927912206 
1256	 3.90868491249136E-02 
1257	 3.88476192343716E-02 
1258	 3.91461604624665E-02 
1259	 3.94627861260308E-02 
1260	 3.94784657102785E-02 
1261	 4.00021253818494E-02 
1262	 4.02092551662895E-02 
1263	 3.98363463047088E-02 
1264	 3.96120740407438E-02 
1265	 3.99184075408594E-02 
1266	 4.01519630714891E-02 
1267	 0.040120948973789 
1268	 3.97095271605971E-02 
1269	 3.94734592897329E-02 
1270	 3.94282694172907E-02 
1271	 3.94414134320212E-02 
1272	 3.99511161460107E-02 
1273	 4.02192987391935E-02 
1274	 3.98007697165964E-02 
1275	 3.91051366248445E-02 
1276	 3.90371568138085E-02 
1277	 3.97967723486585E-02 
1278	 4.00147008932424E-02 
1279	 4.00285689457002E-02 
1280	 4.03789120133288E-02 
1281	 4.04418413375587E-02 
1282	 3.98621941155778E-02 
1283	 3.98848811067497E-02 
1284	 4.04131127494258E-02 
1285	 4.02107117731393E-02 
1286	 3.96732249460531E-02 
1287	 3.96164866769867E-02 
1288	 0.03923304765256 
1289	 3.91818751075618E-02 
1290	 3.95941386195301E-02 
1291	 4.02189434747897E-02 
1292	 4.00274362679048E-02 
1293	 4.00876653122185E-02 
1294	 4.06062563554188E-02 
1295	 4.05570285056489E-02 
1296	 4.03559827238733E-02 
1297	 4.11084366455468E-02 
1298	 4.16096396474654E-02 
1299	 4.09441551006409E-02 
1300	 4.12585893343901E-02 
1301	 4.17074534291342E-02 
1302	 4.07497794842813E-02 
1303	 4.08164792097975E-02 
1304	 4.18532943803793E-02 
1305	 4.14975880719292E-02 
1306	 4.14516133417495E-02 
1307	 4.22315512972002E-02 
1308	 4.27827038845369E-02 
1309	 4.28618843805156E-02 
1310	 0.042908452616886 
1311	 4.30715922917386E-02 
1312	 4.32773805714059E-02 
1313	 4.30119909070747E-02 
1314	 0.042622960363769 
1315	 4.26002604914835E-02 
1316	 4.30396533015135E-02 
1317	 4.28225550149246E-02 
1318	 4.28567379231736E-02 
1319	 4.45522991152679E-02 
1320	 4.52133904034477E-02 
1321	 4.47856711246677E-02 
1322	 4.43714003977001E-02 
1323	 4.62338686718466E-02 
1324	 4.69828036827561E-02 
1325	 4.59875426508704E-02 
1326	 4.70868550028434E-02 
1327	 4.84371978515741E-02 
1328	 4.81402904890174E-02 
1329	 4.80516073975639E-02 
1330	 4.86118752661449E-02 
1331	 4.92316950625657E-02 
1332	 0.046874348399547 
1333	 4.47950659198584E-02 
1334	 4.82581282743479E-02 
1335	 4.94533244306296E-02 
1336	 4.83069586263323E-02 
1337	 4.85606065161152E-02 
1338	 5.08085524088629E-02 
1339	 5.16831658694907E-02 
1340	 5.19444438119197E-02 
1341	 5.11122282356598E-02 
1342	 4.78307785118099E-02 
1343	 4.90673381315379E-02 
1344	 5.36888553984431E-02 
1345	 5.45502648345729E-02 
1346	 0.057743672991835 
1347	 6.28445067262515E-02 
1348	 6.54192981338347E-02 
1349	 6.21920320176702E-02 
1350	 5.16794629667239E-02 
1351	 0.056216433306471 
1352	 6.21182571206358E-02 
1353	 5.24621906832975E-02 
1354	 4.96674383331269E-02 
1355	 0.199457130404674 
1356	 0.375216418788193 
1357	 0.230230241640242 
1358	 0.210227912369619 
1359	 0.357167646501893 
1360	 0.134140582761767 
1361	-0.528861291291589 
1362	-0.642663468610818 
1363	 0.410010030805269 
1364	 0.138662995490917 
1365	 3.76961968019258E-02 
1366	 0.584938000773798 
1367	 0.600364321683538 
1368	 0.526585426498663 
1369	 0.792103468644317 
1370	 1.11646462416454 
1371	 1.94355255088324 
1372	 0.555608022717107 
1373	-0.591557646957239 
1374	-0.721813353532046 
1375	-0.892372942259329 
1376	-1.15068472591617 
1377	-19.3508580686208 
1378	 3.04157181789937 
1379	-2.24700577909844 
1380	-0.692199637908012 
1381	-0.741882548263317 
1382	-0.484519160292504 
1383	 4.8499922981852 
1384	 3.70776702586673 
1385	-5.75612670371185 
1386	-3.98376018750307 
1387	 3.09705747050723 
1388	 1.10592835842671 
1389	-1.1083967448783 
1390	-0.8351909431517 
1391	 1.19317567896842 
1392	 3.5070756774363 
1393	-41.0592864194059 
1394	-3.45873847024045 
1395	-0.243398611935288 
1396	 1.58956540673509 
1397	-4.20691563881519E-02 
1398	-2.58144757100272 
1399	 0.252971828512822 
1400	-0.476306149073718 
1401	-2.60201829741774 
1402	 4.68996990465609 
1403	-23.8566641259513 
1404	-13.3724135079045 
1405	-32.3047150454804 
1406	 1.63336792702564 
1407	 0.946634229909858 
1408	 0.411958532205136 
1409	-0.183005858667052 
1410	 2.20815211226739 
1411	 1.31984079122969 
1412	-4.11104316597067E-02 
1413	-0.101585687927701 
1414	-0.413090697615288 
1415	 10.4771366169002 
1416	-19.4151591106827 
1417	 9.30677869118708E-02 
1418	 0.63217089152218 
1419	 0.434133340358979 
1420	 0.242766376892326 
1421	 0.347225951771575 
1422	 0.527502642783766 
1423	 0.302896185848558 
1424	 0.151300105372276 
1425	 0.198289454786611 
1426	 3.44601020003916E-02 
1427	-5.45017830926132E-02 
1428	 5.94120077848359E-02 
1429	 7.95481675560538E-02 
1430	 1.01670607662696E-03 
1431	-3.07228095874528E-02 
1432	-3.43286073171946E-02 
1433	-3.19572029347471E-03 
1434	 8.63000893873077E-02 
1435	 6.33955521545525E-02 
1436	-8.61055497504716E-03 
1437	-0.037126333997681 
1438	 4.72778275078702E-05 
1439	-2.25494341759866E-02 
1440	-0.0538366705244 
1441	 3.13139064688789E-02 
1442	 0.110089721866757 
1443	 0.025799661675758 
1444	-2.59059610840574E-02 
1445	 2.10543035948813E-02 
1446	 3.34220669338034E-02 
1447	 3.00447683430387E-02 
1448	 5.22249269715878E-02 
1449	 6.12017638384443E-02 
1450	 6.66453263891546E-02 
1451	 6.53687036055545E-02 
1452	 5.94929336672428E-02 
1453	 5.88012920906404E-02 
1454	 5.69512778510216E-02 
1455	 4.11219826514962E-02 
1456	 3.72309581747195E-02 
1457	 4.40180585898003E-02 
1458	 4.55660189396876E-02 
1459	 3.96821481851955E-02 
1460	 4.28714189278884E-02 
1461	 5.93535758075827E-02 
1462	 5.61817376308299E-02 
1463	 3.95608353805967E-02 
1464	 3.93354296988678E-02 
1465	 3.86564783964003E-02 
1466	 3.76674205536171E-02 
1467	 4.67818250228916E-02 
1468	 0.055892662030496 
1469	 0.064469459140428 
1470	 6.14924140297616E-02 
1471	 5.81602448615165E-02 
1472	 5.89514060047559E-02 
1473	 4.85979493727779E-02 
1474	 4.33629340999589E-02 
1475	 4.87671828728574E-02 
1476	 0.05036285837434 
1477	 4.42014731601099E-02 
1478	 4.34715766806735E-02 
1479	 4.94913342298158E-02 
1480	 5.19107597653304E-02 
1481	 5.42091973960135E-02 
1482	 5.25704130296907E-02 
1483	 4.56684336056954E-02 
1484	 4.60232536324911E-02 
1485	 4.96160650628492E-02 
1486	 4.99700368942955E-02 
1487	 5.09785245046426E-02 
1488	 5.28041952314659E-02 
1489	 5.41669520219567E-02 
1490	 5.26745437466882E-02 
1491	 5.13038283938273E-02 
1492	 5.07542137536966E-02 
1493	 4.73746155405477E-02 
1494	 4.68760748049035E-02 
1495	 0.049955230175535 
1496	 5.02207138411833E-02 
1497	 4.94989351853278E-02 
1498	 4.91191106311711E-02 
1499	 4.73121832416225E-02 
1500	 4.66993935075156E-02 
1501	 4.76937549544353E-02 
1502	 4.74579588072137E-02 
1503	 4.63378554163686E-02 
1504	 4.62007072249502E-02 
1505	 4.59258478738914E-02 
1506	 4.63378604435615E-02 
1507	 4.67395053526133E-02 
1508	 4.60292895434647E-02 
1509	 4.49649025750301E-02 
1510	 4.46800053347601E-02 
1511	 4.51355010241776E-02 
1512	 4.55660612543298E-02 
1513	 0.045629786018983 
1514	 4.50273571366058E-02 
1515	 0.044296511417234 
1516	 4.43930725069453E-02 
1517	 4.47952193252949E-02 
1518	 4.44719071625319E-02 
1519	 4.39557643064102E-02 
1520	 4.38220400123508E-02 
1521	 4.38441781480259E-02 
1522	 4.36695316162959E-02 
1523	 4.34799398283734E-02 
1524	 4.37139793926518E-02 
1525	 4.38445131109546E-02 
1526	 0.043838262005451 
1527	 4.36035545820672E-02 
1528	 4.32182241000253E-02 
1529	 4.34863584150902E-02 
1530	 4.34920480852044E-02 
1531	 4.35287981502714E-02 
1532	 4.37660402064987E-02 
1533	 4.32044737225048E-02 
1534	 4.32243569439591E-02 
1535	 0.043005286493593 
1536	 0.042040450414643 
1537	 4.16089325935431E-02 
1538	 4.13047522344573E-02 
1539	 4.16667759980344E-02 
1540	 4.17391776212215E-02 
1541	 4.15710558324109E-02 
1542	 4.20603982247955E-02 
1543	 4.13997104798953E-02 
1544	 4.07574732159213E-02 
1545	 0.041224822287779 
1546	 4.13042990968235E-02 
1547	 4.11809248785991E-02 
1548	 4.16475280215756E-02 
1549	 4.18661112688171E-02 
1550	 4.10875949247761E-02 
1551	 4.08393332751166E-02 
1552	 4.10891096365556E-02 
1553	 4.04959623104604E-02 
1554	 4.01722494890116E-02 
1555	 4.02518162037191E-02 
1556	 3.97765388971005E-02 
1557	 3.97196720761418E-02 
1558	 3.96747081963047E-02 
1559	 3.89455400901245E-02 
1560	 3.90099132495823E-02 
1561	 3.94389865255265E-02 
1562	 3.93740335472286E-02 
1563	 3.97021392334037E-02 
1564	 3.98507357020585E-02 
1565	 0.039184364988578 
1566	 3.87021810306947E-02 
1567	 3.87524179274326E-02 
1568	 3.89156102211501E-02 
1569	 3.89455422912649E-02 
1570	 3.90807787336656E-02 
1571	 3.92968704971469E-02 
1572	 0.039368729740459 
1573	 3.98047799594649E-02 
1574	 4.04222499312089E-02 
1575	 4.02894582824157E-02 
1576	 3.98797520621631E-02 
1577	 4.00461865117683E-02 
1578	 4.03062503879714E-02 
1579	 4.00092855392119E-02 
1580	 0.039357319719079 
1581	 3.87716434877989E-02 
1582	 0.038440054523622 
1583	 3.86634329514784E-02 
1584	 3.90457531891482E-02 
1585	 0.039066950395015 
1586	 3.88205288109915E-02 
1587	 3.87338966031411E-02 
1588	 3.90516157968704E-02 
1589	 3.90802952006417E-02 
1590	 3.87340005465541E-02 
1591	 3.87605291582175E-02 
1592	 0.039044916822249 
1593	 3.93299584769265E-02 
1594	 3.99847976603414E-02 
1595	 4.04037680351082E-02 
1596	 4.01213958846376E-02 
1597	 3.99104316397425E-02 
1598	 3.98788906891998E-02 
1599	 4.01004279444444E-02 
1600	 4.04168191026683E-02 
1601	 4.01823600318405E-02 
1602	 3.96625158224777E-02 
1603	 3.88243224037092E-02 
1604	 3.85637407167883E-02 
1605	 3.95742185555293E-02 
1606	 3.99777262257895E-02 
1607	 3.94802126523256E-02 
1608	 3.90289224760974E-02 
1609	 0.038901103484298 
1610	 3.90781538531336E-02 
1611	 3.86946990987833E-02 
1612	 0.038361266088691 
1613	 3.84668955723868E-02 
1614	 3.79012207892996E-02 
1615	 3.78990859669442E-02 
1616	 3.87237751734106E-02 
1617	 3.84508665987518E-02 
1618	 3.78523445845985E-02 
1619	 3.80469494265207E-02 
1620	 3.79309786355146E-02 
1621	 3.73153284211697E-02 
1622	 3.73219640971916E-02 
1623	 3.75177484712322E-02 
1624	 0.03704184921424 
1625	 3.68686013954998E-02 
1626	 3.72287452293685E-02 
1627	 3.72838400585412E-02 
1628	 3.75947137084473E-02 
1629	 3.81085199602781E-02 
1630	 0.038143385449012 
1631	 3.82503379731889E-02 
1632	 3.85308961674668E-02 
1633	 3.90974156991266E-02 
1634	 3.93477370999919E-02 
1635	 3.84974555161919E-02 
1636	 3.81140670094737E-02 
1637	 3.83806958398071E-02 
1638	 3.79779127816409E-02 
1639	 3.80007748912631E-02 
1640	 3.88098533734951E-02 
1641	 3.80280179910115E-02 
1642	 3.70158399311149E-02 
1643	 3.77001299213624E-02 
1644	 3.83719690479577E-02 
1645	 3.84440968394848E-02 
1646	 3.82153476416799E-02 
1647	 3.79699520281556E-02 
1648	 3.79408663635374E-02 
1649	 3.84466649573304E-02 
1650	 3.89525810727064E-02 
1651	 3.91204610028299E-02 
1652	 3.88892468181994E-02 
1653	 3.77037046329017E-02 
1654	 3.75386093523158E-02 
1655	 0.038045602065564 
1656	 3.80171629142292E-02 
1657	 0.037994295436768 
1658	 3.85226881892192E-02 
1659	 3.91857715894476E-02 
1660	 3.87926528067259E-02 
1661	 3.84206343319454E-02 
1662	 3.83242193849227E-02 
1663	 3.71116169590667E-02 
1664	 3.65123414334918E-02 
1665	 3.68607505126227E-02 
1666	 3.71921180995735E-02 
1667	 3.74529757229639E-02 
1668	 3.88998739000998E-02 
1669	 0.039308485457869 
1670	 0.038225042878111 
1671	 3.77223389033491E-02 
1672	 3.78539235807254E-02 
1673	 0.037727839359349 
1674	 3.74891251295115E-02 
1675	 3.70698883592909E-02 
1676	 3.66121547319923E-02 
1677	 0.036573913280932 
1678	 3.73887414584052E-02 
1679	 3.80460532612241E-02 
1680	 3.72934557305148E-02 
1681	 3.67166749479411E-02 
1682	 3.69972021158472E-02 
1683	 3.62857217839315E-02 
1684	 3.60338582222767E-02 
1685	 3.71798675620444E-02 
1686	 3.71154791563867E-02 
1687	 3.74576880699142E-02 
1688	 3.92510168656845E-02 
1689	 3.94027356234158E-02 
1690	 3.81669288090706E-02 
1691	 3.82809367549254E-02 
1692	 3.90706579488322E-02 
1693	 3.89015751234958E-02 
1694	 3.85635518991545E-02 
1695	 3.86128441541408E-02 
1696	 3.83098751143872E-02 
1697	 3.76334842139336E-02 
1698	 3.80430365719621E-02 
1699	 3.85677394193125E-02 
1700	 3.78043351696291E-02 
1701	 3.73116037474067E-02 
1702	 3.76782303354022E-02 
1703	 3.86310467437414E-02 
1704	 3.91524490342483E-02 
1705	 3.79797933864304E-02 
1706	 3.74824298913583E-02 
1707	 0.038180347458316 
1708	 3.83414550114702E-02 
1709	 3.95587979949943E-02 
1710	 4.03850199480109E-02 
1711	 3.85721763036204E-02 
1712	 0.037144001501251 
1713	 3.85365858751407E-02 
1714	 0.038810352192255 
1715	 3.85901149778583E-02 
1716	 3.76773533744076E-02 
1717	 3.80188103745347E-02 
1718	 3.87621163291457E-02 
1719	 3.96076899663945E-02 
1720	 3.85892980126651E-02 
1721	 3.69813843723789E-02 
1722	 3.82939024686403E-02 
1723	 3.90046937527063E-02 
1724	 3.96462252662027E-02 
1725	 4.13979903718431E-02 
1726	 3.91584019935404E-02 
1727	 3.64807046493748E-02 
1728	 3.78515548796795E-02 
1729	 3.88626288235787E-02 
1730	 3.84693680669465E-02 
1731	 3.95137013928066E-02 
1732	 4.01503487837177E-02 
1733	 0.039085403125612 
1734	 3.91355292265608E-02 
1735	 4.04600456110861E-02 
1736	 4.13991593227618E-02 
1737	 0.04197078368786 
1738	 0.042295610483047 
1739	 4.12572888054159E-02 
1740	 3.82730598409169E-02 
1741	 3.75862129748346E-02 
1742	 0.040176705326141 
1743	 0.040453679671461 
1744	 0.039667495148074 
1745	 3.98393678959014E-02 
1746	 3.98526524081922E-02 
1747	 4.02190302288404E-02 
1748	 4.37572403398662E-02 
1749	 4.49490488775142E-02 
1750	 4.28066369381051E-02 
1751	 0.041723526153873 
1752	 4.08157167608417E-02 
1753	 4.04352410154335E-02 
1754	 4.05949229739266E-02 
1755	 4.21093046563085E-02 
1756	 4.60803012900491E-02 
1757	 4.32624600410054E-02 
1758	 4.04556497710378E-02 
1759	 4.20935391361802E-02 
1760	 4.20343473732939E-02 
1761	 4.29334209507521E-02 
1762	 4.64341330706752E-02 
1763	 0.04195461952459 
1764	 3.94784443750456E-02 
1765	 4.48186787033611E-02 
1766	 4.44178804555305E-02 
1767	 4.10499941822853E-02 
1768	 4.06229902076185E-02 
1769	 3.95690837995823E-02 
1770	 0.039626220556076 
1771	 4.36299612868341E-02 
1772	 4.69456798531337E-02 
1773	 4.55856177867418E-02 
1774	 4.36553540839672E-02 
1775	 0.044727308270868 
1776	 4.48628565369623E-02 
1777	 4.60949109189772E-02 
1778	 4.70300403361847E-02 
1779	 4.54737504950564E-02 
1780	 0.044286613863305 
1781	 0.045207224497426 
1782	 4.48375743374881E-02 
1783	 4.16096695550662E-02 
1784	 4.29418140345496E-02 
1785	 4.65581780957828E-02 
1786	 4.58343505688186E-02 
1787	 4.89241971284184E-02 
1788	 5.00877107002735E-02 
1789	 4.40201576129481E-02 
1790	 4.68239058357905E-02 
1791	 3.94572637837048E-02 
1792	 2.86900851739479E-02 
1793	 3.46986850176973E-02 
1794	 4.40517809337448E-02 
1795	 6.33101520210224E-02 
1796	 7.55130395734971E-02 
1797	 6.23420801506492E-02 
1798	 4.19220373963799E-02 
1799	 1.69569763079965E-02 
1800	 1.13808694769702E-02 
1801	 0.03049426878029 
1802	 0.125092580709963 
1803	 0.14997183299605 
1804	 0.128819198287796 
1805	 0.135157428497841 
1806	 1.05506220752733E-02 
1807	-6.01159343140112E-02 
1808	 2.25311470338425E-02 
1809	 8.09953038762605E-02 
1810	 5.00830507948209E-02 
1811	-1.46084429421941E-02 
1812	-4.53664490074972E-02 
1813	 0.245085571094776 
1814	 106.460055834888 
1815	-5.32947140735553 
1816	 6.2053300207585 
1817	-1.76374036710696 
1818	-1.6908046753137 
1819	-2.38062406592177 
1820	-1.37891888278372 
1821	-0.375923613175229 
1822	-0.231854916455288 
1823	 693.716082620556 
1824	 317.189418228184 
1825	 2.0616554704521 
1826	 2.29880509449388 
1827	-9.23789980249404 
1828	-2.0405596510178 
1829	 1.06518193650444 
1830	 1.80702408661876 
1831	-0.727432801196497 
1832	-1.5683461924778 
1833	 0.853838735940479 
1834	 1.00029260996345 
1835	 2.03538269038121 
1836	 7.6646173429025 
1837	-1.59657808551288 
1838	-1.36933475882337 
1839	-1.40203791377558 
1840	-0.742610238564678 
1841	-2.28387985405424 
1842	 0.385616526448871 
1843	 0.559214179776039 
1844	 2.31303671612219 
1845	 3.46068647269246 
1846	-1.55047894573546 
1847	-1.09308466215287 
1848	-0.889950677072615 
1849	 62.555121260073 
1850	-2.2329004013186 
1851	-15.8348522613261 
1852	 261.199290460367 
1853	 3.83182634614058 
1854	 2.39928624559378 
1855	 2.31834877232009 
1856	 2.54462080970602 
1857	 1.92370444913657 
1858	 0.86093626219809 
1859	 7.24891195936184 
1860	 0.480687775106516 
1861	 0.50104133209249 
1862	-0.295982172220827 
1863	-0.863638850827745 
1864	-1.20330156506771 
1865	-1.38802893907506 
1866	-2.02969676689808 
1867	-2.20318109285956 
1868	-0.474731284021579 
1869	-0.348727870427996 
1870	 2.05920217780628 
1871	 10.1848456237456 
1872	 1.98465181947777 
1873	 33.8625507601322 
1874	 0.89017580302901 
1875	-4.5307510311699 
1876	 5.05100890684857 
1877	-0.770683795725104 
1878	-1.30281596359835 
1879	-1.27802535327597 
1880	-2.52525189114554 
1881	 0.445651322167602 
1882	 0.554814935980149 
1883	 0.783982830088512 
1884	 0.56203636430389 
1885	 0.419199785475706 
1886	-1.90881486975674E-02 
1887	-0.125904445738556 
1888	 0.131158519712138 
1889	 0.217190285174353 
1890	 0.666615069847473 
1891	 1.02499324125537 
1892	 1.68255014697498 
1893	 7.4006448323272 
1894	 5.87666740039675 
1895	 1.16250093637233 
1896	 0.41115468486733 
1897	 0.604412311200324 
1898	 0.560269004631399 
1899	 0.841389120394845 
1900	 5.11292252592367 
1901	-2.14830155879156 
1902	-6.51127354148034 
1903	 0.954507249478059 
1904	 1.44124500676576 
1905	 0.174237656366261 
1906	 0.138941564116827 
1907	-0.524046294594744 
1908	-0.951701069703173 
1909	-6.4280614679335 
1910	 2.96480434527967 
1911	 1.44743433732218 
1912	 1.83464981883061 
1913	 2.38412349088252 
1914	 24.4566031571269 
1915	 52.458232903647 
1916	 16.3007064217504 
1917	-0.189412860128026 
1918	 4.48434801444907 
1919	 1.194596172891 
1920	 5.90483312907011E-02 
1921	-6.95948830384986 
1922	 1.66258660844687 
1923	 0.964544468439566 
1924	 0.426269697604002 
1925	 2.16996843054643 
1926	 1.87306117809411 
1927	 0.965961655741604 
1928	 0.465413814086069 
1929	 6.01057406099059E-02 
1930	-7.77477291662611E-02 
1931	 7.56471349522292E-02 
1932	-1.53471150073593E-02 
1933	 0.441317282953781 
1934	 28.6818331137438 
1935	 1.90343382606614 
1936	 1.38007872394869 
1937	 1.14194616024486 
1938	 1.48703179719698 
1939	 1.55121456377937 
1940	-2.61790736532745 
1941	-1.49316718383212 
1942	 0.470664332794886 
1943	 0.50795189222824 
1944	 0.279451754837364 
1945	 0.240259989488347 
1946	 0.553155705389661 
1947	 0.661138445089487 
1948	 0.452541334275268 
1949	 0.474204317933067 
1950	 0.627106651224606 
1951	 0.527557598618282 
1952	 0.395242007043453 
1953	 0.338916467291777 
1954	 0.359912606103416 
1955	 0.231703148052832 
1956	 0.050208507038935 
1957	 6.32330894063587E-02 
1958	 0.025856170105157 
1959	-4.37715693524304E-02 
1960	 4.38612947186062E-02 
1961	 0.103991947329358 
1962	 7.57600013580016E-02 
1963	 6.75296671195816E-02 
1964	 6.03183032983763E-02 
1965	 4.35167923986139E-02 
1966	 4.49319601763216E-02 
1967	 7.00287405265204E-02 
1968	 7.89010627525266E-02 
1969	 8.04404334432379E-02 
1970	 7.81682918284602E-02 
1971	 6.02703755066538E-02 
1972	 5.61994301226024E-02 
1973	 5.65827696545839E-02 
1974	 5.63205374055262E-02 
1975	 5.85293823126616E-02 
1976	 5.95621288229095E-02 
1977	 5.69705002893278E-02 
1978	 0.04934635763473 
1979	 4.78262028864612E-02 
1980	 5.12649560784633E-02 
1981	 5.43566504035503E-02 
1982	 5.65273134835086E-02 
1983	 6.35113610606851E-02 
1984	 6.45071258852333E-02 
1985	 5.91171283439958E-02 
1986	 5.79747852917771E-02 
1987	 5.89003339450386E-02 
1988	 5.89498646648278E-02 
1989	 6.89493611744494E-02 
1990	 7.62598782932295E-02 
1991	 7.12817067177528E-02 
1992	 6.29928710398697E-02 
1993	 5.39778751085831E-02 
1994	 0.048230177835237 
1995	 3.95185935437849E-02 
1996	 3.67932413269851E-02 
1997	 4.06223211257454E-02 
1998	 4.37001736162295E-02 
1999	 4.91724271353787E-02 
2000	 5.12213717231783E-02 
2001	 0.057466278425543 
2002	 7.29765327193572E-02 
2003	 7.02899788044484E-02 
2004	 6.89836762541575E-02 
2005	 7.89778861203559E-02 
2006	 7.81167740317368E-02 
2007	 7.24056686409818E-02 
2008	 7.32839307344481E-02 
2009	 7.75033845452683E-02 
2010	 7.87005796178681E-02 
2011	 7.78918880876986E-02 
2012	 8.22266167881769E-02 
2013	 8.54858606337262E-02 
2014	 8.79599716658662E-02 
2015	 8.91759088531459E-02 
2016	 9.62290733746229E-02 
2017	 0.107569621752723 
2018	 0.101126266207773 
2019	 8.85937179609828E-02 
2020	 8.13678885164907E-02 
2021	 0.0781594105177 
2022	 7.06984164088488E-02 
2023	 6.70233101639404E-02 
2024	 6.86964347746962E-02 
2025	 0.072815980274234 
2026	 0.071395687131927 
2027	 7.14733539253758E-02 
2028	 0.074709082416579 
2029	 6.87899037192627E-02 
2030	 6.37169281458464E-02 
2031	 6.01053388484492E-02 
2032	 5.78228431362939E-02 
2033	 5.61169238389748E-02 
2034	 5.29700903875505E-02 
2035	 5.15763552719885E-02 
2036	 5.30090624016848E-02 
2037	 5.44058995243388E-02 
2038	 5.64108116653985E-02 
2039	 5.81752797107531E-02 
2040	 6.19293777291368E-02 
2041	 6.20223682442623E-02 
2042	 5.81066632369528E-02 
2043	 5.74949665039571E-02 
2044	 5.85342669177063E-02 
2045	 5.75190241918594E-02 
2046	 5.18932560595023E-02 
2047	 5.10555847455947E-02 
2048	 5.12711320456984E-02 
2049	 5.06273436478774E-02 
2050	 0.054457894090361 
2051	 5.58892459834873E-02 
2052	 5.43546142620001E-02 
2053	 5.06381047457144E-02 
2054	 4.58811286882741E-02 
2055	 4.93991679880968E-02 
2056	 5.01913898831707E-02 
2057	 4.97769948543857E-02 
2058	 5.15568623573302E-02 
2059	 5.48332427219345E-02 
2060	 5.45952420070721E-02 
2061	 5.39230550469243E-02 
2062	 5.44672828304426E-02 
2063	 5.26838781657923E-02 
2064	 5.34456357500907E-02 
2065	 5.25959176809682E-02 
2066	 4.91107742163785E-02 
2067	 4.59971875495107E-02 
2068	 0.047205542269104 
2069	 5.26031484449667E-02 
2070	 5.79748719927931E-02 
2071	 5.99540448472829E-02 
2072	 5.80969643051628E-02 
2073	 5.58295931291451E-02 
2074	 4.96709326088166E-02 
2075	 4.76938006020582E-02 
2076	 4.64829702125904E-02 
2077	 4.58599055448828E-02 
2078	 4.55829985607391E-02 
2079	 4.65737677875509E-02 
2080	 4.85102474772716E-02 
2081	 5.24689153650931E-02 
2082	 5.04182481277104E-02 
2083	 5.05856904499325E-02 
2084	 5.14069434333134E-02 
2085	 4.68866141160156E-02 
2086	 4.83240985316351E-02 
2087	 5.15946009360533E-02 
2088	 4.98624389335044E-02 
2089	 4.85644060819076E-02 
2090	 4.76063824790329E-02 
2091	 4.63999021845723E-02 
2092	 4.67737743128918E-02 
2093	 0.048655024010013 
2094	 5.00555528133953E-02 
2095	 5.33659441510631E-02 
2096	 5.39543947957331E-02 
2097	 5.47271302268281E-02 
2098	 5.38712359229924E-02 
2099	 5.05212657394248E-02 
2100	 4.63399646411556E-02 
2101	 4.65260971601485E-02 
2102	 4.46416529441059E-02 
2103	 4.22803482299356E-02 
2104	 4.21335719571985E-02 
2105	 4.21252215808248E-02 
2106	 0.041411692707767 
2107	 4.37910395840508E-02 
2108	 4.63928014865709E-02 
2109	 4.81281655076945E-02 
2110	 4.91040619238656E-02 
2111	 4.83346425292034E-02 
2112	 5.03035640301121E-02 
2113	 5.05596883604888E-02 
2114	 4.87316705569212E-02 
2115	 4.84959233265463E-02 
2116	 4.92042046392161E-02 
2117	 4.83178839638139E-02 
2118	 4.67857741236913E-02 
2119	 4.59507655336502E-02 
2120	 4.43400957166512E-02 
2121	 4.37566334460848E-02 
2122	 4.51057364583642E-02 
2123	 4.47948291303538E-02 
2124	 4.54921718171276E-02 
2125	 4.63871721204069E-02 
2126	 4.52968935005477E-02 
2127	 4.46328445335601E-02 
2128	 4.00055761773035E-02 
2129	 3.59019420074743E-02 
2130	 3.64228529622314E-02 
2131	 3.63534885712691E-02 
2132	 4.07514083516064E-02 
2133	 4.71772471463456E-02 
2134	 4.82291800773177E-02 
2135	 4.55166209938536E-02 
2136	 4.43263429695197E-02 
2137	 4.00669329334121E-02 
2138	 3.78290262721144E-02 
2139	 3.69578689205328E-02 
2140	 0.036992354507019 
2141	 3.70451017480557E-02 
2142	 3.83595597673938E-02 
2143	 4.23265274310668E-02 
2144	 4.44397481353359E-02 
2145	 4.42872761285766E-02 
2146	 4.36040385935647E-02 
2147	 4.09958893911049E-02 
2148	 3.90134152758868E-02 
2149	 3.96257270923756E-02 
2150	 4.02568292598324E-02 
2151	 4.31125232087884E-02 
2152	 4.63375442014097E-02 
2153	 4.79713681014088E-02 
2154	 4.98566069167248E-02 
2155	 0.049897643137101 
2156	 4.86768684248052E-02 
2157	 4.75988940132174E-02 
2158	 4.68507208305454E-02 
2159	 4.61167939696735E-02 
2160	 0.043430152770599 
2161	 4.19262020731535E-02 
2162	 4.25122194395885E-02 
2163	 4.15404952716227E-02 
2164	 3.91337355638606E-02 
2165	 3.85259050264159E-02 
2166	 3.91682109817944E-02 
2167	 3.77206008802489E-02 
2168	 3.62444751665042E-02 
2169	 3.48563627714805E-02 
2170	 3.13666779044414E-02 
2171	 0.029713258723745 
2172	 3.04677819233941E-02 
2173	 0.031925028734325 
2174	 3.61819313926612E-02 
2175	 0.036003820027015 
2176	 3.66974924967898E-02 
2177	 4.22215452779323E-02 
2178	 0.044775909355771 
2179	 0.046962242120913 
2180	 4.46065537112613E-02 
2181	 4.28590228558743E-02 
2182	 4.48057510269097E-02 
2183	 4.46050187686467E-02 
2184	 4.25376369478636E-02 
2185	 3.65997873606112E-02 
2186	 3.31397024406354E-02 
2187	 2.43040018970443E-02 
2188	 2.28923423963627E-02 
2189	 2.83566153140245E-02 
2190	 3.24753099611565E-02 
2191	 4.26261045619756E-02 
2192	 4.60386764437293E-02 
2193	 4.48368038507025E-02 
2194	 0.046319048128956 
2195	 4.54600137166995E-02 
2196	 4.29521889817623E-02 
2197	 0.041793236352099 
2198	 4.11323561724728E-02 
2199	 3.49252216710022E-02 
2200	 3.65275173849355E-02 
2201	 0.041453131352998 
2202	 4.30502263515788E-02 
2203	 4.78033498871695E-02 
2204	 4.33740931197283E-02 
2205	 4.18365570951084E-02 
2206	 4.62306224772393E-02 
2207	 4.07671847156393E-02 
2208	 4.20380273873888E-02 
2209	 4.71013923817394E-02 
2210	 4.24412289796074E-02 
2211	 0.043374648068415 
2212	 4.20692502332836E-02 
2213	 3.17585606977553E-02 
2214	 2.39473008218207E-02 
2215	 2.49103008080765E-02 
2216	 2.97041073871581E-02 
2217	 2.83812320909232E-02 
2218	 2.98730812356546E-02 
2219	 2.95497169086094E-02 
2220	 1.63579542130118E-02 
2221	 1.82054260109923E-02 
2222	 3.24144668235402E-02 
2223	 3.87270511371435E-02 
2224	 4.88438566859164E-02 
2225	 5.65097686577601E-02 
2226	 6.03283763288737E-02 
2227	 6.16287786327104E-02 
2228	 6.18728799998127E-02 
2229	 6.24728122917164E-02 
2230	 5.96471014210029E-02 
2231	 5.81537455005612E-02 
2232	 5.93737538656411E-02 
2233	 5.81640263545094E-02 
2234	 5.41092061746846E-02 
2235	 0.051249422299506 
2236	 4.88639033208695E-02 
2237	 4.37274914325707E-02 
2238	 0.035670080421119 
2239	 2.88773944620363E-02 
2240	 2.37193236215823E-02 
2241	 0.019397884680982 
2242	 0.019777584043006 
2243	 1.89396571657752E-02 
2244	 1.97855991428532E-02 
2245	 2.37239181644567E-02 
2246	 2.86737652318392E-02 
2247	 3.17609549779064E-02 
2248	 3.25844762501026E-02 
2249	 3.29798734293983E-02 
2250	 3.10273429053283E-02 
2251	 3.57617457256322E-02 
2252	 4.33124416257416E-02 
2253	 0.048215194840871 
2254	 4.94735690715352E-02 
2255	 4.75077328549068E-02 
2256	 4.42942964352355E-02 
2257	 4.19222275953346E-02 
2258	 0.038522474671639 
2259	 3.29859488593373E-02 
2260	 3.14999372113573E-02 
2261	 2.76184453372586E-02 
2262	 2.71433837376008E-02 
2263	 3.32154574732372E-02 
2264	 0.0370790605097 
2265	 4.31392295974996E-02 
2266	 4.47283445870774E-02 
2267	 4.64738337203206E-02 
2268	 0.046346380659056 
2269	 0.038795137870706 
2270	 0.034427216336915 
2271	 2.85482428894711E-02 
2272	 2.77333771836937E-02 
2273	 3.04675399929738E-02 
2274	 3.38033197887019E-02 
2275	 4.57993302630439E-02 
2276	 4.76156809707422E-02 
2277	 4.22154951866087E-02 
2278	 4.00657001248455E-02 
2279	 3.30560118238235E-02 
2280	 2.88865151031859E-02 
2281	 2.53878705388646E-02 
2282	 2.95947051296875E-02 
2283	 3.24442269273833E-02 
2284	 0.037835019145873 
2285	 4.47161700521481E-02 
2286	 4.59499155941566E-02 
2287	 3.63253594610102E-02 
2288	 2.73881448421543E-02 
2289	 2.95873740910131E-02 
2290	 2.67052006882449E-02 
2291	 2.43695976536438E-02 
2292	 3.13165282818434E-02 
2293	 3.15274896584136E-02 
2294	 2.54985103286292E-02 
2295	 1.55541471886305E-02 
2296	 7.55917025157486E-03 
2297	 1.26263295952993E-02 
2298	 2.66491186696874E-02 
2299	 4.88497434430659E-02 
2300	 6.01706227448943E-02 
2301	 0.05926239993326 
2302	 5.52651843423682E-02 
2303	 4.68738877380281E-02 
2304	 5.26241426812742E-02 
2305	 0.063456679610031 
2306	 6.11739943802457E-02 
2307	 5.70707676115573E-02 
2308	 5.16057415312189E-02 
2309	 3.53254533434389E-02 
2310	 0.021452039087309 
2311	 2.34550875501215E-02 
2312	 0.031428686851803 
2313	 3.56559198703461E-02 
2314	 4.62646312273274E-02 
2315	 4.71763638048673E-02 
2316	 3.80387493417157E-02 
2317	 0.053251713277728 
2318	 6.45772265612323E-02 
2319	 5.49096875538799E-02 
2320	 0.045727987123479 
2321	 3.04851990369924E-02 
2322	 1.73950164995404E-02 
2323	 2.06720837581609E-02 
2324	 4.03147254381361E-02 
2325	 5.02009888335306E-02 
2326	 4.61015993805982E-02 
2327	 4.53944419509285E-02 
2328	 3.42636380186053E-02 
2329	 2.04440894394789E-02 
2330	 1.68529216058069E-02 
2331	 2.42782132785019E-02 
2332	 4.37020116604523E-02 
2333	 0.050681808961245 
2334	 4.66872624964712E-02 
2335	 4.54733282707357E-02 
2336	 3.03980870226533E-02 
2337	 2.09717487162906E-02 
2338	 2.67055984925563E-02 
2339	 2.28918898516311E-02 
2340	 2.19706161330577E-02 
2341	 3.00685504916806E-02 
2342	 4.02739146181435E-02 
2343	 4.96168022892007E-02 
2344	 5.16589551087274E-02 
2345	 4.67993913863967E-02 
2346	 5.54670051498492E-02 
2347	 2.34019929910287E-02 
2348	-2.85739849594255E-02 
2349	-3.73140179252286E-02 
2350	-7.67920760691401E-02 
2351	-8.38942869696842E-02 
2352	-4.31374305735139E-02 
2353	-3.65028139135004E-02 
2354	-3.93300571777524E-03 
2355	 5.68231437360796E-02 
2356	 7.14907413010089E-02 
2357	 6.57898785803789E-02 
2358	 4.85083935398042E-02 
2359	-6.10354568827223E-03 
2360	-5.02366295337297E-02 
2361	-6.47132157643985E-02 
2362	-2.42980692414841E-02 
2363	 1.34014242258141E-03 
2364	-8.55438641523933E-04 
2365	-1.58893591486756E-02 
2366	-0.084422640889704 
2367	-0.11137948813877 
2368	-0.100697063491049 
2369	-0.110780506429267 
2370	-0.131642983974604 
2371	-0.145881169087557 
2372	-0.164918398087078 
2373	-0.169887144534473 
2374	-0.137218923169674 
2375	-0.162876227386961 
2376	-0.208189874477923 
2377	-8.11111836043117E-02 
2378	 4.45493450730142E-02 
2379	 0.114403291713604 
2380	 0.205093960671645 
2381	 0.166922620407473 
2382	 0.155692961092106 
2383	-1.01391128923829E-03 
2384	-0.385666784245444 
2385	-0.391521100816001 
2386	-0.386342975114428 
2387	-0.374816051462407 
2388	-6.41468942862699E-02 
2389	-7.85767114387348E-02 
2390	-0.191614627193113 
2391	-0.239612810400632 
2392	-0.347971020596931 
2393	-5.21300080015644E-02 
2394	 0.363445383676454 
2395	 0.443697177418365 
2396	 0.436406708238739 
2397	 0.38979449421619 
2398	 0.387777165320747 
2399	 0.432252836189919 
2400	 0.406371611557699 
2401	 0.162570721423587 
2402	-0.137947523493593 
2403	-0.37778807481147 
2404	-0.633139612796742 
2405	-0.570684480988907 
2406	-0.194317360543218 
2407	 0.120913332291053 
2408	 0.886061463015394 
2409	 2.49255219784326 
2410	 0.618711931144916 
2411	 4.41093112196188E-02 
2412	 0.176772317283809 
2413	 0.416107861696659 
2414	 0.638951468419194 
2415	 0.728644888573251 
2416	 0.92931879169583 
2417	 1.31606235269009 
2418	 0.561131853589588 
2419	 0.960931131556716 
2420	 0.479220779630256 
2421	-0.226786019915657 
2422	-3.24955587478009 
2423	-0.494009838648948 
2424	-0.311304282985665 
2425	-0.740598955924077 
2426	-0.157082520399384 
2427	-2.07634385955355E-02 
2428	 0.164790700801071 
2429	 0.775483787637535 
2430	 2.2085098510015 
2431	-1.08721021829279 
2432	-0.611960304226298 
2433	-0.996848219049594 
2434	-1.30175547916935 
2435	-2.32717821369956 
2436	-17.1418129021473 
2437	 2.97563571941485 
2438	 1.60082813237095 
2439	 1.10444075152606 
2440	 1.07568517517983 
2441	 1.71511070410495 
2442	-13.7309231892834 
2443	-0.421591895301547 
2444	 0.246537421460657 
2445	 1.23647001949937 
2446	 1.0558959592852 
2447	 1.04216333983213 
2448	 0.949496576116177 
2449	 0.778311632464566 
2450	 0.991016750380008 
2451	 1.56510236034548 
2452	 1.63059018453734 
2453	 2.54446712812585 
2454	 3.10895976972028 
2455	 1.18295710927139 
2456	-1.03621953735752 
2457	-0.69911239545867 
2458	-0.35152515531118 
2459	-0.100963457482317 
2460	 0.426357322956182 
2461	-2.78775232950551E-02 
2462	-0.869830355801515 
2463	-1.37314837255533 
2464	-0.51714709683437 
2465	 0.197243162934634 
2466	 4.36404046125808 
2467	 1.86661212579923 
2468	 2.36012026081331 
2469	 1.04682721842444 
2470	 1.41832383598158 
2471	 1.60580375430907 
2472	 1.46406130046139 
2473	 1.53221458585581 
2474	 1.60541487882248 
2475	 1.34622784443254 
2476	 1.02681591342844 
2477	 0.676448449781125 
2478	 0.58758694593043 
2479	 0.934029818009994 
2480	 1.12062855404821 
2481	 1.16842495692018 
2482	 2.81903702549951 
2483	 2.62965949679313 
2484	 0.989415699076672 
2485	 1.87719056553513 
2486	 2.00853979605535 
2487	-2.01120218760791 
2488	 16.291924429401 
2489	 6.30669909068647 
2490	 3.66157886379753 
2491	-1.17643736420487 
2492	 4.55723169292243 
2493	 1.39336576376811 
2494	 0.634223484961371 
2495	-1.04312795212073 
2496	-3.64098618755075 
2497	 0.676130769451637 
2498	 0.375040295092209 
2499	 0.408577931414741 
2500	-0.144671005816548 
