Wavelength	rt0801far100006.asd
350	 7.98261504044561E-02 
351	 7.97620621315648E-02 
352	 8.05824358548068E-02 
353	 8.05974684586405E-02 
354	 7.93414925720449E-02 
355	 0.079482860255545 
356	 8.04689387693962E-02 
357	 8.14325746799857E-02 
358	 8.16208269319378E-02 
359	 8.14557029606489E-02 
360	 0.080644070495615 
361	 8.01372953850885E-02 
362	 8.13528005554812E-02 
363	 8.15387417425214E-02 
364	 0.081325908371757 
365	 8.13454337647233E-02 
366	 8.15568237329946E-02 
367	 8.16029783828471E-02 
368	 8.13946469315198E-02 
369	 8.11758451159832E-02 
370	 8.21244146650581E-02 
371	 8.22994857606104E-02 
372	 8.20310963707764E-02 
373	 8.27456547773532E-02 
374	 8.25350918380167E-02 
375	 8.23692633550645E-02 
376	 0.082751093765528 
377	 8.31342759730707E-02 
378	 8.34357899999773E-02 
379	 8.37657761073348E-02 
380	 8.41546555001762E-02 
381	 8.42079290382064E-02 
382	 8.40211015738806E-02 
383	 8.42526804972544E-02 
384	 8.54570220698421E-02 
385	 8.56962883522581E-02 
386	 8.55649056644118E-02 
387	 8.56219304263913E-02 
388	 8.60980952648578E-02 
389	 0.086815528501501 
390	 0.086814550922155 
391	 8.60603574569123E-02 
392	 8.70233143490687E-02 
393	 8.79020967202663E-02 
394	 8.81590075672286E-02 
395	 0.087985750016752 
396	 8.85049170214133E-02 
397	 8.88933603808457E-02 
398	 8.88844260338158E-02 
399	 8.88066656818355E-02 
400	 8.91571021834723E-02 
401	 8.95326709649739E-02 
402	 8.96113423416074E-02 
403	 0.089500189061995 
404	 8.97840395097259E-02 
405	 9.03137000673344E-02 
406	 9.06458561068414E-02 
407	 9.04462974187841E-02 
408	 9.06520206020824E-02 
409	 9.13033336452054E-02 
410	 9.15256615472505E-02 
411	 0.091509291841298 
412	 9.16360374253995E-02 
413	 9.20324117604297E-02 
414	 9.21068290944176E-02 
415	 9.24081421026636E-02 
416	 9.28631675058355E-02 
417	 9.31726432698475E-02 
418	 9.33188853145055E-02 
419	 0.093640798897833 
420	 9.40741356323143E-02 
421	 9.41216691127369E-02 
422	 9.42957762702782E-02 
423	 9.46010930801205E-02 
424	 9.49708478646264E-02 
425	 9.54815739855807E-02 
426	 9.58339747038976E-02 
427	 9.61080772647711E-02 
428	 9.65508838538554E-02 
429	 9.71407572916568E-02 
430	 9.75373187546201E-02 
431	 0.097807438446661 
432	 9.85115384084396E-02 
433	 9.88819722325077E-02 
434	 9.92046886793381E-02 
435	 9.97452530496463E-02 
436	 9.99581516318855E-02 
437	 0.100371929531206 
438	 0.100978544387879 
439	 0.101482293803525 
440	 0.101936032111783 
441	 0.102375414826165 
442	 0.102812376316151 
443	 0.103223727649545 
444	 0.103556390098298 
445	 0.103881324326222 
446	 0.104268885234468 
447	 0.104656032012224 
448	 0.10499771404825 
449	 0.105270496792569 
450	 0.105470733560093 
451	 0.105579378398842 
452	 0.105719545985668 
453	 0.105965332388167 
454	 0.106256026658372 
455	 0.106603300893226 
456	 0.10685267411672 
457	 0.106881945441842 
458	 0.107048089954923 
459	 0.107152342832918 
460	 0.107225849554626 
461	 0.107532155707219 
462	 0.107578134049955 
463	 0.107589147447967 
464	 0.107772279088738 
465	 0.10786700721053 
466	 0.108030314845445 
467	 0.108198234195007 
468	 0.108254774228648 
469	 0.10853719094943 
470	 0.108800297624122 
471	 0.108901136953311 
472	 0.108903259903535 
473	 0.109148391139959 
474	 0.109432711472682 
475	 0.109552730534872 
476	 0.109893072190632 
477	 0.110077143015696 
478	 0.1101418628214 
479	 0.110389828661081 
480	 0.110625327133933 
481	 0.110887108711828 
482	 0.111162596761491 
483	 0.11123842492395 
484	 0.111733054065587 
485	 0.112360498543412 
486	 0.11262666698293 
487	 0.112929825971824 
488	 0.113377232675711 
489	 0.113843685870798 
490	 0.114028858544 
491	 0.114476204006059 
492	 0.115008061367147 
493	 0.115427081522792 
494	 0.115898206006043 
495	 0.116327078807493 
496	 0.116749719096427 
497	 0.117256136890767 
498	 0.117792688046616 
499	 0.118262773890906 
500	 0.118715710385797 
501	 0.119430141336063 
502	 0.120111338240254 
503	 0.120679385037769 
504	 0.121190319225777 
505	 0.121973379712806 
506	 0.122574878856431 
507	 0.122994139161619 
508	 0.123588888740124 
509	 0.124239916930736 
510	 0.124832253541905 
511	 0.125355326869904 
512	 0.126052239002739 
513	 0.126771946141836 
514	 0.127437926596747 
515	 0.128033590850636 
516	 0.128772909139769 
517	 0.129582241530746 
518	 0.130395423705237 
519	 0.131196197879838 
520	 0.131926126151772 
521	 0.132645597618119 
522	 0.133419876102902 
523	 0.134199395057134 
524	 0.135114553186043 
525	 0.136066224393674 
526	 0.136818665295811 
527	 0.137511566423851 
528	 0.138270351911913 
529	 0.1391463508254 
530	 0.14006780736769 
531	 0.141020206196233 
532	 0.141879116568888 
533	 0.142558342692974 
534	 0.143413905463353 
535	 0.144386199323608 
536	 0.145351054703325 
537	 0.146145129585796 
538	 0.146990378283366 
539	 0.147930742145791 
540	 0.1489368689546 
541	 0.149916722043685 
542	 0.150829966164231 
543	 0.15167631466107 
544	 0.15249508271014 
545	 0.153385715114355 
546	 0.15430583927204 
547	 0.155224714028897 
548	 0.156190754542988 
549	 0.156997907156242 
550	 0.157812240732975 
551	 0.158839523815368 
552	 0.159688391677063 
553	 0.160477641859818 
554	 0.161288934811145 
555	 0.162122325297806 
556	 0.162900313869384 
557	 0.163696483685521 
558	 0.164546175684918 
559	 0.165256017426814 
560	 0.165990802030184 
561	 0.166779611718544 
562	 0.167562030106987 
563	 0.168276357711376 
564	 0.168914870265669 
565	 0.169511947250088 
566	 0.170176226172606 
567	 0.170708874137083 
568	 0.171223991454857 
569	 0.171889930114092 
570	 0.172502504231811 
571	 0.172879262921237 
572	 0.173104501467861 
573	 0.17353155717839 
574	 0.17399620723112 
575	 0.174356449714108 
576	 0.174555553708996 
577	 0.174793154316233 
578	 0.175126501949678 
579	 0.175492111132389 
580	 0.175740251024893 
581	 0.175715073805023 
582	 0.175752542081928 
583	 0.175970085947133 
584	 0.175960252042793 
585	 0.176172853635481 
586	 0.176445342452449 
587	 0.176488729146522 
588	 0.176756861675099 
589	 0.176802922884731 
590	 0.176521448623462 
591	 0.176244450999187 
592	 0.176127721818991 
593	 0.175930298989174 
594	 0.175476069453574 
595	 0.175042151398423 
596	 0.174568325972271 
597	 0.173977428851343 
598	 0.173222244707858 
599	 0.172616943431989 
600	 0.172051309583774 
601	 0.171489829682928 
602	 0.171104206149718 
603	 0.170980433670959 
604	 0.170961456148538 
605	 0.170864993322455 
606	 0.170854508857036 
607	 0.170815034136163 
608	 0.170735282329273 
609	 0.170719898000091 
610	 0.170705500525833 
611	 0.170691666011424 
612	 0.170693434371159 
613	 0.170741985243072 
614	 0.170752477648698 
615	 0.170689422087009 
616	 0.170561276417848 
617	 0.170435764842166 
618	 0.170440538641789 
619	 0.170561151493258 
620	 0.170563940136488 
621	 0.170368434136318 
622	 0.17016297424772 
623	 0.170177093792473 
624	 0.170321861965931 
625	 0.170433804918452 
626	 0.170459534681818 
627	 0.170455430634514 
628	 0.170383031764964 
629	 0.170293249333088 
630	 0.170224965544495 
631	 0.17014240190494 
632	 0.17010842046042 
633	 0.170037350204456 
634	 0.169819595509517 
635	 0.16975420095127 
636	 0.169658398980504 
637	 0.16947609308649 
638	 0.169391620186726 
639	 0.169475164952487 
640	 0.169438982115687 
641	 0.169084677178124 
642	 0.169014690263987 
643	 0.168967272523084 
644	 0.168934493594587 
645	 0.16910309704584 
646	 0.169006557945392 
647	 0.168855487319871 
648	 0.168773173593575 
649	 0.168296493867601 
650	 0.168153131383927 
651	 0.16815777994687 
652	 0.16784295519335 
653	 0.167360695794887 
654	 0.167026136458255 
655	 0.166794427816479 
656	 0.166151430021022 
657	 0.165489693067591 
658	 0.164982139758895 
659	 0.164637294084162 
660	 0.164209530574294 
661	 0.163916799098819 
662	 0.163768761285111 
663	 0.163642283001455 
664	 0.163461289926365 
665	 0.163205961812018 
666	 0.162938671153607 
667	 0.162858468952498 
668	 0.162745359663248 
669	 0.162653081777156 
670	 0.162670358550276 
671	 0.16258599548909 
672	 0.162516006685166 
673	 0.162510123681788 
674	 0.16254565016871 
675	 0.162738845454011 
676	 0.162855429005381 
677	 0.162787778896308 
678	 0.162890439635204 
679	 0.163158213213049 
680	 0.163407679297055 
681	 0.163440382323785 
682	 0.163630600237594 
683	 0.163960837049936 
684	 0.164369554301459 
685	 0.164825941961453 
686	 0.165502125210485 
687	 0.165860157906986 
688	 0.165609460432803 
689	 0.165916591922932 
690	 0.166420934659685 
691	 0.166809108817477 
692	 0.16681802464926 
693	 0.166937228155478 
694	 0.166859385000263 
695	 0.166404622511945 
696	 0.165664068972301 
697	 0.165360503477617 
698	 0.165345843665044 
699	 0.165215851973828 
700	 0.164788237823295 
701	 0.164176784987383 
702	 0.163437457633161 
703	 0.162550542543275 
704	 0.161943660363559 
705	 0.161244012260084 
706	 0.160217637708604 
707	 0.15909240806029 
708	 0.158082831371126 
709	 0.156965616578632 
710	 0.15549111633092 
711	 0.154244727923111 
712	 0.152959199068003 
713	 0.151602463352654 
714	 0.150404432294849 
715	 0.149285095582442 
716	 0.148272569261138 
717	 0.147347461017525 
718	 0.145527546262448 
719	 0.142765842873246 
720	 0.140225982920922 
721	 0.138320251455696 
722	 0.137290259931994 
723	 0.135805810035698 
724	 0.133480932158586 
725	 0.131067708637075 
726	 0.128910392723031 
727	 0.126523659656731 
728	 0.123579674984668 
729	 0.120780625700007 
730	 0.117448509759696 
731	 0.114039221119937 
732	 0.11111012829242 
733	 0.108871667735501 
734	 0.107062799126464 
735	 0.105518102017396 
736	 0.104133732429838 
737	 0.103100993687632 
738	 0.102213404608483 
739	 0.10137086245528 
740	 0.101004764382192 
741	 0.100687798489215 
742	 0.100323480733343 
743	 0.100010418887262 
744	 9.99204480251558E-02 
745	 0.099867023499363 
746	 9.97709432910093E-02 
747	 9.97433207746275E-02 
748	 9.97591461838742E-02 
749	 9.97858346636788E-02 
750	 9.97509910831629E-02 
751	 9.94289043870448E-02 
752	 9.93708916788306E-02 
753	 9.95717431755125E-02 
754	 9.97196000322846E-02 
755	 9.98591545837311E-02 
756	 9.99454605674424E-02 
757	 9.99815963165517E-02 
758	 0.100053281287719 
759	 0.100889796991326 
760	 0.102080263834598 
761	 0.101941807592536 
762	 0.102022251923955 
763	 0.101829696194384 
764	 0.101497053493063 
765	 0.10126606487905 
766	 0.101037935048041 
767	 0.101025889041816 
768	 0.101209723402497 
769	 0.101357607999959 
770	 0.101352020043531 
771	 0.101546208974222 
772	 0.102068883803226 
773	 0.102187625214755 
774	 0.10230786318206 
775	 0.102572914518469 
776	 0.102967091278215 
777	 0.103201179680423 
778	 0.103578136310739 
779	 0.104078559051947 
780	 0.104345276640526 
781	 0.104699386544976 
782	 0.10504430927997 
783	 0.105408870738765 
784	 0.106329822967022 
785	 0.10686192137013 
786	 0.10716267780275 
787	 0.107713396143865 
788	 0.108281340785811 
789	 0.108833279374793 
790	 0.109386428111515 
791	 0.109965542573641 
792	 0.110073649561324 
793	 0.110292992370169 
794	 0.110923606014786 
795	 0.111566788809741 
796	 0.112100003815858 
797	 0.112559842733165 
798	 0.113017988156063 
799	 0.113318330059576 
800	 0.113706884594455 
801	 0.114023437202879 
802	 0.113990536877793 
803	 0.114229448678917 
804	 0.114512553051701 
805	 0.114640190816763 
806	 0.114539797570843 
807	 0.114350253656722 
808	 0.114344204276023 
809	 0.114549496361584 
810	 0.11423630686297 
811	 0.114147405081243 
812	 0.11437644644042 
813	 0.114670285876528 
814	 0.114682477915266 
815	 0.114192012686736 
816	 0.113282471242383 
817	 0.112289192748912 
818	 0.111297653377191 
819	 0.110087416671088 
820	 0.108774597515773 
821	 0.108037085126796 
822	 0.106744150999145 
823	 0.105003540275311 
824	 0.103253789105126 
825	 0.101485779664186 
826	 9.97176481145718E-02 
827	 9.76420808046828E-02 
828	 9.51298127547237E-02 
829	 9.28289942125164E-02 
830	 9.10362853715633E-02 
831	 8.94364953555346E-02 
832	 8.75049466969594E-02 
833	 8.62172898511399E-02 
834	 8.54185424359424E-02 
835	 8.46879881935422E-02 
836	 8.35209069674185E-02 
837	 8.26639693047476E-02 
838	 8.20608512007616E-02 
839	 8.16233934787767E-02 
840	 8.17577591874264E-02 
841	 8.11650026960004E-02 
842	 8.02136035858671E-02 
843	 7.97631212811583E-02 
844	 7.97363332808915E-02 
845	 7.95010843215274E-02 
846	 7.89950451328033E-02 
847	 7.85570384786945E-02 
848	 7.80967315555392E-02 
849	 7.79990562337229E-02 
850	 7.80871541672013E-02 
851	 7.74895855038003E-02 
852	 7.72933936812078E-02 
853	 0.07694030768607 
854	 7.62099060445367E-02 
855	 7.62860488301126E-02 
856	 7.60630387300521E-02 
857	 7.57200638671094E-02 
858	 7.55065323708999E-02 
859	 7.44758359901931E-02 
860	 7.45884804625287E-02 
861	 7.50524719926063E-02 
862	 7.41353786573427E-02 
863	 7.37786835715829E-02 
864	 0.073717588153087 
865	 7.35435550724103E-02 
866	 7.29498839829201E-02 
867	 7.27204274726257E-02 
868	 7.26151046692177E-02 
869	 0.072328390245783 
870	 7.16968147860273E-02 
871	 7.14092109471175E-02 
872	 7.14505314220833E-02 
873	 7.14023525921254E-02 
874	 7.02938241514646E-02 
875	 7.01338868192409E-02 
876	 7.01688949061293E-02 
877	 6.93993680939974E-02 
878	 6.93912954992654E-02 
879	 6.87668265693033E-02 
880	 6.78888741612958E-02 
881	 0.067811551616527 
882	 0.068365134625355 
883	 6.76965984679861E-02 
884	 6.62223601957944E-02 
885	 6.59429754640954E-02 
886	 6.59377578133105E-02 
887	 6.58866502140036E-02 
888	 6.55950287599569E-02 
889	 6.50190887339021E-02 
890	 6.49553106761981E-02 
891	 6.47228825580717E-02 
892	 6.43200985225112E-02 
893	 6.56411043793416E-02 
894	 0.06615810074312 
895	 6.56756694448583E-02 
896	 6.49489177198462E-02 
897	 6.50891594480615E-02 
898	 0.064396917881348 
899	 6.32591108572845E-02 
900	 6.27870481584019E-02 
901	 6.35131307767983E-02 
902	 6.35464389972556E-02 
903	 6.23074839957165E-02 
904	 6.04246624087922E-02 
905	 6.16135989054284E-02 
906	 6.26160888859063E-02 
907	 6.19762825950313E-02 
908	 6.02454246829797E-02 
909	 6.04149126299452E-02 
910	 6.16235410921599E-02 
911	 6.20947348031202E-02 
912	 6.01351713049353E-02 
913	 5.75837905811443E-02 
914	 5.71079739291896E-02 
915	 0.058761058215862 
916	 5.94691473439876E-02 
917	 5.62678148233383E-02 
918	 5.47593258426889E-02 
919	 5.59063746006914E-02 
920	 5.38744620678132E-02 
921	 5.44504194510573E-02 
922	 5.51708029336509E-02 
923	 5.39504045420366E-02 
924	 5.28274069980253E-02 
925	 5.30259130797829E-02 
926	 5.46276092835241E-02 
927	 5.66407983366904E-02 
928	 5.60087774535654E-02 
929	 0.053474975326329 
930	 5.30488084232712E-02 
931	 5.93023569682312E-02 
932	 5.61551071859589E-02 
933	 0.04655179135855 
934	 4.56756429363657E-02 
935	 5.99990022713739E-02 
936	 5.26489183540725E-02 
937	 4.86158315830667E-02 
938	 4.39347091015239E-02 
939	 3.29029039965792E-02 
940	 4.30893265157983E-02 
941	 4.35163474552124E-02 
942	 4.08884816092689E-02 
943	 0.054014071238554 
944	 4.95229083654285E-02 
945	 0.052352270091873 
946	 5.54128764373233E-02 
947	 3.91941441523884E-02 
948	 3.92110231080016E-02 
949	 4.64314951234648E-02 
950	 5.38802307673286E-02 
951	 5.79432159532744E-02 
952	 5.40907441888814E-02 
953	 5.35576045811697E-02 
954	 0.053625470840891 
955	 4.54853262139488E-02 
956	 4.68434876211158E-02 
957	 4.78594010262885E-02 
958	 4.81087641217362E-02 
959	 5.27580207977867E-02 
960	 5.19609499928635E-02 
961	 4.64719662509829E-02 
962	 4.30383242765761E-02 
963	 4.81436288328115E-02 
964	 5.05813707142248E-02 
965	 5.22225937427721E-02 
966	 5.02883623352018E-02 
967	 0.04127709683464 
968	 4.48668378275237E-02 
969	 4.66564732536394E-02 
970	 4.37758329437416E-02 
971	 0.044605214337117 
972	 4.63336889928356E-02 
973	 4.70952478386554E-02 
974	 4.58344370631439E-02 
975	 4.33206934127728E-02 
976	 4.81317734225826E-02 
977	 4.87896987361608E-02 
978	 4.51042008545934E-02 
979	 4.66299572757126E-02 
980	 4.76268360597501E-02 
981	 4.60645938511758E-02 
982	 0.043821058416072 
983	 4.43856627970542E-02 
984	 4.18506436938888E-02 
985	 4.41500241139676E-02 
986	 4.95767756256423E-02 
987	 4.94873605012461E-02 
988	 0.046385714085619 
989	 0.044162913579726 
990	 0.043506965736027 
991	 4.27852975175309E-02 
992	 4.39216312422311E-02 
993	 4.44896410011474E-02 
994	 4.43871418558892E-02 
995	 4.51086754024854E-02 
996	 4.59972432986863E-02 
997	 4.40635478002062E-02 
998	 4.24528672125414E-02 
999	 4.57626977119214E-02 
1000	 4.44359181712658E-02 
1001	 4.39536919455507E-02 
1002	 4.39566609544386E-02 
1003	 4.44300202552011E-02 
1004	 4.57466390805263E-02 
1005	 4.63895217540445E-02 
1006	 4.74880934409865E-02 
1007	 4.69594606774743E-02 
1008	 4.63670743789232E-02 
1009	 0.04620120192029 
1010	 4.58374577560708E-02 
1011	 4.56612465837654E-02 
1012	 0.044948100717072 
1013	 4.46523409203906E-02 
1014	 4.41132192016501E-02 
1015	 0.042832549585639 
1016	 4.26100555575499E-02 
1017	 4.31757781225911E-02 
1018	 4.31625358428354E-02 
1019	 4.35865137218733E-02 
1020	 4.37092754467412E-02 
1021	 4.32649594521816E-02 
1022	 4.29177307566647E-02 
1023	 4.34254139008141E-02 
1024	 4.42614398524025E-02 
1025	 4.48211984727365E-02 
1026	 4.50471320509203E-02 
1027	 4.48929205163954E-02 
1028	 4.35199119179801E-02 
1029	 4.36399713898458E-02 
1030	 4.43779267357903E-02 
1031	 4.48093516246411E-02 
1032	 4.59697852534754E-02 
1033	 4.64525036277416E-02 
1034	 4.63717513406647E-02 
1035	 4.64706163167703E-02 
1036	 4.70382078333678E-02 
1037	 4.67824569702019E-02 
1038	 4.57294530525636E-02 
1039	 0.044949495422893 
1040	 4.46704938599305E-02 
1041	 4.35136817237512E-02 
1042	 4.37266553729816E-02 
1043	 4.52701384205053E-02 
1044	 4.57117440153539E-02 
1045	 4.62299504869303E-02 
1046	 4.64642492707356E-02 
1047	 4.63191807317396E-02 
1048	 4.61310239338981E-02 
1049	 4.55538155798067E-02 
1050	 4.55080995076107E-02 
1051	 4.54770708095807E-02 
1052	 4.56007253245695E-02 
1053	 4.64274751486695E-02 
1054	 4.67589638555979E-02 
1055	 4.69048319294172E-02 
1056	 4.69173896699958E-02 
1057	 4.67772612353614E-02 
1058	 4.62911621229701E-02 
1059	 4.62266322761042E-02 
1060	 4.61465690348204E-02 
1061	 4.62160073416218E-02 
1062	 4.65578405518754E-02 
1063	 4.68124273265871E-02 
1064	 0.047228094786907 
1065	 4.73219603477934E-02 
1066	 4.74042286734568E-02 
1067	 4.73060015219532E-02 
1068	 4.68052090239974E-02 
1069	 4.64464909614044E-02 
1070	 4.62298590562773E-02 
1071	 4.57646504317411E-02 
1072	 4.46426233965212E-02 
1073	 4.41622711303476E-02 
1074	 4.43985588082748E-02 
1075	 4.49544533723964E-02 
1076	 4.55978823332601E-02 
1077	 0.047787887791963 
1078	 4.79344431816152E-02 
1079	 4.67117790340087E-02 
1080	 4.64043487418009E-02 
1081	 4.52741533118948E-02 
1082	 4.51342638540828E-02 
1083	 4.64571704737654E-02 
1084	 4.66651269064437E-02 
1085	 0.046354129073687 
1086	 4.64137315965742E-02 
1087	 4.62012990505689E-02 
1088	 4.60916854760116E-02 
1089	 4.60509718473104E-02 
1090	 4.64885337696405E-02 
1091	 4.70545554653442E-02 
1092	 4.78794702170977E-02 
1093	 4.79590231525694E-02 
1094	 4.83926424215412E-02 
1095	 4.79639669344079E-02 
1096	 4.55431527795121E-02 
1097	 4.52075283837756E-02 
1098	 4.59462119596637E-02 
1099	 4.62472002887473E-02 
1100	 4.77015366835525E-02 
1101	 0.048352156588352 
1102	 4.85294850501587E-02 
1103	 4.83117577803844E-02 
1104	 4.72286345160551E-02 
1105	 4.65252435867408E-02 
1106	 4.71558161115625E-02 
1107	 4.72112962530074E-02 
1108	 4.85131280819654E-02 
1109	 4.98334744925122E-02 
1110	 4.96007777092753E-02 
1111	 4.63763937379575E-02 
1112	 4.65230317173868E-02 
1113	 4.81689119294286E-02 
1114	 4.86493208640519E-02 
1115	 5.11346667376376E-02 
1116	 5.21140872486262E-02 
1117	 4.97486500883889E-02 
1118	 4.89447534714671E-02 
1119	 5.07604509933588E-02 
1120	 5.14349520676985E-02 
1121	 0.051355963282935 
1122	 4.28595481842131E-02 
1123	 0.045152789819341 
1124	 5.52722057850872E-02 
1125	 6.22677421768856E-02 
1126	 6.34186677051491E-02 
1127	 0.043180838163401 
1128	 3.69260295580632E-02 
1129	 0.043534595573447 
1130	 6.04513158705284E-02 
1131	 6.30020399888786E-02 
1132	 0.068872353966836 
1133	 6.74163775199696E-02 
1134	 5.77903429476623E-02 
1135	 5.54590602953663E-02 
1136	 5.48716927769179E-02 
1137	 5.65073241266097E-02 
1138	 6.30055585980331E-02 
1139	 5.88552818224221E-02 
1140	 4.97304158710173E-02 
1141	 5.03542374795462E-02 
1142	 5.28957381707372E-02 
1143	 4.87449833421347E-02 
1144	 4.48026458776396E-02 
1145	 4.67984433714943E-02 
1146	 4.28887720463366E-02 
1147	 3.53453981691608E-02 
1148	 4.41979149334203E-02 
1149	 0.054556039094002 
1150	 5.45914685839379E-02 
1151	 4.95410060797729E-02 
1152	 4.99847138888455E-02 
1153	 4.74008030127223E-02 
1154	 4.58134234022899E-02 
1155	 0.046817095413196 
1156	 4.71804603755613E-02 
1157	 4.59030938052749E-02 
1158	 4.59332477851701E-02 
1159	 4.47075223225641E-02 
1160	 4.53677759606419E-02 
1161	 4.76926128977326E-02 
1162	 4.77823525351913E-02 
1163	 4.74854899111535E-02 
1164	 4.69676406169589E-02 
1165	 4.61229093718922E-02 
1166	 4.58821389864556E-02 
1167	 4.56222303543921E-02 
1168	 4.60594952477987E-02 
1169	 4.63130463896347E-02 
1170	 0.045087334898831 
1171	 0.044711239297067 
1172	 4.53437821173826E-02 
1173	 4.51713826199688E-02 
1174	 4.42854311131294E-02 
1175	 4.45574870555869E-02 
1176	 4.52256758955312E-02 
1177	 4.48598216897081E-02 
1178	 4.50182432545475E-02 
1179	 4.49217707306174E-02 
1180	 4.35196539626956E-02 
1181	 4.27754352979581E-02 
1182	 4.33416780610686E-02 
1183	 4.39663765742414E-02 
1184	 4.44595465160725E-02 
1185	 4.45003116606161E-02 
1186	 4.40576581171136E-02 
1187	 4.41592674280271E-02 
1188	 4.47065193269673E-02 
1189	 4.51999974744373E-02 
1190	 4.56913400735283E-02 
1191	 4.56622173400624E-02 
1192	 4.56154573757428E-02 
1193	 4.52409756275578E-02 
1194	 4.54306844943035E-02 
1195	 4.51042613226486E-02 
1196	 4.45177801063374E-02 
1197	 0.04433799818601 
1198	 4.43783366860953E-02 
1199	 4.44216521226223E-02 
1200	 4.43633741592993E-02 
1201	 4.40187333296957E-02 
1202	 4.36375662465963E-02 
1203	 4.38246581001437E-02 
1204	 0.043722017539771 
1205	 4.36160262010887E-02 
1206	 4.36130680481392E-02 
1207	 4.34560403264065E-02 
1208	 4.40430624944328E-02 
1209	 0.04477421980906 
1210	 4.49543043565179E-02 
1211	 4.45765217841532E-02 
1212	 4.43402859988561E-02 
1213	 4.44392731436163E-02 
1214	 4.42448895661546E-02 
1215	 4.39091377695021E-02 
1216	 4.40588460831732E-02 
1217	 4.42598970610464E-02 
1218	 4.37830080989588E-02 
1219	 0.043982085453094 
1220	 4.43010324717871E-02 
1221	 0.043743691958701 
1222	 0.043831210968195 
1223	 4.44451126288039E-02 
1224	 4.45878250649474E-02 
1225	 4.44676763676479E-02 
1226	 4.43121356262471E-02 
1227	 4.44458707657348E-02 
1228	 0.044463564638792 
1229	 4.41750184607249E-02 
1230	 4.43572017499652E-02 
1231	 4.44111499397838E-02 
1232	 4.39305612440827E-02 
1233	 4.42149813938354E-02 
1234	 4.50831842078702E-02 
1235	 4.52201104065747E-02 
1236	 4.44636128717546E-02 
1237	 4.44227776094452E-02 
1238	 4.47124505164681E-02 
1239	 4.43881188016296E-02 
1240	 4.39224960095849E-02 
1241	 4.42987422423414E-02 
1242	 4.46400101285204E-02 
1243	 0.044499814431472 
1244	 4.42200326451345E-02 
1245	 4.42616308409402E-02 
1246	 4.42449683671409E-02 
1247	 4.38826677096646E-02 
1248	 4.43041095842171E-02 
1249	 4.47495935325412E-02 
1250	 4.42197450761469E-02 
1251	 4.39630795020197E-02 
1252	 0.04367040565721 
1253	 4.33779422337876E-02 
1254	 4.38059831541111E-02 
1255	 4.38327752813647E-02 
1256	 4.39295024381681E-02 
1257	 4.43664905309739E-02 
1258	 0.044546873281712 
1259	 4.45751343978638E-02 
1260	 4.44888063579737E-02 
1261	 4.39352807743314E-02 
1262	 4.39382916470159E-02 
1263	 4.41388133737478E-02 
1264	 4.41716682716236E-02 
1265	 4.40137724115558E-02 
1266	 4.45187706529103E-02 
1267	 4.45989836890064E-02 
1268	 4.39262474681062E-02 
1269	 4.42008741477541E-02 
1270	 4.48064856552954E-02 
1271	 0.044462360981217 
1272	 4.42688773685656E-02 
1273	 4.42710954726306E-02 
1274	 4.41515985592897E-02 
1275	 4.43565535923391E-02 
1276	 4.43627800139011E-02 
1277	 4.41545868119699E-02 
1278	 4.41397955944372E-02 
1279	 4.36002364865579E-02 
1280	 4.28811416319182E-02 
1281	 4.27938069915275E-02 
1282	 4.33169627980785E-02 
1283	 4.31975450747915E-02 
1284	 4.28398457589514E-02 
1285	 4.32719076755245E-02 
1286	 4.42673275117226E-02 
1287	 4.42496924998586E-02 
1288	 4.40915127961286E-02 
1289	 4.42657062892481E-02 
1290	 4.40144264764389E-02 
1291	 4.33401288954575E-02 
1292	 4.35928473714078E-02 
1293	 4.40883172551881E-02 
1294	 4.37686912574661E-02 
1295	 0.043449616156904 
1296	 4.34963181990862E-02 
1297	 4.28752854100362E-02 
1298	 4.27981931139715E-02 
1299	 4.39042570514843E-02 
1300	 4.37370851378822E-02 
1301	 4.33090016599298E-02 
1302	 4.38406324270819E-02 
1303	 4.36953246139229E-02 
1304	 4.31734699476498E-02 
1305	 4.35936517636761E-02 
1306	 4.42965163461289E-02 
1307	 4.47050244393933E-02 
1308	 4.48397661118625E-02 
1309	 4.62123741075026E-02 
1310	 4.65602813004422E-02 
1311	 4.51051300988766E-02 
1312	 4.46867895264244E-02 
1313	 4.50899374074687E-02 
1314	 4.49885818908506E-02 
1315	 4.36238096166502E-02 
1316	 4.40541169074531E-02 
1317	 4.68962252205155E-02 
1318	 4.74057242237641E-02 
1319	 0.047091689381253 
1320	 4.76602822473093E-02 
1321	 4.74216538954048E-02 
1322	 4.68017265049921E-02 
1323	 4.48507628624049E-02 
1324	 4.40882367232556E-02 
1325	 4.53205296477156E-02 
1326	 4.47587462302239E-02 
1327	 4.55545367901897E-02 
1328	 4.85084114664763E-02 
1329	 4.79756100812506E-02 
1330	 4.47124692589649E-02 
1331	 4.24148389586252E-02 
1332	 4.41457008176588E-02 
1333	 4.53302093352691E-02 
1334	 4.07335259021572E-02 
1335	 4.06001821868332E-02 
1336	 4.43177674966106E-02 
1337	 4.57368051144636E-02 
1338	 4.70226170330951E-02 
1339	 4.79688756006956E-02 
1340	 4.75811909815799E-02 
1341	 4.82485752555819E-02 
1342	 4.98005370227039E-02 
1343	 5.06109741946958E-02 
1344	 5.26918118767214E-02 
1345	 5.31550423373962E-02 
1346	 4.90911246691188E-02 
1347	 5.00251346568974E-02 
1348	 5.48007572048678E-02 
1349	 5.76874542673103E-02 
1350	 7.13879462643161E-02 
1351	 7.06347365711373E-02 
1352	 2.72701525906235E-02 
1353	 1.28785117220296E-02 
1354	-1.26391904089925E-02 
1355	-1.05639142993533E-04 
1356	 0.218874040435368 
1357	 0.398626221823384 
1358	 0.18380970243463 
1359	 8.37163680872997E-02 
1360	 0.285860196932258 
1361	 7.88886885541489E-02 
1362	-0.226186151303595 
1363	-0.200039396299872 
1364	-0.125915347581856 
1365	-4.03199847038618E-02 
1366	 0.246758440930016 
1367	 0.467358883789795 
1368	 0.425185862289089 
1369	-1.46421406892652E-02 
1370	-0.158644298447156 
1371	-0.430787943579432 
1372	-0.711847470028289 
1373	-0.745114879745087 
1374	-0.40568587956813 
1375	-4.47713953584226E-02 
1376	-4.33133859285547E-02 
1377	-0.128792726349991 
1378	-3.27982101061147E-02 
1379	-0.123474709702497 
1380	 0.119746068992432 
1381	 2.1827435503383 
1382	 2.19920210857213 
1383	 1.3264164262502 
1384	 1.21994320902285 
1385	 0.445250630079491 
1386	 0.251212189320487 
1387	 0.429606735596895 
1388	 0.467293228176214 
1389	 0.304304571658009 
1390	 0.159492230918263 
1391	 0.091019104655255 
1392	-6.34997114024371E-02 
1393	-0.372996160345139 
1394	-3.27478493157673E-02 
1395	 0.898025833652319 
1396	 1.50002601704422 
1397	 5.15106527743764 
1398	 0.454476055031847 
1399	-0.652686175918145 
1400	-6.93883018541519 
1401	 1.01115786704175 
1402	 1.27506698434732 
1403	 1.21651469504831 
1404	-11.4000767323175 
1405	-6.5651876952153 
1406	 4.91708801820327 
1407	 0.996067017941133 
1408	-0.111284389055756 
1409	-0.148491007941586 
1410	-0.553042750221233 
1411	-0.377155584814596 
1412	-0.573738021350589 
1413	-0.866565131156217 
1414	 0.473941574822904 
1415	 0.4180390614533 
1416	 0.503905089375272 
1417	 0.424289166223016 
1418	 0.272914266292466 
1419	 0.258494836430091 
1420	 0.207454000584256 
1421	 0.211303581370041 
1422	 0.401592212988884 
1423	 0.395142779400853 
1424	 0.305026013049175 
1425	 0.236271949970399 
1426	 0.169685072302074 
1427	 0.115537694656415 
1428	 1.53072066784803E-03 
1429	-0.025534879192092 
1430	 2.43092271950721E-02 
1431	 0.033045872261318 
1432	 2.61024602557772E-02 
1433	 4.02496318430686E-02 
1434	 5.59937038448266E-02 
1435	 7.85719928093131E-02 
1436	 0.140135963629931 
1437	 0.141619925591542 
1438	 0.206875384571273 
1439	 0.256086905678494 
1440	 0.202889448491868 
1441	 0.16992433259777 
1442	 0.172363374994733 
1443	 0.130050011864402 
1444	 5.94209075770332E-02 
1445	 4.98774267322877E-02 
1446	 6.53089852540784E-02 
1447	 5.67138598664134E-02 
1448	 6.51066361157011E-02 
1449	 7.26068646892441E-02 
1450	 5.26080712692548E-02 
1451	 1.74184660190487E-02 
1452	 1.52250685720214E-02 
1453	 3.58849121836467E-02 
1454	 3.88514545797496E-02 
1455	 4.33439691031151E-02 
1456	 4.57787370272744E-02 
1457	 4.34429966976218E-02 
1458	 4.26692134123337E-02 
1459	 4.21715673587761E-02 
1460	 0.04614506196971 
1461	 4.96759642188419E-02 
1462	 0.054752238277209 
1463	 7.04405320606009E-02 
1464	 7.33285443799754E-02 
1465	 7.00293060134277E-02 
1466	 6.38121211245263E-02 
1467	 0.042362710211328 
1468	 0.040789027311774 
1469	 5.25917022360086E-02 
1470	 5.05695016508753E-02 
1471	 4.90966731767767E-02 
1472	 5.36712416533357E-02 
1473	 5.15545846917083E-02 
1474	 4.86248152941379E-02 
1475	 0.057269015614175 
1476	 5.78380370384719E-02 
1477	 4.82728418888862E-02 
1478	 4.51608397532639E-02 
1479	 0.041760970881805 
1480	 4.43086621024333E-02 
1481	 5.21412447894039E-02 
1482	 5.21772343126451E-02 
1483	 5.49864011071305E-02 
1484	 5.37278192070624E-02 
1485	 4.34934669596024E-02 
1486	 4.12944142499648E-02 
1487	 4.34074931551903E-02 
1488	 4.37445658683027E-02 
1489	 0.044523720634002 
1490	 4.56997462193137E-02 
1491	 4.80862957338977E-02 
1492	 4.70417164357901E-02 
1493	 4.37847659723906E-02 
1494	 4.36726878351673E-02 
1495	 4.40896996588418E-02 
1496	 4.30880736834975E-02 
1497	 0.042342359045159 
1498	 4.29631634310272E-02 
1499	 4.35264029351974E-02 
1500	 4.29502285621829E-02 
1501	 4.22408804669498E-02 
1502	 4.30423409784521E-02 
1503	 4.44584601396645E-02 
1504	 4.42687710567673E-02 
1505	 4.47708795277474E-02 
1506	 4.47973457651448E-02 
1507	 4.41749294020108E-02 
1508	 4.29053726197754E-02 
1509	 4.21545449993224E-02 
1510	 4.31705070566343E-02 
1511	 0.044127655386998 
1512	 0.043649017017494 
1513	 4.30277346706513E-02 
1514	 4.27789702763603E-02 
1515	 4.24780243929992E-02 
1516	 4.21144294229443E-02 
1517	 4.29825435941584E-02 
1518	 4.42117978480728E-02 
1519	 4.40888337126407E-02 
1520	 4.38579257605856E-02 
1521	 4.40404952219766E-02 
1522	 4.36898799819849E-02 
1523	 4.33690385526634E-02 
1524	 4.33657539400483E-02 
1525	 4.27238460356641E-02 
1526	 4.26880879667494E-02 
1527	 4.36539401309342E-02 
1528	 4.36129098438152E-02 
1529	 0.042936552518204 
1530	 4.32736144922383E-02 
1531	 4.39026832446095E-02 
1532	 4.33756712135046E-02 
1533	 4.31604329226142E-02 
1534	 4.39079969009674E-02 
1535	 4.33749226748695E-02 
1536	 4.28425844773672E-02 
1537	 4.38838302398429E-02 
1538	 4.40181652760952E-02 
1539	 4.34916087656651E-02 
1540	 0.043736837356059 
1541	 4.36692883578553E-02 
1542	 4.33857666370119E-02 
1543	 4.30829070811838E-02 
1544	 4.28616463796787E-02 
1545	 4.28651670883746E-02 
1546	 0.042764932333128 
1547	 4.33855630159657E-02 
1548	 4.41126871573293E-02 
1549	 4.46508918287464E-02 
1550	 4.48716442785705E-02 
1551	 4.38762424710801E-02 
1552	 4.36070371372409E-02 
1553	 0.043855351520593 
1554	 4.34677807164226E-02 
1555	 4.36360265214175E-02 
1556	 0.043919055767101 
1557	 0.043868105480532 
1558	 4.40126763379955E-02 
1559	 4.41029319818831E-02 
1560	 4.40265627008772E-02 
1561	 0.043613657926432 
1562	 4.29065820678111E-02 
1563	 4.29442498106921E-02 
1564	 4.30143100383225E-02 
1565	 0.042626423276597 
1566	 0.042842335913447 
1567	 4.31793543124333E-02 
1568	 4.31806358456121E-02 
1569	 4.29982724230115E-02 
1570	 0.042957165905261 
1571	 4.36669197409556E-02 
1572	 4.40416824054548E-02 
1573	 4.34853200017123E-02 
1574	 4.33192403734714E-02 
1575	 0.043511250353065 
1576	 4.33582841134857E-02 
1577	 4.33067242173457E-02 
1578	 4.33079181332392E-02 
1579	 4.33300671718918E-02 
1580	 4.31912513960806E-02 
1581	 4.28347182700256E-02 
1582	 4.35396737673305E-02 
1583	 4.41108684050918E-02 
1584	 4.36264722935303E-02 
1585	 4.35983806130493E-02 
1586	 4.35036001717919E-02 
1587	 0.042977096882396 
1588	 4.29921282224955E-02 
1589	 4.38609010061027E-02 
1590	 4.43688490569449E-02 
1591	 4.32762425172919E-02 
1592	 4.24438552774465E-02 
1593	 4.26255018017788E-02 
1594	 4.25747748061889E-02 
1595	 4.29582175339852E-02 
1596	 4.34943942413539E-02 
1597	 4.35923690653973E-02 
1598	 4.35855631326741E-02 
1599	 4.32966146717009E-02 
1600	 4.33332379370098E-02 
1601	 4.28947331483711E-02 
1602	 4.20620666843101E-02 
1603	 4.27419315285546E-02 
1604	 4.32525467105733E-02 
1605	 4.25866453014682E-02 
1606	 4.29337790888579E-02 
1607	 4.33001181552608E-02 
1608	 4.26585117088799E-02 
1609	 4.30781782665235E-02 
1610	 4.34364166121838E-02 
1611	 4.31154667256524E-02 
1612	 4.33414724004677E-02 
1613	 4.36905117979383E-02 
1614	 4.39084746537194E-02 
1615	 4.36709190554873E-02 
1616	 4.37327944714045E-02 
1617	 4.38734416485921E-02 
1618	 4.35384766237357E-02 
1619	 4.35372694223124E-02 
1620	 4.38145643015223E-02 
1621	 4.41846240636146E-02 
1622	 4.39858295290835E-02 
1623	 4.33973098143848E-02 
1624	 4.33533676035836E-02 
1625	 4.31947478082282E-02 
1626	 4.29310079582538E-02 
1627	 4.33870495912075E-02 
1628	 4.34633556927735E-02 
1629	 4.34460549463226E-02 
1630	 0.04408421987695 
1631	 4.41367981006786E-02 
1632	 4.38424985970742E-02 
1633	 4.31501630285338E-02 
1634	 4.26698779018322E-02 
1635	 4.32991667046437E-02 
1636	 4.36932000330739E-02 
1637	 4.37676988566193E-02 
1638	 4.38880326833875E-02 
1639	 4.31189332618798E-02 
1640	 4.25947924926618E-02 
1641	 4.30297259908065E-02 
1642	 4.25472435474032E-02 
1643	 4.22066950837025E-02 
1644	 4.27833596406769E-02 
1645	 4.28102365966588E-02 
1646	 4.28990306357208E-02 
1647	 4.33690761369987E-02 
1648	 4.31944186546485E-02 
1649	 4.24269530088466E-02 
1650	 4.25934745009609E-02 
1651	 4.35355208024143E-02 
1652	 4.31090875095727E-02 
1653	 4.28083376181273E-02 
1654	 4.30870882919397E-02 
1655	 4.28632941994645E-02 
1656	 4.25151442450451E-02 
1657	 4.27638771809313E-02 
1658	 4.28309432429048E-02 
1659	 4.19031342299856E-02 
1660	 4.19762744997867E-02 
1661	 4.33997647480349E-02 
1662	 4.35110517624073E-02 
1663	 4.30187048402606E-02 
1664	 4.31142744556547E-02 
1665	 4.29944225031565E-02 
1666	 4.26295606026904E-02 
1667	 4.20848891614981E-02 
1668	 4.21254553584485E-02 
1669	 4.33138572853738E-02 
1670	 0.044121105535563 
1671	 4.33474719396337E-02 
1672	 0.042558308872188 
1673	 4.20479818809001E-02 
1674	 4.09986198624385E-02 
1675	 4.05948966370686E-02 
1676	 0.041503791536335 
1677	 4.20725889111907E-02 
1678	 4.24600805818007E-02 
1679	 4.32900160103516E-02 
1680	 4.29684318835887E-02 
1681	 4.18298924498534E-02 
1682	 4.15317051477876E-02 
1683	 4.23184168471382E-02 
1684	 4.29358912520448E-02 
1685	 4.29438172215817E-02 
1686	 4.32567891106534E-02 
1687	 4.34630035462052E-02 
1688	 4.32226112801579E-02 
1689	 4.29775949766613E-02 
1690	 4.31371520398497E-02 
1691	 4.33359199830106E-02 
1692	 4.29742661896893E-02 
1693	 4.23190201187127E-02 
1694	 4.17398409677829E-02 
1695	 4.15968071629617E-02 
1696	 4.20087198491154E-02 
1697	 4.26905718108659E-02 
1698	 0.043234672318405 
1699	 4.31926949362652E-02 
1700	 4.31013816635007E-02 
1701	 4.38959118941969E-02 
1702	 4.48686324049704E-02 
1703	 4.46678112641385E-02 
1704	 4.38903131169176E-02 
1705	 4.38549082247501E-02 
1706	 4.37196760929831E-02 
1707	 4.36807662866998E-02 
1708	 4.40364303813151E-02 
1709	 4.32446653832439E-02 
1710	 4.19405812161623E-02 
1711	 4.12975646189618E-02 
1712	 4.15291022697216E-02 
1713	 4.22468263936012E-02 
1714	 4.20614706974316E-02 
1715	 4.11981039568614E-02 
1716	 4.27563886324912E-02 
1717	 4.34353557061166E-02 
1718	 4.35395750341521E-02 
1719	 4.41298443826145E-02 
1720	 4.32337547960689E-02 
1721	 4.22392203471117E-02 
1722	 4.25814849200571E-02 
1723	 4.19949989659446E-02 
1724	 4.11314296543898E-02 
1725	 4.23112822311158E-02 
1726	 4.36654110263805E-02 
1727	 4.42887338645311E-02 
1728	 4.49875975908914E-02 
1729	 4.44234675531271E-02 
1730	 4.43258107728388E-02 
1731	 4.48822822423802E-02 
1732	 4.44194174330745E-02 
1733	 4.48700393293168E-02 
1734	 4.44330774946278E-02 
1735	 0.043160722794971 
1736	 4.41541528361949E-02 
1737	 4.32652180910828E-02 
1738	 4.12733783980256E-02 
1739	 4.24930001035337E-02 
1740	 4.26987217866792E-02 
1741	 4.18278976226214E-02 
1742	 4.37269715084233E-02 
1743	 4.38584552428631E-02 
1744	 4.18323442183318E-02 
1745	 4.26482199846835E-02 
1746	 4.19973050924668E-02 
1747	 4.13657027223755E-02 
1748	 4.11996677929051E-02 
1749	 4.07919028998541E-02 
1750	 3.95390558853907E-02 
1751	 4.02483283155586E-02 
1752	 4.34206682099987E-02 
1753	 4.31199822056737E-02 
1754	 4.15088941383473E-02 
1755	 4.14184487182715E-02 
1756	 0.039124450995239 
1757	 4.23918145104741E-02 
1758	 4.43436025780732E-02 
1759	 4.05897295046106E-02 
1760	 4.16932216523818E-02 
1761	 4.25623752437544E-02 
1762	 3.81571128519852E-02 
1763	 4.03880186157976E-02 
1764	 4.15694809326489E-02 
1765	 3.96714492705107E-02 
1766	 4.34189314200989E-02 
1767	 4.55456770854937E-02 
1768	 4.35351049423673E-02 
1769	 4.15560159666101E-02 
1770	 4.13853615613626E-02 
1771	 4.08291253789383E-02 
1772	 4.12918294083817E-02 
1773	 4.13840951205605E-02 
1774	 4.02395688083619E-02 
1775	 4.64523639604248E-02 
1776	 4.72206570938697E-02 
1777	 4.76577729269182E-02 
1778	 4.79876627927231E-02 
1779	 3.85601613961049E-02 
1780	 3.76762650752664E-02 
1781	 4.62906642593712E-02 
1782	 5.03409527240662E-02 
1783	 6.00702221534064E-02 
1784	 5.99494123974187E-02 
1785	 4.61432705982803E-02 
1786	 4.62440970077411E-02 
1787	 4.75229202409818E-02 
1788	 4.66829935204997E-02 
1789	 5.94644618296765E-02 
1790	 4.82270397523515E-02 
1791	 4.63371590996379E-02 
1792	 5.53370136857344E-02 
1793	 4.91768947148482E-02 
1794	 4.55779536359226E-02 
1795	 4.16191914975731E-02 
1796	 3.49121880317094E-02 
1797	 4.86140062388469E-02 
1798	 5.99584648990027E-02 
1799	 4.53937771134617E-02 
1800	 0.075344614757566 
1801	 7.59969510954099E-02 
1802	 0.068097703218129 
1803	 5.98562154963764E-02 
1804	-0.033991371336286 
1805	-8.80874064866572E-02 
1806	-9.98344467050837E-02 
1807	-3.52827179940245E-02 
1808	 0.13122883398654 
1809	 0.237998887826537 
1810	 0.438441850555465 
1811	 0.657927468860446 
1812	-1.16575549206872 
1813	-0.234723233220764 
1814	-1.64836626404677 
1815	-1.2133033980446 
1816	-0.695899622712493 
1817	-1.15523504192375 
1818	-3.22791783978404 
1819	-1.59194916972851 
1820	-0.413465099069686 
1821	-0.796455089803805 
1822	-0.822938541552134 
1823	-3.26714400711782 
1824	-4.30347210374518 
1825	-0.924022555402328 
1826	 0.091453573161542 
1827	 1.06330171169679 
1828	 0.827037818257571 
1829	-0.159350649625655 
1830	-0.771963962757163 
1831	 2.05204990593426 
1832	 5.35433387992328 
1833	-3.57724877482803 
1834	-3.37952027494871 
1835	-3.42195645387914 
1836	-2.82434222731217 
1837	-3.84344879234946 
1838	-6.32977411031801 
1839	-2.90837157919061 
1840	-2.26339655794935 
1841	 94.9928318183819 
1842	-1.89386621139417 
1843	-1.91213530298802 
1844	-2.02366024299598 
1845	-1.47417033975427 
1846	-0.457173751938134 
1847	-0.822128425084631 
1848	 1.89610811592098 
1849	 0.284747165991323 
1850	 0.232120197523515 
1851	 0.67221023772571 
1852	 2.8886877407295 
1853	 1.60873178612648 
1854	 1.84736376820698 
1855	 6.94031947413974 
1856	 3.85808873876926 
1857	 3.35773404179607E-02 
1858	-0.380497016658268 
1859	 8.40230302113319 
1860	-0.348139668904876 
1861	-1.1723223116461 
1862	-2.33031093956871 
1863	-1.62976736932392 
1864	-1.23843058705806 
1865	-1.02713207683511 
1866	 1.98219846482333 
1867	 20.8796501986063 
1868	-3.65492101971392 
1869	-1.08263494388094 
1870	-0.356704881481491 
1871	 0.177666679770343 
1872	 0.492446808708035 
1873	 0.134395056966544 
1874	-0.719592628919619 
1875	-3.21475368128029 
1876	-19.7934528934052 
1877	 2.80340312048902 
1878	 1.50740915662159 
1879	 0.282002881398438 
1880	 0.183257431128468 
1881	 0.91567062024532 
1882	 1.53889510252618 
1883	 2.65234321248231 
1884	-946.527855446513 
1885	-13.5838707662703 
1886	-5.40383479446609 
1887	-3.38960000643 
1888	-2.67028061152081 
1889	-1.60240513231274 
1890	-0.324042217168634 
1891	-0.370485851904228 
1892	-5.05713947400157 
1893	 127.762693166606 
1894	-172.911881163646 
1895	 6.43337609698973 
1896	-1.55254938971344 
1897	-0.194310865289136 
1898	-2.00179381331229 
1899	 1.96774681504269 
1900	 0.607010607307589 
1901	 0.370980917611528 
1902	 0.467686814708501 
1903	 1.22886134714187 
1904	 0.67289241528682 
1905	-1.81773724096294 
1906	-0.822858858555247 
1907	 3.01252662507034E-02 
1908	-0.381991838691991 
1909	-0.118816084685293 
1910	-0.244825279386487 
1911	-0.857445189342456 
1912	 26.3026611743111 
1913	 2.54055057355116 
1914	 0.975946819203237 
1915	 0.50665073350973 
1916	-4.84205616873766E-02 
1917	-1.0083415053865 
1918	-1.26104297370664 
1919	-0.364571301613954 
1920	 2.96167493643008E-02 
1921	 0.291091304048551 
1922	 0.440655024303194 
1923	 0.489599472227048 
1924	-0.477633621013508 
1925	-0.924778929884983 
1926	-1.3875479889262 
1927	-6.3966064939253 
1928	-2.84248020185762 
1929	-0.644234433382859 
1930	-0.495533745974123 
1931	-1.76108789843656 
1932	-0.550962220952379 
1933	-0.213011085717002 
1934	-0.492071784361783 
1935	-3.61799559593337 
1936	-3.70727852976329 
1937	 1.24973548063005 
1938	 1.32562452186854 
1939	 2.22032720660898 
1940	-1.3614651785251 
1941	-4.24323392503403 
1942	-44.244460858615 
1943	 8.92042843204307 
1944	 1.16704930426702 
1945	 0.301632267000902 
1946	-0.145370141573823 
1947	-0.210337650847647 
1948	-0.157472442640911 
1949	-0.414302205955523 
1950	-0.254965632232089 
1951	-6.68389670493895E-02 
1952	-8.12065011947074E-02 
1953	-0.402834932844834 
1954	-0.128538916983066 
1955	 7.02455760933367E-02 
1956	 0.013245371444546 
1957	 0.115522742817113 
1958	 0.192147180136453 
1959	 0.12019695088853 
1960	 9.40498254429631E-02 
1961	 5.49610206124728E-02 
1962	 1.45855656151607E-02 
1963	 1.06798030305762E-02 
1964	 6.19571256503191E-03 
1965	 1.25720448779063E-02 
1966	 0.017089286000681 
1967	 1.79166128427923E-02 
1968	 0.017111782787841 
1969	 2.65160157916662E-02 
1970	 3.56699887665599E-02 
1971	 4.07303336491513E-02 
1972	 3.69925241308496E-02 
1973	 2.07915772452541E-02 
1974	 0.013398034093141 
1975	 1.81553758522343E-02 
1976	 0.019420900315342 
1977	 2.50948508652168E-02 
1978	 3.25035692582997E-02 
1979	 3.47842714601657E-02 
1980	 2.96851534792796E-02 
1981	 2.93251699014409E-02 
1982	 3.71006177314543E-02 
1983	 0.042889421735524 
1984	 4.20379152690342E-02 
1985	 4.10231603965461E-02 
1986	 3.98110615283943E-02 
1987	 3.70492285212502E-02 
1988	 0.041959351461699 
1989	 4.87033049124838E-02 
1990	 5.63301879681756E-02 
1991	 0.060098511165669 
1992	 5.45150201389878E-02 
1993	 5.19213441382835E-02 
1994	 5.10550763064304E-02 
1995	 4.73906006050749E-02 
1996	 4.46717129272708E-02 
1997	 5.33469505991859E-02 
1998	 6.43746841299269E-02 
1999	 6.21020581130943E-02 
2000	 4.97211139869882E-02 
2001	 4.33815943696326E-02 
2002	 3.57889043608388E-02 
2003	 3.08326883352676E-02 
2004	 0.038235429372302 
2005	 5.68314352960745E-02 
2006	 6.64894726370935E-02 
2007	 0.054296134844659 
2008	 5.49616412498292E-02 
2009	 5.24420754725908E-02 
2010	 2.59730318556896E-02 
2011	 2.09794994856756E-02 
2012	 3.39918913661855E-02 
2013	 4.18067671678044E-02 
2014	 4.18425872816288E-02 
2015	 3.69709784288759E-02 
2016	 0.023564217926546 
2017	 1.40942584477712E-02 
2018	 1.49620234307707E-02 
2019	 2.12884104461231E-02 
2020	 2.98023500639334E-02 
2021	 3.86653652863153E-02 
2022	 4.18974680063321E-02 
2023	 0.042264892735027 
2024	 4.46624721897402E-02 
2025	 5.02721805105749E-02 
2026	 0.04986427180639 
2027	 4.76388869002137E-02 
2028	 4.48094302811879E-02 
2029	 4.28331873337767E-02 
2030	 4.04082943791445E-02 
2031	 4.06114203436611E-02 
2032	 4.36399185715303E-02 
2033	 4.59496469495757E-02 
2034	 0.046578878607527 
2035	 4.79709459585788E-02 
2036	 0.046481995920421 
2037	 0.042328422343406 
2038	 4.24700180889167E-02 
2039	 0.04099516084826 
2040	 3.74831039601369E-02 
2041	 3.72539672553181E-02 
2042	 3.92222534069553E-02 
2043	 3.89461678182596E-02 
2044	 3.82799964752581E-02 
2045	 0.041002087999614 
2046	 4.15518343947349E-02 
2047	 4.13950368314245E-02 
2048	 4.24344778268538E-02 
2049	 4.38706664395634E-02 
2050	 4.49825844028948E-02 
2051	 4.51065953892545E-02 
2052	 4.22829068820061E-02 
2053	 3.71217363975195E-02 
2054	 3.84081686511939E-02 
2055	 3.97900876141064E-02 
2056	 4.05917461740695E-02 
2057	 4.71028818425011E-02 
2058	 0.049606596654704 
2059	 0.046690107897341 
2060	 4.66124763581097E-02 
2061	 4.82448983914713E-02 
2062	 4.82541046193691E-02 
2063	 4.67400090837898E-02 
2064	 4.34854073091726E-02 
2065	 0.038150710054949 
2066	 3.42277326285307E-02 
2067	 3.23163783309572E-02 
2068	 3.24622890307893E-02 
2069	 3.37452614989171E-02 
2070	 3.53754092627534E-02 
2071	 3.94408295674771E-02 
2072	 3.98801937309143E-02 
2073	 4.05957766977401E-02 
2074	 4.24015283037661E-02 
2075	 0.043796070681982 
2076	 4.44857270423693E-02 
2077	 4.46061749911565E-02 
2078	 4.40060671522689E-02 
2079	 4.28956041812211E-02 
2080	 0.040203897456201 
2081	 3.82312754460724E-02 
2082	 0.039856173187333 
2083	 4.35031909059301E-02 
2084	 4.51958627543517E-02 
2085	 0.046327207013659 
2086	 0.045402797744285 
2087	 4.18373481495794E-02 
2088	 4.11818997134226E-02 
2089	 4.19255789622301E-02 
2090	 4.15112710415675E-02 
2091	 4.46953436737533E-02 
2092	 4.60169189001962E-02 
2093	 4.69735335168679E-02 
2094	 4.70725183928612E-02 
2095	 4.55195060523376E-02 
2096	 4.47866386118207E-02 
2097	 4.34845665343712E-02 
2098	 4.32681923616437E-02 
2099	 4.40566399182237E-02 
2100	 0.04632702728712 
2101	 4.61782875185213E-02 
2102	 4.38695012791332E-02 
2103	 4.11695041250268E-02 
2104	 3.86394614587849E-02 
2105	 3.61046157081118E-02 
2106	 3.65420657779263E-02 
2107	 3.73027575124761E-02 
2108	 3.60381789918474E-02 
2109	 3.51371795271019E-02 
2110	 3.74132402162428E-02 
2111	 3.91105202771953E-02 
2112	 3.94975243811517E-02 
2113	 4.07416795604426E-02 
2114	 4.30526522423885E-02 
2115	 4.35100940168469E-02 
2116	 4.43602563596182E-02 
2117	 4.22711094540527E-02 
2118	 3.61890679689585E-02 
2119	 3.33738599720906E-02 
2120	 2.92132264176999E-02 
2121	 0.027779565254691 
2122	 2.89441141818455E-02 
2123	 3.28812646542966E-02 
2124	 3.24265811617541E-02 
2125	 3.04550376430881E-02 
2126	 3.14560672460752E-02 
2127	 3.02718491010487E-02 
2128	 2.96831204029749E-02 
2129	 3.15461533852508E-02 
2130	 3.35244155783768E-02 
2131	 3.31446598999319E-02 
2132	 3.46610832158758E-02 
2133	 3.83364783404876E-02 
2134	 4.03470945314912E-02 
2135	 4.27565612019383E-02 
2136	 4.38294058896576E-02 
2137	 0.043071075498686 
2138	 4.30995687348248E-02 
2139	 4.30125740717781E-02 
2140	 0.042414278646875 
2141	 4.20966752724705E-02 
2142	 4.22795899995237E-02 
2143	 4.23419038704021E-02 
2144	 4.08420293311732E-02 
2145	 4.35488423734722E-02 
2146	 4.44993889140214E-02 
2147	 4.38025364985058E-02 
2148	 4.34422513778433E-02 
2149	 4.22913763232578E-02 
2150	 4.11796242010499E-02 
2151	 4.06130631833537E-02 
2152	 4.52763416296544E-02 
2153	 4.98015380873309E-02 
2154	 0.049111706502978 
2155	 4.90373869778257E-02 
2156	 4.93487033409537E-02 
2157	 4.87890054535609E-02 
2158	 4.69239438177399E-02 
2159	 4.54750837711682E-02 
2160	 4.43428468229607E-02 
2161	 4.35412430204235E-02 
2162	 4.19127138449162E-02 
2163	 4.15700801126094E-02 
2164	 4.26287724667362E-02 
2165	 0.041513508006571 
2166	 4.02578610116454E-02 
2167	 3.94458711731075E-02 
2168	 3.59025726034957E-02 
2169	 0.03547502781249 
2170	 3.72282136604328E-02 
2171	 3.93954975538007E-02 
2172	 3.93712647374772E-02 
2173	 3.87497775573263E-02 
2174	 3.85865075067611E-02 
2175	 3.93149156805024E-02 
2176	 4.04365295686064E-02 
2177	 4.29114740711252E-02 
2178	 4.21155192641025E-02 
2179	 3.59892326217206E-02 
2180	 3.47406740361472E-02 
2181	 3.85412266731198E-02 
2182	 4.00092267294017E-02 
2183	 4.04913108136263E-02 
2184	 4.04653145846992E-02 
2185	 3.72277902285881E-02 
2186	 3.57798031776912E-02 
2187	 3.60542334021912E-02 
2188	 3.54193511406034E-02 
2189	 0.034331556162949 
2190	 3.45801581709953E-02 
2191	 3.42048869160053E-02 
2192	 3.57660778870057E-02 
2193	 4.04810294686797E-02 
2194	 4.15162313102312E-02 
2195	 4.33639992467732E-02 
2196	 4.33245359165739E-02 
2197	 3.72520785116292E-02 
2198	 3.58463799951522E-02 
2199	 3.61428416084064E-02 
2200	 3.61283682240465E-02 
2201	 3.77828679838796E-02 
2202	 4.19394690138578E-02 
2203	 4.52785796872785E-02 
2204	 4.98092827998181E-02 
2205	 5.35627663069225E-02 
2206	 5.47266069429118E-02 
2207	 5.28405964544767E-02 
2208	 0.050407690850151 
2209	 5.01671338454974E-02 
2210	 4.72529298068846E-02 
2211	 4.76676921131287E-02 
2212	 4.56111293219535E-02 
2213	 3.63203929248507E-02 
2214	 3.60303371599758E-02 
2215	 4.17684462383541E-02 
2216	 4.15505229710147E-02 
2217	 4.01565543225264E-02 
2218	 4.12675766472109E-02 
2219	 4.09779226450165E-02 
2220	 3.34882806767747E-02 
2221	 3.36019302737428E-02 
2222	 4.08085046568388E-02 
2223	 4.16169354539061E-02 
2224	 4.14937797071748E-02 
2225	 4.05974786285004E-02 
2226	 3.77537006692232E-02 
2227	 3.61674472008842E-02 
2228	 3.11006000629425E-02 
2229	 3.27122418432612E-02 
2230	 4.01627170939702E-02 
2231	 4.25566048660982E-02 
2232	 4.65249627532756E-02 
2233	 4.89448449198642E-02 
2234	 4.73583496902663E-02 
2235	 4.70925122676585E-02 
2236	 4.83343467556063E-02 
2237	 5.02872152640598E-02 
2238	 4.30593498070342E-02 
2239	 3.79565279570953E-02 
2240	 3.64937842048812E-02 
2241	 3.32820696665797E-02 
2242	 3.38126757278359E-02 
2243	 3.40037545627047E-02 
2244	 0.036537044571064 
2245	 0.038005047819848 
2246	 4.02183814708447E-02 
2247	 4.30355739463518E-02 
2248	 4.26349973622755E-02 
2249	 4.45284565098624E-02 
2250	 4.24884368616966E-02 
2251	 0.044877060861433 
2252	 4.45582008471862E-02 
2253	 3.60441589880478E-02 
2254	 3.97757449725521E-02 
2255	 4.31274956269411E-02 
2256	 4.53239583984378E-02 
2257	 5.21979924958631E-02 
2258	 5.03562364090887E-02 
2259	 5.08874716737425E-02 
2260	 4.93311513248807E-02 
2261	 4.37402751357069E-02 
2262	 4.03113648971548E-02 
2263	 3.46031959410427E-02 
2264	 3.40708424275651E-02 
2265	 3.92176812128546E-02 
2266	 4.26948329121629E-02 
2267	 5.11042529333535E-02 
2268	 5.33416709779697E-02 
2269	 4.91205784787006E-02 
2270	 4.88940197403919E-02 
2271	 5.01262985722462E-02 
2272	 4.73571390702206E-02 
2273	 4.49403316000973E-02 
2274	 0.041051627702809 
2275	 2.75782317110878E-02 
2276	 2.60633142476217E-02 
2277	 3.15979980217725E-02 
2278	 3.77136274895186E-02 
2279	 5.74264382623642E-02 
2280	 6.02317226467304E-02 
2281	 5.58383267565119E-02 
2282	 4.67767807951886E-02 
2283	 3.60465431572553E-02 
2284	 3.33116835827665E-02 
2285	 3.65886959372434E-02 
2286	 4.26406506724972E-02 
2287	 5.20531537630722E-02 
2288	 0.054534017555985 
2289	 5.62815930274826E-02 
2290	 6.07306173469985E-02 
2291	 5.10343538971249E-02 
2292	 3.87982888186126E-02 
2293	 3.61829404073001E-02 
2294	 3.49347597495218E-02 
2295	 3.93987954331583E-02 
2296	 5.10503499117183E-02 
2297	 6.69097962185564E-02 
2298	 6.91709758472998E-02 
2299	 0.058802111925037 
2300	 5.66110719012209E-02 
2301	 4.94903274802126E-02 
2302	 4.30219152662036E-02 
2303	 5.38220540927096E-02 
2304	 5.85410905490423E-02 
2305	 4.47883560355914E-02 
2306	 4.26973179379376E-02 
2307	 4.28829982293712E-02 
2308	 0.030468570409725 
2309	 2.87397123835937E-02 
2310	 3.47175836619937E-02 
2311	 3.95757183699874E-02 
2312	 3.87098855807154E-02 
2313	 4.24726671707281E-02 
2314	 4.19712720881065E-02 
2315	 1.84485226303843E-02 
2316	 6.03119126741845E-03 
2317	 2.09229211946702E-02 
2318	 3.52174952797313E-02 
2319	 4.15783211736212E-02 
2320	 5.12933933020927E-02 
2321	 3.18792789211306E-02 
2322	 9.51266203035915E-03 
2323	 2.95298394608657E-02 
2324	 0.041607716748343 
2325	 5.97654828251088E-02 
2326	 7.83880669502443E-02 
2327	 7.14928262550332E-02 
2328	 0.076198246726596 
2329	 7.35397595171199E-02 
2330	 7.17418368196505E-02 
2331	 8.88709634011565E-02 
2332	 7.85528382669826E-02 
2333	 6.90257193493285E-02 
2334	 7.85069279523227E-02 
2335	 5.34303166266924E-02 
2336	 2.34028291418969E-02 
2337	 2.99366284629472E-02 
2338	 3.00511835139719E-02 
2339	 5.10173768305255E-02 
2340	 9.05251155208241E-02 
2341	 7.18418304419037E-02 
2342	 3.99885715816394E-02 
2343	-2.83593789900406E-04 
2344	-4.04864893898948E-02 
2345	-2.97102770155228E-02 
2346	-2.28032707831944E-02 
2347	 6.29653108659803E-04 
2348	 0.023977660843366 
2349	-1.2534987416164E-03 
2350	 7.25731654839815E-03 
2351	 0.027921556931537 
2352	 3.11028159077825E-02 
2353	 5.96291432971445E-02 
2354	 5.42135552713802E-02 
2355	 1.21993686904028E-02 
2356	-3.45238141952584E-02 
2357	-2.56316097869339E-02 
2358	-8.87326000059749E-03 
2359	-1.74269218976842E-02 
2360	 1.18757135782348E-02 
2361	-2.41110466090907E-02 
2362	-3.60451749569149E-02 
2363	-7.99847548659125E-03 
2364	-3.18159930438331E-02 
2365	-4.07599362954987E-02 
2366	-8.34233530059451E-02 
2367	-0.14244956313315 
2368	-0.120708058782529 
2369	-0.097902483882373 
2370	-0.04746539339543 
2371	 1.25965803577193E-02 
2372	-2.43753958025576E-02 
2373	-4.76670973490837E-02 
2374	-5.78178165665033E-02 
2375	-5.27581405552576E-02 
2376	 4.42753902953434E-02 
2377	 8.00715924745282E-02 
2378	 0.11791146426458 
2379	 0.124303813006878 
2380	-1.09855716990396E-02 
2381	-1.04760088527079E-02 
2382	 4.40016533833924E-02 
2383	-0.115479363031871 
2384	-6.30557284466393E-02 
2385	 0.166877303343942 
2386	-4.36463520519165E-02 
2387	 2.60374845248838E-03 
2388	 0.153966779792103 
2389	-9.3943986973727E-04 
2390	 0.182102912319604 
2391	 0.235140725668203 
2392	 8.37816454252131E-02 
2393	 1.60665387067215E-02 
2394	 6.37572358490486E-03 
2395	 8.41844106924089E-02 
2396	 0.224202151964933 
2397	 0.355088291302796 
2398	 0.345131979125541 
2399	 0.242577483750012 
2400	 0.170833335866734 
2401	 6.58463399033186E-02 
2402	-2.10451239800019E-02 
2403	-6.52522416412073E-02 
2404	-5.30918890683012E-02 
2405	-0.024835975244043 
2406	 9.51807813543715E-03 
2407	 5.38241848279805E-02 
2408	-0.100007193168858 
2409	-0.119055668699131 
2410	-0.203414010108772 
2411	-0.281539634039075 
2412	-0.219445043337104 
2413	-0.366847779547412 
2414	-0.308680974065533 
2415	-0.294894106435759 
2416	-0.331039172892474 
2417	-0.280055728710423 
2418	-0.309383670863137 
2419	-0.474506506485277 
2420	-0.573129968343672 
2421	-0.563328716048279 
2422	-0.86609898534229 
2423	 11.4905140786159 
2424	 0.45613660735045 
2425	-0.621905611152478 
2426	-0.273350963152168 
2427	-0.839189235129723 
2428	-1.0100877923499 
2429	-1.19667604824745 
2430	-0.780282980192911 
2431	-0.414682296793194 
2432	-0.186115636949066 
2433	-2.96977005791461E-02 
2434	 8.14838173987156E-02 
2435	 0.326034813634409 
2436	 0.373279430832151 
2437	 0.330964381309748 
2438	 0.588115673133627 
2439	 1.77762048156489 
2440	 2.22222915802486 
2441	 1.27569248415994 
2442	 0.586340813340916 
2443	 0.251731985724758 
2444	-0.141189988905274 
2445	-0.478569858432957 
2446	-1.17228253873208 
2447	-2.20297680610445 
2448	-1.75539858612921 
2449	 3.32331795388059 
2450	 5.03873328819851 
2451	 3.20122073965923 
2452	 1.55642924987747 
2453	-5.89490725010336E-02 
2454	-0.599279726967504 
2455	-3.82402948635214 
2456	-8.34668138043812 
2457	-6.73855057381266 
2458	 2.69696096822812 
2459	 1.72338051813095 
2460	 1.99667137815067 
2461	 0.901313084823942 
2462	 0.691697323782392 
2463	 1.25959312153177 
2464	 0.979939097225733 
2465	-0.218095466061476 
2466	-0.461483715600052 
2467	-0.842784101788549 
2468	-3.14332416977046 
2469	-2.52321915377419 
2470	-3.82892925234083 
2471	-13.5430234030847 
2472	 12.9296206234323 
2473	 1.48574073691896 
2474	 0.49643763507274 
2475	 0.119200685088481 
2476	 1.25009790254051 
2477	 1.32833521335386 
2478	 0.717090247984142 
2479	 0.651984824493918 
2480	-0.864708957835323 
2481	 0.466742435528271 
2482	 1.30397714322467 
2483	 1.5813362089928 
2484	 1.70753328996401 
2485	 1.22929902353776 
2486	 0.821018044396611 
2487	 0.938417146571485 
2488	 2.90357420793521 
2489	-4.45625575046256 
2490	-6.57600124405914 
2491	 1.12124431418321 
2492	 0.505403642945722 
2493	 0.646458548850702 
2494	 0.205189750517469 
2495	 0.219968778226203 
2496	-5.01921833352449E-02 
2497	 0.110197086335051 
2498	 0.226411190811004 
2499	 0.246467528021991 
2500	 0.433224190943195 
