Wavelength	rt0801far100001.asd
350	 0.071523024582306 
351	 6.98256620546989E-02 
352	 7.02841306098335E-02 
353	 7.08387882619269E-02 
354	 7.00941410525265E-02 
355	 7.00493667625047E-02 
356	 7.07650847523353E-02 
357	 7.14557028424228E-02 
358	 7.14312867759793E-02 
359	 0.071875581682534 
360	 7.12913014030678E-02 
361	 0.070585472998548 
362	 7.18699756702939E-02 
363	 7.14292444029196E-02 
364	 7.09085601564121E-02 
365	 7.13449407291843E-02 
366	 7.18583798275112E-02 
367	 7.20716587238415E-02 
368	 7.18612066588954E-02 
369	 7.15226578264317E-02 
370	 7.25214359135603E-02 
371	 7.24336381950731E-02 
372	 7.17865460040317E-02 
373	 7.25822374517899E-02 
374	 7.29297684744105E-02 
375	 7.31143195641174E-02 
376	 7.31844923072765E-02 
377	 7.25899859736959E-02 
378	 7.33966400576764E-02 
379	 7.44410639162051E-02 
380	 0.07447465753817 
381	 7.45935716067309E-02 
382	 7.40966757422382E-02 
383	 7.39201816384523E-02 
384	 7.52292730294234E-02 
385	 7.51511827119077E-02 
386	 7.51963276067552E-02 
387	 7.57253546467383E-02 
388	 7.54941477671203E-02 
389	 7.65581928627234E-02 
390	 7.69895028746622E-02 
391	 7.59319022570029E-02 
392	 7.69885683121779E-02 
393	 7.75148384400855E-02 
394	 0.077205063693704 
395	 7.68345437386239E-02 
396	 7.76844503350408E-02 
397	 7.84655192013574E-02 
398	 7.85970520952401E-02 
399	 7.82968185453121E-02 
400	 7.84297720621328E-02 
401	 7.90087228288473E-02 
402	 7.95923810412549E-02 
403	 7.89950721963619E-02 
404	 0.078864373106067 
405	 7.91954227160572E-02 
406	 7.94215081975084E-02 
407	 7.96854187775389E-02 
408	 8.01138022958149E-02 
409	 8.05196561491545E-02 
410	 8.04590467109922E-02 
411	 8.05589363691734E-02 
412	 8.09384127027692E-02 
413	 0.081460223378631 
414	 8.16539048530077E-02 
415	 8.16661331657602E-02 
416	 8.17530432719045E-02 
417	 8.21447190769106E-02 
418	 8.26170226334624E-02 
419	 8.28400216063667E-02 
420	 8.28485405948286E-02 
421	 8.30610502426014E-02 
422	 8.35391700837054E-02 
423	 8.38638642138924E-02 
424	 8.38601854167132E-02 
425	 8.43287900889446E-02 
426	 8.47280297960023E-02 
427	 8.50195538236568E-02 
428	 8.54111110962299E-02 
429	 8.60323347992891E-02 
430	 8.64393087711367E-02 
431	 8.66226394410537E-02 
432	 8.71293379731412E-02 
433	 8.75393176491287E-02 
434	 8.80412263536077E-02 
435	 8.87123090957926E-02 
436	 8.88849341844956E-02 
437	 8.92009033034894E-02 
438	 8.96844765915774E-02 
439	 0.090052834068348 
440	 9.06167893530996E-02 
441	 9.11238571750056E-02 
442	 9.14534827776557E-02 
443	 9.17599214714402E-02 
444	 9.20935851815741E-02 
445	 9.24323314748701E-02 
446	 9.27130689143127E-02 
447	 9.27768884936845E-02 
448	 0.093196855520204 
449	 9.37922315862608E-02 
450	 9.38798277622226E-02 
451	 9.40143640538024E-02 
452	 9.41799358979222E-02 
453	 0.094352425679517 
454	 9.46694064612039E-02 
455	 9.49584133219496E-02 
456	 9.51358942852726E-02 
457	 9.51944874140861E-02 
458	 9.52966424606239E-02 
459	 9.55388430401713E-02 
460	 9.58323020359385E-02 
461	 9.59189550294833E-02 
462	 9.59355051971309E-02 
463	 9.60375456017243E-02 
464	 9.62588037307158E-02 
465	 9.62718147653323E-02 
466	 9.64589174584019E-02 
467	 9.67180966560122E-02 
468	 0.09677651306476 
469	 9.70272843544626E-02 
470	 9.72819394444126E-02 
471	 9.74245413536187E-02 
472	 9.75054039131153E-02 
473	 9.77763221805353E-02 
474	 9.80424367162368E-02 
475	 9.81196373777857E-02 
476	 9.83160461757457E-02 
477	 9.84834531913087E-02 
478	 9.86484912721114E-02 
479	 9.89388585870897E-02 
480	 0.099164860173348 
481	 9.94260808990144E-02 
482	 9.97334946675604E-02 
483	 9.98160991056037E-02 
484	 0.100122746341039 
485	 0.100541059612018 
486	 0.100815110977238 
487	 0.101137303096335 
488	 0.101657132328301 
489	 0.102229388039882 
490	 0.102464535581416 
491	 0.102792035318979 
492	 0.103245784216179 
493	 0.103746703823205 
494	 0.104141407032397 
495	 0.104541783687843 
496	 0.104977398253672 
497	 0.105448239903329 
498	 0.106079971665549 
499	 0.106556992993696 
500	 0.106880250861929 
501	 0.107600583722776 
502	 0.108307262206139 
503	 0.108937295615367 
504	 0.109522669812305 
505	 0.110033273297787 
506	 0.110627623775423 
507	 0.111287161561953 
508	 0.111852780883837 
509	 0.112342085648475 
510	 0.112865019511597 
511	 0.113451357993566 
512	 0.113880434413852 
513	 0.114603530838554 
514	 0.115449470614895 
515	 0.116035325445017 
516	 0.116680065322951 
517	 0.117433898770084 
518	 0.118263136523624 
519	 0.119066086864502 
520	 0.119722550066388 
521	 0.120398685412785 
522	 0.121226134891238 
523	 0.121945500817608 
524	 0.122819105052532 
525	 0.12369426753162 
526	 0.124201728930927 
527	 0.125070548347555 
528	 0.125971140331456 
529	 0.126690315780856 
530	 0.127551464488455 
531	 0.128434264349288 
532	 0.129243962240192 
533	 0.129944102155634 
534	 0.130823629740575 
535	 0.131762128541368 
536	 0.132660373590016 
537	 0.133472288916684 
538	 0.134337484308761 
539	 0.135253170561687 
540	 0.136191056006426 
541	 0.137190023222415 
542	 0.138074320927795 
543	 0.138861003694024 
544	 0.139699801494047 
545	 0.14071255150192 
546	 0.141645041453471 
547	 0.142396476393109 
548	 0.143252245110126 
549	 0.14409595551751 
550	 0.144918526486492 
551	 0.145751371222111 
552	 0.146665886491349 
553	 0.147522358097874 
554	 0.148283966117931 
555	 0.149041157017326 
556	 0.149959302904274 
557	 0.150872517701555 
558	 0.151611026005423 
559	 0.152301222698378 
560	 0.153010061040506 
561	 0.153766159920164 
562	 0.154562877904345 
563	 0.155311050937167 
564	 0.155983033044058 
565	 0.156606001176725 
566	 0.157295888401294 
567	 0.157984800745447 
568	 0.158628241706971 
569	 0.159196786659325 
570	 0.159735494927632 
571	 0.16017545536233 
572	 0.160568948712585 
573	 0.161091875224188 
574	 0.161436965422713 
575	 0.161710485591349 
576	 0.162064223127879 
577	 0.162507640581237 
578	 0.16269228325162 
579	 0.162761555464515 
580	 0.163108760946498 
581	 0.163291324136475 
582	 0.163415659520823 
583	 0.16357669146956 
584	 0.163708240277476 
585	 0.164068335895358 
586	 0.164534325902637 
587	 0.164901726503668 
588	 0.165456357893744 
589	 0.165791015970153 
590	 0.16572647152755 
591	 0.16543344040126 
592	 0.165297061656493 
593	 0.165179117976004 
594	 0.164869683489873 
595	 0.16428338120983 
596	 0.163783136107999 
597	 0.163325323113706 
598	 0.162667384353862 
599	 0.162028747551908 
600	 0.161464282124951 
601	 0.16099826064649 
602	 0.160627983521561 
603	 0.160509110869856 
604	 0.160552244885474 
605	 0.160592489873848 
606	 0.160541436084899 
607	 0.160526409026909 
608	 0.160552437861336 
609	 0.160495543415623 
610	 0.160592897096524 
611	 0.16066520689556 
612	 0.160566551309305 
613	 0.160473793633618 
614	 0.160687870023074 
615	 0.160968433057247 
616	 0.160831011585943 
617	 0.160727147132173 
618	 0.160716477940346 
619	 0.160778950254606 
620	 0.160853066061796 
621	 0.160754529308898 
622	 0.160623569348469 
623	 0.160672870034204 
624	 0.160856636696386 
625	 0.161106806553908 
626	 0.161347384739874 
627	 0.161494906794201 
628	 0.161442118843302 
629	 0.161298220008277 
630	 0.161189590847854 
631	 0.16117289923377 
632	 0.161122948216721 
633	 0.160991749478162 
634	 0.160796917481544 
635	 0.160730300044179 
636	 0.16062406729875 
637	 0.16043006555509 
638	 0.160313601429685 
639	 0.160359232443392 
640	 0.16038403138569 
641	 0.160229909826015 
642	 0.160189146930402 
643	 0.16018557857361 
644	 0.160339063186417 
645	 0.160881171225763 
646	 0.160906997205045 
647	 0.160684921808234 
648	 0.160536236033181 
649	 0.160273187508415 
650	 0.1601287763292 
651	 0.159992914035604 
652	 0.159678979098868 
653	 0.159365223433263 
654	 0.159115384279996 
655	 0.158831633662505 
656	 0.158257141794709 
657	 0.157668737070371 
658	 0.157222230103133 
659	 0.156927322096526 
660	 0.156521402658824 
661	 0.156255091753515 
662	 0.156127054601148 
663	 0.155988491123258 
664	 0.155899808860685 
665	 0.155677276986422 
666	 0.155349152088164 
667	 0.155380375992399 
668	 0.155353066254172 
669	 0.155268381333764 
670	 0.155227305127802 
671	 0.155082005459381 
672	 0.155120756952615 
673	 0.155306927144043 
674	 0.155305403693771 
675	 0.15536518792163 
676	 0.1555931496096 
677	 0.155933337672665 
678	 0.1559836421804 
679	 0.15605852044906 
680	 0.156227904924171 
681	 0.156455944490066 
682	 0.156776895946638 
683	 0.157176551151508 
684	 0.157669509429518 
685	 0.158375810928646 
686	 0.159334939485048 
687	 0.159990918203702 
688	 0.15997355450374 
689	 0.160094822160804 
690	 0.160625287158541 
691	 0.161432160235507 
692	 0.162094105943944 
693	 0.162267518507114 
694	 0.16195575662448 
695	 0.161379892603137 
696	 0.160757745319112 
697	 0.160715513080978 
698	 0.161017891324458 
699	 0.161137570255092 
700	 0.160834719967615 
701	 0.160146658975969 
702	 0.159295260089303 
703	 0.158558449366521 
704	 0.15806754914381 
705	 0.157432729096997 
706	 0.156476133237832 
707	 0.155571004757659 
708	 0.154645317689665 
709	 0.153552918744432 
710	 0.152214824200518 
711	 0.151088418072783 
712	 0.149866230607128 
713	 0.148709964492105 
714	 0.148296092893713 
715	 0.148220116269814 
716	 0.148289278707782 
717	 0.148081365369144 
718	 0.146693689606173 
719	 0.143517133420422 
720	 0.140308286787149 
721	 0.138086755546062 
722	 0.137214276220929 
723	 0.136261773237737 
724	 0.134535524844797 
725	 0.132305678204597 
726	 0.130119803276622 
727	 0.127733094856522 
728	 0.124929555970714 
729	 0.122210478871504 
730	 0.118570007102638 
731	 0.114619896780446 
732	 0.111247521728077 
733	 0.10876473793469 
734	 0.106941480685548 
735	 0.105480495932665 
736	 0.103914207000411 
737	 0.102564296805554 
738	 0.101471105713573 
739	 0.100643204246227 
740	 0.100148734360879 
741	 9.96384224806121E-02 
742	 9.90915446141472E-02 
743	 9.86694345149071E-02 
744	 9.84915905094689E-02 
745	 9.84740432681517E-02 
746	 9.84985771143126E-02 
747	 9.84361888949439E-02 
748	 9.83554283597922E-02 
749	 9.82771367661384E-02 
750	 9.82057649287687E-02 
751	 9.80821163782446E-02 
752	 9.83286357227138E-02 
753	 9.86368456481538E-02 
754	 9.84237050725164E-02 
755	 9.84092019467362E-02 
756	 0.098629277882295 
757	 0.099060597552322 
758	 9.98726740435354E-02 
759	 0.101720323349727 
760	 0.103375187286494 
761	 0.102521843159363 
762	 0.102856299108828 
763	 0.102620951200101 
764	 0.101766762250959 
765	 0.100889583902426 
766	 0.100620689444001 
767	 0.10045558310051 
768	 0.100237491918917 
769	 0.100128197088751 
770	 0.100225878960645 
771	 0.100501648175986 
772	 0.100847890290524 
773	 0.101050276392452 
774	 0.101188045526125 
775	 0.101441032339068 
776	 0.1019453108169 
777	 0.102282849953132 
778	 0.10257669186878 
779	 0.102970246820524 
780	 0.103564362500144 
781	 0.104008860898969 
782	 0.104314209806627 
783	 0.104670368046533 
784	 0.105540362402469 
785	 0.106203667468456 
786	 0.106690464164665 
787	 0.107303192933404 
788	 0.108170630334798 
789	 0.10883413872678 
790	 0.109250004027026 
791	 0.109722953477798 
792	 0.109822003696494 
793	 0.110193796894243 
794	 0.111056821525803 
795	 0.111699249666706 
796	 0.112225030260571 
797	 0.112746517203372 
798	 0.113323454690632 
799	 0.1136452572275 
800	 0.114029511709467 
801	 0.114436064899279 
802	 0.114634709109593 
803	 0.114639866221324 
804	 0.114614514447892 
805	 0.114659838206024 
806	 0.11478294902978 
807	 0.114711952113835 
808	 0.114937576925744 
809	 0.11559448757348 
810	 0.115373892519741 
811	 0.115761377666183 
812	 0.116605643018584 
813	 0.117090435449749 
814	 0.117715280030619 
815	 0.117222005578574 
816	 0.115815645608141 
817	 0.114903710764781 
818	 0.113942266591175 
819	 0.112545296193491 
820	 0.110907599481634 
821	 0.110012465095089 
822	 0.108963260105917 
823	 0.107361607402484 
824	 0.105228244872536 
825	 0.102579037725965 
826	 0.100938473487588 
827	 9.94721747928143E-02 
828	 9.68032021775552E-02 
829	 9.39438342640076E-02 
830	 9.19075114086393E-02 
831	 9.03488744848834E-02 
832	 8.82032805839398E-02 
833	 8.67165740333877E-02 
834	 8.55965963591729E-02 
835	 8.45693385332668E-02 
836	 0.083654798202825 
837	 8.27424607763889E-02 
838	 8.19768717580701E-02 
839	 0.08143773388149 
840	 8.09575558035516E-02 
841	 8.01184898107079E-02 
842	 7.93511364763999E-02 
843	 7.91703100887155E-02 
844	 0.078893455090188 
845	 7.86375300561267E-02 
846	 7.83487088562901E-02 
847	 7.78638262358191E-02 
848	 7.72045470165278E-02 
849	 7.68880469619211E-02 
850	 7.69397033517679E-02 
851	 7.67049689578455E-02 
852	 0.076184098889643 
853	 7.57813729769626E-02 
854	 7.56900904788576E-02 
855	 7.54550639447462E-02 
856	 7.51194698627318E-02 
857	 0.074607117652978 
858	 7.39781877073663E-02 
859	 7.38491973214286E-02 
860	 7.37180302920751E-02 
861	 7.34628090090008E-02 
862	 7.31457393454405E-02 
863	 0.072596169277982 
864	 0.072257851033244 
865	 7.22137204635816E-02 
866	 7.21278800275299E-02 
867	 0.07145846113635 
868	 7.09364200293123E-02 
869	 7.08330186297613E-02 
870	 7.06022509474158E-02 
871	 7.02123398764697E-02 
872	 6.99606473326743E-02 
873	 6.98447914060836E-02 
874	 6.89923891822733E-02 
875	 6.86298145359943E-02 
876	 6.83143457572587E-02 
877	 6.75634304949317E-02 
878	 6.78281751208471E-02 
879	 6.73008202370618E-02 
880	 6.64769202335644E-02 
881	 6.66517247353764E-02 
882	 6.67771639236355E-02 
883	 6.60742766109843E-02 
884	 6.48805824565629E-02 
885	 6.43271268632992E-02 
886	 6.44864732993516E-02 
887	 0.064770420961946 
888	 6.45836744220087E-02 
889	 6.36025482717322E-02 
890	 6.40851257680958E-02 
891	 6.46442957653904E-02 
892	 6.44997086574145E-02 
893	 6.54610054298497E-02 
894	 6.62439948179988E-02 
895	 6.59717026325942E-02 
896	 6.48145396913296E-02 
897	 6.58964591713329E-02 
898	 0.066361943738572 
899	 0.065487460455985 
900	 6.39146649657032E-02 
901	 6.30037019147232E-02 
902	 6.33618642379254E-02 
903	 0.063531202150285 
904	 6.21886138970856E-02 
905	 6.24680330027809E-02 
906	 6.28859005791536E-02 
907	 6.33774740299293E-02 
908	 6.44667461462782E-02 
909	 6.21197245300423E-02 
910	 6.12542893737024E-02 
911	 6.27664590541351E-02 
912	 6.29986858548023E-02 
913	 6.10482904943007E-02 
914	 5.90438332947209E-02 
915	 5.86198597569199E-02 
916	 5.96623979651822E-02 
917	 5.70698317711027E-02 
918	 5.57875976549351E-02 
919	 5.70486127777123E-02 
920	 5.60098666348178E-02 
921	 5.47857208367111E-02 
922	 0.054323443945355 
923	 5.48713788141793E-02 
924	 5.55714714760539E-02 
925	 5.60047161453401E-02 
926	 5.70093030897937E-02 
927	 5.87391358104321E-02 
928	 5.63312646629076E-02 
929	 5.56962694907303E-02 
930	 0.058781755200338 
931	 6.40198204564627E-02 
932	 0.068269598183603 
933	 5.40439522970848E-02 
934	 4.49018984297082E-02 
935	 6.71214950078212E-02 
936	 5.83443773352168E-02 
937	 6.37392521617988E-02 
938	 6.29531802164472E-02 
939	 3.78615399335898E-02 
940	 5.84601806863178E-02 
941	 6.42577502257319E-02 
942	 0.058190552255377 
943	 6.78296008234937E-02 
944	 5.79870394476427E-02 
945	 5.90519995153944E-02 
946	 6.21721673811586E-02 
947	 4.38773181688859E-02 
948	 5.27708966939466E-02 
949	 6.25917545053348E-02 
950	 6.57450349355493E-02 
951	 6.79497287909267E-02 
952	 6.13430668760924E-02 
953	 0.057745204605218 
954	 5.65223363926742E-02 
955	 5.02077281864001E-02 
956	 5.01547859687888E-02 
957	 4.85660726511091E-02 
958	 0.047472211876843 
959	 5.36875937000399E-02 
960	 5.58641812903022E-02 
961	 5.38453458829869E-02 
962	 5.06672017546682E-02 
963	 5.01422208760793E-02 
964	 5.34644334356768E-02 
965	 0.055832472548984 
966	 5.31859164323471E-02 
967	 4.45662999192645E-02 
968	 4.45617307429581E-02 
969	 4.55847900960827E-02 
970	 4.41930820149899E-02 
971	 0.042788197926913 
972	 4.82351415495512E-02 
973	 5.15175324640958E-02 
974	 4.87244800716259E-02 
975	 4.42949010583089E-02 
976	 5.18246806499608E-02 
977	 5.27114333954721E-02 
978	 4.60935688459422E-02 
979	 0.047129785774401 
980	 5.08313594458633E-02 
981	 5.06899308543102E-02 
982	 4.75016269270194E-02 
983	 4.67867498137268E-02 
984	 4.26668642504534E-02 
985	 4.47165287004247E-02 
986	 4.95472252091905E-02 
987	 0.045816180527836 
988	 4.48851389012796E-02 
989	 4.26412133490587E-02 
990	 4.02673349571206E-02 
991	 4.21110046642399E-02 
992	 4.03889102734284E-02 
993	 4.07733452683989E-02 
994	 4.41944803358633E-02 
995	 4.70805844934137E-02 
996	 4.56751835597792E-02 
997	 4.13715610699922E-02 
998	 4.06095316758117E-02 
999	 4.79156124002107E-02 
1000	 4.44704923623042E-02 
1001	 4.57047200451439E-02 
1002	 4.68756670393863E-02 
1003	 4.71094256243343E-02 
1004	 4.71802138044583E-02 
1005	 4.70224317825278E-02 
1006	 0.046499655179521 
1007	 0.0455044538067 
1008	 4.48738993528708E-02 
1009	 4.45630787785381E-02 
1010	 4.51733432934996E-02 
1011	 4.59110725917199E-02 
1012	 4.58105014683791E-02 
1013	 4.63223368447672E-02 
1014	 4.67579827086041E-02 
1015	 4.67919318150142E-02 
1016	 4.69430239252392E-02 
1017	 4.77156791125018E-02 
1018	 4.78595321250731E-02 
1019	 4.73805092900574E-02 
1020	 4.72793960135094E-02 
1021	 4.75008736003659E-02 
1022	 4.72077930543068E-02 
1023	 4.64762347030793E-02 
1024	 4.55551170858696E-02 
1025	 4.53185365846957E-02 
1026	 4.51467280433044E-02 
1027	 0.044960715419115 
1028	 4.53220601539207E-02 
1029	 4.56861615471103E-02 
1030	 4.57362332223408E-02 
1031	 4.60394975450954E-02 
1032	 4.70612319828013E-02 
1033	 4.74589815378237E-02 
1034	 4.76277771000867E-02 
1035	 4.75995164209432E-02 
1036	 4.71723029935914E-02 
1037	 4.70584152319466E-02 
1038	 4.72108171424557E-02 
1039	 4.65952428367359E-02 
1040	 4.59914469847147E-02 
1041	 4.59015631342504E-02 
1042	 4.59579919359157E-02 
1043	 4.57305991804222E-02 
1044	 4.61967158671804E-02 
1045	 4.78296757230197E-02 
1046	 4.82211453650418E-02 
1047	 4.82536267648305E-02 
1048	 4.83355236891754E-02 
1049	 4.80063618986349E-02 
1050	 4.76450659349585E-02 
1051	 4.67475773073976E-02 
1052	 4.68098659480072E-02 
1053	 4.75907206664572E-02 
1054	 4.77167926368522E-02 
1055	 4.82952884841699E-02 
1056	 4.86594294042257E-02 
1057	 4.87105641909456E-02 
1058	 4.79464288217862E-02 
1059	 4.74835714731049E-02 
1060	 4.67243581794746E-02 
1061	 4.70884237842844E-02 
1062	 4.78576266587372E-02 
1063	 4.83492144588362E-02 
1064	 5.02520499893774E-02 
1065	 5.05877388056808E-02 
1066	 4.92943150373081E-02 
1067	 4.89721233007695E-02 
1068	 4.86773475478301E-02 
1069	 4.83781787656178E-02 
1070	 4.82252305144845E-02 
1071	 4.82976560805035E-02 
1072	 4.88125450054058E-02 
1073	 4.85221578056667E-02 
1074	 0.048650703444775 
1075	 4.91848881239037E-02 
1076	 0.049288970838829 
1077	 4.91139046912435E-02 
1078	 4.90296964032401E-02 
1079	 4.86866412178338E-02 
1080	 4.87807572796201E-02 
1081	 4.90422029998109E-02 
1082	 4.93462409204781E-02 
1083	 5.03290252021439E-02 
1084	 5.05596842933375E-02 
1085	 5.02408417845199E-02 
1086	 5.00879832695289E-02 
1087	 4.95890726559547E-02 
1088	 0.049325043242675 
1089	 4.91604648761647E-02 
1090	 0.049134124490162 
1091	 4.93149135564427E-02 
1092	 4.96252137478416E-02 
1093	 4.95362178861163E-02 
1094	 4.95755609193924E-02 
1095	 4.97745785812967E-02 
1096	 0.049428213422906 
1097	 4.99462667858275E-02 
1098	 5.17942132346798E-02 
1099	 5.21718805633589E-02 
1100	 5.16906528871856E-02 
1101	 5.21005548824914E-02 
1102	 5.24054397640039E-02 
1103	 5.24955931253323E-02 
1104	 5.34122674622497E-02 
1105	 5.38545062139001E-02 
1106	 5.22879961739314E-02 
1107	 5.19569885618093E-02 
1108	 5.31623104780408E-02 
1109	 5.40191937575735E-02 
1110	 5.55562265818705E-02 
1111	 5.96847419939036E-02 
1112	 6.07936509196018E-02 
1113	 0.059911142175888 
1114	 5.96528120062029E-02 
1115	 5.54040662085565E-02 
1116	 5.55161653611039E-02 
1117	 6.24730405150107E-02 
1118	 6.53989624410445E-02 
1119	 6.99933090997508E-02 
1120	 7.11830115181917E-02 
1121	 0.061846360163137 
1122	 4.69662454707197E-02 
1123	 3.95638903720792E-02 
1124	 0.055057868922159 
1125	 5.94593700254002E-02 
1126	 6.00999157677319E-02 
1127	 7.08842754479085E-02 
1128	 6.35661594160742E-02 
1129	 6.27895573325593E-02 
1130	 7.13632145721261E-02 
1131	 7.03584107590511E-02 
1132	 5.99787836680473E-02 
1133	 6.04838244676655E-02 
1134	 6.59585202114182E-02 
1135	 6.52824489502465E-02 
1136	 0.063102557204339 
1137	 6.42193616771832E-02 
1138	 6.55735344209346E-02 
1139	 6.44533418517924E-02 
1140	 6.34270456776459E-02 
1141	 6.36564105073755E-02 
1142	 5.76899868932792E-02 
1143	 0.053593098717327 
1144	 5.97166092062865E-02 
1145	 6.61432127317275E-02 
1146	 6.82330492697266E-02 
1147	 6.73957242503006E-02 
1148	 7.09102767437698E-02 
1149	 7.77842763839959E-02 
1150	 7.55654122723025E-02 
1151	 7.03689523217503E-02 
1152	 6.92951093579956E-02 
1153	 6.46449550529055E-02 
1154	 6.24457727318212E-02 
1155	 6.30823855559885E-02 
1156	 6.51721571204519E-02 
1157	 6.29103677256694E-02 
1158	 0.058677581524533 
1159	 5.79408308856667E-02 
1160	 5.81036301115131E-02 
1161	 5.60619851021737E-02 
1162	 5.52247123563418E-02 
1163	 5.55388653717174E-02 
1164	 5.56142975024178E-02 
1165	 5.56818283993404E-02 
1166	 5.53449537696347E-02 
1167	 0.054467727007499 
1168	 5.30887658502885E-02 
1169	 5.25426406759747E-02 
1170	 5.30269149853146E-02 
1171	 5.28741972127846E-02 
1172	 5.19048290853819E-02 
1173	 5.14012773243568E-02 
1174	 0.050954198144954 
1175	 5.11053784791568E-02 
1176	 5.09675787017665E-02 
1177	 5.09446784027437E-02 
1178	 5.07336681562049E-02 
1179	 0.050409186901575 
1180	 0.050902172082835 
1181	 5.12602938175152E-02 
1182	 0.051167502612709 
1183	 0.051729038512039 
1184	 5.21569825689849E-02 
1185	 5.18131601430316E-02 
1186	 5.19409988292177E-02 
1187	 5.21739592962494E-02 
1188	 5.16168257175168E-02 
1189	 0.051451666056686 
1190	 0.052315618673306 
1191	 5.25303950512858E-02 
1192	 0.052088671154917 
1193	 5.08758468490479E-02 
1194	 5.04478576956318E-02 
1195	 5.03705661406668E-02 
1196	 4.98566359702545E-02 
1197	 5.00922975450866E-02 
1198	 5.03175207431836E-02 
1199	 4.96904542722457E-02 
1200	 4.96905768417887E-02 
1201	 5.00925575143218E-02 
1202	 5.00545615673787E-02 
1203	 4.97738667459548E-02 
1204	 4.97711863697635E-02 
1205	 0.049542777441484 
1206	 4.88788441277015E-02 
1207	 4.86649464265541E-02 
1208	 4.86130561527101E-02 
1209	 4.89346469289446E-02 
1210	 4.91217966899904E-02 
1211	 4.83865116545615E-02 
1212	 4.84079017533269E-02 
1213	 4.88651009454632E-02 
1214	 4.87592733402219E-02 
1215	 4.86949231713003E-02 
1216	 4.94719071855807E-02 
1217	 4.92658401456067E-02 
1218	 4.81550943854864E-02 
1219	 0.048058294164839 
1220	 4.80746572713282E-02 
1221	 0.04737851306871 
1222	 4.65766283136847E-02 
1223	 0.046692684915231 
1224	 4.68123614037437E-02 
1225	 4.64450892629482E-02 
1226	 4.66754062973095E-02 
1227	 4.68221757540707E-02 
1228	 4.67672490861971E-02 
1229	 4.70166749578624E-02 
1230	 4.72444464113146E-02 
1231	 4.73825965496456E-02 
1232	 4.73087422070043E-02 
1233	 4.70240483082298E-02 
1234	 4.69196299160675E-02 
1235	 4.68267248764552E-02 
1236	 4.61592171683758E-02 
1237	 4.60734452121329E-02 
1238	 4.65101327711916E-02 
1239	 4.68627447241184E-02 
1240	 4.66638480768321E-02 
1241	 0.04651707875258 
1242	 4.61776155031846E-02 
1243	 0.04561703772552 
1244	 4.53556653289417E-02 
1245	 4.55712176957489E-02 
1246	 4.56481756451365E-02 
1247	 4.56700089722577E-02 
1248	 4.60355485584021E-02 
1249	 4.60596596680023E-02 
1250	 4.61387449395672E-02 
1251	 4.62927764681428E-02 
1252	 4.59632662196603E-02 
1253	 4.55243379257678E-02 
1254	 4.53439888818983E-02 
1255	 4.56408411058936E-02 
1256	 4.55810259303848E-02 
1257	 4.56331681590003E-02 
1258	 4.57141199695283E-02 
1259	 4.53450068259985E-02 
1260	 0.045312313819452 
1261	 4.61361906822687E-02 
1262	 4.63629093893555E-02 
1263	 4.63410165809216E-02 
1264	 4.58492130328865E-02 
1265	 4.61729548010466E-02 
1266	 4.62529324797844E-02 
1267	 4.57931429469897E-02 
1268	 4.62405031355154E-02 
1269	 4.68494949193205E-02 
1270	 4.61525579310513E-02 
1271	 4.57527557876557E-02 
1272	 4.61936843741266E-02 
1273	 4.61984834904628E-02 
1274	 4.59196835523622E-02 
1275	 4.59770480113567E-02 
1276	 4.62934393733108E-02 
1277	 4.58962935365629E-02 
1278	 4.51898442571946E-02 
1279	 4.51010627343478E-02 
1280	 4.51574716280654E-02 
1281	 4.52666284645902E-02 
1282	 4.57798829441329E-02 
1283	 4.59037818637887E-02 
1284	 4.56057072226389E-02 
1285	 4.57565595673475E-02 
1286	 4.62032312720941E-02 
1287	 4.61530385412134E-02 
1288	 0.046033635939007 
1289	 4.62923838003305E-02 
1290	 4.65142395253279E-02 
1291	 4.61389354421559E-02 
1292	 4.63494783059444E-02 
1293	 4.69425809644566E-02 
1294	 0.046620698249705 
1295	 4.66744144722517E-02 
1296	 4.73440763906537E-02 
1297	 4.71810945727636E-02 
1298	 4.64415010371054E-02 
1299	 4.61404116613154E-02 
1300	 4.63106327495372E-02 
1301	 4.66565047971104E-02 
1302	 4.73836190936303E-02 
1303	 4.81629081314864E-02 
1304	 4.81774008224722E-02 
1305	 4.78828857956091E-02 
1306	 4.78441050763281E-02 
1307	 4.75474766485178E-02 
1308	 4.79532599369332E-02 
1309	 4.92867500435119E-02 
1310	 0.049471291320455 
1311	 4.91659992152008E-02 
1312	 4.98283572331941E-02 
1313	 5.02581141338798E-02 
1314	 0.050246095459569 
1315	 5.12115604766062E-02 
1316	 5.21964725787777E-02 
1317	 0.052615604467866 
1318	 5.24699363034657E-02 
1319	 5.18580688662155E-02 
1320	 5.18457279442602E-02 
1321	 5.08481865525864E-02 
1322	 5.11891768373656E-02 
1323	 5.04411907671774E-02 
1324	 5.13236710073346E-02 
1325	 5.27304471920617E-02 
1326	 5.18861800614494E-02 
1327	 5.22125613708736E-02 
1328	 5.33081562839064E-02 
1329	 5.28003116109428E-02 
1330	 5.32088021493046E-02 
1331	 5.41911079463189E-02 
1332	 0.053590895118599 
1333	 5.55959691607883E-02 
1334	 5.97838312403956E-02 
1335	 0.060453994093562 
1336	 0.062960434937018 
1337	 6.27876877539042E-02 
1338	 5.54585494789879E-02 
1339	 5.43554068350732E-02 
1340	 5.82524431280943E-02 
1341	 0.059001165915098 
1342	 5.84216534179407E-02 
1343	 5.98759345193349E-02 
1344	 6.54676183355412E-02 
1345	 6.33000848318459E-02 
1346	 0.053564277533505 
1347	 4.78316380173553E-02 
1348	 0.025298489707071 
1349	 1.00268979491739E-02 
1350	 3.94033769285923E-02 
1351	 4.04424299183672E-02 
1352	-3.33157086968307E-02 
1353	-5.41480245209141E-02 
1354	 4.83686589869276E-02 
1355	 4.87056370440851E-02 
1356	 9.66770176016556E-03 
1357	 2.49065948068409E-02 
1358	-3.92084929858429E-02 
1359	-0.130316558173393 
1360	 6.26384190600513E-02 
1361	 0.27010584481252 
1362	-3.06938280858459E-04 
1363	-0.416234553265608 
1364	-0.533220880088635 
1365	-0.257253244115575 
1366	-0.351865785703957 
1367	-0.262293505681623 
1368	-0.170836268131746 
1369	 5.46020777207783E-02 
1370	-6.91179786145011E-02 
1371	-0.545454073312109 
1372	-0.576042413041755 
1373	-4.65003277322471E-02 
1374	-0.458388116017128 
1375	-0.432923260291541 
1376	-0.403602247729914 
1377	-1.02279156803021 
1378	-1.16124936327113 
1379	-1.03126596215082 
1380	-1.16446790566089 
1381	-2.3374507185336 
1382	-2.2492350406634 
1383	-1.785092246779 
1384	-1.23416937447633 
1385	-0.642497810926592 
1386	-0.369513708751901 
1387	 2.29389967693293E-02 
1388	 9.45869564274929E-02 
1389	-6.50806875386848E-02 
1390	 3.30029730262667E-02 
1391	 0.390576178637217 
1392	 0.664666443402722 
1393	-0.23789438526499 
1394	-0.600629021228658 
1395	-1.13157804731471 
1396	-1.58557992812613 
1397	-6.87244799272013 
1398	-0.975725278269455 
1399	-1.47920331631009 
1400	 17.1755221616293 
1401	-5.87469267003106 
1402	-3.94320850266073 
1403	-5.30868227495882 
1404	-66.8953171938264 
1405	-15.9926199261887 
1406	 5.26092324549006 
1407	 0.844839954893858 
1408	-0.248248959491729 
1409	-0.261361385312455 
1410	-3.69279359725676 
1411	-60.2304725994019 
1412	 0.978556123522014 
1413	 0.563249712339777 
1414	-3.47009775550847E-02 
1415	-0.119941743762803 
1416	-1.20355063092965E-04 
1417	-8.96554797259937E-02 
1418	-1.34027836639887 
1419	-1.39851264503273 
1420	-0.673250131442325 
1421	-0.510486936587862 
1422	-0.268814427973837 
1423	-0.159572373774814 
1424	-0.210923140776476 
1425	-0.19177408228574 
1426	-0.228653252305509 
1427	-0.148469325201575 
1428	 0.127873213511244 
1429	 0.138223041204919 
1430	 2.58575542991413E-02 
1431	-6.86172857416169E-03 
1432	-0.236894296896502 
1433	-0.307391982832109 
1434	-0.157236223144712 
1435	-0.113119912571872 
1436	-5.07355197946918E-02 
1437	-3.82035465585716E-02 
1438	-0.080197921636944 
1439	-5.92624477327696E-02 
1440	-5.25266764925431E-02 
1441	-7.98090263189649E-02 
1442	-3.11491434172451E-02 
1443	 0.024054183681573 
1444	 5.21935558339369E-02 
1445	 8.34696161755941E-02 
1446	 8.56416413143532E-02 
1447	 8.47491645857249E-02 
1448	 0.11751499455483 
1449	 0.102450318086712 
1450	 0.050236782115054 
1451	 3.95432190570676E-02 
1452	 3.33102729294288E-02 
1453	 4.18359859726188E-02 
1454	 5.09971366576353E-02 
1455	 8.82032427849934E-02 
1456	 8.61310162615796E-02 
1457	 0.062974705253083 
1458	 5.92923727502788E-02 
1459	 5.79506112607926E-02 
1460	 5.47878988727064E-02 
1461	 5.20165061965861E-02 
1462	 5.23646879628297E-02 
1463	 5.17271669538391E-02 
1464	 5.65836612676019E-02 
1465	 7.33175052171039E-02 
1466	 7.72461620490788E-02 
1467	 7.38589198609394E-02 
1468	 7.41261413712793E-02 
1469	 6.81158119524399E-02 
1470	 0.067418605423848 
1471	 7.87619076192508E-02 
1472	 7.72624116691673E-02 
1473	 6.23373620489228E-02 
1474	 6.09325892806976E-02 
1475	 6.59580740755795E-02 
1476	 6.19104004580782E-02 
1477	 5.79097432291122E-02 
1478	 5.84477419216794E-02 
1479	 5.46992028619228E-02 
1480	 5.37453692889447E-02 
1481	 5.75018816935531E-02 
1482	 6.01268054235679E-02 
1483	 6.41018695638987E-02 
1484	 6.27924317544937E-02 
1485	 5.66793292403439E-02 
1486	 5.80526497512372E-02 
1487	 6.40611963103711E-02 
1488	 6.20951490130585E-02 
1489	 5.72798237434015E-02 
1490	 5.82557612874502E-02 
1491	 5.95038222341067E-02 
1492	 5.76918410970785E-02 
1493	 0.056482242278894 
1494	 5.79271833438391E-02 
1495	 5.87478660530944E-02 
1496	 0.057868328853872 
1497	 5.92818789733537E-02 
1498	 5.96452185286061E-02 
1499	 5.73908298600175E-02 
1500	 5.56009011388308E-02 
1501	 5.40596311954385E-02 
1502	 5.34672635655763E-02 
1503	 5.21529708277211E-02 
1504	 5.16999613736814E-02 
1505	 5.20762431997357E-02 
1506	 5.43227457537164E-02 
1507	 5.43846373457005E-02 
1508	 5.34236240323521E-02 
1509	 5.29612264485037E-02 
1510	 5.16282885869176E-02 
1511	 5.12253937591621E-02 
1512	 5.25018719360878E-02 
1513	 0.052520537435085 
1514	 5.18568956525528E-02 
1515	 5.22949829056747E-02 
1516	 5.19954782523962E-02 
1517	 0.051157778409813 
1518	 5.09709305300907E-02 
1519	 5.02961528494316E-02 
1520	 4.92265983985978E-02 
1521	 4.88011012951047E-02 
1522	 4.90600484959744E-02 
1523	 4.94245102232347E-02 
1524	 4.89217340939533E-02 
1525	 4.83816673114371E-02 
1526	 4.85607567983529E-02 
1527	 4.86111892634512E-02 
1528	 4.88419678104657E-02 
1529	 4.86398939837911E-02 
1530	 4.81473246718559E-02 
1531	 4.86597367265052E-02 
1532	 0.048792164733889 
1533	 4.85396577145135E-02 
1534	 4.86910595606876E-02 
1535	 4.80126984920017E-02 
1536	 4.71631657954305E-02 
1537	 4.72883635853117E-02 
1538	 4.74239653966005E-02 
1539	 4.73137617779677E-02 
1540	 0.047273609773521 
1541	 4.69796221430247E-02 
1542	 4.68037825310321E-02 
1543	 4.70263874343427E-02 
1544	 4.70909511386956E-02 
1545	 4.64710900798577E-02 
1546	 0.046398386552701 
1547	 4.71022641967023E-02 
1548	 4.66944859576417E-02 
1549	 4.65739263683885E-02 
1550	 4.70378080040454E-02 
1551	 4.59808990182027E-02 
1552	 4.54103262726926E-02 
1553	 4.62557456861845E-02 
1554	 4.62764834534563E-02 
1555	 4.57118345320331E-02 
1556	 4.57606448248254E-02 
1557	 4.58540923155047E-02 
1558	 4.55162949322717E-02 
1559	 0.045810537397944 
1560	 4.63199576111338E-02 
1561	 4.55332102472303E-02 
1562	 4.49390180577426E-02 
1563	 4.53345040937283E-02 
1564	 4.51426732413493E-02 
1565	 4.46486160105474E-02 
1566	 4.44016936323872E-02 
1567	 4.43972893255981E-02 
1568	 4.48721589029272E-02 
1569	 4.47212709011807E-02 
1570	 4.44528473589051E-02 
1571	 4.51127578173464E-02 
1572	 4.49560178318126E-02 
1573	 4.42343096115333E-02 
1574	 4.48692324637822E-02 
1575	 4.53975704747009E-02 
1576	 4.44450393703011E-02 
1577	 4.41276656163702E-02 
1578	 4.51330302475562E-02 
1579	 4.50723462279577E-02 
1580	 4.43919706574051E-02 
1581	 4.50873541585043E-02 
1582	 4.55729415228341E-02 
1583	 4.50531777415842E-02 
1584	 4.49988291008281E-02 
1585	 4.48616211648299E-02 
1586	 4.39981503945561E-02 
1587	 0.043242777384448 
1588	 4.31642470218662E-02 
1589	 4.35616598702035E-02 
1590	 4.36489820510174E-02 
1591	 4.36916390241483E-02 
1592	 0.043825141561692 
1593	 4.34246062239305E-02 
1594	 4.33758625014425E-02 
1595	 4.37306210744607E-02 
1596	 4.38328017084602E-02 
1597	 4.38090918899362E-02 
1598	 4.41200475944682E-02 
1599	 4.45607677417907E-02 
1600	 4.40430115774818E-02 
1601	 4.41389017337837E-02 
1602	 0.044507570717612 
1603	 4.38480561527171E-02 
1604	 4.40077074452273E-02 
1605	 4.46698489559976E-02 
1606	 4.48269558604813E-02 
1607	 4.44214359485971E-02 
1608	 4.40753166641051E-02 
1609	 4.44931146625416E-02 
1610	 4.44853924888096E-02 
1611	 4.37612924624505E-02 
1612	 4.34270998939569E-02 
1613	 4.31559553957333E-02 
1614	 4.25609102016577E-02 
1615	 4.32205044386204E-02 
1616	 4.48608812924877E-02 
1617	 4.49052366783314E-02 
1618	 4.38465544533606E-02 
1619	 4.34511417911138E-02 
1620	 4.34749600368806E-02 
1621	 4.39187410897191E-02 
1622	 4.40754620433542E-02 
1623	 4.32236801593678E-02 
1624	 4.25436076638191E-02 
1625	 4.15450984452077E-02 
1626	 4.09297781335101E-02 
1627	 4.18772177063041E-02 
1628	 4.25129444824835E-02 
1629	 4.29069269575642E-02 
1630	 4.34824508500361E-02 
1631	 4.37114445934727E-02 
1632	 4.35703447217411E-02 
1633	 4.27233259810124E-02 
1634	 4.25737260583589E-02 
1635	 4.29647592219994E-02 
1636	 4.25981114181954E-02 
1637	 4.34255837399075E-02 
1638	 4.42649009544953E-02 
1639	 4.35156445794164E-02 
1640	 4.29472581721471E-02 
1641	 4.23511852801634E-02 
1642	 4.22074082042197E-02 
1643	 4.28445193661202E-02 
1644	 4.31829123930786E-02 
1645	 4.30852517009197E-02 
1646	 4.28140354987072E-02 
1647	 4.26899175954735E-02 
1648	 4.25721809371526E-02 
1649	 4.28459951515112E-02 
1650	 4.28402391113833E-02 
1651	 4.19769002120007E-02 
1652	 4.16979319859361E-02 
1653	 4.23434171489933E-02 
1654	 4.24724548184785E-02 
1655	 4.21154468712502E-02 
1656	 4.22992235905766E-02 
1657	 0.042926831720494 
1658	 4.32043836609765E-02 
1659	 4.40251209653188E-02 
1660	 4.42874334180603E-02 
1661	 4.37138683086725E-02 
1662	 4.30166448934879E-02 
1663	 4.17416514114939E-02 
1664	 4.13043356547635E-02 
1665	 4.11504198782656E-02 
1666	 4.11800110289948E-02 
1667	 4.20995427715292E-02 
1668	 4.26889377848026E-02 
1669	 4.25011039424007E-02 
1670	 4.21026760845353E-02 
1671	 4.21968671401998E-02 
1672	 4.26836092103056E-02 
1673	 0.042595058281976 
1674	 4.19745503855522E-02 
1675	 4.19041433507729E-02 
1676	 4.24393110979222E-02 
1677	 4.26320453300996E-02 
1678	 4.24320899020209E-02 
1679	 4.19253852992953E-02 
1680	 4.12952821227786E-02 
1681	 4.12774524839003E-02 
1682	 4.24370983147284E-02 
1683	 4.32291124907352E-02 
1684	 4.27205732986926E-02 
1685	 4.21588395883563E-02 
1686	 4.19630760800883E-02 
1687	 0.042606724837699 
1688	 0.042958509896688 
1689	 4.25569511844651E-02 
1690	 4.28054823251199E-02 
1691	 4.26284342595275E-02 
1692	 4.20561326449627E-02 
1693	 4.21682406339964E-02 
1694	 4.20435459403873E-02 
1695	 4.21746112601969E-02 
1696	 4.25502633059483E-02 
1697	 4.22369722179618E-02 
1698	 4.22066335487511E-02 
1699	 4.21545772924286E-02 
1700	 4.12504799294472E-02 
1701	 4.12826191140129E-02 
1702	 4.19930605626297E-02 
1703	 4.14947854018801E-02 
1704	 4.16295584980028E-02 
1705	 4.25668663906803E-02 
1706	 4.28642569681191E-02 
1707	 4.26502293953522E-02 
1708	 4.25761205633069E-02 
1709	 0.042985666572688 
1710	 4.28560744419896E-02 
1711	 4.24006698493033E-02 
1712	 4.21119817105361E-02 
1713	 0.041795433774145 
1714	 0.041859078693378 
1715	 4.26164153732987E-02 
1716	 0.043209510408163 
1717	 4.33761508828285E-02 
1718	 4.26222889096663E-02 
1719	 4.15518544814881E-02 
1720	 4.10667483460639E-02 
1721	 4.00869083434398E-02 
1722	 3.97163540089089E-02 
1723	 4.16351793598226E-02 
1724	 4.35661226037879E-02 
1725	 4.43253105311717E-02 
1726	 4.46274558973247E-02 
1727	 4.39123786553879E-02 
1728	 4.30230229568382E-02 
1729	 4.29814923528947E-02 
1730	 4.21855708864469E-02 
1731	 4.06560289591272E-02 
1732	 4.10591001380614E-02 
1733	 4.18871401505746E-02 
1734	 4.21576002604721E-02 
1735	 4.39000629109276E-02 
1736	 4.42786733172565E-02 
1737	 4.31621063155363E-02 
1738	 4.26318393958598E-02 
1739	 4.27024759531732E-02 
1740	 4.43187099957454E-02 
1741	 4.38051304292409E-02 
1742	 4.23718889311793E-02 
1743	 4.37246150790862E-02 
1744	 4.32470889222497E-02 
1745	 4.26630160882518E-02 
1746	 4.69454309021629E-02 
1747	 4.71858519303409E-02 
1748	 4.38372200883218E-02 
1749	 4.37206910675415E-02 
1750	 4.41841915174694E-02 
1751	 4.33488453422736E-02 
1752	 4.32874030484625E-02 
1753	 4.39383942157506E-02 
1754	 4.29292296430597E-02 
1755	 4.34565974745223E-02 
1756	 4.74705349631058E-02 
1757	 4.63278822269601E-02 
1758	 4.61922573928143E-02 
1759	 4.63127195409098E-02 
1760	 4.57283831955131E-02 
1761	 4.66204474747511E-02 
1762	 4.50893516128173E-02 
1763	 4.42832307471696E-02 
1764	 4.35732066922408E-02 
1765	 4.02579918155777E-02 
1766	 0.043559641980863 
1767	 4.75788122577579E-02 
1768	 4.30886889630957E-02 
1769	 4.08384802364422E-02 
1770	 4.21615501851634E-02 
1771	 4.26492478346472E-02 
1772	 4.75410149887065E-02 
1773	 5.21844573527532E-02 
1774	 4.77383388258212E-02 
1775	 4.19679063416855E-02 
1776	 4.18320035533211E-02 
1777	 5.00612615230603E-02 
1778	 5.22780409434489E-02 
1779	 5.19426197416923E-02 
1780	 5.10707278486393E-02 
1781	 4.40535455044793E-02 
1782	 4.30825039950685E-02 
1783	 4.74399111294538E-02 
1784	 4.75351612525701E-02 
1785	 5.06191624915299E-02 
1786	 4.58037409865885E-02 
1787	 3.00404896109157E-02 
1788	 2.67559154733054E-02 
1789	 0.02164189337367 
1790	 2.89911079193325E-02 
1791	 4.61224233514923E-02 
1792	 4.60590587935091E-02 
1793	 5.49558699422773E-02 
1794	 7.00266517950366E-02 
1795	 5.59762844020616E-02 
1796	 0.036514276134502 
1797	 2.24213951869597E-02 
1798	 3.54315850284172E-03 
1799	 1.01897852385096E-02 
1800	 5.24210988314649E-02 
1801	 7.53031001620022E-02 
1802	 6.50006574763746E-02 
1803	 0.055066414864625 
1804	 2.26087885773011E-02 
1805	-2.05163177415812E-03 
1806	-0.092263738218214 
1807	-8.88945610179945E-02 
1808	 0.156185593738692 
1809	 0.161153184597148 
1810	-0.010045042602825 
1811	-0.229295685672302 
1812	 5.28600127628292 
1813	 2.97771866433681 
1814	 15.576574220239 
1815	-2.15145514673913 
1816	 0.222240726660119 
1817	 6.03326576094252E-02 
1818	-1.58729091957331 
1819	-3.87335585187185 
1820	-6.35504806144145 
1821	-1.44594170190434 
1822	-0.908718978492632 
1823	 0.231454296606219 
1824	 1.01127020972173 
1825	-1.02185200021953 
1826	-1.23703305498443 
1827	-0.844074374168446 
1828	-0.828652488749012 
1829	-0.525292248630758 
1830	-0.46002384223293 
1831	 1.02310034347733 
1832	 3.54273501163972 
1833	-2.07138048192297 
1834	-1.61043268025766 
1835	-0.917012176862447 
1836	-1.06421476127735 
1837	-2.12374135216185 
1838	-4.42816167612524 
1839	-4.31796611131379 
1840	-9.1084543780583 
1841	 385.432229271034 
1842	 4.69454821496174 
1843	 2.88837366788177 
1844	-0.140837543636911 
1845	 0.365767663569108 
1846	 0.875111877042655 
1847	 0.872914389903507 
1848	 0.6535104497893 
1849	 3.85543184901724 
1850	 7.79551482848336 
1851	 5.13579419256552 
1852	 18.2935815568134 
1853	 5.23994991943895 
1854	 5.39548446630214 
1855	 10.7833469584311 
1856	 5.37070940665166 
1857	 1.90293165474288 
1858	 1.69928066715838 
1859	-14.1880379269971 
1860	-0.692424997056544 
1861	-0.946610899069124 
1862	-0.98113799207427 
1863	 0.126550195379025 
1864	 0.106570021656958 
1865	-0.192936683361706 
1866	-2.98282625355904 
1867	-20.887131577031 
1868	 6.48336144316789 
1869	 2.76599802254937 
1870	 1.18314552484968 
1871	 0.709476716952668 
1872	 0.68333288053577 
1873	 0.318638750323788 
1874	-0.339836909601248 
1875	-0.242719009783488 
1876	-3.19720615956753 
1877	-1.11780153343032 
1878	-1.0028050286941 
1879	-0.312749513475463 
1880	-3.01710091934669E-02 
1881	 0.292466422557491 
1882	-0.467424955722574 
1883	-0.647994065530713 
1884	 20.6675031085819 
1885	 2.37992351627657 
1886	 0.43214966462111 
1887	 4.34599228422686E-02 
1888	 5.75135608003434E-02 
1889	-0.228002381338088 
1890	-0.251709096381308 
1891	-0.681561112675398 
1892	-6.4536958010745 
1893	 201.35154243826 
1894	-323.38822105232 
1895	 11.8271506477398 
1896	-3.90742390626761 
1897	-1.42876788397019 
1898	-3.86975587040238 
1899	 0.780856429833128 
1900	-0.509494422886214 
1901	-0.57611909255603 
1902	-1.00163241851513 
1903	-14.5416556921008 
1904	 1.49486636688119 
1905	 0.107113720808886 
1906	 0.149611879430628 
1907	 0.737305203270552 
1908	 0.774504653459393 
1909	 0.40821937633289 
1910	 0.694168458006894 
1911	 0.166089875521956 
1912	 12.4619771983693 
1913	 1.42140059492052 
1914	 0.508380614147553 
1915	 0.493415326405211 
1916	 0.312492051712039 
1917	 8.59537501368603E-02 
1918	 1.32535912043854 
1919	 1.1516096351259 
1920	 1.90681380421454 
1921	 1.85573735500404 
1922	 1.27880570268433 
1923	 2.44614376231712 
1924	 0.845005046837216 
1925	 0.093170468772555 
1926	 4.26305024548616E-02 
1927	 1.97692857514988 
1928	 0.593823329954125 
1929	 0.826408472040564 
1930	 3.07794718665728 
1931	-15.940156244258 
1932	-1.98314501334242 
1933	-1.07865326020086 
1934	-1.32324729608566 
1935	-2.8191063842324 
1936	-0.207709556248631 
1937	-0.326235933281167 
1938	 9.32799598297349E-02 
1939	-2.56973326869059E-02 
1940	-0.599829714419382 
1941	-2.11501970388213 
1942	-5.11825702364564 
1943	-3.83394618760125 
1944	-0.766583956715967 
1945	-0.180075589508015 
1946	 0.105101022758552 
1947	 0.211018730402561 
1948	 0.124789934328656 
1949	-9.34857050830596E-03 
1950	 0.131789705588278 
1951	 9.77036760336718E-02 
1952	 2.08814620256718E-02 
1953	 4.15731467707335E-03 
1954	 0.165794520549846 
1955	 0.10778594064183 
1956	 0.132913477884315 
1957	 0.140627620473933 
1958	 0.100120934770639 
1959	 0.112582901070597 
1960	 0.119319306193782 
1961	 0.119175426027908 
1962	 0.118612010989427 
1963	 0.108434309729325 
1964	 7.57193510012764E-02 
1965	 5.50164658608458E-02 
1966	 6.12856564746237E-02 
1967	 8.67752058086511E-02 
1968	 9.55618152971734E-02 
1969	 9.05941381373989E-02 
1970	 0.083610134557572 
1971	 7.04883263497301E-02 
1972	 0.058876561650184 
1973	 5.11568854017002E-02 
1974	 5.72908244741325E-02 
1975	 0.059267405740622 
1976	 0.057356739836355 
1977	 6.38257832600689E-02 
1978	 6.82379132737628E-02 
1979	 6.90239658709543E-02 
1980	 0.069353204296088 
1981	 6.67957199705825E-02 
1982	 6.68726208718497E-02 
1983	 6.67230341528584E-02 
1984	 7.22217925228738E-02 
1985	 0.077914391226029 
1986	 7.36847506860211E-02 
1987	 7.11316395917097E-02 
1988	 6.48030600089932E-02 
1989	 5.97808157663306E-02 
1990	 6.23950902360616E-02 
1991	 6.34188482679222E-02 
1992	 6.54759083859018E-02 
1993	 7.13056104411607E-02 
1994	 7.58249018686512E-02 
1995	 7.96687620579517E-02 
1996	 8.51836108336053E-02 
1997	 9.03958480261004E-02 
1998	 9.48024982341289E-02 
1999	 9.90589288442835E-02 
2000	 8.81237924057811E-02 
2001	 7.91479095693131E-02 
2002	 0.072840059041804 
2003	 5.96038392597631E-02 
2004	 7.25888683369008E-02 
2005	 8.42768020293966E-02 
2006	 7.75305872328154E-02 
2007	 7.31756337897552E-02 
2008	 6.34204463462441E-02 
2009	 5.82430651451377E-02 
2010	 5.63708874604778E-02 
2011	 5.29282831180274E-02 
2012	 4.75931337105466E-02 
2013	 5.29932079847606E-02 
2014	 5.34675828651038E-02 
2015	 6.00086183410812E-02 
2016	 6.54005582946976E-02 
2017	 6.04498805994428E-02 
2018	 5.86817113919166E-02 
2019	 5.66512417378071E-02 
2020	 6.35832344912662E-02 
2021	 7.26051570110205E-02 
2022	 7.25135903687625E-02 
2023	 7.21368326725527E-02 
2024	 7.09175339003637E-02 
2025	 6.62323871048367E-02 
2026	 6.33183858809891E-02 
2027	 6.13485815317669E-02 
2028	 5.86695893920418E-02 
2029	 5.73728420805074E-02 
2030	 5.52135120293234E-02 
2031	 5.62162313353532E-02 
2032	 5.98485073450383E-02 
2033	 0.06049144173538 
2034	 6.09367174267011E-02 
2035	 5.94575659050665E-02 
2036	 5.70799324386888E-02 
2037	 5.51769302931687E-02 
2038	 5.36413758546441E-02 
2039	 5.40173354987106E-02 
2040	 5.69828448383943E-02 
2041	 5.70452433281967E-02 
2042	 5.78556206776479E-02 
2043	 5.73002965457812E-02 
2044	 5.46649517735912E-02 
2045	 5.01137895853541E-02 
2046	 4.84965988909792E-02 
2047	 4.95593459959147E-02 
2048	 4.92055464929753E-02 
2049	 4.83068261557278E-02 
2050	 4.97564679230887E-02 
2051	 5.26541359952967E-02 
2052	 5.55812172461482E-02 
2053	 5.84159860621628E-02 
2054	 5.90877246115584E-02 
2055	 5.93065658836813E-02 
2056	 5.88748711343854E-02 
2057	 5.55729609389437E-02 
2058	 5.76325328971948E-02 
2059	 6.29641737868674E-02 
2060	 0.064670034773929 
2061	 6.81282711838004E-02 
2062	 6.88144205230791E-02 
2063	 6.63431708752267E-02 
2064	 6.32726201793398E-02 
2065	 5.93243534286622E-02 
2066	 6.05068271278865E-02 
2067	 6.26084249095246E-02 
2068	 6.25726468204451E-02 
2069	 6.26005145706091E-02 
2070	 0.062637776303697 
2071	 6.43863660941419E-02 
2072	 6.65009521500119E-02 
2073	 0.067822075197245 
2074	 7.19450107400908E-02 
2075	 7.13141620628871E-02 
2076	 6.63369380254449E-02 
2077	 6.48519885204769E-02 
2078	 6.22722936096331E-02 
2079	 6.15242922169232E-02 
2080	 6.28413989153791E-02 
2081	 6.51966553734464E-02 
2082	 6.37264456396463E-02 
2083	 0.060822264463251 
2084	 5.76122928797438E-02 
2085	 0.053280652394941 
2086	 5.16721712437295E-02 
2087	 5.22633386377303E-02 
2088	 5.49707804195734E-02 
2089	 5.61358891968849E-02 
2090	 5.32835367786455E-02 
2091	 5.36834540696202E-02 
2092	 5.33311055186432E-02 
2093	 5.11974314157999E-02 
2094	 5.04563499336343E-02 
2095	 5.06640362951963E-02 
2096	 0.050822934039717 
2097	 5.03637719846504E-02 
2098	 5.12449519680178E-02 
2099	 5.41035750771458E-02 
2100	 5.65462170011817E-02 
2101	 5.60898925146059E-02 
2102	 5.73392192728336E-02 
2103	 5.61273221526536E-02 
2104	 5.45966125198671E-02 
2105	 5.55617482924277E-02 
2106	 5.30238130233439E-02 
2107	 5.21866321108298E-02 
2108	 5.26514090003707E-02 
2109	 5.30554857899458E-02 
2110	 5.69300686366991E-02 
2111	 0.056399364517289 
2112	 5.58670427540307E-02 
2113	 5.53050662429123E-02 
2114	 5.07646492147042E-02 
2115	 0.050438959503253 
2116	 5.44270940125939E-02 
2117	 5.52299046554181E-02 
2118	 5.70232117339571E-02 
2119	 5.80374311241297E-02 
2120	 5.85455639556516E-02 
2121	 5.52021361498794E-02 
2122	 5.26470178925044E-02 
2123	 5.14004065207243E-02 
2124	 4.96537566747688E-02 
2125	 4.95530831413033E-02 
2126	 5.11936187015546E-02 
2127	 5.17766817085139E-02 
2128	 5.35083339516918E-02 
2129	 5.49586974961709E-02 
2130	 5.43107957132292E-02 
2131	 5.45590404192754E-02 
2132	 5.34997286988515E-02 
2133	 5.20349183650988E-02 
2134	 0.052637682129651 
2135	 5.61785709173136E-02 
2136	 5.69703660495313E-02 
2137	 5.82917337170953E-02 
2138	 5.81138294472543E-02 
2139	 5.56592213144096E-02 
2140	 5.42247602425408E-02 
2141	 0.051791084486844 
2142	 5.00355215564102E-02 
2143	 4.86676271215029E-02 
2144	 4.77056785131596E-02 
2145	 4.64751941177693E-02 
2146	 4.86789229583065E-02 
2147	 5.14357128185084E-02 
2148	 0.054964434749632 
2149	 5.85440795755809E-02 
2150	 6.07073733779237E-02 
2151	 6.19993052357725E-02 
2152	 5.86412281737612E-02 
2153	 0.055171103322979 
2154	 0.053987760501911 
2155	 5.16926606872513E-02 
2156	 5.32656739750847E-02 
2157	 5.37051537499033E-02 
2158	 5.46031366712682E-02 
2159	 5.56560225553847E-02 
2160	 5.73006135938567E-02 
2161	 5.86849864711193E-02 
2162	 6.23246564602696E-02 
2163	 6.20550761385358E-02 
2164	 5.64096110313902E-02 
2165	 5.42241820997032E-02 
2166	 5.39860684607958E-02 
2167	 5.27832274805066E-02 
2168	 5.15693967738713E-02 
2169	 5.31816383115201E-02 
2170	 5.77065141763169E-02 
2171	 5.41955689816558E-02 
2172	 5.59560119253555E-02 
2173	 6.06577701420226E-02 
2174	 5.72683947670558E-02 
2175	 5.50887629649063E-02 
2176	 5.37639417608474E-02 
2177	 4.87331714114832E-02 
2178	 4.85658826886649E-02 
2179	 4.74991802534021E-02 
2180	 4.38733791517002E-02 
2181	 4.73041716718983E-02 
2182	 5.10798928022873E-02 
2183	 5.56468583084024E-02 
2184	 6.03888061361513E-02 
2185	 6.10918221168881E-02 
2186	 6.33988060379394E-02 
2187	 6.51001769418036E-02 
2188	 6.35422701814945E-02 
2189	 6.08357343001927E-02 
2190	 5.98339279756739E-02 
2191	 5.64469409100722E-02 
2192	 5.29904956118357E-02 
2193	 5.12509415050272E-02 
2194	 5.07684096394915E-02 
2195	 0.047654246783022 
2196	 4.66549274358955E-02 
2197	 4.91161923609554E-02 
2198	 5.08907622089095E-02 
2199	 5.23488556424065E-02 
2200	 5.51218106379897E-02 
2201	 5.56652791702924E-02 
2202	 5.37417381032948E-02 
2203	 4.81293383669446E-02 
2204	 4.12790701345009E-02 
2205	 3.89997552534198E-02 
2206	 3.73251211449057E-02 
2207	 3.60757511763101E-02 
2208	 3.70497379037424E-02 
2209	 3.93397136352347E-02 
2210	 4.38296568614017E-02 
2211	 4.46656457393152E-02 
2212	 4.46078557690401E-02 
2213	 4.66701953898371E-02 
2214	 0.045694449442022 
2215	 0.046645105605723 
2216	 4.88606034215303E-02 
2217	 4.76472263713085E-02 
2218	 4.26757259956781E-02 
2219	 4.00216034729404E-02 
2220	 3.31356205061088E-02 
2221	 3.49385333990185E-02 
2222	 4.45135754140943E-02 
2223	 4.65356988443612E-02 
2224	 5.25153896062146E-02 
2225	 5.44525102053793E-02 
2226	 4.81172200033648E-02 
2227	 4.46254552491248E-02 
2228	 3.95039017871154E-02 
2229	 3.77127810530229E-02 
2230	 3.93360478337243E-02 
2231	 3.79827822651014E-02 
2232	 3.86568797244913E-02 
2233	 0.03890662344168 
2234	 0.036242378437766 
2235	 3.22104082223194E-02 
2236	 3.32635023006006E-02 
2237	 3.09417417832818E-02 
2238	 2.94457208521212E-02 
2239	 3.53237439695484E-02 
2240	 4.46105333947085E-02 
2241	 5.37696004200106E-02 
2242	 5.83195677328881E-02 
2243	 5.26779410566889E-02 
2244	 4.17821688629002E-02 
2245	 3.74988686208693E-02 
2246	 0.036739299408506 
2247	 0.03965707634415 
2248	 4.33336021362848E-02 
2249	 4.34266193945026E-02 
2250	 4.58665969255215E-02 
2251	 4.74897304525794E-02 
2252	 4.62880982844101E-02 
2253	 4.73034136099489E-02 
2254	 4.83626471015673E-02 
2255	 4.98336319113064E-02 
2256	 5.78977564959345E-02 
2257	 0.063589090736617 
2258	 6.15093052826086E-02 
2259	 0.059362817074417 
2260	 5.88344709404132E-02 
2261	 5.46884150784932E-02 
2262	 5.32638587309454E-02 
2263	 5.46154926595929E-02 
2264	 5.72912246090973E-02 
2265	 6.25311186206091E-02 
2266	 0.064264631229038 
2267	 6.83586715350257E-02 
2268	 6.96830493199536E-02 
2269	 6.36541205595536E-02 
2270	 6.22823209407431E-02 
2271	 6.47900698781221E-02 
2272	 6.31479144659269E-02 
2273	 6.11556624045159E-02 
2274	 5.76805957818369E-02 
2275	 4.84631459289889E-02 
2276	 4.42058303380604E-02 
2277	 0.043689454346456 
2278	 4.20935458400929E-02 
2279	 4.13242028807216E-02 
2280	 4.27640935516142E-02 
2281	 4.57189625284328E-02 
2282	 4.41753144224744E-02 
2283	 5.35091489202942E-02 
2284	 6.41035966560766E-02 
2285	 6.71868094153159E-02 
2286	 6.06191847512934E-02 
2287	 0.059342649955007 
2288	 5.79416450115466E-02 
2289	 4.29535571722351E-02 
2290	 4.10828129090869E-02 
2291	 0.042196091849177 
2292	 3.57754945128688E-02 
2293	 4.51547814355407E-02 
2294	 5.59203869010407E-02 
2295	 5.05815865387261E-02 
2296	 5.34836149641269E-02 
2297	 6.85320284748398E-02 
2298	 8.11480464495323E-02 
2299	 8.32989599249865E-02 
2300	 7.64422287960133E-02 
2301	 0.081394206153899 
2302	 8.36654979705608E-02 
2303	 8.17992154616024E-02 
2304	 8.28539386358238E-02 
2305	 6.82364332451765E-02 
2306	 5.53328800222812E-02 
2307	 5.29179953478263E-02 
2308	 5.14530000634973E-02 
2309	 4.26556986178142E-02 
2310	 3.39450497180281E-02 
2311	 3.82783594831417E-02 
2312	 3.62325254438244E-02 
2313	 3.15101291065633E-02 
2314	 3.00407819080325E-02 
2315	 3.12513314377178E-02 
2316	 3.51548422855337E-02 
2317	 4.31604999394733E-02 
2318	 6.54517209285039E-02 
2319	 6.79473366901341E-02 
2320	 5.94634067998081E-02 
2321	 5.89943605392717E-02 
2322	 0.06311473484758 
2323	 6.31321469888395E-02 
2324	 5.30451449488791E-02 
2325	 0.06705642234956 
2326	 6.17786398890239E-02 
2327	 5.10001073514131E-02 
2328	 6.46331837485009E-02 
2329	 6.45692112753325E-02 
2330	 5.95854788627259E-02 
2331	 5.02001594260626E-02 
2332	 4.62853828718706E-02 
2333	 5.06649740668122E-02 
2334	 5.04607127306331E-02 
2335	 6.21810650254828E-02 
2336	 7.16509857286731E-02 
2337	 5.87694771340333E-02 
2338	 6.06929497639626E-02 
2339	 4.12218812921329E-02 
2340	 2.73755999928719E-02 
2341	 4.05282979867267E-02 
2342	 2.66009105267401E-02 
2343	 4.60742153152277E-02 
2344	 7.10199183287634E-02 
2345	 9.19817039459891E-02 
2346	 0.121868470212943 
2347	 0.11058087687245 
2348	 0.116294624005371 
2349	 0.11679515184121 
2350	 8.41524016456777E-02 
2351	 0.060956035340192 
2352	 3.43804341634455E-02 
2353	 9.56101783227853E-03 
2354	 9.23699300921849E-03 
2355	 7.22594791795016E-02 
2356	 0.111329229102338 
2357	 9.59195990434111E-02 
2358	 0.126056476492705 
2359	 0.113433100517456 
2360	 0.054129974213212 
2361	 3.17207711221945E-02 
2362	 2.39869306343928E-02 
2363	 2.62511460617615E-02 
2364	 5.28007800668314E-02 
2365	 7.57884265203739E-02 
2366	 8.37917823264291E-02 
2367	 7.07580946901675E-02 
2368	 4.77481674410728E-02 
2369	 2.81887593603986E-02 
2370	-3.86123305607207E-04 
2371	 1.15125140642686E-02 
2372	-1.88740189281262E-02 
2373	-2.75566944864669E-03 
2374	 5.75479604132038E-02 
2375	 7.39344795999775E-02 
2376	 0.154393535323327 
2377	 0.145292315106635 
2378	 0.108214146162306 
2379	 0.12694307218918 
2380	 6.07495733574727E-02 
2381	 5.67065827370397E-02 
2382	 0.110255749919422 
2383	 4.39671116167429E-02 
2384	 5.86396525583664E-02 
2385	 0.148870831615333 
2386	 5.69055010317612E-02 
2387	 0.120483915408088 
2388	 0.199003351458435 
2389	 0.116328152808036 
2390	 6.63208989460721E-02 
2391	 4.33856974369246E-03 
2392	-0.105554304106595 
2393	-0.269679702690876 
2394	-0.154866726375511 
2395	 2.14782278648562E-02 
2396	 5.59546508225026E-03 
2397	 6.71763956333858E-02 
2398	 0.124087984406607 
2399	 9.07790420057837E-02 
2400	 0.136887596156881 
2401	 4.27161861901109E-02 
2402	-0.164926774604573 
2403	-0.246951822677468 
2404	-0.275107594626473 
2405	-0.20446454126202 
2406	-0.239228914931129 
2407	-0.300101462141166 
2408	-0.20275530783695 
2409	-0.142111229512575 
2410	-8.38644383942387E-03 
2411	-8.78017063949206E-03 
2412	-0.384548123076916 
2413	-0.73378683537892 
2414	-0.705336214671335 
2415	-0.5195516168723 
2416	-0.549761284543207 
2417	-0.582275080216186 
2418	-0.738669975373145 
2419	-1.34731611754778 
2420	-2.11294807846479 
2421	-2.58747687926566 
2422	-3.00092476589422 
2423	 82.972838718154 
2424	 4.05605146515253 
2425	-0.250334125317001 
2426	 0.608478655001768 
2427	 1.14160428757386 
2428	 2.57426847319428 
2429	 2.78645656617843 
2430	 0.76365215497392 
2431	 9.71835621679521E-02 
2432	-0.607026016148469 
2433	-0.764476925143902 
2434	-0.611419457694789 
2435	-0.766245174626902 
2436	-0.451078870084229 
2437	 1.51723289037804E-02 
2438	-0.431856230911717 
2439	-0.769539056060505 
2440	 0.605576684695149 
2441	 0.174281405723623 
2442	-3.90373683532548E-02 
2443	 4.01358596307164E-02 
2444	-3.51155715517947E-02 
2445	 5.98097433854952E-02 
2446	 0.298128275887192 
2447	-2.29638747970405 
2448	-3.2922742118464 
2449	-3.12253940405327 
2450	-3.12408218558159 
2451	-0.230666449033542 
2452	-1.01057634329679 
2453	-1.45163494892858 
2454	-1.35364080291519 
2455	-1.95661169345813 
2456	-6.70565610004762E-02 
2457	 3.06696288715492 
2458	-1.40931040609378 
2459	-0.794048589484063 
2460	-0.813381679265147 
2461	-8.04901953409681E-02 
2462	 0.15956799710227 
2463	 3.75758300275538 
2464	-5.43242018918054 
2465	-2.28473856524385 
2466	-1.05499705601338 
2467	-0.957263838303493 
2468	 0.268606962962445 
2469	 0.484306537104875 
2470	 0.817719856105609 
2471	-0.369163404001398 
2472	 1.13922011889637 
2473	-0.576297106326563 
2474	-0.856550848080852 
2475	-3.90150197019861 
2476	 2.15190526098531 
2477	-3.50088565316272E-02 
2478	-0.32522171514833 
2479	-0.234407005769118 
2480	-1.02415116173651 
2481	-0.725891038894368 
2482	-0.623166315579509 
2483	 4.65885173655504E-02 
2484	 9.47438874182032E-02 
2485	 3.57026397132809E-02 
2486	 0.606458629047956 
2487	 1.83446463414289 
2488	 5.87465353836819 
2489	-11.6588196134363 
2490	-5.99191245112637 
2491	-0.809503940276529 
2492	-0.840222159032979 
2493	-0.895419363360144 
2494	-0.437397129766445 
2495	-0.529846384060083 
2496	-0.485741921324487 
2497	-0.204801986825662 
2498	 6.44183877133001E-02 
2499	 0.482561261586167 
2500	 0.853223920964913 
