Wavelength	rt0801far100008.asd
350	 6.81499069970558E-02 
351	 6.75883626551083E-02 
352	 6.90507617406826E-02 
353	 6.94181296786311E-02 
354	 6.74266374808196E-02 
355	 6.70989187116055E-02 
356	 6.73522213654984E-02 
357	 6.79077161723973E-02 
358	 6.86234186645462E-02 
359	 6.93992226475068E-02 
360	 6.89443902352007E-02 
361	 6.81910475054449E-02 
362	 0.069243544571183 
363	 6.98150053356601E-02 
364	 6.94592713190523E-02 
365	 6.87269142738823E-02 
366	 6.92700847310871E-02 
367	 6.94850866190691E-02 
368	 0.069484589357976 
369	 6.96422429513147E-02 
370	 6.95836600380159E-02 
371	 6.94141833655536E-02 
372	 6.96170558978393E-02 
373	 7.06496733250142E-02 
374	 7.08935406689805E-02 
375	 7.08220475878444E-02 
376	 7.08875917916157E-02 
377	 7.11734055084163E-02 
378	 7.14889867598819E-02 
379	 7.16697056083843E-02 
380	 7.17054058747957E-02 
381	 7.20455839298518E-02 
382	 7.19835068238122E-02 
383	 7.20481662895626E-02 
384	 7.30819631770889E-02 
385	 7.37325745096512E-02 
386	 7.38746986024944E-02 
387	 7.37072352563271E-02 
388	 7.36551285290445E-02 
389	 7.39335066413051E-02 
390	 7.41899047364565E-02 
391	 7.43242916239627E-02 
392	 7.52617619969374E-02 
393	 7.51820264768867E-02 
394	 7.48296278495458E-02 
395	 7.54990787515136E-02 
396	 7.58929254058239E-02 
397	 7.62824310659041E-02 
398	 7.66564708720186E-02 
399	 7.67178213219049E-02 
400	 7.69454531635354E-02 
401	 7.74673077115931E-02 
402	 7.79640693653628E-02 
403	 7.71250681580127E-02 
404	 7.70504327675194E-02 
405	 7.76962091087266E-02 
406	 7.82119117169167E-02 
407	 7.83344393673822E-02 
408	 7.84100617213917E-02 
409	 7.86329668367049E-02 
410	 7.89821253722578E-02 
411	 7.90503570577235E-02 
412	 7.91552285037385E-02 
413	 7.95498138964347E-02 
414	 8.00473402260499E-02 
415	 8.03929894971101E-02 
416	 8.05621178255603E-02 
417	 8.06865525540011E-02 
418	 8.11179180542212E-02 
419	 8.14481364151854E-02 
420	 8.15747179751304E-02 
421	 8.17772517047491E-02 
422	 8.20827692418056E-02 
423	 0.082332728273087 
424	 8.24927783593426E-02 
425	 8.29977901055438E-02 
426	 8.35428028439809E-02 
427	 8.40214011023857E-02 
428	 8.44434590230421E-02 
429	 8.49459009126632E-02 
430	 8.52298052392332E-02 
431	 8.54333769360527E-02 
432	 8.62275228780635E-02 
433	 8.67366073413835E-02 
434	 8.71089853847023E-02 
435	 8.75781129698213E-02 
436	 8.78859669630289E-02 
437	 8.83326144533536E-02 
438	 8.88712608874605E-02 
439	 0.089292479982501 
440	 8.98169623975924E-02 
441	 9.03154781081666E-02 
442	 9.07354174727913E-02 
443	 9.11938612255245E-02 
444	 9.14912038613141E-02 
445	 9.17912937335691E-02 
446	 9.22400999918613E-02 
447	 9.25071118373848E-02 
448	 9.28376668758924E-02 
449	 9.32338610532583E-02 
450	 0.093516668893831 
451	 9.36995267205677E-02 
452	 0.093899158928165 
453	 9.41560806281319E-02 
454	 9.43216101502812E-02 
455	 9.44765346197017E-02 
456	 9.46687952498921E-02 
457	 9.49069543671522E-02 
458	 9.50549417499278E-02 
459	 9.51997340743463E-02 
460	 9.53869126469725E-02 
461	 9.55971076065351E-02 
462	 9.55437825157312E-02 
463	 9.56221435229677E-02 
464	 9.60269965724846E-02 
465	 9.60010365183498E-02 
466	 9.61727864284478E-02 
467	 9.65136600489691E-02 
468	 9.66948079730326E-02 
469	 9.67492654139913E-02 
470	 9.68973980845183E-02 
471	 9.71624079445402E-02 
472	 9.72820630963586E-02 
473	 9.74603893156238E-02 
474	 9.77160375609029E-02 
475	 9.79924323924328E-02 
476	 9.81479627456916E-02 
477	 9.82790583996968E-02 
478	 0.098480198457671 
479	 9.88130366596184E-02 
480	 0.099015160708185 
481	 9.92701527744796E-02 
482	 9.96450961257167E-02 
483	 9.98253491671319E-02 
484	 0.100274393484484 
485	 0.100766488921176 
486	 0.100952531512828 
487	 0.101281402266721 
488	 0.101766034841032 
489	 0.102253279309928 
490	 0.102485308164854 
491	 0.102886941468222 
492	 0.1034611170085 
493	 0.10405468594748 
494	 0.10432078662565 
495	 0.104719147525544 
496	 0.105306679101766 
497	 0.105918416782397 
498	 0.106433971222918 
499	 0.106976698379669 
500	 0.10757415598778 
501	 0.108058870062033 
502	 0.108708320554487 
503	 0.109389211779337 
504	 0.10993957240527 
505	 0.110596897098497 
506	 0.111195367219847 
507	 0.111775373845108 
508	 0.112524903632759 
509	 0.113210421003142 
510	 0.113863752741248 
511	 0.114523317530325 
512	 0.11513469189496 
513	 0.11580637521181 
514	 0.116515584981221 
515	 0.117198814715662 
516	 0.117981179335694 
517	 0.118861981201314 
518	 0.119752194172847 
519	 0.120481797928725 
520	 0.121151550877745 
521	 0.121901563071893 
522	 0.122786969334213 
523	 0.123533657718651 
524	 0.124322281121336 
525	 0.12514958929955 
526	 0.125905844820381 
527	 0.12683553885669 
528	 0.12774575063881 
529	 0.128538564621494 
530	 0.129421275914912 
531	 0.130361596715605 
532	 0.131253164565056 
533	 0.132016130025316 
534	 0.132950606697783 
535	 0.133899590087143 
536	 0.134793473709765 
537	 0.135689919879876 
538	 0.136605296802646 
539	 0.137574127594615 
540	 0.138594598028454 
541	 0.139556976783039 
542	 0.140460106669334 
543	 0.141335968145593 
544	 0.142240669393917 
545	 0.143199575087814 
546	 0.144149593038684 
547	 0.14506706133769 
548	 0.146035618501071 
549	 0.146934457156655 
550	 0.147803331996894 
551	 0.148722667079604 
552	 0.1496515202647 
553	 0.150512398510025 
554	 0.151304185594822 
555	 0.152110496151435 
556	 0.153042605717791 
557	 0.153980703523837 
558	 0.154787270817329 
559	 0.155488514536022 
560	 0.156248915785992 
561	 0.157064886163175 
562	 0.157827606893882 
563	 0.158516083055481 
564	 0.15919965963423 
565	 0.15990850120116 
566	 0.160576219013647 
567	 0.161196438529023 
568	 0.161811560721335 
569	 0.162448949867567 
570	 0.162960298870407 
571	 0.163336174144769 
572	 0.163657798871975 
573	 0.164084124802622 
574	 0.164549716856417 
575	 0.164972362286533 
576	 0.165322894686587 
577	 0.165783973232756 
578	 0.166124299946864 
579	 0.166358908707278 
580	 0.166646472918071 
581	 0.166923847206651 
582	 0.1670800374606 
583	 0.167140577453573 
584	 0.167392561174727 
585	 0.167678033021435 
586	 0.167878404500933 
587	 0.167949571394016 
588	 0.168275881586947 
589	 0.168456090746366 
590	 0.168372980288949 
591	 0.168292870047432 
592	 0.168186387684954 
593	 0.168030222226002 
594	 0.167799542740297 
595	 0.167453369366704 
596	 0.167223532249439 
597	 0.166925439551198 
598	 0.166226963778263 
599	 0.165746585523546 
600	 0.165422823423284 
601	 0.165130821064295 
602	 0.164766756241006 
603	 0.164743259293459 
604	 0.164855493936133 
605	 0.164781360486965 
606	 0.164713216001225 
607	 0.164790921304872 
608	 0.164901729167376 
609	 0.164697261859891 
610	 0.164660537736146 
611	 0.164700142011503 
612	 0.164679190372756 
613	 0.164696030649339 
614	 0.164816307410189 
615	 0.164941569787335 
616	 0.164902229424095 
617	 0.164847005521288 
618	 0.164790227137006 
619	 0.164741962598938 
620	 0.164740285745996 
621	 0.164551203954879 
622	 0.164399741223778 
623	 0.164555497997038 
624	 0.164714034643178 
625	 0.164849788721703 
626	 0.164945312499047 
627	 0.164982697437765 
628	 0.164947434189109 
629	 0.164857338445121 
630	 0.164755675107876 
631	 0.164745661173933 
632	 0.164636651853109 
633	 0.164514538312932 
634	 0.164551313975425 
635	 0.1644754792472 
636	 0.164368517650932 
637	 0.164259828071797 
638	 0.164046088981938 
639	 0.164099351479916 
640	 0.164183489124882 
641	 0.163997291363111 
642	 0.163739082202372 
643	 0.16370592772884 
644	 0.163820455551966 
645	 0.163712220750522 
646	 0.163681193444252 
647	 0.163661495610722 
648	 0.163558911113213 
649	 0.163367886134033 
650	 0.163121041661577 
651	 0.162952345695266 
652	 0.162922593721862 
653	 0.162276419853481 
654	 0.161920166565409 
655	 0.162002258420546 
656	 0.16146862530065 
657	 0.16088145791612 
658	 0.160421536455438 
659	 0.160110599572168 
660	 0.159836261456581 
661	 0.159602768187439 
662	 0.159432460449213 
663	 0.159344990424348 
664	 0.159157631975942 
665	 0.158986249314135 
666	 0.158876391860115 
667	 0.158674788732296 
668	 0.158597437702178 
669	 0.158574960341398 
670	 0.158495014486084 
671	 0.158540977375953 
672	 0.158578327741999 
673	 0.158590800436565 
674	 0.158678944855972 
675	 0.158716581950972 
676	 0.158844896741559 
677	 0.159120065451062 
678	 0.159253876556965 
679	 0.159478592877697 
680	 0.159659957962087 
681	 0.15961981058508 
682	 0.160094719786936 
683	 0.160501700567599 
684	 0.160723505897193 
685	 0.1614669043779 
686	 0.162110558506756 
687	 0.162615188595136 
688	 0.163033531904141 
689	 0.163008980519814 
690	 0.163534740511888 
691	 0.164374772249144 
692	 0.164576642849397 
693	 0.1646668490424 
694	 0.164621113121859 
695	 0.164417616920996 
696	 0.164071872983675 
697	 0.164003218243696 
698	 0.164068068310859 
699	 0.163981765765735 
700	 0.163796654336323 
701	 0.163447822000516 
702	 0.162933561342723 
703	 0.162297140524699 
704	 0.161832454385491 
705	 0.161270516400545 
706	 0.160455811490061 
707	 0.159583931505185 
708	 0.158827769913788 
709	 0.157969045920536 
710	 0.156760394899013 
711	 0.155685219539488 
712	 0.15445140249988 
713	 0.153132933195809 
714	 0.152203065441981 
715	 0.151586879321713 
716	 0.150959112636073 
717	 0.149934575255476 
718	 0.148430174467743 
719	 0.145951748743479 
720	 0.143544783988639 
721	 0.14172324652583 
722	 0.140629748490325 
723	 0.139174124787465 
724	 0.137099619376703 
725	 0.135019702897381 
726	 0.133000119433333 
727	 0.130718227616442 
728	 0.127978040608469 
729	 0.125221851617593 
730	 0.121941666540697 
731	 0.118692851133618 
732	 0.116012109887261 
733	 0.113674496222024 
734	 0.111748558947377 
735	 0.110202305317903 
736	 0.108773778717067 
737	 0.107671551572009 
738	 0.106760324412236 
739	 0.105983270531726 
740	 0.105721490431247 
741	 0.105314443373513 
742	 0.104773735569402 
743	 0.104467442031856 
744	 0.104585443539081 
745	 0.104650390276489 
746	 0.104507966666239 
747	 0.104521712648629 
748	 0.104569551974805 
749	 0.10455870741176 
750	 0.104432211821559 
751	 0.10420128106681 
752	 0.104226085535516 
753	 0.104461972241485 
754	 0.104633213397562 
755	 0.104681537110369 
756	 0.104637534195583 
757	 0.104672651650453 
758	 0.105309928897566 
759	 0.106065674172076 
760	 0.106614861086088 
761	 0.106621682954822 
762	 0.106445709253381 
763	 0.106597977872157 
764	 0.106588427771041 
765	 0.106020486236116 
766	 0.105950053634807 
767	 0.106022188392693 
768	 0.106071946716982 
769	 0.106123091566536 
770	 0.106327283685521 
771	 0.106629347882447 
772	 0.106937293652677 
773	 0.107208547449103 
774	 0.10728420552741 
775	 0.107513252278809 
776	 0.108245699147468 
777	 0.108400584159732 
778	 0.108617978680643 
779	 0.109082373146359 
780	 0.109414578222753 
781	 0.109878792315999 
782	 0.110338533888717 
783	 0.110751256760557 
784	 0.111470644097192 
785	 0.112026417101465 
786	 0.11242491089243 
787	 0.112841807181111 
788	 0.113310113239109 
789	 0.11384116641236 
790	 0.114412421669318 
791	 0.114972681093963 
792	 0.115319771409545 
793	 0.115679339349896 
794	 0.116204937280431 
795	 0.116820390308256 
796	 0.117329984991422 
797	 0.117746382062975 
798	 0.11816333618862 
799	 0.118606488773877 
800	 0.118960481642453 
801	 0.119229690097547 
802	 0.119479516355155 
803	 0.119577874044673 
804	 0.119647412784213 
805	 0.119759204358197 
806	 0.119890935307615 
807	 0.119631286080542 
808	 0.119571465493912 
809	 0.119958011490203 
810	 0.119485281439453 
811	 0.119460170179373 
812	 0.119753375213677 
813	 0.119677376229341 
814	 0.119695010586424 
815	 0.119172303195422 
816	 0.118241227101119 
817	 0.11759128002099 
818	 0.116371528080643 
819	 0.115227188709004 
820	 0.114304578240129 
821	 0.113144296028372 
822	 0.11156568456729 
823	 0.109768039076286 
824	 0.108058692964626 
825	 0.106449225232788 
826	 0.104715324748147 
827	 0.102484497884749 
828	 9.96933136843111E-02 
829	 9.72461956905053E-02 
830	 9.52003969406729E-02 
831	 9.33038885379055E-02 
832	 9.13126570299785E-02 
833	 9.01808535375321E-02 
834	 8.91683985298723E-02 
835	 8.80351015392342E-02 
836	 8.74198124812732E-02 
837	 0.086645178007442 
838	 8.60104366949839E-02 
839	 8.57087110633549E-02 
840	 0.085166426175851 
841	 8.45467193580364E-02 
842	 8.38572814439301E-02 
843	 0.083199302671751 
844	 8.32954752343479E-02 
845	 0.083008548161086 
846	 8.23054213823789E-02 
847	 8.18944281260068E-02 
848	 8.13668338497681E-02 
849	 8.12146350338619E-02 
850	 8.13542452584612E-02 
851	 8.09093896380021E-02 
852	 8.04720537909177E-02 
853	 8.00824258019874E-02 
854	 7.96812627407617E-02 
855	 7.92113558082807E-02 
856	 7.89580575396983E-02 
857	 7.85291144242694E-02 
858	 7.77196389880886E-02 
859	 7.76319816981097E-02 
860	 7.77779218951905E-02 
861	 7.77158688778085E-02 
862	 7.71965640919415E-02 
863	 7.69197991316141E-02 
864	 7.63590312131878E-02 
865	 7.57467376422751E-02 
866	 7.58728020999295E-02 
867	 7.50748630347007E-02 
868	 0.074860485218956 
869	 7.53074235649666E-02 
870	 7.42269552383504E-02 
871	 7.40689596607256E-02 
872	 7.40232055408414E-02 
873	 0.073247343063115 
874	 0.07238210879214 
875	 7.22420960371596E-02 
876	 7.20436247763966E-02 
877	 7.10802826886724E-02 
878	 7.09270443414699E-02 
879	 7.07091133609646E-02 
880	 7.02453841747653E-02 
881	 6.97608087981384E-02 
882	 6.96925515611891E-02 
883	 6.87831386306361E-02 
884	 6.75976856797304E-02 
885	 6.78190125271852E-02 
886	 6.76444369286811E-02 
887	 6.71605760637064E-02 
888	 6.67447921678896E-02 
889	 6.67893390303488E-02 
890	 6.63720531062236E-02 
891	 6.60228061937029E-02 
892	 6.61799008446621E-02 
893	 6.65488719396306E-02 
894	 6.61154820159687E-02 
895	 6.55804174637211E-02 
896	 6.57048825708362E-02 
897	 6.52427580875183E-02 
898	 6.50255261925003E-02 
899	 6.49175459410958E-02 
900	 6.43950260145073E-02 
901	 6.28442339912569E-02 
902	 0.062794810671936 
903	 6.24874699462512E-02 
904	 6.01246352828622E-02 
905	 6.21593110538795E-02 
906	 6.33246265625393E-02 
907	 6.23222250370918E-02 
908	 0.061133101545238 
909	 5.94140856671818E-02 
910	 5.99717777456731E-02 
911	 0.061407015691961 
912	 5.91619975692815E-02 
913	 5.85523846038201E-02 
914	 5.72472613095964E-02 
915	 5.54614979858953E-02 
916	 0.05660677765284 
917	 5.52195540786328E-02 
918	 5.35684816486067E-02 
919	 5.31559301010167E-02 
920	 5.31233667559962E-02 
921	 5.24204182195752E-02 
922	 5.20922181496389E-02 
923	 0.052232261256992 
924	 4.99106861468574E-02 
925	 4.98788474719924E-02 
926	 5.08513435968587E-02 
927	 5.06354570282293E-02 
928	 5.27821615401464E-02 
929	 4.89302363846631E-02 
930	 4.46746826767474E-02 
931	 5.31206220636295E-02 
932	 4.96128585426512E-02 
933	 0.04307037645378 
934	 0.03901874619255 
935	 0.037818353923692 
936	 3.46110402693257E-02 
937	 4.45155371898554E-02 
938	 4.76085352814736E-02 
939	 3.07142974200179E-02 
940	 4.31400379467189E-02 
941	 4.63154917263467E-02 
942	 4.29131185881665E-02 
943	 5.06386022608061E-02 
944	 0.040438244676428 
945	 4.37747517917939E-02 
946	 5.21196360141484E-02 
947	 3.87108477458653E-02 
948	 3.31848796085981E-02 
949	 3.29418420985529E-02 
950	 3.78775008012945E-02 
951	 4.64574244046895E-02 
952	 0.033285221240014 
953	 0.036064689567481 
954	 4.71688018763624E-02 
955	 3.53583858429302E-02 
956	 3.44839471241026E-02 
957	 3.36252191736895E-02 
958	 3.36896214674714E-02 
959	 4.20920235811894E-02 
960	 4.14497640568727E-02 
961	 3.93608167664952E-02 
962	 3.95219024522853E-02 
963	 4.08476498279015E-02 
964	 4.08383606815532E-02 
965	 4.20678269395065E-02 
966	 4.12252951323287E-02 
967	 3.36708023209673E-02 
968	 3.57163446470781E-02 
969	 3.51333908624499E-02 
970	 3.14005918266159E-02 
971	 3.43900070277331E-02 
972	 3.80820472185257E-02 
973	 0.038141108868477 
974	 3.55401440982127E-02 
975	 3.58281819525911E-02 
976	 3.82874784452349E-02 
977	 3.75235112600025E-02 
978	 3.50585246129074E-02 
979	 3.70265072901243E-02 
980	 3.68557986830151E-02 
981	 3.59414492729142E-02 
982	 3.65202297001816E-02 
983	 3.92919114640424E-02 
984	 3.38379252459991E-02 
985	 3.39573303353133E-02 
986	 3.93307883123731E-02 
987	 3.89301582280814E-02 
988	 3.89659499495798E-02 
989	 3.62044505669798E-02 
990	 3.28577028477741E-02 
991	 0.034245940179565 
992	 3.57720118455357E-02 
993	 3.62671599360736E-02 
994	 3.58993006190281E-02 
995	 3.57024715438159E-02 
996	 3.66487445794068E-02 
997	 0.035929883070978 
998	 0.034974738988806 
999	 3.64833221368092E-02 
1000	 3.35537462824647E-02 
1001	 3.54237587711814E-02 
1002	 3.49159405730884E-02 
1003	 3.48191898397394E-02 
1004	 3.51706438055828E-02 
1005	 3.52952767609294E-02 
1006	 3.55458810700701E-02 
1007	 3.54818594032675E-02 
1008	 3.58323176860725E-02 
1009	 3.59707658316955E-02 
1010	 3.57821359078327E-02 
1011	 3.56962766400371E-02 
1012	 3.44986372953232E-02 
1013	 3.38483588610079E-02 
1014	 3.38547804762983E-02 
1015	 3.42791191658154E-02 
1016	 3.48432500074568E-02 
1017	 3.64898748335342E-02 
1018	 3.70388602628925E-02 
1019	 3.70805058012461E-02 
1020	 3.73095340179134E-02 
1021	 3.74308017211555E-02 
1022	 0.037274095039178 
1023	 3.70099944936995E-02 
1024	 0.037112220576858 
1025	 3.68019464971405E-02 
1026	 3.64749302151268E-02 
1027	 3.63915330445117E-02 
1028	 3.67106441861545E-02 
1029	 3.64606191390236E-02 
1030	 3.58452339507241E-02 
1031	 3.57700475417883E-02 
1032	 3.56091941719751E-02 
1033	 3.55416043422039E-02 
1034	 0.035711927818932 
1035	 3.61553587425881E-02 
1036	 3.68487276400166E-02 
1037	 3.73567353522171E-02 
1038	 3.83695012104379E-02 
1039	 3.88965244652698E-02 
1040	 3.88115875775757E-02 
1041	 3.87130452102149E-02 
1042	 3.87643812640002E-02 
1043	 3.87482931350392E-02 
1044	 3.88738614916015E-02 
1045	 3.91598173170923E-02 
1046	 3.92524002871925E-02 
1047	 0.039424834260127 
1048	 0.039304117856196 
1049	 3.85754026577086E-02 
1050	 3.87034575590998E-02 
1051	 0.039489258011444 
1052	 3.95805276243383E-02 
1053	 3.95150434103869E-02 
1054	 0.039866295344047 
1055	 3.99047461970229E-02 
1056	 4.00228526967748E-02 
1057	 4.03607175838909E-02 
1058	 4.15755260256543E-02 
1059	 4.18310114163356E-02 
1060	 4.13528350195347E-02 
1061	 4.15819549559599E-02 
1062	 4.22033953022664E-02 
1063	 4.22029778864939E-02 
1064	 4.22357386489283E-02 
1065	 4.20248748283975E-02 
1066	 4.09545661314308E-02 
1067	 4.05461216813086E-02 
1068	 4.04107959719698E-02 
1069	 4.03484945442385E-02 
1070	 4.06376577954981E-02 
1071	 4.07678046239858E-02 
1072	 4.10640395603239E-02 
1073	 4.10696028420695E-02 
1074	 4.10893913334325E-02 
1075	 4.09625147154814E-02 
1076	 4.09030045624909E-02 
1077	 0.040828802005797 
1078	 0.040743362914798 
1079	 4.08228644981883E-02 
1080	 4.05243198362265E-02 
1081	 3.92968200636695E-02 
1082	 3.95593197222067E-02 
1083	 4.11989241278694E-02 
1084	 4.12465661992939E-02 
1085	 4.13488490825207E-02 
1086	 4.14067916337221E-02 
1087	 3.98399102690026E-02 
1088	 3.90874179725141E-02 
1089	 3.93585479967158E-02 
1090	 0.039433213395135 
1091	 3.93520752021901E-02 
1092	 3.88140470458274E-02 
1093	 3.87792669746823E-02 
1094	 3.93543476966305E-02 
1095	 0.039169711073467 
1096	 3.85506852941508E-02 
1097	 3.84147523701231E-02 
1098	 3.79561376592105E-02 
1099	 3.77492992705868E-02 
1100	 3.83440897982225E-02 
1101	 3.85056220846523E-02 
1102	 3.82260317771011E-02 
1103	 3.81407866833713E-02 
1104	 3.83298207096371E-02 
1105	 3.80827410020495E-02 
1106	 0.037617931350237 
1107	 0.03749569053704 
1108	 3.72980802157427E-02 
1109	 3.81959195095233E-02 
1110	 3.87728307884566E-02 
1111	 0.040623882323371 
1112	 4.01547196851459E-02 
1113	 3.61881444953963E-02 
1114	 3.61754884007798E-02 
1115	 3.73366307220383E-02 
1116	 3.86535482473065E-02 
1117	 4.98171240569135E-02 
1118	 5.31465901550459E-02 
1119	 3.93920902700995E-02 
1120	 3.74781307408596E-02 
1121	 4.03658045879854E-02 
1122	 4.61978749688578E-02 
1123	 4.68828704672094E-02 
1124	 4.63909557724637E-02 
1125	 5.54524756668732E-02 
1126	 5.20130903549021E-02 
1127	 5.06086524146324E-02 
1128	 6.29295470695189E-02 
1129	 5.67535426203566E-02 
1130	 1.88067738611695E-02 
1131	 1.69527346756784E-02 
1132	 3.40695552844526E-02 
1133	 3.40932201465618E-02 
1134	 3.45061165088544E-02 
1135	 3.56879782114009E-02 
1136	 2.69716498031983E-02 
1137	 2.97277854888652E-02 
1138	 0.043208527829867 
1139	 4.91189926553185E-02 
1140	 4.80889375277058E-02 
1141	 4.60803725445253E-02 
1142	 3.50442562333273E-02 
1143	 0.027373850155215 
1144	 3.02571213415585E-02 
1145	 3.45918443692049E-02 
1146	 4.00426005761943E-02 
1147	 4.57017656926961E-02 
1148	 4.34071706444964E-02 
1149	 3.61313094653432E-02 
1150	 3.42937132902176E-02 
1151	 3.38515504302556E-02 
1152	 3.34737445208842E-02 
1153	 3.54326625103233E-02 
1154	 3.53281602565872E-02 
1155	 3.56806475040517E-02 
1156	 3.18980366465621E-02 
1157	 2.96538752724263E-02 
1158	 3.17854273833248E-02 
1159	 3.34612926989049E-02 
1160	 3.46483004431298E-02 
1161	 3.60631516434135E-02 
1162	 3.64248641988878E-02 
1163	 3.57731679103373E-02 
1164	 3.57428626678795E-02 
1165	 3.65896116525896E-02 
1166	 3.62807494883225E-02 
1167	 3.58541590084375E-02 
1168	 3.61706432510083E-02 
1169	 3.58154362072299E-02 
1170	 3.55046201173216E-02 
1171	 3.53714472525479E-02 
1172	 3.57818252344721E-02 
1173	 3.53821106453388E-02 
1174	 0.034698381233568 
1175	 3.35946983302681E-02 
1176	 0.032917171235067 
1177	 0.03276144990911 
1178	 3.30559291596078E-02 
1179	 3.40691866062991E-02 
1180	 3.48325071164421E-02 
1181	 3.46965165807155E-02 
1182	 3.45235483434627E-02 
1183	 3.49609390986387E-02 
1184	 3.45084871330833E-02 
1185	 3.36812018260609E-02 
1186	 3.41652910406803E-02 
1187	 3.49391089943942E-02 
1188	 3.54437944643474E-02 
1189	 0.035775349050261 
1190	 3.55731368972682E-02 
1191	 3.48356945317227E-02 
1192	 3.46073980934822E-02 
1193	 3.45620210903463E-02 
1194	 3.55629522519812E-02 
1195	 3.60075513174053E-02 
1196	 3.51562011571885E-02 
1197	 3.48651197549574E-02 
1198	 3.55283994165697E-02 
1199	 3.52952985174951E-02 
1200	 3.52163632033906E-02 
1201	 3.56716211285095E-02 
1202	 3.47273897607129E-02 
1203	 3.35896013702119E-02 
1204	 3.39749606608136E-02 
1205	 3.44036601474524E-02 
1206	 3.39318915899368E-02 
1207	 3.39226668429747E-02 
1208	 3.40802018686947E-02 
1209	 3.37499629034612E-02 
1210	 3.39428849088995E-02 
1211	 3.44097274721638E-02 
1212	 3.42911667327889E-02 
1213	 3.41216340415406E-02 
1214	 3.43139233560333E-02 
1215	 3.47036608407014E-02 
1216	 3.47368870103614E-02 
1217	 3.44237264905169E-02 
1218	 3.44323787150565E-02 
1219	 3.42619816913961E-02 
1220	 3.41012682696158E-02 
1221	 3.45132358765164E-02 
1222	 3.45513855277023E-02 
1223	 3.39502757879542E-02 
1224	 0.033694915251576 
1225	 3.42140888189021E-02 
1226	 3.47402443240191E-02 
1227	 3.45605148326977E-02 
1228	 3.45753265328079E-02 
1229	 0.034422279080792 
1230	 3.36668366003636E-02 
1231	 0.033792849190441 
1232	 3.39201967829382E-02 
1233	 3.37248905483909E-02 
1234	 3.39473992633832E-02 
1235	 0.033968744378351 
1236	 3.39222011134423E-02 
1237	 3.40369729599313E-02 
1238	 3.42459543640859E-02 
1239	 3.40570285114878E-02 
1240	 3.38857517973187E-02 
1241	 3.36065595347879E-02 
1242	 3.30032550935489E-02 
1243	 0.032789598856643 
1244	 3.33159239915282E-02 
1245	 3.38157265179465E-02 
1246	 3.38808960074039E-02 
1247	 3.33197339812769E-02 
1248	 0.032750282017278 
1249	 0.033081491668098 
1250	 3.34500783834569E-02 
1251	 3.36506777747544E-02 
1252	 3.41806592356824E-02 
1253	 3.38980753224849E-02 
1254	 3.30277650654228E-02 
1255	 3.32762123483937E-02 
1256	 3.34150335761602E-02 
1257	 3.33897161774388E-02 
1258	 3.34819960415256E-02 
1259	 3.41193531753379E-02 
1260	 3.42814575473576E-02 
1261	 3.42495139718476E-02 
1262	 0.034122977643326 
1263	 3.36916938911125E-02 
1264	 3.35123033840255E-02 
1265	 3.35695041428433E-02 
1266	 3.38853511366113E-02 
1267	 3.42932355457649E-02 
1268	 3.44836909137633E-02 
1269	 3.48409507412545E-02 
1270	 3.44666528277037E-02 
1271	 3.36071801905046E-02 
1272	 3.35764428401527E-02 
1273	 3.33438660863191E-02 
1274	 3.28352536123588E-02 
1275	 3.31759952898615E-02 
1276	 3.35940750277302E-02 
1277	 3.38219532202233E-02 
1278	 3.40444467789777E-02 
1279	 3.38933389957729E-02 
1280	 3.37179727726088E-02 
1281	 3.37041231633573E-02 
1282	 0.033462502661863 
1283	 3.34207544454686E-02 
1284	 3.36615898594895E-02 
1285	 3.38409555479087E-02 
1286	 3.41231959839808E-02 
1287	 3.40399141379457E-02 
1288	 3.39159188590746E-02 
1289	 3.39528997821692E-02 
1290	 3.37598628550336E-02 
1291	 3.31648602552774E-02 
1292	 3.37424562238627E-02 
1293	 3.44303778028335E-02 
1294	 3.46923159339978E-02 
1295	 3.50397580441524E-02 
1296	 3.46910316629851E-02 
1297	 3.39700001011778E-02 
1298	 3.33114218156531E-02 
1299	 3.34919440139549E-02 
1300	 3.40772634495436E-02 
1301	 3.36349296720334E-02 
1302	 3.36457820212463E-02 
1303	 3.39486876778312E-02 
1304	 0.033506250934051 
1305	 0.033744110236377 
1306	 3.40422364843103E-02 
1307	 3.40506031505814E-02 
1308	 3.42609946799684E-02 
1309	 3.54675284006571E-02 
1310	 3.60792113244169E-02 
1311	 3.62030052960726E-02 
1312	 3.60185688884672E-02 
1313	 3.54374080732751E-02 
1314	 3.53434210169939E-02 
1315	 3.49504102199083E-02 
1316	 3.46255302816217E-02 
1317	 3.51996027611028E-02 
1318	 3.52148613649381E-02 
1319	 3.40779603337687E-02 
1320	 0.033896559479371 
1321	 3.54099908123573E-02 
1322	 3.42936447196031E-02 
1323	 3.16125251912602E-02 
1324	 3.27528983383364E-02 
1325	 3.50255953777061E-02 
1326	 3.52554258291124E-02 
1327	 3.53017509746689E-02 
1328	 3.65891202100529E-02 
1329	 3.72155705340911E-02 
1330	 3.58094818082689E-02 
1331	 3.57646333564951E-02 
1332	 3.75492248528068E-02 
1333	 3.79388432326258E-02 
1334	 3.83859466610673E-02 
1335	 0.03785508708752 
1336	 0.03611466387337 
1337	 3.63923302145028E-02 
1338	 3.72362435219754E-02 
1339	 3.79188048119096E-02 
1340	 4.11933795101208E-02 
1341	 4.20806682457065E-02 
1342	 0.040289496345531 
1343	 3.86363649905825E-02 
1344	 3.59891849294716E-02 
1345	 3.48060972635463E-02 
1346	 3.20454427014838E-02 
1347	 2.96243872484193E-02 
1348	 3.15089875463769E-02 
1349	 3.25346480440327E-02 
1350	 3.12948757072301E-02 
1351	 2.62659834951595E-02 
1352	 1.86784959745034E-02 
1353	 1.54174411030925E-02 
1354	-1.88739048043788E-02 
1355	 5.20838629916423E-02 
1356	 0.246905752140992 
1357	 6.25050709521544E-02 
1358	-0.139021864538023 
1359	-0.197163892638391 
1360	-0.164877015832741 
1361	-6.75963322754706E-03 
1362	 0.241466046865435 
1363	 0.421720689310608 
1364	 0.272061991464243 
1365	-0.128532407186764 
1366	-0.598931254745289 
1367	-0.436044007942939 
1368	-0.403816387571298 
1369	-0.171812449569072 
1370	-8.38784066986498E-02 
1371	 0.136896368718815 
1372	 0.413754806233729 
1373	 0.692248372017827 
1374	 0.579928020648973 
1375	 0.515715573338992 
1376	 0.682695866899087 
1377	 0.560810466630446 
1378	 0.430883798118896 
1379	 0.408939492405969 
1380	 0.332601883247683 
1381	-1.03277563281184 
1382	-1.49443759462453 
1383	-0.822377701535479 
1384	-0.759861480318942 
1385	-0.613849445381614 
1386	-0.484758096737428 
1387	-0.518318789367752 
1388	-0.413550608366775 
1389	 0.260373998932618 
1390	 0.35153963806401 
1391	-2.14218949947556E-03 
1392	-0.327107669796609 
1393	-0.106445556772601 
1394	-0.357642140666229 
1395	-0.182189154854892 
1396	 1.01446480747015 
1397	 10.4669864199869 
1398	-0.391422666045872 
1399	 1.34274379696868 
1400	 11.126376380895 
1401	-1.51573328476012 
1402	-0.24282792779914 
1403	 1.03654279036771 
1404	 32.9734107895364 
1405	 11.2592698214765 
1406	 0.234412560634718 
1407	 0.409830856638109 
1408	 0.365220969806837 
1409	 0.403211154604069 
1410	 4.74517319450547 
1411	 48.2215939483689 
1412	 0.570251615571844 
1413	 0.865841458279569 
1414	 8.51571820719863E-02 
1415	 0.113606547035225 
1416	 0.255915811630511 
1417	 0.284324343977871 
1418	 0.214562018491777 
1419	 5.83979573224327E-02 
1420	-5.05106156086556E-02 
1421	-4.80305162407266E-02 
1422	-0.139149147308043 
1423	-0.144540933569588 
1424	 6.96700328151113E-03 
1425	-1.16737626372023E-02 
1426	-0.133135137754597 
1427	-0.13493143392932 
1428	-0.167672236381244 
1429	-0.150029939984498 
1430	-3.01826349910146E-02 
1431	 2.09180183201081E-02 
1432	 0.135840520071155 
1433	 0.128134565268774 
1434	-7.64920637807385E-02 
1435	-6.26375996941032E-02 
1436	 7.38991426080234E-02 
1437	 6.99291227114889E-02 
1438	 0.03667227237866 
1439	 0.106570437469564 
1440	 9.76486440452046E-02 
1441	 3.61978790225049E-02 
1442	 7.91834596290439E-02 
1443	 0.118914230712839 
1444	 8.60963273498421E-02 
1445	 7.13978721143146E-02 
1446	 4.95347217070904E-02 
1447	 3.76929356631038E-02 
1448	 4.60876256443762E-02 
1449	 3.83722966091965E-02 
1450	 4.34381002239622E-02 
1451	 4.97185282629966E-02 
1452	 6.09793750557722E-02 
1453	 6.44463174197268E-02 
1454	 5.25354462693097E-02 
1455	 3.20777563504707E-02 
1456	 3.37504663972042E-02 
1457	 3.27166945234331E-02 
1458	 2.99876424559779E-02 
1459	 4.08983106074355E-02 
1460	 4.23333988380414E-02 
1461	 3.07725915334258E-02 
1462	 2.76831035673601E-02 
1463	 3.04468230091013E-02 
1464	 3.48828757254017E-02 
1465	 0.040436190922199 
1466	 3.82422787014599E-02 
1467	 4.13273297248008E-02 
1468	 3.87417898380277E-02 
1469	 1.27092437433445E-02 
1470	 1.54938505779567E-02 
1471	 4.18450583735477E-02 
1472	 0.045358269424334 
1473	 5.12223984433814E-02 
1474	 5.10063878144538E-02 
1475	 3.29792989784714E-02 
1476	 3.07811307521381E-02 
1477	 3.88711891500631E-02 
1478	 4.09683475756383E-02 
1479	 4.01626928560601E-02 
1480	 4.35330411118891E-02 
1481	 5.37834044022782E-02 
1482	 4.97000421840808E-02 
1483	 3.65918377459362E-02 
1484	 3.76878706007025E-02 
1485	 0.040111755920347 
1486	 0.037845541440329 
1487	 4.07367701755296E-02 
1488	 4.19756748158789E-02 
1489	 3.87318273961088E-02 
1490	 3.61914096603198E-02 
1491	 3.50196955209801E-02 
1492	 3.57808139371689E-02 
1493	 3.64648626602518E-02 
1494	 3.53054144714985E-02 
1495	 3.50911452166916E-02 
1496	 3.53908114488769E-02 
1497	 3.35018832258847E-02 
1498	 3.30263321921265E-02 
1499	 3.52642876680657E-02 
1500	 3.54515166972883E-02 
1501	 3.38450629071286E-02 
1502	 0.033761164901713 
1503	 3.44799977720629E-02 
1504	 3.42293227500804E-02 
1505	 3.35613932251751E-02 
1506	 3.37597883686199E-02 
1507	 3.31772218059945E-02 
1508	 3.32437728348017E-02 
1509	 3.36760441744399E-02 
1510	 3.33576084758512E-02 
1511	 3.34838417068845E-02 
1512	 3.40032956905379E-02 
1513	 3.46615421593936E-02 
1514	 3.48815603636739E-02 
1515	 3.49000571077216E-02 
1516	 3.48577418267624E-02 
1517	 3.42186695790842E-02 
1518	 3.42440942200072E-02 
1519	 0.034527589988246 
1520	 3.40670909794123E-02 
1521	 3.40756445689385E-02 
1522	 3.47601398905548E-02 
1523	 0.035368401896585 
1524	 3.53492123643763E-02 
1525	 3.46646511325159E-02 
1526	 3.46010315609399E-02 
1527	 3.46216765259894E-02 
1528	 3.42450749954978E-02 
1529	 3.47161631779827E-02 
1530	 3.44950343556897E-02 
1531	 3.34837979209075E-02 
1532	 3.32010149852352E-02 
1533	 3.26298395796705E-02 
1534	 3.21849103080838E-02 
1535	 3.29390357658643E-02 
1536	 0.033842777265566 
1537	 0.03392832421236 
1538	 3.40989104166137E-02 
1539	 0.034551214941404 
1540	 0.034113993208659 
1541	 3.39246145545393E-02 
1542	 3.43792034045078E-02 
1543	 0.033907778873116 
1544	 3.33769455157261E-02 
1545	 3.35816227857849E-02 
1546	 3.35788245543012E-02 
1547	 3.37184749974277E-02 
1548	 3.39878167279331E-02 
1549	 3.36319676422674E-02 
1550	 3.36580889991725E-02 
1551	 3.40896772636921E-02 
1552	 3.36170818181232E-02 
1553	 3.26342713271556E-02 
1554	 3.24426039814704E-02 
1555	 3.33878569964635E-02 
1556	 3.40158123496765E-02 
1557	 3.39656730716528E-02 
1558	 3.43336874794855E-02 
1559	 0.034153102471614 
1560	 3.32212019151457E-02 
1561	 3.31597862427182E-02 
1562	 3.34768095725636E-02 
1563	 3.28202544305134E-02 
1564	 0.032329919109628 
1565	 3.27889109282624E-02 
1566	 3.33709796204625E-02 
1567	 3.38595193694172E-02 
1568	 3.40742120669423E-02 
1569	 3.40239232628561E-02 
1570	 3.34689774184866E-02 
1571	 0.03270767747571 
1572	 3.27122172023194E-02 
1573	 3.31567731978815E-02 
1574	 0.033259959058414 
1575	 3.32060275036484E-02 
1576	 3.34261045136213E-02 
1577	 0.033810196286488 
1578	 3.39702980807368E-02 
1579	 3.40256089961218E-02 
1580	 3.46527797339653E-02 
1581	 3.45675769323756E-02 
1582	 3.38658103676673E-02 
1583	 3.39182248006377E-02 
1584	 3.33276855489325E-02 
1585	 3.29991183795836E-02 
1586	 3.36693579284061E-02 
1587	 3.37067809445139E-02 
1588	 3.38012668126247E-02 
1589	 3.39018298173183E-02 
1590	 3.36364806114605E-02 
1591	 3.33393629178671E-02 
1592	 3.28317070561991E-02 
1593	 0.032706923419361 
1594	 3.26819354778907E-02 
1595	 0.032824174943699 
1596	 3.31852774275384E-02 
1597	 3.33753287551669E-02 
1598	 3.35133864847483E-02 
1599	 3.36464995526224E-02 
1600	 3.42855080679824E-02 
1601	 3.44105153150493E-02 
1602	 3.39104697890001E-02 
1603	 3.41271211403756E-02 
1604	 3.40958900045252E-02 
1605	 0.03299890870269 
1606	 3.25301294681814E-02 
1607	 3.31165919634013E-02 
1608	 0.032870252073906 
1609	 3.24622229565506E-02 
1610	 3.29868376332478E-02 
1611	 3.31121255152324E-02 
1612	 3.27207020805704E-02 
1613	 3.26974235249826E-02 
1614	 3.30398260433951E-02 
1615	 3.31592822757758E-02 
1616	 3.32305100730669E-02 
1617	 3.40545960446254E-02 
1618	 3.45321941819946E-02 
1619	 3.38087363057702E-02 
1620	 3.32474299729141E-02 
1621	 3.32572208602965E-02 
1622	 3.33602514104793E-02 
1623	 3.33900704397427E-02 
1624	 3.34132808998358E-02 
1625	 3.34204923367812E-02 
1626	 3.27696988858193E-02 
1627	 3.21372038220867E-02 
1628	 3.23823353144565E-02 
1629	 3.28577025823293E-02 
1630	 0.033214398405429 
1631	 3.35961461977847E-02 
1632	 3.42179739512422E-02 
1633	 3.38697209564878E-02 
1634	 0.032727728251806 
1635	 3.34991437854916E-02 
1636	 3.43168108145668E-02 
1637	 3.34183846532137E-02 
1638	 3.36443844072738E-02 
1639	 3.45021347869426E-02 
1640	 3.36929916764162E-02 
1641	 0.032525724118062 
1642	 3.26665422251657E-02 
1643	 3.26997520827185E-02 
1644	 3.19523417771386E-02 
1645	 3.25221720642833E-02 
1646	 3.35985047820784E-02 
1647	 0.03317032174757 
1648	 3.29085360214796E-02 
1649	 3.37215870104948E-02 
1650	 3.36854455022055E-02 
1651	 3.30488518318195E-02 
1652	 3.29829628427463E-02 
1653	 0.032871793351234 
1654	 3.29801849737004E-02 
1655	 3.37226276983917E-02 
1656	 3.38295929626186E-02 
1657	 3.34500006687641E-02 
1658	 3.30185371966571E-02 
1659	 0.032282393816728 
1660	 3.21331859128208E-02 
1661	 3.21921983139976E-02 
1662	 3.22274562604506E-02 
1663	 3.27247345580804E-02 
1664	 0.0328238790016 
1665	 3.25306398114055E-02 
1666	 3.24591978622872E-02 
1667	 3.25356865147946E-02 
1668	 0.032715968066678 
1669	 3.30153637774501E-02 
1670	 3.25275483059154E-02 
1671	 0.031375589936542 
1672	 3.10734296442541E-02 
1673	 3.14027860906022E-02 
1674	 3.17337583602964E-02 
1675	 3.23764191749622E-02 
1676	 3.25401224379053E-02 
1677	 3.21275386899964E-02 
1678	 3.21869599063594E-02 
1679	 3.22468002955734E-02 
1680	 3.26654974800535E-02 
1681	 3.28766632541892E-02 
1682	 3.17200525339507E-02 
1683	 3.13962925855711E-02 
1684	 3.16267855980659E-02 
1685	 3.11640127246919E-02 
1686	 0.031934610548981 
1687	 3.31042156389663E-02 
1688	 3.25148066753472E-02 
1689	 3.21027800447204E-02 
1690	 3.29910654530226E-02 
1691	 3.33482169344241E-02 
1692	 3.37510858167453E-02 
1693	 3.48941702412404E-02 
1694	 3.51128178536834E-02 
1695	 3.41295787910471E-02 
1696	 3.31837155475934E-02 
1697	 3.28969724945072E-02 
1698	 3.25476817267787E-02 
1699	 3.27434045617856E-02 
1700	 3.38502862021695E-02 
1701	 3.36204021892344E-02 
1702	 3.23976223041794E-02 
1703	 3.22768887220846E-02 
1704	 3.28845137350943E-02 
1705	 3.30270699849025E-02 
1706	 3.32672374881418E-02 
1707	 3.31225811200202E-02 
1708	 3.20676534971989E-02 
1709	 3.15698285395884E-02 
1710	 3.10887828748005E-02 
1711	 3.08642267095413E-02 
1712	 3.14587740163007E-02 
1713	 3.29889882981236E-02 
1714	 3.35539012377783E-02 
1715	 3.27624870301803E-02 
1716	 3.36513760713622E-02 
1717	 3.42245827053352E-02 
1718	 3.40657689093741E-02 
1719	 3.51669977504002E-02 
1720	 3.41279251131231E-02 
1721	 3.16534621781197E-02 
1722	 3.15983570626943E-02 
1723	 0.031626740989101 
1724	 3.13097644161374E-02 
1725	 3.34941262519919E-02 
1726	 3.51777075457351E-02 
1727	 3.43138688932461E-02 
1728	 3.42268218601151E-02 
1729	 3.46249970160836E-02 
1730	 3.42964045450336E-02 
1731	 3.40186359045725E-02 
1732	 3.34893238842856E-02 
1733	 3.27377914987681E-02 
1734	 3.24287834976188E-02 
1735	 3.34103601272836E-02 
1736	 3.52910906559916E-02 
1737	 3.51530894934143E-02 
1738	 3.39952456415795E-02 
1739	 3.40599142291301E-02 
1740	 3.34290963512092E-02 
1741	 3.31591037733045E-02 
1742	 3.36832886901255E-02 
1743	 3.36215657537264E-02 
1744	 3.36037125583108E-02 
1745	 3.48131642102596E-02 
1746	 3.40571303191825E-02 
1747	 3.37236220295874E-02 
1748	 3.38514743609125E-02 
1749	 3.37701222608635E-02 
1750	 3.43201112261998E-02 
1751	 3.41732989520111E-02 
1752	 3.30368324268442E-02 
1753	 3.20496891861426E-02 
1754	 3.00947361067816E-02 
1755	 3.01711067021827E-02 
1756	 3.21075462416528E-02 
1757	 3.27262997168758E-02 
1758	 3.37001014071159E-02 
1759	 3.44459117014738E-02 
1760	 3.34027505663126E-02 
1761	 3.34452388648774E-02 
1762	 3.41628519226273E-02 
1763	 3.40263874617092E-02 
1764	 3.44147020191333E-02 
1765	 0.03612342736818 
1766	 0.037491325971437 
1767	 3.62978567877257E-02 
1768	 0.033847403356505 
1769	 3.44777323623207E-02 
1770	 3.69036750111571E-02 
1771	 3.92538541601951E-02 
1772	 4.39916008176559E-02 
1773	 4.35427996432185E-02 
1774	 3.74733851783804E-02 
1775	 3.77702204997064E-02 
1776	 3.73950289582776E-02 
1777	 3.81011671844525E-02 
1778	 3.94504340775877E-02 
1779	 4.08561998571377E-02 
1780	 3.92542677352695E-02 
1781	 3.61959357656366E-02 
1782	 3.61145551765147E-02 
1783	 3.64063512833243E-02 
1784	 3.61259069084264E-02 
1785	 3.75459268122147E-02 
1786	 3.69632979178644E-02 
1787	 3.06255791423569E-02 
1788	 2.98922588200566E-02 
1789	 3.75162819250914E-02 
1790	 0.03199435340496 
1791	 3.49127202144205E-02 
1792	 3.92568980971627E-02 
1793	 2.23286877331169E-02 
1794	 3.27426867750903E-02 
1795	 3.46276277442139E-02 
1796	 1.97030533519177E-02 
1797	 5.29256271631903E-02 
1798	 5.85738611100475E-02 
1799	 6.09705394798988E-02 
1800	 0.104582132670916 
1801	 0.141647664691144 
1802	 0.2561913229246 
1803	 0.309207125347964 
1804	 0.173056167562007 
1805	 0.151439564272693 
1806	 0.11214583369424 
1807	 0.011479868895826 
1808	-8.92258538648038E-02 
1809	-0.133641057946711 
1810	-0.221437282795274 
1811	-0.156203689615406 
1812	-2.99348491498059 
1813	-2.05063597544409 
1814	-22.2831869010398 
1815	 3.1662593013648 
1816	-0.401157500671401 
1817	-1.51995172790346 
1818	-5.44236737354633 
1819	-2.69680848356861 
1820	-0.151488602682653 
1821	 0.99155618669143 
1822	 1.30753021292474 
1823	 3.34575128700698 
1824	 3.77813892105227 
1825	 1.12598934747701 
1826	 0.224039766551492 
1827	-0.735274277185656 
1828	-0.936378645248379 
1829	-0.961065027437746 
1830	-0.770862423137709 
1831	 0.329986282605925 
1832	 0.475734060171209 
1833	-1.01426406618929 
1834	-0.406322581177959 
1835	 2.81288891759712 
1836	 3.18428930726631 
1837	 4.7203903309114 
1838	 9.9469231790841 
1839	 6.65785780609679 
1840	 6.40220641270451 
1841	-186.002128617647 
1842	-2.5251365390683 
1843	-1.37385070198987 
1844	-0.777807688650149 
1845	-0.780685624749791 
1846	-9.13425082412891E-02 
1847	 0.253719598691764 
1848	-2.65297607129783 
1849	-1.92630357412267 
1850	-1.17713213990542 
1851	-0.169234475437772 
1852	 0.655414130479102 
1853	-0.309217414710139 
1854	-0.82484819706475 
1855	-5.88090689302695 
1856	-3.88853962940669 
1857	-0.828399700257501 
1858	-1.15205541134374 
1859	 98.17620589739 
1860	-1.8861133704136 
1861	-1.6360293910378 
1862	-2.423675936254 
1863	-1.75241115959297 
1864	-1.28253347575026 
1865	-1.33767338306103 
1866	-4.29430554450341 
1867	-27.5235192874073 
1868	 6.16211114598974 
1869	 1.99838171656836 
1870	 0.843631890300101 
1871	 0.733478494346865 
1872	 0.806944972152996 
1873	 0.450078061518036 
1874	-0.252531408635998 
1875	 0.63643448435655 
1876	 6.38531071049621 
1877	-2.7558147597278 
1878	-2.12178669225628 
1879	-2.45221292070406 
1880	-2.04684944870756 
1881	-1.39768567900991 
1882	-0.582701032811652 
1883	 1.51235056152321 
1884	-582.849234550147 
1885	-7.78958561799395 
1886	-2.64500225604211 
1887	-1.29446852328751 
1888	-1.07515753066603 
1889	-0.804324752016391 
1890	-0.624810868453692 
1891	-0.676818905594043 
1892	-1.98899488111852 
1893	 86.8584712803469 
1894	-74.9026347939438 
1895	 0.13893832441872 
1896	 0.865974097733696 
1897	 1.48874084035215 
1898	 4.41749932606097 
1899	-5.0964450216007 
1900	-2.77017238970246 
1901	-1.27319874790246 
1902	-1.06316163296928 
1903	-8.26143203773777 
1904	 1.17834157847058 
1905	-0.030336143155401 
1906	-0.707943470688345 
1907	-1.36358650551476 
1908	-0.985838687561589 
1909	-0.359272905339518 
1910	-0.239093861201024 
1911	-1.38824908728422E-03 
1912	-2.69857534979029 
1913	-0.791124177028745 
1914	-0.689441384186046 
1915	-0.93780052045603 
1916	-1.49636981398156 
1917	-3.46929917726593 
1918	-3.54536921135421 
1919	-1.39994643208849 
1920	-1.88142392964611 
1921	-1.86034382446697 
1922	-1.97619223878975 
1923	-4.32520006338145 
1924	-2.06153500577098 
1925	-0.349836113407313 
1926	 0.635844242261767 
1927	 4.57097273515772 
1928	 1.72906104493511 
1929	 1.0409449539187 
1930	-0.564309918947745 
1931	 4.78768098760644 
1932	-0.436380035758116 
1933	-0.382567566961994 
1934	-0.620725427672814 
1935	-1.56446132201767 
1936	-1.36508729947452 
1937	-7.41446457071867E-02 
1938	-0.783266135712165 
1939	-1.57103574094008 
1940	 0.517035729845751 
1941	 2.74537869978547 
1942	 32.0513310559602 
1943	-6.71385722596903 
1944	-0.988855807780507 
1945	-0.303360351809125 
1946	-0.306780237060362 
1947	-0.428404263114023 
1948	-0.268471585486586 
1949	-0.415696237186382 
1950	-0.87879798998663 
1951	-0.490265602042963 
1952	-0.356803293101521 
1953	-0.341918419358939 
1954	-0.389351137019956 
1955	-0.102721972212998 
1956	 6.84352426871151E-02 
1957	 0.12804854867841 
1958	 0.196856617689646 
1959	 0.23792002688825 
1960	 0.214220681953644 
1961	 0.152019632242312 
1962	 9.59080835331128E-02 
1963	 5.40598674234539E-02 
1964	 1.26905037955361E-02 
1965	 3.85579219848973E-04 
1966	-4.82663347267275E-03 
1967	-6.98626344915348E-05 
1968	 9.68343545065755E-03 
1969	 2.04293887836921E-02 
1970	 3.27663881818783E-02 
1971	 4.39902227300373E-02 
1972	 3.79162519959936E-02 
1973	 3.38303024437969E-02 
1974	 3.16219619278295E-02 
1975	 2.84794792622043E-02 
1976	 0.027149284558271 
1977	 2.00135130419793E-02 
1978	 0.01569632894426 
1979	 1.41847675403102E-02 
1980	 1.22291268617794E-02 
1981	 1.30550662419896E-02 
1982	 0.01433869983295 
1983	 1.62938321485329E-02 
1984	 1.59485097422559E-02 
1985	 1.17121056015584E-02 
1986	 1.95711042470225E-02 
1987	 2.38929464519137E-02 
1988	 2.11439794402317E-02 
1989	 2.74968006006551E-02 
1990	 2.59848192962703E-02 
1991	 2.21093057166508E-02 
1992	 2.39354516496239E-02 
1993	 2.55738556863839E-02 
1994	 2.61246106198282E-02 
1995	 0.030104744279428 
1996	 2.88708752897109E-02 
1997	 0.021185683002102 
1998	 1.19716751740177E-02 
1999	 1.05870845850444E-02 
2000	 7.3019194127538E-03 
2001	 3.03369777407408E-03 
2002	 4.25980036614061E-03 
2003	-3.7849146668788E-03 
2004	 1.16985034598272E-02 
2005	 3.29069644090068E-02 
2006	 3.03162983942052E-02 
2007	 0.030078503102536 
2008	 0.020200963224776 
2009	 1.24154694482681E-02 
2010	 2.51165635794401E-03 
2011	 9.68038185021168E-04 
2012	 2.42916722916408E-03 
2013	 6.27438911276182E-03 
2014	 8.87209622610641E-03 
2015	 8.17757814641255E-03 
2016	 8.11183505818024E-03 
2017	-3.60406716809811E-03 
2018	-5.98493866180228E-04 
2019	 1.11296851853748E-02 
2020	 1.77527021958013E-02 
2021	 2.48577451792863E-02 
2022	 0.01763597184546 
2023	 1.27707128815001E-02 
2024	 1.45946483874526E-02 
2025	 1.98251251181438E-02 
2026	 2.13668216722486E-02 
2027	 2.56368079620045E-02 
2028	 2.91027694503682E-02 
2029	 2.55554893464379E-02 
2030	 2.61237331557601E-02 
2031	 3.14915683034224E-02 
2032	 3.30083054560303E-02 
2033	 3.44396021849098E-02 
2034	 3.64143194836715E-02 
2035	 3.73771954661352E-02 
2036	 0.038085829234277 
2037	 3.81767627170288E-02 
2038	 3.57857462563695E-02 
2039	 3.49465902831135E-02 
2040	 3.29950347292199E-02 
2041	 3.25239928336662E-02 
2042	 3.37369326830631E-02 
2043	 3.48210797821104E-02 
2044	 3.62960201629335E-02 
2045	 3.71581824945394E-02 
2046	 3.74155836929476E-02 
2047	 3.97703238335359E-02 
2048	 4.18963480114945E-02 
2049	 4.09265647618652E-02 
2050	 3.65228426407496E-02 
2051	 3.09490515584678E-02 
2052	 2.72540390122688E-02 
2053	 2.28132133951646E-02 
2054	 2.02944668243337E-02 
2055	 2.25994908924615E-02 
2056	 2.47820425703077E-02 
2057	 2.78314960698804E-02 
2058	 2.88833376237594E-02 
2059	 3.35221029945242E-02 
2060	 3.31681416966262E-02 
2061	 2.79539190226016E-02 
2062	 2.28504005942087E-02 
2063	 2.26252760722626E-02 
2064	 2.25813307417633E-02 
2065	 2.07898684100241E-02 
2066	 2.24465422476472E-02 
2067	 2.47646511504972E-02 
2068	 2.42863485727793E-02 
2069	 2.63230361342566E-02 
2070	 2.93713302573512E-02 
2071	 3.02367581624844E-02 
2072	 2.78876604226624E-02 
2073	 2.85349865863868E-02 
2074	 3.22729343475342E-02 
2075	 3.23232250357053E-02 
2076	 0.032642554757061 
2077	 3.08630047998336E-02 
2078	 2.34141113337792E-02 
2079	 2.20687355078604E-02 
2080	 2.13460184861197E-02 
2081	 2.47106601071424E-02 
2082	 0.029943691380733 
2083	 2.97525327923775E-02 
2084	 3.23623810887396E-02 
2085	 3.12957250125475E-02 
2086	 2.64835789548472E-02 
2087	 2.87660290414328E-02 
2088	 2.84565504385157E-02 
2089	 2.38433900448916E-02 
2090	 0.023562442469448 
2091	 2.29333606333177E-02 
2092	 2.30266065367686E-02 
2093	 0.023623897030064 
2094	 2.57057585595654E-02 
2095	 3.09983245619715E-02 
2096	 3.18342360425262E-02 
2097	 2.93315974537173E-02 
2098	 3.00284521740517E-02 
2099	 3.11123777014285E-02 
2100	 3.03031106462771E-02 
2101	 3.08827067442896E-02 
2102	 3.06409299908877E-02 
2103	 2.60179802955966E-02 
2104	 2.27636662525698E-02 
2105	 2.26735075076856E-02 
2106	 2.35536578458265E-02 
2107	 2.61349793824095E-02 
2108	 2.85913905262815E-02 
2109	 2.93456415983235E-02 
2110	 2.87766463076491E-02 
2111	 2.68135753301943E-02 
2112	 2.61797462537252E-02 
2113	 2.59828335817406E-02 
2114	 2.63461192287013E-02 
2115	 2.77765719088636E-02 
2116	 3.07104763359737E-02 
2117	 3.22811388738811E-02 
2118	 0.034430357366049 
2119	 3.53148733933657E-02 
2120	 0.035557830077956 
2121	 3.46035038364841E-02 
2122	 3.35016146523831E-02 
2123	 3.23788448872006E-02 
2124	 3.08193394368572E-02 
2125	 2.98955465495021E-02 
2126	 2.91217011367802E-02 
2127	 2.94681027154634E-02 
2128	 2.87911269300914E-02 
2129	 2.70528092026289E-02 
2130	 2.82919549982564E-02 
2131	 2.84315912671013E-02 
2132	 2.71019196465018E-02 
2133	 2.78955025370901E-02 
2134	 2.85551016815204E-02 
2135	 2.78139396046005E-02 
2136	 2.73655616555217E-02 
2137	 2.95411385759369E-02 
2138	 0.029624881657681 
2139	 2.60022240706733E-02 
2140	 2.52577635343726E-02 
2141	 2.55019250846999E-02 
2142	 2.57255295547221E-02 
2143	 2.60324414877648E-02 
2144	 2.96059107386468E-02 
2145	 3.01416985067755E-02 
2146	 3.16913053269695E-02 
2147	 3.29136685963896E-02 
2148	 3.26295602545499E-02 
2149	 0.034430633974436 
2150	 0.033596970974983 
2151	 2.82465802424169E-02 
2152	 2.60112362603581E-02 
2153	 2.88427755725494E-02 
2154	 3.06918376141239E-02 
2155	 3.09829294750489E-02 
2156	 3.32812270493201E-02 
2157	 0.033622337502516 
2158	 2.74187748610262E-02 
2159	 2.67271215457796E-02 
2160	 3.15328099312971E-02 
2161	 3.05559386667176E-02 
2162	 2.68407666415354E-02 
2163	 2.65339895808138E-02 
2164	 2.34705548105831E-02 
2165	 2.51261935626003E-02 
2166	 3.62415827389818E-02 
2167	 3.73760185893837E-02 
2168	 3.29251746052624E-02 
2169	 3.23802489088163E-02 
2170	 2.91001096451431E-02 
2171	 2.46986121460864E-02 
2172	 2.68687791333235E-02 
2173	 2.96838361705764E-02 
2174	 2.93199665870671E-02 
2175	 0.02622629505441 
2176	 2.56533771477407E-02 
2177	 2.91813351009729E-02 
2178	 3.15039384756922E-02 
2179	 3.34499876037488E-02 
2180	 3.41741333702317E-02 
2181	 3.38230481323417E-02 
2182	 3.05039284757735E-02 
2183	 2.83388511909594E-02 
2184	 0.028745525925838 
2185	 2.63724254366813E-02 
2186	 2.53168357359744E-02 
2187	 2.69298431442933E-02 
2188	 2.68376867022368E-02 
2189	 2.43001453528843E-02 
2190	 2.50783964704426E-02 
2191	 2.82083756077183E-02 
2192	 2.97244090905021E-02 
2193	 3.21365836502488E-02 
2194	 3.37647965880013E-02 
2195	 3.53174885150944E-02 
2196	 3.48030891590761E-02 
2197	 3.11775181700198E-02 
2198	 3.08253037283657E-02 
2199	 2.95125862615324E-02 
2200	 3.14072521169151E-02 
2201	 3.48415174642807E-02 
2202	 3.66670492650469E-02 
2203	 3.89429839727782E-02 
2204	 4.08661782393762E-02 
2205	 4.21922263309982E-02 
2206	 4.28368289958508E-02 
2207	 3.55698876431319E-02 
2208	 2.38010149047924E-02 
2209	 2.02364573382183E-02 
2210	 2.25112871310062E-02 
2211	 2.37140982733784E-02 
2212	 3.06143382488704E-02 
2213	 3.70411254614471E-02 
2214	 3.50031988643445E-02 
2215	 3.63354839113577E-02 
2216	 3.82473527436743E-02 
2217	 3.75403551892883E-02 
2218	 3.24035787377438E-02 
2219	 2.96797822122273E-02 
2220	 2.38922648329264E-02 
2221	 2.55831069350333E-02 
2222	 3.51574042956675E-02 
2223	 3.65928479228207E-02 
2224	 3.88867337538602E-02 
2225	 4.14076418787727E-02 
2226	 3.63590067890164E-02 
2227	 3.44974535522102E-02 
2228	 3.77952805694621E-02 
2229	 0.040110128650034 
2230	 0.042857147870934 
2231	 4.04511758103058E-02 
2232	 3.39766480810847E-02 
2233	 3.17125755251609E-02 
2234	 0.026241761029402 
2235	 2.46053825530971E-02 
2236	 2.88334383759751E-02 
2237	 3.51060076405019E-02 
2238	 3.59713725420764E-02 
2239	 3.55878659314564E-02 
2240	 0.035272559990605 
2241	 3.40977162132233E-02 
2242	 2.81978246900438E-02 
2243	 2.13730737197145E-02 
2244	 1.86419265312097E-02 
2245	 1.28837670052173E-02 
2246	 1.20446833461074E-02 
2247	 1.41166352385301E-02 
2248	 1.73135890713099E-02 
2249	 2.17270753059377E-02 
2250	 0.025639278126744 
2251	 3.12875470351165E-02 
2252	 2.84828230717592E-02 
2253	 2.75787237690108E-02 
2254	 2.41033272857358E-02 
2255	 1.96087817516792E-02 
2256	 2.52911894584853E-02 
2257	 2.45141866764994E-02 
2258	 2.04501077743589E-02 
2259	 2.01200870852154E-02 
2260	 2.27304008662704E-02 
2261	 2.80289491816682E-02 
2262	 3.00599872710942E-02 
2263	 3.42010915053063E-02 
2264	 0.035672686253826 
2265	 3.08227273766585E-02 
2266	 2.71315778659714E-02 
2267	 2.80516609921807E-02 
2268	 2.83358557417324E-02 
2269	 2.52412809340861E-02 
2270	 2.22028268360328E-02 
2271	 1.60753679236979E-02 
2272	 1.54095366669624E-02 
2273	 0.019357397369412 
2274	 0.019357730432573 
2275	 2.39589581087142E-02 
2276	 2.49414386466784E-02 
2277	 1.53398319593837E-02 
2278	 1.32926833215303E-02 
2279	 1.81055196599236E-02 
2280	 2.05186607011151E-02 
2281	 2.21308396480735E-02 
2282	 3.01489921846666E-02 
2283	 0.032464574627673 
2284	 2.22604581709826E-02 
2285	 2.50554437321415E-02 
2286	 2.48844807407209E-02 
2287	 2.20628627280547E-02 
2288	 2.84467108583317E-02 
2289	 3.56867963131887E-02 
2290	 3.76168744911581E-02 
2291	 3.42547760317293E-02 
2292	 3.35232470359824E-02 
2293	 0.032995170054581 
2294	 2.41315640629701E-02 
2295	 1.62944166281996E-02 
2296	 2.70773741924365E-02 
2297	 2.75662437262532E-02 
2298	 2.29870863114381E-02 
2299	 3.15306281941148E-02 
2300	 3.18543548633229E-02 
2301	 2.82026091289461E-02 
2302	 2.78574758978388E-02 
2303	 3.36371943757964E-02 
2304	 4.02579065581986E-02 
2305	 4.98792026588943E-02 
2306	 0.058268728047029 
2307	 5.80787721872039E-02 
2308	 5.67343435842827E-02 
2309	 5.32473317628856E-02 
2310	 4.81616061088758E-02 
2311	 3.37481155884782E-02 
2312	 2.54245573293157E-02 
2313	 3.07872675273048E-02 
2314	 2.44853526282287E-02 
2315	 2.52089496788842E-02 
2316	 2.98397640553881E-02 
2317	 1.95123645281469E-02 
2318	 2.51232335942733E-02 
2319	 4.25848036005249E-02 
2320	 4.71458882520865E-02 
2321	 5.08361102403138E-02 
2322	 4.38650842116831E-02 
2323	 3.95587022899989E-02 
2324	 6.33753823607861E-02 
2325	 6.17184365877257E-02 
2326	 5.58290602255274E-02 
2327	 6.68198375918382E-02 
2328	 4.32306806289327E-02 
2329	 1.63303950400555E-02 
2330	 0.011515108050554 
2331	 5.17335286925815E-03 
2332	-1.01137421402883E-03 
2333	 8.37639386624758E-03 
2334	 1.80162968672737E-02 
2335	 2.09179934129785E-02 
2336	 2.33894960890457E-02 
2337	 2.91788281997069E-02 
2338	 3.68850662985826E-02 
2339	 2.78103545160903E-02 
2340	 3.52880276183281E-02 
2341	 4.14736002363095E-02 
2342	 1.59832181128516E-02 
2343	-3.75864144172776E-03 
2344	-4.06002312052433E-02 
2345	-7.27387968275835E-02 
2346	-5.76473092633742E-02 
2347	-2.74935372902462E-02 
2348	-8.15516004558237E-03 
2349	-2.34406501968679E-02 
2350	-5.28565367250015E-02 
2351	-6.08034309414364E-02 
2352	-4.37244064131672E-02 
2353	 2.04137602899877E-02 
2354	 5.90916876562629E-02 
2355	 3.42739686775236E-02 
2356	 3.37348370383421E-02 
2357	 2.56166773089696E-02 
2358	-2.66511718195599E-02 
2359	-1.84139511359867E-02 
2360	 8.87920651868694E-03 
2361	-6.65105192892257E-03 
2362	 2.58291774616378E-02 
2363	 6.42279827519178E-02 
2364	 5.08858072330899E-02 
2365	-1.12272930831805E-02 
2366	-8.13867159884516E-02 
2367	-0.104733129280423 
2368	-0.151664674100883 
2369	-0.171400899922359 
2370	-0.094320896240003 
2371	-0.069946689532527 
2372	-5.71192588311788E-02 
2373	-7.23933734017338E-04 
2374	-2.0520890058685E-03 
2375	-6.51943132078164E-03 
2376	 4.53163205098093E-02 
2377	 0.070763913527879 
2378	 3.52669023301804E-02 
2379	-1.48185628579836E-02 
2380	-0.089489422204684 
2381	-0.19839558960434 
2382	-0.15586011532091 
2383	-0.146229959615884 
2384	-0.392020970919496 
2385	-0.47297438246733 
2386	-0.374972574500301 
2387	-0.432034239672466 
2388	-0.465047416565799 
2389	-0.461961564962555 
2390	-0.692167787112154 
2391	-0.555641385036489 
2392	-0.371843335089846 
2393	-0.236688787410229 
2394	-7.97967310414426E-02 
2395	 2.5806494228975E-03 
2396	 6.94322094150587E-02 
2397	 2.40259968421785E-02 
2398	-1.83655822768018E-02 
2399	-0.153275242287228 
2400	-0.312827143389686 
2401	-0.323215622207007 
2402	-0.240899349900273 
2403	-0.207053078233894 
2404	-0.215203153342126 
2405	-0.318958744919929 
2406	-0.602670294935497 
2407	-0.811555623908197 
2408	-1.22110150535555 
2409	-1.17184174567606 
2410	-0.886953530423297 
2411	-1.00877661447114 
2412	-0.881584625731559 
2413	-0.782440335424293 
2414	-0.848352011103276 
2415	-0.643403141493689 
2416	-0.413673775170239 
2417	-0.343060779487353 
2418	-0.387721051956639 
2419	-0.426332310449593 
2420	-0.931916867131657 
2421	-1.5949012202487 
2422	-1.65530098753565 
2423	 26.3204440522006 
2424	-2.10091565176475 
2425	 4.29422956362559 
2426	 1.56400858411425 
2427	 0.111188198685051 
2428	-0.219667825745886 
2429	-0.877142853688261 
2430	-0.316770492950505 
2431	-0.176233743643606 
2432	-0.358254397654029 
2433	-0.271864623206992 
2434	-0.558606586870419 
2435	-0.950094116531748 
2436	-0.930530375983461 
2437	-1.7207083934879 
2438	-3.02103490992593 
2439	-4.59915422468769 
2440	-4.58992075566493 
2441	-2.4775165357155 
2442	-1.59300722941877 
2443	-1.2196805788661 
2444	-0.881979031239566 
2445	-0.64693724995671 
2446	-0.523341271796745 
2447	-0.792632650578692 
2448	-2.1704330672167 
2449	-7.7951189804931 
2450	-7.52188853621889 
2451	-2.871455804529 
2452	-3.18506888235099 
2453	-2.05777081534319 
2454	-2.08390419740315 
2455	-3.37423898348357 
2456	-4.26713512536718 
2457	-1.81282614429669 
2458	 1.28929170204925E-02 
2459	 3.51808082013079E-02 
2460	 0.204798804676471 
2461	 0.357214288577433 
2462	 0.798998374096561 
2463	 10.3007841586504 
2464	-7.67313683239783 
2465	-2.62542843944006 
2466	-0.913576899824749 
2467	-0.777583767023301 
2468	 0.791692774959523 
2469	 0.976701439113652 
2470	 1.67299204175698 
2471	 3.53976555414557 
2472	-1.14762522735414 
2473	-0.3023271582305 
2474	 9.20449943429426E-02 
2475	 1.44933026454392 
2476	-0.91329387055902 
2477	-0.292323993209194 
2478	-3.41248634549532E-03 
2479	 0.838493073465121 
2480	-2.1691342419014 
2481	 7.37156360914921E-02 
2482	 0.764625783437009 
2483	 0.469712572925953 
2484	-0.325902808106826 
2485	-2.50046915184111E-02 
2486	 0.348476930656962 
2487	 0.897099128780824 
2488	 4.91403315842346 
2489	-14.291831016258 
2490	-23.5934713348748 
2491	 2.52979352660071 
2492	 1.08108218230675 
2493	 0.650946694713645 
2494	 0.273356375108958 
2495	 0.725437080476444 
2496	 1.1212256323673 
2497	 0.894291762576642 
2498	 0.844909986068859 
2499	 1.12385675169234 
2500	 1.07873978110104 
