Wavelength	rt0801far200004.asd
350	 6.05446169738132E-02 
351	 6.06144670175537E-02 
352	 6.13789080567153E-02 
353	 6.19632757903506E-02 
354	 6.18012776579672E-02 
355	 6.13363027609888E-02 
356	 6.08232078889204E-02 
357	 6.07586989320872E-02 
358	 6.13651831499897E-02 
359	 6.16713703380108E-02 
360	 6.16025318829331E-02 
361	 0.061315805587842 
362	 6.11471439824421E-02 
363	 6.18471506726754E-02 
364	 6.18328089680898E-02 
365	 6.09929925837823E-02 
366	 6.18524429600864E-02 
367	 6.16879767490815E-02 
368	 6.10325634307255E-02 
369	 6.10030159701194E-02 
370	 6.15762559483251E-02 
371	 0.062155994394191 
372	 6.23562555902907E-02 
373	 6.20553903305882E-02 
374	 6.19293798267879E-02 
375	 0.062202799071045 
376	 6.27426907563579E-02 
377	 6.30266166212781E-02 
378	 6.29253098694062E-02 
379	 6.28158837468935E-02 
380	 0.063123624687487 
381	 6.41237394662735E-02 
382	 6.40624365329901E-02 
383	 6.36583421503214E-02 
384	 6.44765421715624E-02 
385	 6.46924510802681E-02 
386	 6.44514303292903E-02 
387	 6.43931915098429E-02 
388	 6.54005457606439E-02 
389	 0.065173892451239 
390	 6.46859312060336E-02 
391	 6.48918069855109E-02 
392	 6.50655487035465E-02 
393	 6.53780915414971E-02 
394	 6.55128667879084E-02 
395	 6.52626946203109E-02 
396	 0.065793904818591 
397	 6.64612489045887E-02 
398	 6.67405973875311E-02 
399	 6.63930288049674E-02 
400	 6.66033598030977E-02 
401	 6.68802315166144E-02 
402	 6.68309126883731E-02 
403	 6.68409050417124E-02 
404	 6.72661260634104E-02 
405	 6.77126116967016E-02 
406	 6.76719000445933E-02 
407	 6.78332983089261E-02 
408	 0.067637646916001 
409	 6.73474125577071E-02 
410	 6.80005011238382E-02 
411	 6.82061481449202E-02 
412	 6.83027017633513E-02 
413	 6.86873396204586E-02 
414	 6.91714164854487E-02 
415	 6.92425837619616E-02 
416	 6.91164827374594E-02 
417	 6.92767648064735E-02 
418	 6.97546887611774E-02 
419	 7.00292381366723E-02 
420	 0.07009537770969 
421	 7.05145646097953E-02 
422	 7.05357571885831E-02 
423	 7.06032540070442E-02 
424	 7.10543903334045E-02 
425	 7.12067318587471E-02 
426	 7.15972232033006E-02 
427	 7.21464994695834E-02 
428	 7.25168412464288E-02 
429	 7.28743417191284E-02 
430	 7.30888313215368E-02 
431	 7.32468023138232E-02 
432	 7.37018479607548E-02 
433	 7.40787015251577E-02 
434	 7.44892081432795E-02 
435	 7.49970359183495E-02 
436	 0.075176240932743 
437	 7.54511629661637E-02 
438	 7.57970870678112E-02 
439	 7.59933076284896E-02 
440	 7.64669689408487E-02 
441	 7.69116624430915E-02 
442	 7.71984828394571E-02 
443	 7.75741398080479E-02 
444	 7.79008475311581E-02 
445	 7.81728761507028E-02 
446	 7.84251333012401E-02 
447	 7.87060062384692E-02 
448	 7.90148491133199E-02 
449	 0.07929657596366 
450	 7.94687538441082E-02 
451	 7.96103736200758E-02 
452	 7.97141559952545E-02 
453	 7.98382545632172E-02 
454	 8.02250217863185E-02 
455	 8.03977250639898E-02 
456	 8.04643071435016E-02 
457	 8.06777324957003E-02 
458	 8.08077115032047E-02 
459	 8.08809849151907E-02 
460	 8.09925509818315E-02 
461	 8.12714220704917E-02 
462	 8.12876495483437E-02 
463	 0.081254298883091 
464	 8.14017354883249E-02 
465	 8.16573918091957E-02 
466	 8.17569946895382E-02 
467	 8.18247140779697E-02 
468	 8.21158438378223E-02 
469	 8.22541774767576E-02 
470	 8.21978839246705E-02 
471	 8.21692439728784E-02 
472	 8.26896905272905E-02 
473	 8.27522599018083E-02 
474	 8.26586101226828E-02 
475	 8.28895672961678E-02 
476	 8.32654618675955E-02 
477	 8.34596339046051E-02 
478	 8.35570624576528E-02 
479	 8.38863745189727E-02 
480	 8.40323990286593E-02 
481	 8.41420194588196E-02 
482	 8.43742058312815E-02 
483	 8.47672837333142E-02 
484	 8.51627208589475E-02 
485	 8.54783545494762E-02 
486	 8.57116366975015E-02 
487	 8.60875236091021E-02 
488	 8.63131008544367E-02 
489	 8.64244857397467E-02 
490	 8.67876506257174E-02 
491	 8.73780966917008E-02 
492	 8.79589851851722E-02 
493	 8.83647030733101E-02 
494	 8.87312070073188E-02 
495	 8.92180244677173E-02 
496	 8.97380356143354E-02 
497	 9.01083027096569E-02 
498	 0.090535013735333 
499	 9.10795360398186E-02 
500	 9.17274440476724E-02 
501	 9.23764236861679E-02 
502	 9.30069216583482E-02 
503	 9.36212139094775E-02 
504	 9.42461972916354E-02 
505	 9.49686706990909E-02 
506	 9.55685288726358E-02 
507	 9.60931059548123E-02 
508	 9.67896354211902E-02 
509	 9.74960805383938E-02 
510	 9.81724296005655E-02 
511	 9.88478088527205E-02 
512	 9.96864743315495E-02 
513	 0.10043725988506 
514	 0.1011634329404 
515	 0.102060530781696 
516	 0.103249918214396 
517	 0.104176821594535 
518	 0.10476650261096 
519	 0.105595671235017 
520	 0.106477484981461 
521	 0.107367696321533 
522	 0.108237848297852 
523	 0.108984828871783 
524	 0.109845269104553 
525	 0.110810642269964 
526	 0.111699996561232 
527	 0.112501987082407 
528	 0.113343640776791 
529	 0.114263610401372 
530	 0.115083812668668 
531	 0.116004014520571 
532	 0.116938057401458 
533	 0.117742540245749 
534	 0.118626731988818 
535	 0.119493459265389 
536	 0.12033265350861 
537	 0.121246734333994 
538	 0.122253143227933 
539	 0.12325454140661 
540	 0.124176481699745 
541	 0.125134187096201 
542	 0.125998495833047 
543	 0.126797393411412 
544	 0.12766151550967 
545	 0.12865800798592 
546	 0.12959864181494 
547	 0.130398387340516 
548	 0.131236509462457 
549	 0.132018363638208 
550	 0.132824609892863 
551	 0.133738142899444 
552	 0.134493513689742 
553	 0.135292568008482 
554	 0.136177267137543 
555	 0.136979226245301 
556	 0.137872727413005 
557	 0.138740224236294 
558	 0.139443221876171 
559	 0.140024163960817 
560	 0.14064037479643 
561	 0.141314124861964 
562	 0.141976654925848 
563	 0.142571157450688 
564	 0.143170507758766 
565	 0.143797389408395 
566	 0.14434010028566 
567	 0.144922894711504 
568	 0.145438997808693 
569	 0.145754211455229 
570	 0.146097906357508 
571	 0.146420444524345 
572	 0.146721541121356 
573	 0.147066498305597 
574	 0.147372016761234 
575	 0.147631708635153 
576	 0.147855473524786 
577	 0.148047013103626 
578	 0.148226938495673 
579	 0.148427892447564 
580	 0.148679090598007 
581	 0.148927212186136 
582	 0.149094560882517 
583	 0.14921320033791 
584	 0.149518182223755 
585	 0.14988304066792 
586	 0.150276780325868 
587	 0.150704139559 
588	 0.151241983574069 
589	 0.151319000758878 
590	 0.151002796877689 
591	 0.151049552001144 
592	 0.150989519151316 
593	 0.150878081206898 
594	 0.150765035156529 
595	 0.150344222411476 
596	 0.150108396214657 
597	 0.149970317191845 
598	 0.149566518732624 
599	 0.149262776596066 
600	 0.149022802188073 
601	 0.1487902662778 
602	 0.14854675296352 
603	 0.148466214559571 
604	 0.148577447888347 
605	 0.148787095272843 
606	 0.148673098908056 
607	 0.148646082264402 
608	 0.148801844156138 
609	 0.14887028476577 
610	 0.148878802669499 
611	 0.148809157638713 
612	 0.148709399722533 
613	 0.148831995184166 
614	 0.148992136632078 
615	 0.148976409206056 
616	 0.148656687792012 
617	 0.148779552321895 
618	 0.148870848022478 
619	 0.148731588255202 
620	 0.148827477652004 
621	 0.148843281350029 
622	 0.148817285389836 
623	 0.14886159471029 
624	 0.148882824899271 
625	 0.148899572655103 
626	 0.14896160895691 
627	 0.149129127356935 
628	 0.149127787776906 
629	 0.149035263583579 
630	 0.148959170772206 
631	 0.148891941631405 
632	 0.148753520465506 
633	 0.148560257952441 
634	 0.148381998539336 
635	 0.148311719458385 
636	 0.14811088502153 
637	 0.147772553559714 
638	 0.147660217711932 
639	 0.147391463094522 
640	 0.147068596011725 
641	 0.146887459879733 
642	 0.146806099642982 
643	 0.146715977171339 
644	 0.146630998371751 
645	 0.146660550217623 
646	 0.146682720675815 
647	 0.146477180534979 
648	 0.146034322742933 
649	 0.145816884826501 
650	 0.14568890874405 
651	 0.14552738726497 
652	 0.145258178725661 
653	 0.145095336135432 
654	 0.145025561659012 
655	 0.144958934905113 
656	 0.144732872713731 
657	 0.144386578666471 
658	 0.144034136717221 
659	 0.143714731117883 
660	 0.143219415982349 
661	 0.14302858056788 
662	 0.143077705932968 
663	 0.142968388806718 
664	 0.142682873559396 
665	 0.142434733657694 
666	 0.142351782611655 
667	 0.142369609517499 
668	 0.142267733029597 
669	 0.142193649874119 
670	 0.142334776700649 
671	 0.142402102341367 
672	 0.142363852818564 
673	 0.142344845027552 
674	 0.142579587843632 
675	 0.14269698550127 
676	 0.142962723927321 
677	 0.143456643607788 
678	 0.143446845444038 
679	 0.143667141098936 
680	 0.144159751859826 
681	 0.144656111813243 
682	 0.145151138542826 
683	 0.145595139090168 
684	 0.14616091013464 
685	 0.147418099448046 
686	 0.148841344397621 
687	 0.149949095712917 
688	 0.150557398302284 
689	 0.151423899717872 
690	 0.152522998919786 
691	 0.153725374149458 
692	 0.154843956064823 
693	 0.156039321092835 
694	 0.156895235010139 
695	 0.157282842585301 
696	 0.157611171633788 
697	 0.158283284178638 
698	 0.159238908477868 
699	 0.160152903272034 
700	 0.160811717065986 
701	 0.161158062029377 
702	 0.161235115298295 
703	 0.161173493816212 
704	 0.16129346806617 
705	 0.161460335495833 
706	 0.16145292364894 
707	 0.161013643174515 
708	 0.160658187007932 
709	 0.160429459031048 
710	 0.160144724681177 
711	 0.159462200288474 
712	 0.158756999893906 
713	 0.15827133029679 
714	 0.158059423297574 
715	 0.158256880840941 
716	 0.158641891937901 
717	 0.158708582196204 
718	 0.158049243231121 
719	 0.155827321924062 
720	 0.153301342377612 
721	 0.151414339480232 
722	 0.150845920856097 
723	 0.150178036053997 
724	 0.148685705810691 
725	 0.146741899876161 
726	 0.144944165940246 
727	 0.142877151448834 
728	 0.140243417873769 
729	 0.137840599576884 
730	 0.13477271472726 
731	 0.131416280273699 
732	 0.128408827893769 
733	 0.126144349241393 
734	 0.124152542255757 
735	 0.122360399370391 
736	 0.121188114359883 
737	 0.120248779205547 
738	 0.1192553005283 
739	 0.118207051184907 
740	 0.117752474801255 
741	 0.117530096658358 
742	 0.117275061599146 
743	 0.116852419063925 
744	 0.116718114409043 
745	 0.11668585787567 
746	 0.116602394907754 
747	 0.116446612203417 
748	 0.116500928421895 
749	 0.116506037102588 
750	 0.116302716523666 
751	 0.116545683248476 
752	 0.116681920515184 
753	 0.116626285357415 
754	 0.116581532742161 
755	 0.116737112875432 
756	 0.116848452287331 
757	 0.116973743667904 
758	 0.11788994585599 
759	 0.119719486859154 
760	 0.121370302965359 
761	 0.120833185978763 
762	 0.12106630040743 
763	 0.120546218467508 
764	 0.119700442632094 
765	 0.119260174544513 
766	 0.118672206973397 
767	 0.11837425364519 
768	 0.118442120811679 
769	 0.118632054492719 
770	 0.118756226383896 
771	 0.118806061350151 
772	 0.118883272111055 
773	 0.119248954837515 
774	 0.119772457433788 
775	 0.120172046123397 
776	 0.120249015765695 
777	 0.120674770459133 
778	 0.121111220274053 
779	 0.121436368751445 
780	 0.121821816892744 
781	 0.12228658588446 
782	 0.122722523179693 
783	 0.123110907438567 
784	 0.123691615546013 
785	 0.124388021747736 
786	 0.125036818969289 
787	 0.125542089031487 
788	 0.126423912007586 
789	 0.127049943942881 
790	 0.127329473173561 
791	 0.127674232319992 
792	 0.128060323925836 
793	 0.128384988905886 
794	 0.128744327418422 
795	 0.12957408060524 
796	 0.130179221728472 
797	 0.130568258282276 
798	 0.13095563008803 
799	 0.131369014557172 
800	 0.131822922107038 
801	 0.132221667720214 
802	 0.132410403865447 
803	 0.132248526426708 
804	 0.132129040023286 
805	 0.132197412310858 
806	 0.132288573995106 
807	 0.132472305689219 
808	 0.13274017305706 
809	 0.132980184715429 
810	 0.132814526224482 
811	 0.132821841241943 
812	 0.133250386660769 
813	 0.13402172493664 
814	 0.134166201437545 
815	 0.133511199870225 
816	 0.132439019511835 
817	 0.13160875238749 
818	 0.130496272946714 
819	 0.12934523327522 
820	 0.128311723004432 
821	 0.127502362582474 
822	 0.125802397715699 
823	 0.1237352266281 
824	 0.121962079640765 
825	 0.11995930188305 
826	 0.118186001795556 
827	 0.116083418478458 
828	 0.113150488303392 
829	 0.110659085892491 
830	 0.108351552054147 
831	 0.10628823305576 
832	 0.104792725718294 
833	 0.103203976106077 
834	 0.101676266342268 
835	 0.100416369725523 
836	 9.95764812775622E-02 
837	 9.84228992854322E-02 
838	 9.76562803519803E-02 
839	 9.76054222871727E-02 
840	 0.096940636344598 
841	 9.60142834740947E-02 
842	 9.51443179154564E-02 
843	 9.46217797778313E-02 
844	 9.45160159863686E-02 
845	 9.42800817737021E-02 
846	 9.38372748201917E-02 
847	 9.34247293411887E-02 
848	 0.092809968387336 
849	 9.22422043107713E-02 
850	 9.17459335024045E-02 
851	 9.10165065275942E-02 
852	 9.06134922495262E-02 
853	 9.03992164898992E-02 
854	 9.01993158826599E-02 
855	 9.01344691057118E-02 
856	 8.92805193211862E-02 
857	 8.85947264016078E-02 
858	 8.89364125419468E-02 
859	 0.089038136606509 
860	 8.82524055916249E-02 
861	 8.73475497895084E-02 
862	 8.74446738284399E-02 
863	 8.68977915744828E-02 
864	 8.67926415328815E-02 
865	 8.69649713344992E-02 
866	 8.61570395614746E-02 
867	 0.085808391984848 
868	 8.52033711493519E-02 
869	 8.43228674859159E-02 
870	 8.43494979446314E-02 
871	 8.37082860423609E-02 
872	 0.082803648740901 
873	 8.22521949643796E-02 
874	 0.082162044973873 
875	 8.17504384781998E-02 
876	 8.11941540646282E-02 
877	 8.08163336434069E-02 
878	 8.01936779322975E-02 
879	 7.99607143318844E-02 
880	 7.97289482058107E-02 
881	 7.88633078326729E-02 
882	 7.82934798932303E-02 
883	 7.79745123727096E-02 
884	 7.74884633332419E-02 
885	 7.63729182266376E-02 
886	 7.58437661274559E-02 
887	 0.075537622267991 
888	 7.52386568549374E-02 
889	 7.50886273669109E-02 
890	 7.46297541048761E-02 
891	 7.43276384028526E-02 
892	 7.45212467099905E-02 
893	 7.49417076414182E-02 
894	 7.46487067730299E-02 
895	 7.38781575439823E-02 
896	 7.33524725004041E-02 
897	 7.37725463876548E-02 
898	 7.32176527033263E-02 
899	 7.24640042229636E-02 
900	 7.28468344601118E-02 
901	 7.40017225359996E-02 
902	 7.30439440009009E-02 
903	 7.10493433512115E-02 
904	 7.01342724230522E-02 
905	 6.95247264111593E-02 
906	 6.92714657405528E-02 
907	 6.94383224771342E-02 
908	 0.069778200028108 
909	 6.80229122434817E-02 
910	 6.73875828525945E-02 
911	 6.82023004101218E-02 
912	 6.77617011592364E-02 
913	 6.63652849420531E-02 
914	 6.59393564057612E-02 
915	 6.60613210741003E-02 
916	 6.38274771683536E-02 
917	 6.11126625891055E-02 
918	 6.01203583242783E-02 
919	 6.03506919897093E-02 
920	 5.82411388076571E-02 
921	 0.056400010024686 
922	 5.49517499513849E-02 
923	 0.053865656375945 
924	 5.37724292001135E-02 
925	 5.29329559843038E-02 
926	 5.20815437667667E-02 
927	 5.25814185917062E-02 
928	 5.44599049103257E-02 
929	 5.69373234403089E-02 
930	 5.61508851604798E-02 
931	 0.047459999049899 
932	 4.33823316532221E-02 
933	 5.01461028441598E-02 
934	 5.38277510395689E-02 
935	 4.00730482914419E-02 
936	 3.58554367117597E-02 
937	 3.95819170492102E-02 
938	 0.045026699306517 
939	 4.66099210270186E-02 
940	 4.30551051032768E-02 
941	 4.27704955465602E-02 
942	 4.34594413237426E-02 
943	 3.97105742166223E-02 
944	 4.46951290656039E-02 
945	 4.27884671125488E-02 
946	 3.61707576173584E-02 
947	 3.76087259590691E-02 
948	 4.89698062810822E-02 
949	 4.70665518758797E-02 
950	 3.70652939291901E-02 
951	 3.79998719545987E-02 
952	 0.035538509066704 
953	 3.17000004172563E-02 
954	 3.29823025692991E-02 
955	 4.39463227679295E-02 
956	 0.047648849345213 
957	 4.48164481572005E-02 
958	 3.93472853430379E-02 
959	 3.55794659409965E-02 
960	 3.54244297901164E-02 
961	 3.61998289773585E-02 
962	 3.73322830527714E-02 
963	 3.90232849168123E-02 
964	 3.41058745821434E-02 
965	 3.48186946647264E-02 
966	 0.0395708673936 
967	 3.85934642780655E-02 
968	 0.038128270450419 
969	 3.53253465956865E-02 
970	 3.21623610946315E-02 
971	 3.40682924634445E-02 
972	 3.56934962788268E-02 
973	 3.31337837644553E-02 
974	 3.01954666295727E-02 
975	 3.55012642048645E-02 
976	 3.49209064618147E-02 
977	 0.032750264761243 
978	 3.26295909325532E-02 
979	 3.47343456456912E-02 
980	 3.51806571767867E-02 
981	 3.36988514199675E-02 
982	 3.26216430294553E-02 
983	 3.46124142645883E-02 
984	 0.032853220862791 
985	 3.04427350129448E-02 
986	 3.11506420187299E-02 
987	 3.63127838914493E-02 
988	 3.39140567300638E-02 
989	 3.20098870141973E-02 
990	 3.25332999573468E-02 
991	 3.16961513376847E-02 
992	 2.98658634026362E-02 
993	 3.03640771761935E-02 
994	 3.28939585284464E-02 
995	 3.44521635052104E-02 
996	 3.38695761207415E-02 
997	 3.17887033907582E-02 
998	 3.09332782118516E-02 
999	 3.34940296402288E-02 
1000	 3.31775037948517E-02 
1001	 3.18136665372903E-02 
1002	 3.16282995691309E-02 
1003	 3.19248011790243E-02 
1004	 3.18690890661008E-02 
1005	 3.19008725417164E-02 
1006	 3.27206552354039E-02 
1007	 3.26310228206965E-02 
1008	 3.17160500769581E-02 
1009	 3.10087410647476E-02 
1010	 3.09769350605102E-02 
1011	 3.12928812997187E-02 
1012	 3.17215360678658E-02 
1013	 3.27419682497598E-02 
1014	 3.33982184910742E-02 
1015	 3.41482532276013E-02 
1016	 3.40402135902717E-02 
1017	 3.33749382331914E-02 
1018	 3.31515550656817E-02 
1019	 3.19782385478719E-02 
1020	 3.18079400381713E-02 
1021	 3.29451635941951E-02 
1022	 3.31981246439022E-02 
1023	 3.31217075732557E-02 
1024	 3.32235349268085E-02 
1025	 0.033047833843664 
1026	 0.03384249407927 
1027	 3.40843218666505E-02 
1028	 3.44998791000462E-02 
1029	 3.48225562845871E-02 
1030	 3.48380776208244E-02 
1031	 0.035021251350174 
1032	 3.56834469795577E-02 
1033	 3.59087533594126E-02 
1034	 3.57402246467199E-02 
1035	 3.55777360758033E-02 
1036	 3.53008631779782E-02 
1037	 3.51290546808882E-02 
1038	 3.47980604155962E-02 
1039	 3.47004350516269E-02 
1040	 3.49052137298575E-02 
1041	 3.46938937692734E-02 
1042	 3.51160646244819E-02 
1043	 3.58844144893813E-02 
1044	 3.65461783027729E-02 
1045	 3.79057742416016E-02 
1046	 3.81223586163933E-02 
1047	 0.037870575587737 
1048	 3.75792349047746E-02 
1049	 3.59405540568599E-02 
1050	 3.57673266899479E-02 
1051	 3.63598014003834E-02 
1052	 3.67553563184886E-02 
1053	 3.79457062613081E-02 
1054	 3.88641356947649E-02 
1055	 3.94131168043915E-02 
1056	 4.01603990565924E-02 
1057	 0.04100022075582 
1058	 4.23917314558136E-02 
1059	 4.25261680055954E-02 
1060	 4.21319051509481E-02 
1061	 4.18972232794582E-02 
1062	 4.05243616893496E-02 
1063	 4.04595487526877E-02 
1064	 4.13556662474948E-02 
1065	 4.17238411690252E-02 
1066	 4.27809967124586E-02 
1067	 4.28328193538674E-02 
1068	 4.19304092115933E-02 
1069	 4.14937602348121E-02 
1070	 4.01414569534076E-02 
1071	 3.99217057375717E-02 
1072	 4.05572592344309E-02 
1073	 4.16656589028747E-02 
1074	 4.18497726062108E-02 
1075	 4.20538520347177E-02 
1076	 4.23449565226976E-02 
1077	 4.19217602211459E-02 
1078	 4.20568038835814E-02 
1079	 4.34609339257505E-02 
1080	 4.33835329266117E-02 
1081	 4.24075730692718E-02 
1082	 0.041632621284733 
1083	 3.95305457397078E-02 
1084	 3.88808133353946E-02 
1085	 0.039181553677076 
1086	 3.92872157067661E-02 
1087	 4.09366639847642E-02 
1088	 4.11858421884577E-02 
1089	 4.08943271079871E-02 
1090	 0.039176478982975 
1091	 3.85363679663364E-02 
1092	 3.71822721421089E-02 
1093	 0.037036398605359 
1094	 3.81769372818506E-02 
1095	 3.86574770169615E-02 
1096	 3.95689816364673E-02 
1097	 3.97446953821032E-02 
1098	 3.90862218840447E-02 
1099	 3.91328807341359E-02 
1100	 3.91796597443363E-02 
1101	 3.92358482735317E-02 
1102	 4.00932071568212E-02 
1103	 4.03008429355889E-02 
1104	 3.99920098382288E-02 
1105	 0.039425996260884 
1106	 0.038728140675416 
1107	 3.90498874981573E-02 
1108	 4.02592768674169E-02 
1109	 4.04680291183171E-02 
1110	 4.08371038852091E-02 
1111	 4.17028312077856E-02 
1112	 4.10930798864273E-02 
1113	 3.79833240483044E-02 
1114	 3.79744830703528E-02 
1115	 3.91131004714284E-02 
1116	 3.95522783171978E-02 
1117	 4.45616633665925E-02 
1118	 4.66218855022841E-02 
1119	 4.12364417984499E-02 
1120	 3.99757242081088E-02 
1121	 3.95747487356381E-02 
1122	 4.52375887531524E-02 
1123	 5.31744314171902E-02 
1124	 4.86434650933283E-02 
1125	 3.90663634501153E-02 
1126	 0.037349389483266 
1127	 3.16009966068585E-02 
1128	 4.02367390915223E-02 
1129	 4.86867369430925E-02 
1130	 6.59345722312997E-02 
1131	 6.31566279318289E-02 
1132	 4.92825653515998E-02 
1133	 0.051870200869701 
1134	 6.00873515331566E-02 
1135	 5.78471974234997E-02 
1136	 0.05832820350843 
1137	 5.67179489020372E-02 
1138	 4.75943155739262E-02 
1139	 3.71168255404929E-02 
1140	 3.86133571407353E-02 
1141	 4.36047618009275E-02 
1142	 0.041994671122851 
1143	 4.14678299083904E-02 
1144	 4.30321407676145E-02 
1145	 4.26656853096228E-02 
1146	 4.48272519217773E-02 
1147	 4.22715447544736E-02 
1148	 3.29048099102154E-02 
1149	 3.15910664733583E-02 
1150	 3.30828669303897E-02 
1151	 4.00597411648863E-02 
1152	 3.85678618758319E-02 
1153	 3.39349363791054E-02 
1154	 3.43851074445088E-02 
1155	 3.32022140758407E-02 
1156	 3.51931388206547E-02 
1157	 3.75685337731544E-02 
1158	 3.71149998399807E-02 
1159	 3.47602131496983E-02 
1160	 3.29597718899778E-02 
1161	 3.33892679066911E-02 
1162	 3.56799348833217E-02 
1163	 3.64968983255348E-02 
1164	 3.57402391838021E-02 
1165	 3.45481678911402E-02 
1166	 3.27648824398745E-02 
1167	 3.19360361121889E-02 
1168	 3.21956248887089E-02 
1169	 0.032406734381068 
1170	 3.24721378039975E-02 
1171	 3.26927714390034E-02 
1172	 3.32835113312354E-02 
1173	 3.30792490221104E-02 
1174	 3.23619938590137E-02 
1175	 3.20552070508167E-02 
1176	 3.25488735924808E-02 
1177	 3.27012055635173E-02 
1178	 3.26220839170759E-02 
1179	 3.26941005496635E-02 
1180	 3.24770231361262E-02 
1181	 3.21053014755134E-02 
1182	 0.032192147985974 
1183	 3.26491075018019E-02 
1184	 3.23591948317911E-02 
1185	 3.18353695291419E-02 
1186	 3.20797646070176E-02 
1187	 3.25427521101903E-02 
1188	 3.30185970940504E-02 
1189	 3.26156449951584E-02 
1190	 3.16224008166592E-02 
1191	 3.16335698989641E-02 
1192	 3.17118253181164E-02 
1193	 3.21757944655773E-02 
1194	 0.032334384798288 
1195	 3.22455689778001E-02 
1196	 3.15519954465084E-02 
1197	 3.04747462828201E-02 
1198	 3.06403908309521E-02 
1199	 3.17023060584327E-02 
1200	 3.16298934508191E-02 
1201	 3.10773649275396E-02 
1202	 0.031248590256643 
1203	 3.12252964873515E-02 
1204	 3.14420768032751E-02 
1205	 3.19111250057883E-02 
1206	 3.08553283267431E-02 
1207	 3.02190918330279E-02 
1208	 3.07697598866928E-02 
1209	 3.09965044837877E-02 
1210	 3.12709199058143E-02 
1211	 3.12457693302293E-02 
1212	 3.12607529137056E-02 
1213	 3.16747173601485E-02 
1214	 3.17312901983908E-02 
1215	 0.032036105122429 
1216	 3.25508198276271E-02 
1217	 3.26051403865568E-02 
1218	 0.031858717100094 
1219	 3.15901414374685E-02 
1220	 3.12576182365332E-02 
1221	 3.08470178377901E-02 
1222	 0.031085989247094 
1223	 3.12851619964456E-02 
1224	 3.13913197707532E-02 
1225	 3.11891276079397E-02 
1226	 0.03076819380466 
1227	 3.09332971072804E-02 
1228	 3.11577361664649E-02 
1229	 3.08131907972382E-02 
1230	 3.05971848559419E-02 
1231	 3.05334715103861E-02 
1232	 3.00293427690114E-02 
1233	 2.97265014952431E-02 
1234	 2.98352567251551E-02 
1235	 3.00489842508517E-02 
1236	 3.07034288493423E-02 
1237	 3.09062549222564E-02 
1238	 3.12064756319327E-02 
1239	 3.10026839693705E-02 
1240	 3.07367556254373E-02 
1241	 3.04736805080801E-02 
1242	 3.04136359811758E-02 
1243	 3.04876861992664E-02 
1244	 2.98494407658081E-02 
1245	 2.95391274973981E-02 
1246	 3.00448417774844E-02 
1247	 0.029989141050093 
1248	 2.97231234729974E-02 
1249	 2.98236218219449E-02 
1250	 2.98888574564533E-02 
1251	 3.01116179889555E-02 
1252	 3.07846811033647E-02 
1253	 3.09933101529748E-02 
1254	 3.05416948787534E-02 
1255	 3.07046197513645E-02 
1256	 3.07892500237824E-02 
1257	 3.11290343473947E-02 
1258	 3.10853651928169E-02 
1259	 3.08902456355552E-02 
1260	 0.030749840285043 
1261	 3.01524546540995E-02 
1262	 3.01141185463196E-02 
1263	 3.06151640627784E-02 
1264	 0.030847621251688 
1265	 3.05994716473438E-02 
1266	 0.030970304391066 
1267	 3.09742288945671E-02 
1268	 3.01375585518738E-02 
1269	 2.99819574742085E-02 
1270	 3.06155210952692E-02 
1271	 3.11913593171491E-02 
1272	 3.12350674030434E-02 
1273	 3.08080805160953E-02 
1274	 0.030842925138434 
1275	 3.06197170167299E-02 
1276	 3.03306108536851E-02 
1277	 3.08439428877479E-02 
1278	 3.10652639463937E-02 
1279	 3.09068165003443E-02 
1280	 3.05293380647244E-02 
1281	 3.04995807942586E-02 
1282	 3.05215896569928E-02 
1283	 3.01943375930778E-02 
1284	 2.96839177434021E-02 
1285	 0.03010033610685 
1286	 3.08837359569752E-02 
1287	 0.030890997156968 
1288	 3.12128372502534E-02 
1289	 3.14297398640921E-02 
1290	 3.09887925887788E-02 
1291	 3.04226965001935E-02 
1292	 3.06003123908399E-02 
1293	 3.11955333516017E-02 
1294	 0.031114386342927 
1295	 3.06906779346813E-02 
1296	 3.10355653126843E-02 
1297	 3.17541758420453E-02 
1298	 3.16218983649258E-02 
1299	 0.03164346095644 
1300	 3.20747307155034E-02 
1301	 3.15415199665711E-02 
1302	 3.16565255987073E-02 
1303	 3.27041382640577E-02 
1304	 3.26098706762536E-02 
1305	 3.17526600925758E-02 
1306	 3.16381566903281E-02 
1307	 3.19708475931842E-02 
1308	 3.18034355079613E-02 
1309	 3.12417609970274E-02 
1310	 3.15024214668744E-02 
1311	 3.22254671720686E-02 
1312	 3.20623343980985E-02 
1313	 3.17215612179537E-02 
1314	 3.22753222626019E-02 
1315	 3.30135618417181E-02 
1316	 3.27768828429038E-02 
1317	 3.25612056333247E-02 
1318	 3.33552413892653E-02 
1319	 3.37252888069071E-02 
1320	 3.36164786204501E-02 
1321	 0.034366695719285 
1322	 3.58335537384623E-02 
1323	 3.34929438859938E-02 
1324	 3.09611730177815E-02 
1325	 3.15080166828365E-02 
1326	 3.29964431726461E-02 
1327	 3.49849174956868E-02 
1328	 3.61561734169589E-02 
1329	 3.54435830577363E-02 
1330	 3.26571942808499E-02 
1331	 3.25358208481094E-02 
1332	 0.036013017648545 
1333	 3.47005640657168E-02 
1334	 3.19413635888175E-02 
1335	 3.22209510510251E-02 
1336	 3.23945692838117E-02 
1337	 3.09084491278009E-02 
1338	 3.13356438583926E-02 
1339	 0.032257417196473 
1340	 3.07287177402377E-02 
1341	 2.98825240757247E-02 
1342	 3.24127697175487E-02 
1343	 3.47684741211545E-02 
1344	 3.53269588632673E-02 
1345	 3.42090242234386E-02 
1346	 3.40620845719411E-02 
1347	 3.77286943918664E-02 
1348	 4.39870754899141E-02 
1349	 4.09267539498652E-02 
1350	 2.52797906986336E-02 
1351	 2.69131534530676E-02 
1352	 0.049076999881164 
1353	 2.50757290938795E-02 
1354	-3.05089642832129E-02 
1355	-0.098837731965733 
1356	-0.165728607058913 
1357	-0.144381139879918 
1358	-0.248808093912339 
1359	-0.17411060388193 
1360	 0.533381890450737 
1361	 0.307897880610874 
1362	-0.207804036745821 
1363	 0.66917144991369 
1364	 0.728971314253452 
1365	-9.25179053773223E-02 
1366	-0.301618509880006 
1367	 1.57797013666779 
1368	 1.83830878382952 
1369	 0.214598901695268 
1370	-0.391376839877228 
1371	-1.71528415197802 
1372	-1.04124123889249 
1373	 0.316015619138237 
1374	 0.333840012439774 
1375	 0.246151517510669 
1376	 0.402303121801698 
1377	 4.59531080410515 
1378	-2.82494897482527E-02 
1379	-2.74125069464699 
1380	-1.93279201341094 
1381	 0.873853655313238 
1382	 0.37164134472885 
1383	-1.59405242442946 
1384	-1.14351110959527 
1385	-1.78086160674997 
1386	-2.64796548128016 
1387	-1.38622724023994 
1388	-2.10029543628646 
1389	-2.4763105910171 
1390	-2.27401337451952 
1391	-1.34493492298897 
1392	-1.10174138696227 
1393	 24.6771637378197 
1394	 3.33763014657417 
1395	 2.56416591746682 
1396	 2.6797747102869 
1397	 0.767042502794031 
1398	-3.1429164689745 
1399	-0.645021853793827 
1400	-0.898836237447872 
1401	-1.32231535674908 
1402	 1.49917563044704 
1403	-25.2977090820864 
1404	 10.313409905302 
1405	 7.85811095258343 
1406	-0.290430106213548 
1407	-0.167891222054299 
1408	 1.04668790628503 
1409	 3.56075829962095 
1410	-0.193831508044151 
1411	 0.370164340818458 
1412	 0.555886719767335 
1413	 0.365096793062167 
1414	-3.28249199863809 
1415	 33.0393335449309 
1416	-26.1070142252998 
1417	-2.46597122028587 
1418	-0.743680697613605 
1419	-0.45811600471452 
1420	-0.488182607602152 
1421	-0.52107698228217 
1422	-0.39417200722934 
1423	-0.194844759996956 
1424	-0.218688619201344 
1425	-0.144441666443125 
1426	 0.186211002168993 
1427	 0.202147727841925 
1428	 8.25073823906355E-02 
1429	 5.17247440091353E-02 
1430	-1.65998747067798E-02 
1431	-3.04632982676124E-02 
1432	-1.86517867578887E-02 
1433	-1.72123275988151E-02 
1434	 3.05458008478629E-03 
1435	 3.97786561127626E-02 
1436	 0.108855867785226 
1437	 9.77122732054517E-02 
1438	-6.86236692669621E-04 
1439	-1.95495505289245E-02 
1440	-1.10456850327188E-02 
1441	-5.66288118562155E-02 
1442	-4.19708213734966E-02 
1443	-1.20739297876282E-02 
1444	-5.90279931458641E-03 
1445	 8.79659188881379E-03 
1446	 9.71180592186857E-03 
1447	 3.51302149202707E-02 
1448	 0.068803519862018 
1449	 5.95949285080362E-02 
1450	 5.18816444122056E-02 
1451	 5.72497086793825E-02 
1452	 0.04921544869636 
1453	 4.40464023561103E-02 
1454	 3.89268327137048E-02 
1455	 3.81391820014708E-02 
1456	 4.22616465132801E-02 
1457	 4.61735961240128E-02 
1458	 4.45028321626433E-02 
1459	 4.65365357051595E-02 
1460	 4.79163362044473E-02 
1461	 4.22644375263205E-02 
1462	 4.20652707825164E-02 
1463	 5.15290173976935E-02 
1464	 5.40738648497232E-02 
1465	 4.73641679219231E-02 
1466	 4.89573673172518E-02 
1467	 5.76392911771988E-02 
1468	 5.92626286546496E-02 
1469	 6.03443110002461E-02 
1470	 0.061328409950724 
1471	 0.058748349066364 
1472	 5.73802163125035E-02 
1473	 5.63177371889945E-02 
1474	 5.47294788491733E-02 
1475	 5.15560589314739E-02 
1476	 0.051356607501492 
1477	 6.06734880268701E-02 
1478	 5.46430757643562E-02 
1479	 3.44475589155185E-02 
1480	 0.030020150831472 
1481	 2.68818169385448E-02 
1482	 2.43322238666285E-02 
1483	 2.76107816325633E-02 
1484	 3.37101578469066E-02 
1485	 4.06152952155097E-02 
1486	 0.041302408875244 
1487	 4.44143654970339E-02 
1488	 4.44484853307351E-02 
1489	 3.69024031976842E-02 
1490	 3.61274253891015E-02 
1491	 4.01827758602579E-02 
1492	 4.07530493231994E-02 
1493	 4.15588784403935E-02 
1494	 4.11768670900756E-02 
1495	 3.78355071228218E-02 
1496	 3.74643568231313E-02 
1497	 3.95662161926087E-02 
1498	 3.89343075342895E-02 
1499	 3.75239061361684E-02 
1500	 3.73032814262897E-02 
1501	 3.63759252673811E-02 
1502	 3.53988514633354E-02 
1503	 3.51983000460726E-02 
1504	 3.50433095355887E-02 
1505	 0.034399395464288 
1506	 3.37169659479822E-02 
1507	 3.33831943576496E-02 
1508	 3.32962464008491E-02 
1509	 3.43807215951627E-02 
1510	 3.50029713593955E-02 
1511	 3.46905190893757E-02 
1512	 3.52390120366464E-02 
1513	 3.56851844311464E-02 
1514	 3.55444777069137E-02 
1515	 3.56542363029502E-02 
1516	 3.59895379899225E-02 
1517	 3.55173249465154E-02 
1518	 3.48844232946917E-02 
1519	 3.46934461921112E-02 
1520	 3.45045813794847E-02 
1521	 3.40030235768903E-02 
1522	 3.31594701669715E-02 
1523	 3.25348322405187E-02 
1524	 3.16251759751742E-02 
1525	 3.19232756775257E-02 
1526	 3.28774032258747E-02 
1527	 0.031979830357957 
1528	 3.20779384954468E-02 
1529	 3.28952949966681E-02 
1530	 3.18311839092035E-02 
1531	 3.20404697810675E-02 
1532	 3.37671371802231E-02 
1533	 3.38391692957489E-02 
1534	 3.35705359901363E-02 
1535	 3.39813411691662E-02 
1536	 3.38750195076508E-02 
1537	 3.32891881810983E-02 
1538	 3.28984743496826E-02 
1539	 3.27486804695494E-02 
1540	 3.25606113071524E-02 
1541	 3.26213618547274E-02 
1542	 3.29365457157217E-02 
1543	 0.033161364680677 
1544	 3.29622086408846E-02 
1545	 3.22617125795857E-02 
1546	 3.13087743471448E-02 
1547	 3.05517327310419E-02 
1548	 0.030261353657338 
1549	 3.02670696777985E-02 
1550	 3.05542661002762E-02 
1551	 3.10425699213513E-02 
1552	 3.11631669140933E-02 
1553	 3.08352779833553E-02 
1554	 3.11019717667404E-02 
1555	 0.031950654279052 
1556	 3.21504989955494E-02 
1557	 3.19480807782435E-02 
1558	 3.16955561378201E-02 
1559	 3.10160533219641E-02 
1560	 3.10098511497556E-02 
1561	 3.15504310903734E-02 
1562	 3.13372861034351E-02 
1563	 0.031511686739434 
1564	 3.16041361418673E-02 
1565	 3.09610424129232E-02 
1566	 3.11608625899123E-02 
1567	 3.14726624202323E-02 
1568	 3.15495538727686E-02 
1569	 3.16224238097954E-02 
1570	 3.12663045914303E-02 
1571	 3.09545868744454E-02 
1572	 3.04122041754821E-02 
1573	 3.05292061364784E-02 
1574	 3.17558308890458E-02 
1575	 3.15324349558335E-02 
1576	 3.03288948517259E-02 
1577	 0.030132530849456 
1578	 2.98094181353897E-02 
1579	 0.030300107003507 
1580	 3.17103067305253E-02 
1581	 3.18245901626462E-02 
1582	 3.20949577133716E-02 
1583	 3.22820048996395E-02 
1584	 3.11748783926082E-02 
1585	 3.04475939056823E-02 
1586	 2.99712516543958E-02 
1587	 2.94200777543081E-02 
1588	 2.95755202673402E-02 
1589	 0.030085872474994 
1590	 2.95713578330154E-02 
1591	 2.93545952975513E-02 
1592	 3.05800383422359E-02 
1593	 3.02655192073534E-02 
1594	 2.94743400872785E-02 
1595	 3.01016869462766E-02 
1596	 3.00231684442342E-02 
1597	 0.029511428557882 
1598	 3.00704597413749E-02 
1599	 3.02947983010977E-02 
1600	 2.92276945378067E-02 
1601	 2.93739475880009E-02 
1602	 3.00626506921646E-02 
1603	 2.97980128080836E-02 
1604	 3.01338297846121E-02 
1605	 3.09130733120598E-02 
1606	 0.031583952279383 
1607	 3.12442718401011E-02 
1608	 3.04630762126687E-02 
1609	 3.04244964738982E-02 
1610	 3.01539556298765E-02 
1611	 3.03583259520829E-02 
1612	 3.04930029942844E-02 
1613	 2.95684202059631E-02 
1614	 2.92351559667231E-02 
1615	 2.93453784868321E-02 
1616	 2.97086387233064E-02 
1617	 3.01990981149539E-02 
1618	 3.03436878548326E-02 
1619	 3.06216218902428E-02 
1620	 3.06850382772631E-02 
1621	 0.030680226142998 
1622	 0.030463194427531 
1623	 3.01415620920754E-02 
1624	 3.01380868083046E-02 
1625	 3.00088108278549E-02 
1626	 3.00887136335193E-02 
1627	 3.00137968858546E-02 
1628	 3.01532183560805E-02 
1629	 3.09909337883862E-02 
1630	 3.06781618473694E-02 
1631	 2.98830602709888E-02 
1632	 2.99802777241795E-02 
1633	 2.94128145845651E-02 
1634	 2.89594075521601E-02 
1635	 3.01826459909723E-02 
1636	 3.02708190174157E-02 
1637	 2.91295355780284E-02 
1638	 2.98678932485854E-02 
1639	 2.98474663882265E-02 
1640	 2.90369847786065E-02 
1641	 3.00146363892363E-02 
1642	 2.99746588850893E-02 
1643	 2.93578226853197E-02 
1644	 0.029727082640032 
1645	 3.01575425605699E-02 
1646	 3.00443691097181E-02 
1647	 2.92769733490605E-02 
1648	 2.93208382763404E-02 
1649	 2.99944705326636E-02 
1650	 3.01934682040781E-02 
1651	 3.03728838895553E-02 
1652	 3.05825920502436E-02 
1653	 2.98087750775748E-02 
1654	 2.95886302548255E-02 
1655	 0.03057321674919 
1656	 3.07754013024952E-02 
1657	 2.99483193710708E-02 
1658	 2.95725878229485E-02 
1659	 2.92474598748656E-02 
1660	 2.92556493600425E-02 
1661	 3.00087683855152E-02 
1662	 3.00022178807371E-02 
1663	 2.97590818197356E-02 
1664	 2.98815362314018E-02 
1665	 2.93274472826322E-02 
1666	 2.90164467860511E-02 
1667	 0.029448469173816 
1668	 2.88816632554472E-02 
1669	 2.91928711907465E-02 
1670	 3.01593240058195E-02 
1671	 0.030066617185282 
1672	 2.92987309384206E-02 
1673	 2.91328460458153E-02 
1674	 3.02784267714215E-02 
1675	 3.06850127699839E-02 
1676	 3.02743697194148E-02 
1677	 3.05215502070448E-02 
1678	 2.96725867985268E-02 
1679	 2.86123519979841E-02 
1680	 2.94747339759457E-02 
1681	 2.99560450748198E-02 
1682	 2.93488263903377E-02 
1683	 0.02942258191187 
1684	 2.96720058218013E-02 
1685	 2.97699857115479E-02 
1686	 2.94184401121919E-02 
1687	 2.88701793400686E-02 
1688	 2.89062195797147E-02 
1689	 2.88706019241429E-02 
1690	 2.90033320750317E-02 
1691	 3.01049608286259E-02 
1692	 3.06932523192893E-02 
1693	 2.98247094448871E-02 
1694	 2.98945210570725E-02 
1695	 3.00684277288799E-02 
1696	 2.86829230495154E-02 
1697	 2.83649491453561E-02 
1698	 2.92793745351684E-02 
1699	 0.029328771216684 
1700	 2.92530812923676E-02 
1701	 2.96633970147335E-02 
1702	 2.92121805329869E-02 
1703	 2.89649633045125E-02 
1704	 2.95452155300931E-02 
1705	 2.94206893910096E-02 
1706	 0.029315551062968 
1707	 2.94128178892875E-02 
1708	 2.93390363862419E-02 
1709	 2.97596735199796E-02 
1710	 2.95862549054276E-02 
1711	 0.029277385213847 
1712	 2.99570027302565E-02 
1713	 0.030850677087027 
1714	 3.12513229117137E-02 
1715	 3.08934623334655E-02 
1716	 3.08897131775669E-02 
1717	 3.07587017038019E-02 
1718	 3.09982306479151E-02 
1719	 0.031023032705214 
1720	 0.030190004464409 
1721	 2.93866288060586E-02 
1722	 2.84565363837711E-02 
1723	 2.91686724101899E-02 
1724	 3.03239432015022E-02 
1725	 2.98338583010017E-02 
1726	 2.96770382643656E-02 
1727	 0.02983568504583 
1728	 0.03042268962932 
1729	 3.16550400920765E-02 
1730	 3.19914248950503E-02 
1731	 3.08982083669723E-02 
1732	 2.92409030979706E-02 
1733	 2.87400020791594E-02 
1734	 2.94756127581932E-02 
1735	 2.97653160017407E-02 
1736	 2.97253706108083E-02 
1737	 3.09459446518623E-02 
1738	 0.032615294415556 
1739	 0.032824114869152 
1740	 3.12838811715278E-02 
1741	 3.03933137705122E-02 
1742	 3.08361684667703E-02 
1743	 3.11522588175622E-02 
1744	 3.27226968949612E-02 
1745	 3.34244845815473E-02 
1746	 3.17600136300032E-02 
1747	 3.08746434005394E-02 
1748	 3.03035887103203E-02 
1749	 2.94985321327096E-02 
1750	 2.75122782616771E-02 
1751	 2.78247193392965E-02 
1752	 0.03097726491807 
1753	 0.031323302691899 
1754	 3.03689334210839E-02 
1755	 3.04144655229595E-02 
1756	 2.90116935136713E-02 
1757	 2.90851027259217E-02 
1758	 3.20403325631276E-02 
1759	 3.31921094463656E-02 
1760	 3.28563946875538E-02 
1761	 3.22389160759538E-02 
1762	 3.08853351844698E-02 
1763	 3.23082461295884E-02 
1764	 3.41135063028977E-02 
1765	 3.40550905208169E-02 
1766	 3.50819461528377E-02 
1767	 3.28198025255852E-02 
1768	 2.86489721617757E-02 
1769	 2.96150428375905E-02 
1770	 3.12635577348016E-02 
1771	 3.12986737214773E-02 
1772	 3.31370759179678E-02 
1773	 3.39676463032157E-02 
1774	 3.05419602815375E-02 
1775	 2.70678423215673E-02 
1776	 2.74535911909382E-02 
1777	 3.52920359339746E-02 
1778	 3.57343345332677E-02 
1779	 3.22520098640371E-02 
1780	 3.06344188612327E-02 
1781	 2.17303478248577E-02 
1782	 1.86433913450886E-02 
1783	 2.23631706293122E-02 
1784	 2.52525632813542E-02 
1785	 2.94767191250807E-02 
1786	 3.19070455079811E-02 
1787	 3.91623825157589E-02 
1788	 3.94375193374784E-02 
1789	 2.91188058656727E-02 
1790	 2.97047788057415E-02 
1791	 3.30812538710773E-02 
1792	 4.61692104711861E-02 
1793	 4.58006155572444E-02 
1794	 2.45647199449753E-02 
1795	 1.25809637738978E-02 
1796	-5.16415460646851E-04 
1797	 2.41150063019179E-02 
1798	 8.50715891597578E-02 
1799	 9.65472951095972E-02 
1800	 0.104462367295712 
1801	 0.102804856437996 
1802	 8.85193524657235E-02 
1803	 7.82911811583937E-02 
1804	-0.022598417468731 
1805	-6.89678670168435E-02 
1806	-7.21914393718232E-03 
1807	-2.18443816829411E-02 
1808	 0.051441988129619 
1809	 0.067610480194397 
1810	-8.36328797320324E-02 
1811	-0.13661672632304 
1812	-6.58354229295149E-02 
1813	-0.187177917029106 
1814	-58.6428120875861 
1815	 2.57963581034518 
1816	-2.34695881035993 
1817	 1.63288238416657 
1818	 1.69985723352177 
1819	 1.951333992634 
1820	 0.52494962034449 
1821	-0.990923503888144 
1822	 5.53013408301386 
1823	 1131.76678317719 
1824	 388.455314520276 
1825	 0.449271456192156 
1826	 0.569625163685739 
1827	-5.32115036328994 
1828	-3.18900661495924 
1829	-2.99037042960843 
1830	-4.95351703463234 
1831	 1.69341339734482 
1832	 1.80516824188816 
1833	 2.34344584251969 
1834	 2.25965499187799 
1835	 1.14937154243532 
1836	 3.03517328662542 
1837	 0.419743140873358 
1838	 0.412276659606468 
1839	-0.455852963386895 
1840	-0.715933264367064 
1841	-6.42269025888603 
1842	 1.18111172158582 
1843	 1.23466014926506 
1844	 1.87195651587433 
1845	 2.7739623194979 
1846	-1.61556176837679 
1847	-1.27492570499693 
1848	-1.96995166454569 
1849	-90.2660461176235 
1850	-0.133278139990691 
1851	-4.78294206673314 
1852	 15.7570580038649 
1853	 0.231492116508792 
1854	 0.287988578971374 
1855	 0.140587294691613 
1856	 9.72011244747813E-02 
1857	 2.01752884873644 
1858	 2.09710257553301 
1859	 0.667563223557691 
1860	-0.520008980113262 
1861	-0.546918253948587 
1862	-0.576333444771847 
1863	-0.597977357526952 
1864	-0.819242776005075 
1865	-0.864535700096499 
1866	-0.723368580932207 
1867	-0.471283874995937 
1868	-0.248028512644744 
1869	 0.16217358122578 
1870	-2.13896087565128 
1871	-12.3646799429376 
1872	-4.55823666947135 
1873	-44.4264059440214 
1874	-0.389965599553618 
1875	 4.67829388361637 
1876	-8.29436024399924 
1877	-1.27446541008564 
1878	-1.57947106162897 
1879	-0.809509964110955 
1880	-1.90151160021984 
1881	 1.12563709533265 
1882	 0.970419044994682 
1883	 1.61290450532802 
1884	 1.39182267050491 
1885	 0.778498690118863 
1886	 0.437413873723074 
1887	 2.45436316475013E-02 
1888	-0.214477267822657 
1889	-0.187704612923519 
1890	 0.552872149711733 
1891	 0.740276358664981 
1892	 0.734609438181771 
1893	 5.83191584828217 
1894	 2.29798843280976 
1895	 5.93025957779556E-02 
1896	 0.400895240736153 
1897	 0.307020441071299 
1898	-0.323907741571565 
1899	-1.99112289409062 
1900	-9.16695052721266 
1901	 1.80650449252673 
1902	 7.3269984524316 
1903	-1.6802322401422 
1904	-0.589758776823661 
1905	-4.13174659372694E-02 
1906	 1.31872403990823 
1907	-1.8712951585408 
1908	-1.66369282837608 
1909	 4.10180702934754 
1910	-4.12532374311383 
1911	-2.03149569299659 
1912	-2.38666004015949 
1913	-3.43007914789555 
1914	-25.9216539349643 
1915	-50.8152752461854 
1916	-24.1102072862513 
1917	 2.96514202058596 
1918	 11.1865367210958 
1919	-9.35784664737637 
1920	 2.87126609641658 
1921	-17.4866550626699 
1922	-4.01952301788465 
1923	-1.39672366824729 
1924	-0.774588037872038 
1925	-1.13483833568531 
1926	-0.926926171945275 
1927	-0.624505755751221 
1928	-0.823020267000286 
1929	-0.527268417971348 
1930	-0.302863272906929 
1931	-7.35382519738877E-03 
1932	 0.382156862132918 
1933	-0.693604862059071 
1934	-29.4133234196496 
1935	-0.461601742260095 
1936	-0.709034839853137 
1937	-0.258700939957545 
1938	-0.551474712656593 
1939	-0.862209274832701 
1940	 4.70283812233297 
1941	 5.59879063166413 
1942	-0.393232957559418 
1943	 3.91896751094321E-02 
1944	-1.97206360802035E-02 
1945	 0.159131626767372 
1946	 0.274916010539439 
1947	 0.280438988876777 
1948	 0.573036646079834 
1949	 0.64292430880602 
1950	 0.435571203648343 
1951	 0.362099910641558 
1952	 0.255277369918379 
1953	 9.36371946972077E-02 
1954	-0.186345052065748 
1955	-8.35212107605277E-02 
1956	-0.191210182943216 
1957	-0.336491410667266 
1958	-0.104056903690239 
1959	-2.98477976206412E-02 
1960	 1.31569627166757E-02 
1961	 9.41636236495665E-02 
1962	 0.103011675878532 
1963	 6.48300850322775E-02 
1964	 5.70343082749084E-02 
1965	 0.063121782803849 
1966	 5.57728532612531E-02 
1967	 0.043339796426026 
1968	 4.31377148124084E-02 
1969	 4.31539261789321E-02 
1970	 0.038117581471808 
1971	 3.55513951077722E-02 
1972	 0.041381764419489 
1973	 4.34662570189239E-02 
1974	 3.92697928882861E-02 
1975	 4.04938934618452E-02 
1976	 0.044864828082927 
1977	 4.81817448312905E-02 
1978	 0.044464483358269 
1979	 4.38429412700189E-02 
1980	 4.31181555581999E-02 
1981	 4.04906118308142E-02 
1982	 3.63105842401207E-02 
1983	 4.03971993750901E-02 
1984	 3.91207427659167E-02 
1985	 3.46154365042315E-02 
1986	 3.38815811091646E-02 
1987	 3.29880324538498E-02 
1988	 3.49719244136061E-02 
1989	 3.94101719911379E-02 
1990	 3.90502276078873E-02 
1991	 0.038942203118303 
1992	 3.62459965118629E-02 
1993	 2.88708430288722E-02 
1994	 2.67227926474047E-02 
1995	 2.98467851318248E-02 
1996	 2.80919088900446E-02 
1997	 3.20871250535944E-02 
1998	 4.10266183259339E-02 
1999	 3.44346214985677E-02 
2000	 3.50710972844117E-02 
2001	 3.59294767205661E-02 
2002	 0.028863614280915 
2003	 2.81177481850674E-02 
2004	 3.74621951106409E-02 
2005	 2.23646733637222E-02 
2006	 1.23053173196572E-02 
2007	 1.92392102182529E-02 
2008	-2.45027252989172E-03 
2009	-1.53385825772906E-03 
2010	 0.016841016739223 
2011	 2.20450975269585E-02 
2012	 2.70207793986227E-02 
2013	 4.58927285259818E-02 
2014	 3.39238117369258E-02 
2015	 2.57214688548458E-02 
2016	 1.19292107645774E-02 
2017	 3.1469717750285E-04 
2018	 8.96997074771347E-04 
2019	 1.45434200924392E-03 
2020	 6.09287904505533E-03 
2021	 1.43862369400723E-02 
2022	 2.21975309824183E-02 
2023	 3.08202740280773E-02 
2024	 3.58851681779374E-02 
2025	 4.01309811678768E-02 
2026	 0.040655324171622 
2027	 3.94417203241952E-02 
2028	 3.68937477762288E-02 
2029	 3.54721465438275E-02 
2030	 3.44799575586303E-02 
2031	 3.00899603343812E-02 
2032	 2.80870578804485E-02 
2033	 2.75518709639957E-02 
2034	 2.82248589516115E-02 
2035	 2.88290497426427E-02 
2036	 2.87092307429325E-02 
2037	 2.74752949383334E-02 
2038	 2.45850178301536E-02 
2039	 2.48644275128472E-02 
2040	 0.029475521350081 
2041	 3.15955174028527E-02 
2042	 3.36669910996416E-02 
2043	 3.50999557407444E-02 
2044	 3.67155401142852E-02 
2045	 3.56239728427151E-02 
2046	 3.35041381774324E-02 
2047	 3.35893703706909E-02 
2048	 3.17802545577979E-02 
2049	 0.030449117227211 
2050	 2.96734972534593E-02 
2051	 2.84315523513655E-02 
2052	 2.58531066999472E-02 
2053	 2.52331171296299E-02 
2054	 3.00128621669874E-02 
2055	 3.15580065790194E-02 
2056	 3.20482716830246E-02 
2057	 0.034473877988501 
2058	 3.49653471274298E-02 
2059	 2.90998999658405E-02 
2060	 2.85136318082184E-02 
2061	 0.03330500967419 
2062	 3.11783839624286E-02 
2063	 2.51682487408555E-02 
2064	 2.77341490662189E-02 
2065	 3.02366762284575E-02 
2066	 2.88596651884607E-02 
2067	 0.030122833709716 
2068	 3.31451964584008E-02 
2069	 3.33685821902643E-02 
2070	 3.22799602568934E-02 
2071	 3.17876287046256E-02 
2072	 3.02072565072915E-02 
2073	 2.79761760941516E-02 
2074	 2.29260368977679E-02 
2075	 2.07906399960809E-02 
2076	 1.76833924286999E-02 
2077	 0.018927784922693 
2078	 2.35824930453327E-02 
2079	 2.73311944478123E-02 
2080	 3.43109905361356E-02 
2081	 0.039194166751709 
2082	 3.99660346944289E-02 
2083	 3.70688390942891E-02 
2084	 3.21177102734528E-02 
2085	 2.95539001615232E-02 
2086	 3.00923373687453E-02 
2087	 3.36694246586286E-02 
2088	 3.89801224822293E-02 
2089	 0.040446195286211 
2090	 3.98689660467475E-02 
2091	 3.67884526946781E-02 
2092	 3.53223149200237E-02 
2093	 3.28965833392706E-02 
2094	 3.35441613545209E-02 
2095	 3.81550419158468E-02 
2096	 3.93126927378179E-02 
2097	 3.95683075609583E-02 
2098	 3.91201714236285E-02 
2099	 3.80515720636941E-02 
2100	 3.30092825141299E-02 
2101	 3.06101309839627E-02 
2102	 0.032278449641808 
2103	 3.10034178988143E-02 
2104	 3.18373255533286E-02 
2105	 3.42034705003806E-02 
2106	 3.12172316173664E-02 
2107	 2.59060908145613E-02 
2108	 2.13438481982368E-02 
2109	 1.81276157892876E-02 
2110	 1.64055028903228E-02 
2111	 1.78308338144899E-02 
2112	 2.18307593560913E-02 
2113	 2.39903901625606E-02 
2114	 2.51097807462667E-02 
2115	 2.74120123448825E-02 
2116	 3.00627924216182E-02 
2117	 3.14361002378844E-02 
2118	 3.30229721189527E-02 
2119	 3.31671021298139E-02 
2120	 3.08565828240036E-02 
2121	 3.19708704273746E-02 
2122	 3.22638206771883E-02 
2123	 3.11961200066505E-02 
2124	 3.28802039987759E-02 
2125	 3.39013056150997E-02 
2126	 3.40218193267292E-02 
2127	 0.036364717422516 
2128	 3.82975894215816E-02 
2129	 3.82061467074188E-02 
2130	 3.92325728808792E-02 
2131	 4.01376693352756E-02 
2132	 3.68736035915723E-02 
2133	 3.36489872571687E-02 
2134	 3.29972462965745E-02 
2135	 3.25008108967992E-02 
2136	 0.032728979210176 
2137	 3.69847061557009E-02 
2138	 3.80512531388627E-02 
2139	 0.036775375794436 
2140	 3.58983618742086E-02 
2141	 3.37465182088668E-02 
2142	 3.35455165466436E-02 
2143	 3.46549534956709E-02 
2144	 3.50049523838444E-02 
2145	 3.52433845377893E-02 
2146	 3.33474354756576E-02 
2147	 2.70707495682541E-02 
2148	 0.024622891299934 
2149	 2.38704784740934E-02 
2150	 2.41653022060422E-02 
2151	 2.64709082694856E-02 
2152	 2.66705777834236E-02 
2153	 2.91875399045557E-02 
2154	 2.95895544528446E-02 
2155	 2.86169214306196E-02 
2156	 2.64876353901539E-02 
2157	 2.47031722821934E-02 
2158	 2.03951531949501E-02 
2159	 2.02584015382713E-02 
2160	 2.20639602523735E-02 
2161	 2.47338724989488E-02 
2162	 0.030396590620611 
2163	 3.22891110159086E-02 
2164	 3.41942340357924E-02 
2165	 0.034732492869845 
2166	 3.29903240982966E-02 
2167	 3.09633510525635E-02 
2168	 2.71492673616895E-02 
2169	 2.58101031983341E-02 
2170	 2.51316251248756E-02 
2171	 2.35250657882419E-02 
2172	 2.38037141104238E-02 
2173	 2.34788032778243E-02 
2174	 2.12899163155186E-02 
2175	 1.86611649272018E-02 
2176	 0.022099694575311 
2177	 2.23455217771737E-02 
2178	 1.76706276465447E-02 
2179	 1.88337210279267E-02 
2180	 1.66853695134297E-02 
2181	 1.44059082511703E-02 
2182	 1.76975320784727E-02 
2183	 2.00680572316465E-02 
2184	 2.19522601698066E-02 
2185	 2.68556985749364E-02 
2186	 2.94594233800785E-02 
2187	 3.22213408437031E-02 
2188	 3.31614694832573E-02 
2189	 3.33695833871131E-02 
2190	 0.030005240454573 
2191	 2.20654383923819E-02 
2192	 2.06681339584147E-02 
2193	 1.92077005912411E-02 
2194	 1.77347997964146E-02 
2195	 2.40319328566082E-02 
2196	 2.29680996680644E-02 
2197	 1.16586347780211E-02 
2198	 9.09120120162024E-03 
2199	 9.70339592686826E-03 
2200	 8.20317136591427E-03 
2201	 1.29753768932269E-02 
2202	 2.28066637932912E-02 
2203	 2.27585629280767E-02 
2204	 1.89200639932487E-02 
2205	 2.00758180133299E-02 
2206	 1.99787194848966E-02 
2207	 1.88473590109809E-02 
2208	 2.44334598233745E-02 
2209	 2.93955718048631E-02 
2210	 2.79758333183139E-02 
2211	 2.87733375578992E-02 
2212	 3.00241281608502E-02 
2213	 2.38635498534422E-02 
2214	 2.04449178821572E-02 
2215	 2.03055517145221E-02 
2216	 2.05000007178102E-02 
2217	 2.21088976774635E-02 
2218	 2.81757836579742E-02 
2219	 2.85982291432561E-02 
2220	 2.65229613020824E-02 
2221	 2.55042287321918E-02 
2222	 2.18708969013899E-02 
2223	 0.022381493666578 
2224	 2.63164499119818E-02 
2225	 2.75157026200265E-02 
2226	 0.030219879904321 
2227	 3.14641655458806E-02 
2228	 3.11631514932144E-02 
2229	 2.90833378594431E-02 
2230	 2.12895919743221E-02 
2231	 2.07688853009666E-02 
2232	 2.31155607294525E-02 
2233	 2.41627129629214E-02 
2234	 2.99996933041804E-02 
2235	 0.037175813309713 
2236	 3.32269327804509E-02 
2237	 3.27413811414389E-02 
2238	 3.17647174909277E-02 
2239	 2.58577716850376E-02 
2240	 2.31738451517679E-02 
2241	 2.12328155346357E-02 
2242	 1.77456439421481E-02 
2243	 2.22031910388518E-02 
2244	 2.74709861548235E-02 
2245	 2.25816207992308E-02 
2246	 2.36687220638281E-02 
2247	 2.19312137663939E-02 
2248	 8.28930054315851E-03 
2249	 4.07075426444988E-03 
2250	 8.11287887657283E-03 
2251	 0.011658750334157 
2252	 2.10794449647157E-02 
2253	 3.39307905859044E-02 
2254	 3.19275185561089E-02 
2255	 2.00302059149834E-02 
2256	 1.36739616420803E-02 
2257	 8.28533877560841E-03 
2258	 6.10492804341497E-03 
2259	 1.07152125381922E-02 
2260	 1.62568715438651E-02 
2261	 2.74807639092169E-02 
2262	 3.25090437666781E-02 
2263	 3.82919405085258E-02 
2264	 3.93681370854797E-02 
2265	 3.29983843552157E-02 
2266	 2.78677327324056E-02 
2267	 0.022091915326294 
2268	 1.81331366661052E-02 
2269	 1.42425612155721E-02 
2270	 1.46720712403046E-02 
2271	 1.66171277428602E-02 
2272	 0.015680000257126 
2273	 1.31427445410729E-02 
2274	 1.47329483000761E-02 
2275	 1.93419023959866E-02 
2276	 2.39767293159697E-02 
2277	 3.53930882096043E-02 
2278	 3.75024337532815E-02 
2279	 3.49350017981197E-02 
2280	 3.13764685549386E-02 
2281	 0.024088333448253 
2282	 1.32267633708069E-02 
2283	 1.03390275129748E-02 
2284	 9.3101737913293E-04 
2285	-5.38268110261416E-03 
2286	 7.03506382259883E-03 
2287	 1.08217500980275E-02 
2288	 1.73833895246894E-02 
2289	 2.61508238153876E-02 
2290	 3.09987410409258E-02 
2291	 4.03462633686266E-02 
2292	 4.08333142042232E-02 
2293	 4.05944360612341E-02 
2294	 3.73771350327919E-02 
2295	 3.60456727253111E-02 
2296	 3.21394731060837E-02 
2297	 2.15026517570272E-02 
2298	 1.25224259746318E-02 
2299	 6.29401305577673E-03 
2300	 1.25654372962708E-02 
2301	 2.09884932623998E-02 
2302	 2.38417408919894E-02 
2303	 1.29071096709676E-02 
2304	-1.67755349314424E-03 
2305	-8.0975917324937E-04 
2306	 8.40893974155628E-03 
2307	 1.52088733676687E-02 
2308	 2.39801250296917E-02 
2309	 2.46103413813779E-02 
2310	 6.25796399051726E-03 
2311	 4.19733931747817E-03 
2312	 0.010289067151195 
2313	 9.13333102407941E-03 
2314	 2.37749835695568E-02 
2315	 3.24597160267848E-02 
2316	 2.44807241317201E-02 
2317	 0.026063950784477 
2318	 1.86452146017074E-02 
2319	-2.5133793446988E-03 
2320	-4.93724646102144E-03 
2321	-1.51296806301611E-02 
2322	-2.09425552562303E-02 
2323	-1.21440160755287E-02 
2324	-1.60586196447388E-02 
2325	-4.38061434319413E-03 
2326	 0.01407225863742 
2327	 2.58572921403932E-02 
2328	 5.02785484781098E-02 
2329	 6.90092808517458E-02 
2330	 5.49866651138745E-02 
2331	 0.029513388944746 
2332	 6.0581807413365E-03 
2333	-1.37393453362845E-02 
2334	-0.019933364033524 
2335	-7.35711520729346E-03 
2336	 1.08373286171351E-02 
2337	-2.51670784138294E-03 
2338	-1.62385322717235E-03 
2339	 2.03409627335221E-02 
2340	 2.08163293334731E-02 
2341	 3.14958567779338E-02 
2342	 4.49017384666736E-02 
2343	 1.99060617177789E-02 
2344	 4.85160891891344E-04 
2345	 7.76114739548579E-03 
2346	-1.60258547921272E-02 
2347	-2.76007808051298E-02 
2348	-7.84829095838375E-03 
2349	 3.66605083857457E-03 
2350	 2.98275923668639E-02 
2351	 3.48915465331213E-02 
2352	 9.21917015246233E-03 
2353	 5.51560878839021E-03 
2354	-2.62184659022257E-03 
2355	-9.98646751982932E-03 
2356	 1.35139688051775E-02 
2357	 3.92008282971631E-02 
2358	 4.23968548428176E-02 
2359	 2.92192356259016E-02 
2360	 2.66340362037194E-02 
2361	 1.46592479187941E-02 
2362	-6.22167323333786E-03 
2363	-6.42097812868396E-03 
2364	 2.28528935226666E-02 
2365	 0.058100307947113 
2366	 2.33864424408234E-02 
2367	 2.61760073435336E-02 
2368	 3.51431367188572E-02 
2369	-8.32470082300475E-02 
2370	-0.124846028683729 
2371	-0.146534319021214 
2372	-0.20400577669068 
2373	-0.202972448999927 
2374	-0.239620967557294 
2375	-0.265227407632193 
2376	-0.329259992112335 
2377	-0.460245232838758 
2378	-0.283619772412439 
2379	-0.107071472760771 
2380	-0.135018304313049 
2381	-0.11904960919848 
2382	-0.192065315463623 
2383	-0.53456526959016 
2384	-0.706243794982804 
2385	-0.430987698289255 
2386	-0.152380127037364 
2387	 4.24301934742776E-02 
2388	 0.227666776944966 
2389	 0.158686977964398 
2390	 8.84735710692102E-02 
2391	 0.229242482130931 
2392	 0.21629223239064 
2393	-2.62417011570382E-02 
2394	 2.29219083990949E-02 
2395	 0.019808395921297 
2396	-0.104886443140934 
2397	 3.93465051053332E-03 
2398	 0.098465499993472 
2399	-4.49275602055347E-02 
2400	-0.194862802545814 
2401	-2.02699112577057E-02 
2402	 0.15257486157256 
2403	-3.89733249778634E-02 
2404	-5.05822338801662E-03 
2405	-0.228413829405843 
2406	-0.875903428559548 
2407	-1.17548578740363 
2408	-1.13020115971497 
2409	-2.39768697232757 
2410	-1.14556794478479 
2411	-0.590838729192224 
2412	-0.516582567914328 
2413	-0.255337331108305 
2414	-0.297345619956511 
2415	-0.568862463913898 
2416	-1.92025941095061 
2417	-4.14757536420995 
2418	-2.45731251556427 
2419	-2.93216471723624 
2420	-0.562878844076748 
2421	-0.380369687368362 
2422	-2.91288397111266 
2423	-1.83785675352103 
2424	-1.76281386549882 
2425	-3.11076358782387 
2426	-2.28078622028193 
2427	-2.88676031653266 
2428	-4.21619717965208 
2429	-3.30022736338456 
2430	-4.14889329091049 
2431	 1.97896147447928 
2432	 0.747795817924679 
2433	 0.766198797812924 
2434	 1.37935488438722 
2435	 2.4191636091232 
2436	 9.91635804035422 
2437	-1.8657762956447 
2438	-0.619314645574125 
2439	 4.57039722919683E-02 
2440	 8.03564793385568E-02 
2441	-0.220488769607034 
2442	 9.41880011821882 
2443	 2.10280138592448 
2444	 3.71139470015159 
2445	 5.01775563386445 
2446	 2.47446236794183 
2447	 1.71573748197756 
2448	 1.15960033472706 
2449	 0.642089507292153 
2450	 0.604336609764685 
2451	 0.278263248367673 
2452	 0.504693162208983 
2453	 1.26503928153066 
2454	 2.37804530238723 
2455	 5.262615535744 
2456	 2.82243015620093 
2457	 2.50541869061036 
2458	 2.20608194719664 
2459	 1.16118115635295 
2460	 0.419468296723294 
2461	-4.71822058233862E-02 
2462	-0.607868550921445 
2463	-0.471575729377097 
2464	 1.20328526285106 
2465	-2.29672048229747 
2466	-11.8000296735409 
2467	 2.23794443017749 
2468	 0.90409091877662 
2469	 5.16085268503142E-02 
2470	-1.22942482637637E-02 
2471	 0.137201252743946 
2472	 0.296567690740173 
2473	 5.36233840026432E-02 
2474	 0.612836541830017 
2475	 0.997170916015978 
2476	 0.790284557134895 
2477	 1.01240944712163 
2478	 1.09059199050267 
2479	 0.967718896937464 
2480	 1.16844625524881 
2481	 1.88998318608859 
2482	 4.97969791044056 
2483	 3.40478688130937 
2484	 1.30049669369285 
2485	 1.24170067049758 
2486	-0.333178925861012 
2487	-0.66705689969867 
2488	 2.75676001295986 
2489	 4.79965924959234 
2490	-1.21013761249326 
2491	 5.95787011268833 
2492	 16.3629989801704 
2493	 5.4337302150766 
2494	 4.0924908184469 
2495	 3.52884022051898 
2496	 5.70778948779969 
2497	-0.78119162282347 
2498	 0.19517115980148 
2499	 0.210852757201074 
2500	 1.96922152422597 
