Wavelength	rt0801far100005.asd
350	 7.73260158005744E-02 
351	 7.61441875231411E-02 
352	 7.70588725840736E-02 
353	 7.79413054718309E-02 
354	 7.73691847116936E-02 
355	 7.70383881832165E-02 
356	 7.72043937640414E-02 
357	 7.76469224517355E-02 
358	 7.80551296371464E-02 
359	 7.87860129643462E-02 
360	 7.87181073961784E-02 
361	 0.07854034103676 
362	 0.079763436180932 
363	 7.86403315034157E-02 
364	 7.78740823169992E-02 
365	 7.87695874028784E-02 
366	 7.93758562640167E-02 
367	 7.91096600239738E-02 
368	 0.078552774728283 
369	 7.85251628350962E-02 
370	 7.93985295608958E-02 
371	 7.93097676295531E-02 
372	 7.90723539343884E-02 
373	 8.06014349677418E-02 
374	 8.03364276899915E-02 
375	 0.080594161186734 
376	 8.16847566581005E-02 
377	 8.04495634925619E-02 
378	 8.12131515235622E-02 
379	 8.22442770797951E-02 
380	 8.17071630225323E-02 
381	 8.21582162604176E-02 
382	 8.20257812522575E-02 
383	 8.18973924726638E-02 
384	 8.30518673444137E-02 
385	 8.40641713528777E-02 
386	 0.083832304966513 
387	 8.29207105968642E-02 
388	 8.35593753626598E-02 
389	 8.43948917947475E-02 
390	 8.46047860753768E-02 
391	 8.42413746589058E-02 
392	 8.51691893430966E-02 
393	 8.57490899278741E-02 
394	 8.59384243103872E-02 
395	 8.62206470209694E-02 
396	 8.63305056667309E-02 
397	 8.66374491985971E-02 
398	 8.69523474659886E-02 
399	 8.66652230846387E-02 
400	 8.70194873585209E-02 
401	 0.087552607314448 
402	 8.77803573052275E-02 
403	 8.77432128650556E-02 
404	 8.77600011624617E-02 
405	 8.80707790477306E-02 
406	 8.86930088431624E-02 
407	 8.86727667321859E-02 
408	 8.88600426392503E-02 
409	 8.93804939948731E-02 
410	 8.95673972641129E-02 
411	 8.96060641006288E-02 
412	 8.96416014008296E-02 
413	 8.98534872998309E-02 
414	 9.06003803040205E-02 
415	 9.08559264617687E-02 
416	 9.08189815499327E-02 
417	 0.091124629339459 
418	 9.16283771924038E-02 
419	 9.19880797753127E-02 
420	 0.092143260102509 
421	 9.23474592333966E-02 
422	 9.25727304847727E-02 
423	 9.28879381195267E-02 
424	 9.33106598665533E-02 
425	 9.36827174240552E-02 
426	 9.41117870843116E-02 
427	 9.45110025337362E-02 
428	 9.47770776734703E-02 
429	 9.54116528674401E-02 
430	 9.58992845717319E-02 
431	 9.61642933528692E-02 
432	 9.67453312382941E-02 
433	 0.09719897179932 
434	 9.76622733454089E-02 
435	 9.82383589010483E-02 
436	 9.85324586750322E-02 
437	 9.89110882804724E-02 
438	 9.93757201729508E-02 
439	 9.97639836245375E-02 
440	 0.100434400996712 
441	 0.10094953145979 
442	 0.101204139786442 
443	 0.101702526232276 
444	 0.102046109601087 
445	 0.102328287223377 
446	 0.102695815632345 
447	 0.102953493659292 
448	 0.103337452226563 
449	 0.103752239688047 
450	 0.103885819652555 
451	 0.103999741129397 
452	 0.104153308470604 
453	 0.104389350958217 
454	 0.104802751549742 
455	 0.105064163358628 
456	 0.105209488850992 
457	 0.105372548777289 
458	 0.105374119279667 
459	 0.105482710960202 
460	 0.105736797083508 
461	 0.105921238909091 
462	 0.105941153709591 
463	 0.106073895103094 
464	 0.106419614858542 
465	 0.106353018992052 
466	 0.106488000437907 
467	 0.106746010329247 
468	 0.106783400147519 
469	 0.107045102496615 
470	 0.107245004358133 
471	 0.107321907387301 
472	 0.107597577027512 
473	 0.107870730058128 
474	 0.107997052175759 
475	 0.107984501383484 
476	 0.10832041092359 
477	 0.10860026423262 
478	 0.10875704559881 
479	 0.108960566613079 
480	 0.109167302735501 
481	 0.109351154795933 
482	 0.109534477893092 
483	 0.109825952665976 
484	 0.110313415919541 
485	 0.110760106248489 
486	 0.110934154304461 
487	 0.111315809450166 
488	 0.111817699703957 
489	 0.112299236987234 
490	 0.112618265567588 
491	 0.112916928968272 
492	 0.113351908126849 
493	 0.113953298805868 
494	 0.114434891397134 
495	 0.114826668188867 
496	 0.115195732292711 
497	 0.115644866161947 
498	 0.116309756306211 
499	 0.116956121979165 
500	 0.117448683727877 
501	 0.117858216558105 
502	 0.118454917899408 
503	 0.119131783395425 
504	 0.119723051053028 
505	 0.120348459549412 
506	 0.120894699259155 
507	 0.121363356420346 
508	 0.121856207807928 
509	 0.122513564923934 
510	 0.12321594823473 
511	 0.123838053857797 
512	 0.124328048974608 
513	 0.124963391788622 
514	 0.125633340187908 
515	 0.126134717009464 
516	 0.126978693288713 
517	 0.127880886046317 
518	 0.128629818076589 
519	 0.129205519589721 
520	 0.129928550398689 
521	 0.130727754266313 
522	 0.131467671266222 
523	 0.132102840336266 
524	 0.132928668125823 
525	 0.133866786551572 
526	 0.134606018232711 
527	 0.135431645894338 
528	 0.136306984199174 
529	 0.137176441381408 
530	 0.138043725582396 
531	 0.138908539047542 
532	 0.139729574634956 
533	 0.140487337849409 
534	 0.141369659051003 
535	 0.14238641887328 
536	 0.143422023046883 
537	 0.14423652312116 
538	 0.145125021385348 
539	 0.146142643247554 
540	 0.147236410177007 
541	 0.148233700152418 
542	 0.149138308607148 
543	 0.150002969977473 
544	 0.150911875044436 
545	 0.151874317508936 
546	 0.15286833402902 
547	 0.153862756233402 
548	 0.154832023686656 
549	 0.155671360314042 
550	 0.156493034184649 
551	 0.1574474231815 
552	 0.158398656966731 
553	 0.159336729409823 
554	 0.160256771623916 
555	 0.161148520673554 
556	 0.162053455390396 
557	 0.162940187980206 
558	 0.163773822566273 
559	 0.164583476012843 
560	 0.165479664870511 
561	 0.166372467939856 
562	 0.167088060447669 
563	 0.167954549391238 
564	 0.168806888047251 
565	 0.16956681993292 
566	 0.17047246614472 
567	 0.171178909780124 
568	 0.171776740067038 
569	 0.17247245584786 
570	 0.173131700640797 
571	 0.173691650666519 
572	 0.174157641330301 
573	 0.174599344852906 
574	 0.174999617193252 
575	 0.175364271231106 
576	 0.17572516463595 
577	 0.176203438554062 
578	 0.176609821861142 
579	 0.176929494347432 
580	 0.177250457273596 
581	 0.177483822949775 
582	 0.177734229317204 
583	 0.178047681977138 
584	 0.178311779219324 
585	 0.178732077200535 
586	 0.179269233173405 
587	 0.179824702776447 
588	 0.180564597371996 
589	 0.180948111727842 
590	 0.180855939505015 
591	 0.18070888750387 
592	 0.180632663064481 
593	 0.180497904274981 
594	 0.180205767249297 
595	 0.179945179632834 
596	 0.179628265659075 
597	 0.179212704410153 
598	 0.178701251111975 
599	 0.178245774548955 
600	 0.177776604236546 
601	 0.177322267567014 
602	 0.177126319923264 
603	 0.177008514835863 
604	 0.1769505533298 
605	 0.176975855948993 
606	 0.177051659277749 
607	 0.177166206342895 
608	 0.17722592314405 
609	 0.17707466848545 
610	 0.177222436306822 
611	 0.177423922405001 
612	 0.177428477255685 
613	 0.177448435039471 
614	 0.177633349960397 
615	 0.177824492239155 
616	 0.177730560666763 
617	 0.177655311061504 
618	 0.17769508323525 
619	 0.177831186560009 
620	 0.177911576093657 
621	 0.177880510122023 
622	 0.177816957233784 
623	 0.17783788265952 
624	 0.177948310582565 
625	 0.178193691410466 
626	 0.178478540874742 
627	 0.17857597978434 
628	 0.178448058164466 
629	 0.178336224239075 
630	 0.1783868626839 
631	 0.178361121991932 
632	 0.178319155693742 
633	 0.178285126182396 
634	 0.178270591743182 
635	 0.17830518941994 
636	 0.178214031674774 
637	 0.178044127836282 
638	 0.178180096388196 
639	 0.178354819918394 
640	 0.178367262792233 
641	 0.178169307840751 
642	 0.178219011533514 
643	 0.178350811696362 
644	 0.178579228415678 
645	 0.179047776692415 
646	 0.179298104947807 
647	 0.179331258358868 
648	 0.179209293438491 
649	 0.178852642334865 
650	 0.178682541712584 
651	 0.178608729983926 
652	 0.178366781191947 
653	 0.177948227743957 
654	 0.177759008830416 
655	 0.17779251711888 
656	 0.177432183615018 
657	 0.176988074219677 
658	 0.176534432375227 
659	 0.176090567095 
660	 0.175721205078527 
661	 0.175512701881857 
662	 0.175467417162117 
663	 0.175512650767297 
664	 0.175427984172516 
665	 0.175245363151764 
666	 0.175074294286529 
667	 0.175100198878815 
668	 0.175157962750833 
669	 0.175189940187485 
670	 0.175169884405555 
671	 0.17501852860244 
672	 0.175093238654223 
673	 0.175319023819418 
674	 0.175238298697386 
675	 0.175406522938471 
676	 0.175610661971749 
677	 0.175681938899975 
678	 0.175941699304911 
679	 0.176198747229192 
680	 0.176308012876485 
681	 0.17624279560136 
682	 0.176631005232467 
683	 0.17696295565264 
684	 0.17716416654871 
685	 0.177925589450676 
686	 0.178738435491728 
687	 0.179133494836905 
688	 0.179002397230446 
689	 0.179151554376916 
690	 0.179549350097337 
691	 0.180123693787552 
692	 0.1807329213603 
693	 0.180983548658491 
694	 0.180612977695176 
695	 0.179804289755912 
696	 0.179092158095198 
697	 0.179047353578413 
698	 0.179374656242836 
699	 0.179486513269138 
700	 0.17915678060259 
701	 0.178497690557565 
702	 0.17768056308752 
703	 0.176862661608361 
704	 0.17647158229849 
705	 0.176001191906097 
706	 0.175122857322752 
707	 0.174108294424234 
708	 0.173284035060893 
709	 0.172359275660568 
710	 0.171013655691776 
711	 0.170165158924307 
712	 0.16923645315034 
713	 0.168235350935152 
714	 0.167854564595607 
715	 0.167863337350169 
716	 0.168122875221447 
717	 0.168191578192603 
718	 0.167000579926136 
719	 0.164097789579854 
720	 0.161128343574731 
721	 0.159035882607097 
722	 0.158311637363029 
723	 0.157407025542089 
724	 0.155697559985106 
725	 0.153862798089163 
726	 0.151776375715897 
727	 0.149321744311668 
728	 0.146549945261247 
729	 0.144122929900418 
730	 0.140559024011354 
731	 0.136637975733163 
732	 0.133553087836227 
733	 0.130982746527038 
734	 0.129038429336964 
735	 0.127558001656128 
736	 0.125892183844893 
737	 0.124627572811767 
738	 0.123631669050109 
739	 0.122724914819592 
740	 0.121995942794799 
741	 0.12159407320817 
742	 0.121264480762501 
743	 0.120661586776743 
744	 0.120515076581954 
745	 0.120523025836393 
746	 0.120478850478169 
747	 0.120442525052087 
748	 0.120478781782465 
749	 0.120519281450434 
750	 0.12048020817831 
751	 0.120316248153431 
752	 0.120420190804517 
753	 0.120583953753505 
754	 0.120387817004195 
755	 0.120628241020197 
756	 0.120956483964753 
757	 0.121220579116265 
758	 0.121825736785277 
759	 0.123764344208045 
760	 0.125710652285093 
761	 0.124768692061464 
762	 0.12513646622806 
763	 0.125091315493853 
764	 0.124294774489546 
765	 0.123171891340826 
766	 0.122824564705992 
767	 0.122756832401983 
768	 0.122675673926448 
769	 0.122484747006959 
770	 0.122485300992047 
771	 0.122816398922038 
772	 0.123371758428388 
773	 0.12352752070476 
774	 0.123541496701331 
775	 0.123742294552975 
776	 0.124343342958118 
777	 0.124633055159773 
778	 0.124925199126538 
779	 0.125377465854265 
780	 0.12590777409465 
781	 0.126369635404461 
782	 0.126714701223746 
783	 0.127060268099079 
784	 0.127868269115902 
785	 0.128518586992163 
786	 0.129090160122487 
787	 0.12986690542532 
788	 0.130770046622909 
789	 0.13134158750645 
790	 0.131635068013243 
791	 0.132105804788366 
792	 0.132322357020269 
793	 0.132701762972288 
794	 0.133392723600827 
795	 0.133913358944839 
796	 0.134511224504071 
797	 0.135010417329733 
798	 0.135330350785307 
799	 0.135984676894912 
800	 0.136633021244094 
801	 0.136980751401022 
802	 0.136884312763651 
803	 0.136832317580419 
804	 0.136694514981922 
805	 0.136562574576187 
806	 0.136793006497009 
807	 0.136895653195729 
808	 0.137205954412587 
809	 0.137843507376875 
810	 0.13787102383073 
811	 0.138164304576509 
812	 0.138709735741339 
813	 0.139123470553388 
814	 0.13959209399254 
815	 0.139459246991252 
816	 0.138410946842694 
817	 0.136760353027568 
818	 0.135930584025655 
819	 0.134791345424874 
820	 0.133108278178716 
821	 0.132075629807345 
822	 0.131162442024821 
823	 0.129396681238105 
824	 0.126733041655104 
825	 0.124785564333833 
826	 0.123071172468804 
827	 0.1210919509514 
828	 0.118535319536989 
829	 0.115663993969052 
830	 0.113488315773216 
831	 0.111655471306504 
832	 0.109131159663922 
833	 0.10771224888424 
834	 0.106499598906157 
835	 0.105224709012005 
836	 0.104804024306841 
837	 0.103654094512629 
838	 0.102483049536051 
839	 0.101950974463169 
840	 0.101369279536518 
841	 0.100655357408696 
842	 9.98560073618491E-02 
843	 9.91593419773456E-02 
844	 9.90323834226034E-02 
845	 9.85412269701312E-02 
846	 9.78390078747655E-02 
847	 9.77269013851058E-02 
848	 9.73857131459619E-02 
849	 9.69425280307098E-02 
850	 9.65228703817907E-02 
851	 9.61045895829355E-02 
852	 9.56567354140015E-02 
853	 9.53521726617348E-02 
854	 9.51598874763791E-02 
855	 9.45376346406632E-02 
856	 9.40954278853298E-02 
857	 9.38397005406072E-02 
858	 9.35480159098327E-02 
859	 0.092803833896945 
860	 9.25448974049664E-02 
861	 9.25135261227626E-02 
862	 9.19903452554496E-02 
863	 9.15950099468917E-02 
864	 9.13205258229938E-02 
865	 9.11570317611881E-02 
866	 9.10423800269728E-02 
867	 9.01016896572684E-02 
868	 8.95825265597584E-02 
869	 8.97324150918078E-02 
870	 8.91963132915838E-02 
871	 8.88872235405455E-02 
872	 8.85971500333099E-02 
873	 8.80925118099915E-02 
874	 8.75988725441114E-02 
875	 8.71372956172881E-02 
876	 0.08655612540848 
877	 8.58677316543929E-02 
878	 8.59320608874646E-02 
879	 8.54020053839044E-02 
880	 8.44003865542667E-02 
881	 0.083769360115945 
882	 8.37975494323503E-02 
883	 8.33228928289561E-02 
884	 8.23311804715321E-02 
885	 8.17670136410574E-02 
886	 8.21393720496693E-02 
887	 8.21101826575938E-02 
888	 8.13707523513531E-02 
889	 8.09854609670427E-02 
890	 8.03948535467827E-02 
891	 8.02790904882391E-02 
892	 8.10403317627637E-02 
893	 8.20854053409693E-02 
894	 8.27775120650739E-02 
895	 8.22762781891256E-02 
896	 8.08064016584036E-02 
897	 8.19969583349738E-02 
898	 8.21601680240954E-02 
899	 8.06785212681505E-02 
900	 7.88684904021055E-02 
901	 7.92090176393272E-02 
902	 0.080344042633859 
903	 7.99183546044109E-02 
904	 7.68221382477517E-02 
905	 7.73303609790924E-02 
906	 7.84068225458529E-02 
907	 7.84415132768748E-02 
908	 7.74066502221063E-02 
909	 7.74838621886755E-02 
910	 7.73988182459125E-02 
911	 0.076441442647934 
912	 7.50016527241524E-02 
913	 7.50694391441349E-02 
914	 7.46368742160583E-02 
915	 7.33521041389428E-02 
916	 7.30938249191119E-02 
917	 7.16763833384267E-02 
918	 7.01131093572515E-02 
919	 0.069130660000154 
920	 6.85072115686256E-02 
921	 0.066945587148868 
922	 6.64271183902767E-02 
923	 6.76732273942896E-02 
924	 6.73242951056072E-02 
925	 6.53554908921629E-02 
926	 6.54162170092188E-02 
927	 6.98499651238298E-02 
928	 6.92056650035206E-02 
929	 0.066624103233538 
930	 6.46666350549248E-02 
931	 6.61731582229065E-02 
932	 0.068392476504146 
933	 7.32077415959542E-02 
934	 7.27199519924647E-02 
935	 6.24300059266574E-02 
936	 6.35243141336847E-02 
937	 6.69694609536414E-02 
938	 6.31916018197902E-02 
939	 5.12086643753682E-02 
940	 6.05114291340562E-02 
941	 6.63234802253919E-02 
942	 7.00778859791361E-02 
943	 8.05137571521735E-02 
944	 0.065329327054137 
945	 6.34791422093905E-02 
946	 6.97815667627016E-02 
947	 5.78207881827495E-02 
948	 0.065657801131476 
949	 6.60854657325035E-02 
950	 6.20863309552796E-02 
951	 6.99288293111367E-02 
952	 0.056612484436592 
953	 5.28962794877943E-02 
954	 5.96713706606783E-02 
955	 5.84481631063795E-02 
956	 6.21200515206971E-02 
957	 6.19739172433236E-02 
958	 5.83816910400152E-02 
959	 5.77504930626453E-02 
960	 5.71514675552061E-02 
961	 5.88032599602117E-02 
962	 6.00432851295513E-02 
963	 5.68680756649912E-02 
964	 5.69643646272661E-02 
965	 5.94558728977989E-02 
966	 0.059552247130873 
967	 5.29731608873507E-02 
968	 5.30909977915925E-02 
969	 5.44750016899358E-02 
970	 5.33999097139814E-02 
971	 4.99924332070961E-02 
972	 5.16359679372139E-02 
973	 0.055428069633746 
974	 5.61842709478906E-02 
975	 5.03112878403922E-02 
976	 5.50299246316439E-02 
977	 5.46194998634211E-02 
978	 5.01453645978486E-02 
979	 5.61834290172768E-02 
980	 0.056494862420481 
981	 5.30228154679028E-02 
982	 4.97434799259163E-02 
983	 4.94870380139559E-02 
984	 4.60063876466473E-02 
985	 4.85180750438731E-02 
986	 5.41426596296933E-02 
987	 5.21903915429443E-02 
988	 5.11396365296312E-02 
989	 4.88896772935333E-02 
990	 4.75798754974708E-02 
991	 5.08365012009266E-02 
992	 4.76497272595515E-02 
993	 4.48085010163311E-02 
994	 4.71283981919213E-02 
995	 5.42300646992889E-02 
996	 5.33799288370816E-02 
997	 0.050217757243803 
998	 4.99475672653221E-02 
999	 5.36897483439763E-02 
1000	 4.89794650798996E-02 
1001	 5.18553022948389E-02 
1002	 0.051703674987979 
1003	 5.17719761980621E-02 
1004	 5.15159126733922E-02 
1005	 5.11942890747692E-02 
1006	 5.12967395146382E-02 
1007	 0.050808865365006 
1008	 4.99814321611193E-02 
1009	 0.049810735236684 
1010	 5.01270178531221E-02 
1011	 5.01288729980112E-02 
1012	 5.06645662085561E-02 
1013	 5.10018465856549E-02 
1014	 5.07684039349241E-02 
1015	 4.98562798383181E-02 
1016	 4.98227211228092E-02 
1017	 4.97708539526973E-02 
1018	 4.96373085813343E-02 
1019	 4.99365087879581E-02 
1020	 0.050244503228973 
1021	 5.04695914269678E-02 
1022	 5.05376983203505E-02 
1023	 5.06102095508155E-02 
1024	 5.00786996519485E-02 
1025	 4.98305401279999E-02 
1026	 4.96716757754683E-02 
1027	 4.97476899561538E-02 
1028	 5.07841679356237E-02 
1029	 5.08587663023953E-02 
1030	 5.02962735371741E-02 
1031	 5.00551371046314E-02 
1032	 4.95741519912555E-02 
1033	 4.93789422772328E-02 
1034	 4.94707611938784E-02 
1035	 0.049494113245149 
1036	 4.92720068330005E-02 
1037	 4.94521637838556E-02 
1038	 4.99753125754367E-02 
1039	 5.04799457956823E-02 
1040	 5.01189574538454E-02 
1041	 0.051169787991756 
1042	 5.15475463722231E-02 
1043	 5.15709518976515E-02 
1044	 0.051698569929246 
1045	 5.21928338557306E-02 
1046	 5.21524054330009E-02 
1047	 5.15167993768527E-02 
1048	 5.13909026696265E-02 
1049	 5.11703140496953E-02 
1050	 5.12264375707843E-02 
1051	 5.17963965646878E-02 
1052	 0.052067063702221 
1053	 0.052140194992084 
1054	 5.25311241469591E-02 
1055	 5.32227664077343E-02 
1056	 5.35551571177433E-02 
1057	 5.38242094007904E-02 
1058	 5.44472784411589E-02 
1059	 5.42103860838329E-02 
1060	 5.28819035420243E-02 
1061	 5.29110968005881E-02 
1062	 5.31250327553239E-02 
1063	 5.34996767373137E-02 
1064	 5.53443021634105E-02 
1065	 5.55291134347107E-02 
1066	 5.42654499356732E-02 
1067	 5.41509459948508E-02 
1068	 5.39346726796312E-02 
1069	 5.37840095104826E-02 
1070	 5.45046131415788E-02 
1071	 5.48685962231343E-02 
1072	 5.54599003728141E-02 
1073	 5.48236284185022E-02 
1074	 5.44313988160381E-02 
1075	 5.36833350610689E-02 
1076	 5.37757227612119E-02 
1077	 0.054090487222987 
1078	 5.40450370236422E-02 
1079	 0.054547273645489 
1080	 5.45588202105685E-02 
1081	 5.35816673674275E-02 
1082	 5.33367841049742E-02 
1083	 5.38336461099267E-02 
1084	 5.38520463984986E-02 
1085	 5.33064935746138E-02 
1086	 5.33718999788198E-02 
1087	 0.053854461985742 
1088	 5.40907420567762E-02 
1089	 5.46433156620639E-02 
1090	 5.54115218038458E-02 
1091	 5.52235160927027E-02 
1092	 5.38150539438019E-02 
1093	 5.37305849478636E-02 
1094	 0.053966772987419 
1095	 5.39575569988111E-02 
1096	 5.48027985989577E-02 
1097	 5.49321533963461E-02 
1098	 5.37312285679287E-02 
1099	 5.35179381391445E-02 
1100	 5.40578470716179E-02 
1101	 5.40253310377733E-02 
1102	 5.36697899257327E-02 
1103	 5.43526295697576E-02 
1104	 5.58038630284091E-02 
1105	 5.67489816161763E-02 
1106	 5.78068908305965E-02 
1107	 5.75995418750337E-02 
1108	 5.52039242927714E-02 
1109	 5.34714234958056E-02 
1110	 0.053745334076568 
1111	 5.75168931242755E-02 
1112	 0.057773801404373 
1113	 5.76094853862116E-02 
1114	 5.82708692229064E-02 
1115	 5.50452231610073E-02 
1116	 5.41218683389006E-02 
1117	 5.93134957464548E-02 
1118	 6.26233485628679E-02 
1119	 6.37390009458611E-02 
1120	 6.86645615979736E-02 
1121	 8.59094978378987E-02 
1122	 8.27839582495843E-02 
1123	 8.11523566083969E-02 
1124	 0.094959522603698 
1125	 8.33603480480263E-02 
1126	 7.63960607354728E-02 
1127	 9.06276418916936E-02 
1128	 0.08605422135022 
1129	 8.25926096095459E-02 
1130	 8.98873485351415E-02 
1131	 8.23188071522456E-02 
1132	 5.79095187569073E-02 
1133	 5.60497590933219E-02 
1134	 6.37943494457517E-02 
1135	 6.24215576626279E-02 
1136	 6.44827297830912E-02 
1137	 6.25880119046208E-02 
1138	 5.32230353773834E-02 
1139	 4.49881760922889E-02 
1140	 5.65792100128067E-02 
1141	 6.57655277321154E-02 
1142	 0.064332155375989 
1143	 6.93090281548869E-02 
1144	 6.40622867544924E-02 
1145	 5.37344122702986E-02 
1146	 5.78212688783907E-02 
1147	 6.31400921216575E-02 
1148	 5.72513866850227E-02 
1149	 5.27453088084215E-02 
1150	 5.53458040925948E-02 
1151	 6.18543817437398E-02 
1152	 6.14034061914413E-02 
1153	 6.24803490826607E-02 
1154	 0.063755903875259 
1155	 6.26235375717972E-02 
1156	 5.95909311814511E-02 
1157	 6.09982975301342E-02 
1158	 0.061204041144028 
1159	 5.83086640438942E-02 
1160	 5.65436052477764E-02 
1161	 5.57615916508764E-02 
1162	 5.51808313011023E-02 
1163	 5.54169330024755E-02 
1164	 5.53497347222155E-02 
1165	 5.46025823102691E-02 
1166	 0.054503120966568 
1167	 5.42984599055096E-02 
1168	 5.33605621135954E-02 
1169	 0.052822891696022 
1170	 5.22476063378816E-02 
1171	 5.21264095265319E-02 
1172	 0.052422430235494 
1173	 5.24389131850494E-02 
1174	 5.25512112358763E-02 
1175	 0.053036497701863 
1176	 5.26785505603196E-02 
1177	 5.19858355405882E-02 
1178	 5.16050668970442E-02 
1179	 0.0519055519351 
1180	 5.23493915975392E-02 
1181	 5.18892429161314E-02 
1182	 5.24037431607556E-02 
1183	 5.25024787074132E-02 
1184	 0.050960078238964 
1185	 5.11597973617159E-02 
1186	 5.19779087745691E-02 
1187	 5.19222006877414E-02 
1188	 5.18160259037717E-02 
1189	 5.15996369056868E-02 
1190	 5.20073930738141E-02 
1191	 5.20821579491043E-02 
1192	 5.19210859798249E-02 
1193	 5.20176326311328E-02 
1194	 5.26753995323794E-02 
1195	 5.23309604277743E-02 
1196	 5.19233070994956E-02 
1197	 5.23160955398016E-02 
1198	 5.23403009035455E-02 
1199	 5.16700975364817E-02 
1200	 5.08988658440609E-02 
1201	 5.01727504252958E-02 
1202	 5.01125229945001E-02 
1203	 5.11164623738944E-02 
1204	 5.16398451266089E-02 
1205	 5.12195778376751E-02 
1206	 5.12279931647808E-02 
1207	 5.16080264549265E-02 
1208	 5.12127609325604E-02 
1209	 5.04195850682908E-02 
1210	 5.02606877241561E-02 
1211	 5.01482066315364E-02 
1212	 5.01490667226935E-02 
1213	 5.06639086384902E-02 
1214	 5.08223140646186E-02 
1215	 5.06360375375741E-02 
1216	 5.02178833929532E-02 
1217	 5.05976373401685E-02 
1218	 5.08741955644325E-02 
1219	 5.10277785870893E-02 
1220	 5.06499078049281E-02 
1221	 4.94724377095566E-02 
1222	 4.90158345664917E-02 
1223	 4.93121717833755E-02 
1224	 0.049255653920465 
1225	 4.92837693488837E-02 
1226	 4.90975588505408E-02 
1227	 4.85246533172865E-02 
1228	 4.84083445659682E-02 
1229	 4.84450072706987E-02 
1230	 4.80613470997214E-02 
1231	 4.77233414585696E-02 
1232	 4.78597791738526E-02 
1233	 4.78031312160251E-02 
1234	 4.77510089582336E-02 
1235	 4.78372115231666E-02 
1236	 4.83986576062808E-02 
1237	 4.82550091592378E-02 
1238	 4.75392825181474E-02 
1239	 4.75595883176292E-02 
1240	 4.78276224278617E-02 
1241	 0.04756800888065 
1242	 4.77691183180528E-02 
1243	 4.76856585550868E-02 
1244	 0.046844066248361 
1245	 4.65229776147635E-02 
1246	 4.67084009023358E-02 
1247	 4.70312545255434E-02 
1248	 4.74733415687756E-02 
1249	 4.77324538194233E-02 
1250	 4.77428318019507E-02 
1251	 4.76737309265402E-02 
1252	 4.76935026290719E-02 
1253	 4.77764392462007E-02 
1254	 4.77687242682155E-02 
1255	 4.76685012240696E-02 
1256	 4.76606739726842E-02 
1257	 4.77445722538865E-02 
1258	 4.78794412569902E-02 
1259	 4.80211298878102E-02 
1260	 4.80005231589772E-02 
1261	 4.79313515249196E-02 
1262	 4.79330076303971E-02 
1263	 4.76770515193877E-02 
1264	 4.80570456377598E-02 
1265	 4.88229373257796E-02 
1266	 4.84391894837085E-02 
1267	 4.79068884113738E-02 
1268	 4.81015686860171E-02 
1269	 4.77540194546862E-02 
1270	 4.76090262982351E-02 
1271	 4.76130048834554E-02 
1272	 4.73311588633393E-02 
1273	 0.047898600471517 
1274	 4.80804420034838E-02 
1275	 4.76673205837366E-02 
1276	 4.75558938644288E-02 
1277	 4.71139045714345E-02 
1278	 4.71047906259688E-02 
1279	 4.77024774243993E-02 
1280	 4.81521250080809E-02 
1281	 0.048366327646172 
1282	 0.047910049032771 
1283	 4.80043480291946E-02 
1284	 4.86601404540271E-02 
1285	 4.87879183717582E-02 
1286	 4.87106189648828E-02 
1287	 4.86780543454883E-02 
1288	 4.82421939836879E-02 
1289	 0.048205826221023 
1290	 4.85112330665185E-02 
1291	 4.86154911511071E-02 
1292	 4.86665724465844E-02 
1293	 4.86086404355366E-02 
1294	 4.83466785813892E-02 
1295	 4.87541236122349E-02 
1296	 4.94142063279241E-02 
1297	 4.93534313617422E-02 
1298	 4.92551804183724E-02 
1299	 4.93477883130637E-02 
1300	 4.98297384284283E-02 
1301	 0.050677300765071 
1302	 5.10294241664245E-02 
1303	 5.14213621391732E-02 
1304	 5.15087664358375E-02 
1305	 5.07045506086894E-02 
1306	 5.02812331998851E-02 
1307	 4.94559788671439E-02 
1308	 4.95186918195296E-02 
1309	 5.04118125717616E-02 
1310	 5.09041639539894E-02 
1311	 5.17008529815541E-02 
1312	 5.25912695716404E-02 
1313	 5.35609809736888E-02 
1314	 0.053603423375309 
1315	 5.34529391571754E-02 
1316	 5.36104740973535E-02 
1317	 5.32166674487308E-02 
1318	 5.24890838646269E-02 
1319	 5.10869611913243E-02 
1320	 5.11315732632691E-02 
1321	 5.21089975386259E-02 
1322	 5.13542176649944E-02 
1323	 5.10817900854969E-02 
1324	 5.35921365830868E-02 
1325	 0.054151644431587 
1326	 5.39923006671337E-02 
1327	 5.40416648310657E-02 
1328	 0.052916550006023 
1329	 5.30399260106439E-02 
1330	 0.053673936570846 
1331	 5.48393484662061E-02 
1332	 5.72229137671145E-02 
1333	 5.85718355584746E-02 
1334	 5.71421204176157E-02 
1335	 0.056534016940339 
1336	 5.74547764386985E-02 
1337	 5.91507597966656E-02 
1338	 6.04786591208311E-02 
1339	 6.07719434587957E-02 
1340	 6.32875965399273E-02 
1341	 6.50156935821951E-02 
1342	 6.26493157629123E-02 
1343	 0.060005910429559 
1344	 6.03153188840156E-02 
1345	 0.059802103144327 
1346	 4.87386689852105E-02 
1347	 4.62760342881178E-02 
1348	 6.10021929047978E-02 
1349	 6.65092862929229E-02 
1350	 7.44514592048851E-02 
1351	 8.54957112106556E-02 
1352	 8.91611032550961E-02 
1353	 8.92867457077595E-02 
1354	 7.16403502476586E-02 
1355	 1.05771967064258E-02 
1356	 4.93731352156414E-02 
1357	 0.178386875011796 
1358	-2.81617836946202E-02 
1359	-3.68026021499057E-02 
1360	 0.025067028423382 
1361	-0.447315559272179 
1362	-0.656418868363806 
1363	-0.318905085064177 
1364	 5.47126369572578E-02 
1365	 0.343964685712205 
1366	 0.183219351677324 
1367	 0.150088499148324 
1368	 0.270025015798802 
1369	 0.334855008971441 
1370	 0.294139017470563 
1371	 0.558032056805463 
1372	 0.755213766137359 
1373	-0.146828554030409 
1374	-0.223314867893223 
1375	 0.32434217823658 
1376	 0.417501277217722 
1377	 0.222577217745787 
1378	 0.24012673437531 
1379	 0.313581748437279 
1380	 0.555747676705754 
1381	 1.26233572450668 
1382	 1.2874206377654 
1383	 1.59751825397682 
1384	 1.69511999875321 
1385	 0.887094382944844 
1386	 0.668841388953138 
1387	 0.581108194667793 
1388	 0.475289491033795 
1389	 0.192221896521735 
1390	 0.143219850057883 
1391	 0.666701513933876 
1392	 0.275365748828219 
1393	-0.219033496279364 
1394	-0.104934290133344 
1395	-0.192997123647128 
1396	-0.378888921239072 
1397	-7.46020041704382 
1398	 1.51014796186686 
1399	 2.7971306678638 
1400	 17.4612039642672 
1401	-3.22668201993599 
1402	-1.90767373944631 
1403	-1.04930276076386 
1404	-3.12839040853439 
1405	-2.14460017823191 
1406	-2.43573537398275 
1407	 0.259798508671597 
1408	 0.213583072653547 
1409	 0.098691291091194 
1410	 0.908846230707304 
1411	 19.6344406559254 
1412	 0.456216608926781 
1413	 1.23007292291339 
1414	-0.286419603195084 
1415	-0.070858819507232 
1416	-0.226999306198302 
1417	-0.246938634252583 
1418	-7.63867580448198E-02 
1419	 0.201411361863954 
1420	 0.412357449602165 
1421	 0.363373838905817 
1422	 0.241809703324363 
1423	 0.266590267615467 
1424	 0.205815875592055 
1425	 0.13165611433749 
1426	 0.158796987599902 
1427	 0.206157092496005 
1428	 0.188485643275374 
1429	 0.155359362007317 
1430	 0.238884051629497 
1431	 0.228109062616819 
1432	 4.43249531906518E-02 
1433	-3.78913952475699E-02 
1434	-6.14532748643016E-02 
1435	-8.18985625737056E-02 
1436	-0.106714783162708 
1437	-1.99452999752965E-02 
1438	 1.12387301524619E-02 
1439	 1.22706192589869E-03 
1440	-1.83045907185923E-02 
1441	-1.57478052693276E-02 
1442	 2.62847154206542E-04 
1443	 3.45972936234602E-02 
1444	 8.09617714298285E-02 
1445	 0.100774335329795 
1446	 0.118953072944733 
1447	 0.115891601355348 
1448	 8.35644901830389E-02 
1449	 0.077597393822925 
1450	 9.13118784493926E-02 
1451	 8.56481226065306E-02 
1452	 0.067523013404769 
1453	 6.31618499079879E-02 
1454	 6.62670368422731E-02 
1455	 6.65164950082251E-02 
1456	 6.13464129408389E-02 
1457	 6.11650731669993E-02 
1458	 6.65408196926868E-02 
1459	 6.78616006157651E-02 
1460	 6.29669898144802E-02 
1461	 6.54297305132367E-02 
1462	 6.85618274089371E-02 
1463	 5.92635255753257E-02 
1464	 0.056833721722161 
1465	 6.98522210180847E-02 
1466	 7.38075365946483E-02 
1467	 6.57192434482076E-02 
1468	 0.061227439498835 
1469	 6.32576429664539E-02 
1470	 6.47817252056935E-02 
1471	 6.11959273324537E-02 
1472	 6.02835321601346E-02 
1473	 6.16920483029902E-02 
1474	 6.41941729000685E-02 
1475	 6.85381668370476E-02 
1476	 6.90022795440667E-02 
1477	 6.82382502309035E-02 
1478	 7.12938922064293E-02 
1479	 7.39339125263846E-02 
1480	 0.074611641772817 
1481	 0.081322683275267 
1482	 7.92646175719373E-02 
1483	 6.77734234505189E-02 
1484	 6.57906349250506E-02 
1485	 6.87598288390029E-02 
1486	 6.47545278058517E-02 
1487	 5.89896955519409E-02 
1488	 5.87401938200309E-02 
1489	 5.87959578458285E-02 
1490	 0.056710950567418 
1491	 5.57851420354028E-02 
1492	 5.61576979444286E-02 
1493	 5.47905472901924E-02 
1494	 0.05402382879404 
1495	 5.65722053913707E-02 
1496	 5.70016024541041E-02 
1497	 5.49533426011633E-02 
1498	 5.39024511854196E-02 
1499	 5.30439222455843E-02 
1500	 5.27567783840854E-02 
1501	 5.28400153778132E-02 
1502	 5.26147363210265E-02 
1503	 5.30913044527446E-02 
1504	 5.27639718084368E-02 
1505	 5.16029368731721E-02 
1506	 5.06102332344025E-02 
1507	 5.04030172164575E-02 
1508	 5.00623438625577E-02 
1509	 4.93803726181425E-02 
1510	 4.92896434069777E-02 
1511	 5.03136429171713E-02 
1512	 5.10909856501003E-02 
1513	 5.14102799934396E-02 
1514	 5.17159515928157E-02 
1515	 5.09021315983675E-02 
1516	 4.92517461069196E-02 
1517	 4.84747899498376E-02 
1518	 4.89596014286999E-02 
1519	 4.89923816993764E-02 
1520	 0.048437127920056 
1521	 4.84849171280607E-02 
1522	 4.84744736580585E-02 
1523	 4.80229399996497E-02 
1524	 4.80738648994267E-02 
1525	 4.82692304173883E-02 
1526	 4.78020612282091E-02 
1527	 0.04775486034577 
1528	 4.78916193106687E-02 
1529	 4.75664937377611E-02 
1530	 4.77459100114602E-02 
1531	 4.76541249881931E-02 
1532	 0.047137446080095 
1533	 4.71175568485971E-02 
1534	 4.68846179672345E-02 
1535	 4.69994431386445E-02 
1536	 4.74002528111755E-02 
1537	 4.67248113581458E-02 
1538	 4.63512678860966E-02 
1539	 4.64260877150907E-02 
1540	 4.58029324369224E-02 
1541	 4.55921288912395E-02 
1542	 4.56242969572828E-02 
1543	 4.50648458559132E-02 
1544	 0.044404156902262 
1545	 4.41324374393791E-02 
1546	 4.45375423922416E-02 
1547	 4.50746919976627E-02 
1548	 4.55172886709142E-02 
1549	 4.60745583513195E-02 
1550	 0.046046631326381 
1551	 4.59316806284398E-02 
1552	 0.046340183566686 
1553	 4.67396555579706E-02 
1554	 4.71689787894807E-02 
1555	 4.71506665893443E-02 
1556	 4.65291968111626E-02 
1557	 4.62754906946097E-02 
1558	 4.61310450316957E-02 
1559	 0.045978317631769 
1560	 4.62721846010961E-02 
1561	 4.58875242492578E-02 
1562	 4.53459435922839E-02 
1563	 0.045484934446401 
1564	 4.53669140334605E-02 
1565	 4.56624874530409E-02 
1566	 4.62769693605821E-02 
1567	 4.62737500566574E-02 
1568	 4.59677738058907E-02 
1569	 4.58783274591168E-02 
1570	 4.61935913418553E-02 
1571	 4.63809631786943E-02 
1572	 4.61340613452809E-02 
1573	 4.57345275829515E-02 
1574	 4.53801142161602E-02 
1575	 4.48747439148749E-02 
1576	 0.044899189781124 
1577	 4.50424788484813E-02 
1578	 4.44289140571798E-02 
1579	 0.044604878917491 
1580	 4.51334721194428E-02 
1581	 4.49347704194288E-02 
1582	 4.47312294736943E-02 
1583	 4.50241854803821E-02 
1584	 4.53882160560039E-02 
1585	 4.52657164101634E-02 
1586	 4.57335055695687E-02 
1587	 4.59680124908958E-02 
1588	 4.54216062527829E-02 
1589	 4.59466539645765E-02 
1590	 4.62849540000103E-02 
1591	 4.55045605193491E-02 
1592	 4.52408244228806E-02 
1593	 4.53177004813438E-02 
1594	 4.49594015420299E-02 
1595	 0.045004975199152 
1596	 4.50753512308738E-02 
1597	 4.42254083063455E-02 
1598	 4.39790579692527E-02 
1599	 4.48423999372603E-02 
1600	 4.53105074270029E-02 
1601	 4.52080149264767E-02 
1602	 4.51057664049227E-02 
1603	 4.51065077207972E-02 
1604	 4.51612586450754E-02 
1605	 0.045060379933711 
1606	 4.47058359371438E-02 
1607	 4.43100790911174E-02 
1608	 4.42033833473809E-02 
1609	 4.39236730187955E-02 
1610	 4.35532224596746E-02 
1611	 4.37930345664597E-02 
1612	 4.38406269950099E-02 
1613	 4.41371823365301E-02 
1614	 4.52848100214728E-02 
1615	 4.57142613125951E-02 
1616	 4.52499900417971E-02 
1617	 4.54837888538901E-02 
1618	 4.61461551240006E-02 
1619	 4.60896183081559E-02 
1620	 4.58875375412028E-02 
1621	 0.045694122182859 
1622	 4.50604135995232E-02 
1623	 0.044405591607411 
1624	 4.43494872692795E-02 
1625	 4.41424209161739E-02 
1626	 4.38177177034219E-02 
1627	 4.43244247813188E-02 
1628	 4.44816883519681E-02 
1629	 4.40813746277987E-02 
1630	 4.42627193184818E-02 
1631	 0.044901723906261 
1632	 4.49517766859089E-02 
1633	 0.04439377315158 
1634	 4.43342805004296E-02 
1635	 4.41356255301377E-02 
1636	 4.41004231130606E-02 
1637	 4.54862310320373E-02 
1638	 0.046061751931537 
1639	 4.53986884236916E-02 
1640	 0.045405581056656 
1641	 4.50377154577677E-02 
1642	 4.44198178082275E-02 
1643	 4.47965611974649E-02 
1644	 4.50595751626635E-02 
1645	 4.43591513438518E-02 
1646	 4.40290624978398E-02 
1647	 4.45480524779096E-02 
1648	 4.42925095347819E-02 
1649	 4.35648874276285E-02 
1650	 4.38248295659095E-02 
1651	 4.44264190879151E-02 
1652	 4.37875411040699E-02 
1653	 4.35779591308462E-02 
1654	 4.36884111322031E-02 
1655	 4.26902621254257E-02 
1656	 4.26214458008039E-02 
1657	 4.40874643127818E-02 
1658	 4.42816243677557E-02 
1659	 4.36889857323443E-02 
1660	 4.40497395778448E-02 
1661	 4.47033905114591E-02 
1662	 4.44041391962913E-02 
1663	 4.37688278935474E-02 
1664	 4.38961999346412E-02 
1665	 4.38950246672306E-02 
1666	 4.39291644085554E-02 
1667	 4.50534529710778E-02 
1668	 4.33941823074704E-02 
1669	 4.24116239693383E-02 
1670	 4.29194032307446E-02 
1671	 4.37834458366939E-02 
1672	 4.48823243164402E-02 
1673	 4.48018784198838E-02 
1674	 4.31129049772692E-02 
1675	 4.21963159175601E-02 
1676	 0.04268054247224 
1677	 4.31321874815483E-02 
1678	 4.39344605545012E-02 
1679	 4.40631617824027E-02 
1680	 4.30416112275452E-02 
1681	 4.30911080929712E-02 
1682	 4.46947454701646E-02 
1683	 4.61917159932995E-02 
1684	 4.62843631266604E-02 
1685	 4.55706590253921E-02 
1686	 4.50918809315196E-02 
1687	 4.50738808869318E-02 
1688	 4.50897157176812E-02 
1689	 4.51491452617741E-02 
1690	 4.46747964277534E-02 
1691	 4.34188496765848E-02 
1692	 4.31939870478195E-02 
1693	 4.40032828295001E-02 
1694	 4.40352701154249E-02 
1695	 4.35116590160888E-02 
1696	 4.38257932608741E-02 
1697	 4.48256385599697E-02 
1698	 4.54912785056169E-02 
1699	 4.52139659161019E-02 
1700	 4.47681293704564E-02 
1701	 4.38949455366844E-02 
1702	 4.27155756929759E-02 
1703	 4.34664874506305E-02 
1704	 4.40584261715461E-02 
1705	 4.36269782522694E-02 
1706	 4.42056613184449E-02 
1707	 0.044391787412477 
1708	 4.37481117669651E-02 
1709	 4.35152608059062E-02 
1710	 4.43027021845906E-02 
1711	 4.50254664896585E-02 
1712	 4.60439457643329E-02 
1713	 4.67085504411122E-02 
1714	 4.67137990832609E-02 
1715	 4.63121744955684E-02 
1716	 4.62710409895681E-02 
1717	 4.64945753305574E-02 
1718	 4.69353926944928E-02 
1719	 4.62751667910559E-02 
1720	 4.49831408361985E-02 
1721	 4.45846180286761E-02 
1722	 4.36785497886941E-02 
1723	 4.31161923894893E-02 
1724	 4.37835676942498E-02 
1725	 4.39839054660595E-02 
1726	 4.35205153691995E-02 
1727	 4.26687240614082E-02 
1728	 4.36866672306707E-02 
1729	 4.61321040441979E-02 
1730	 4.66832674721448E-02 
1731	 4.75004714402585E-02 
1732	 4.81153153557483E-02 
1733	 4.55541164518686E-02 
1734	 4.48402466613582E-02 
1735	 4.67045041144687E-02 
1736	 4.61314471757642E-02 
1737	 4.50346972164673E-02 
1738	 4.53221376924881E-02 
1739	 4.52442495048938E-02 
1740	 4.46089476375214E-02 
1741	 4.50370602961568E-02 
1742	 4.62890206171965E-02 
1743	 4.57264710334555E-02 
1744	 4.44399062750115E-02 
1745	 4.48429703883245E-02 
1746	 4.54441240211301E-02 
1747	 4.54048215181656E-02 
1748	 4.62813128694967E-02 
1749	 4.63846158267736E-02 
1750	 4.50060356219849E-02 
1751	 4.45549262241024E-02 
1752	 4.49159063112355E-02 
1753	 4.56097009719696E-02 
1754	 4.59846075408975E-02 
1755	 4.58785073156537E-02 
1756	 4.68739306256208E-02 
1757	 4.67490310360563E-02 
1758	 4.59826620730183E-02 
1759	 4.61142893976217E-02 
1760	 4.56020333948137E-02 
1761	 0.045683543725199 
1762	 4.84560002207084E-02 
1763	 5.02117505841338E-02 
1764	 4.78065299430272E-02 
1765	 4.66454485582521E-02 
1766	 4.70811943349197E-02 
1767	 4.77128698332594E-02 
1768	 5.22963701136634E-02 
1769	 5.44147200256363E-02 
1770	 5.07548149321573E-02 
1771	 4.87242558612414E-02 
1772	 4.92014455679875E-02 
1773	 5.04825967436739E-02 
1774	 5.24053134746127E-02 
1775	 5.56998652588845E-02 
1776	 0.055117096403797 
1777	 4.76587469484201E-02 
1778	 4.62413584874604E-02 
1779	 4.87610753751751E-02 
1780	 4.72882040853347E-02 
1781	 4.61328943055018E-02 
1782	 0.046318739129978 
1783	 3.94616589787686E-02 
1784	 4.32352458401726E-02 
1785	 6.52829529989471E-02 
1786	 6.58348997549144E-02 
1787	 5.62103426367509E-02 
1788	 5.22073542032277E-02 
1789	 0.02969614453047 
1790	 3.81959602692487E-02 
1791	 5.80098418120818E-02 
1792	 6.17802343448527E-02 
1793	 6.85534492858519E-02 
1794	 6.53768029086747E-02 
1795	 3.84018669372345E-02 
1796	 4.88690615027697E-02 
1797	 5.65584619015384E-02 
1798	 4.76804988005744E-02 
1799	 0.108358060453082 
1800	 0.127874008675877 
1801	 0.124586101895475 
1802	 5.73335879102322E-02 
1803	 2.04835646396615E-02 
1804	 1.03538976308945E-03 
1805	-2.49048106033402E-02 
1806	 4.03256837399522E-02 
1807	 5.19331569754647E-02 
1808	-7.56613653012926E-02 
1809	-0.194178065143301 
1810	-0.245997190031971 
1811	-0.304245783768321 
1812	 0.384643669439922 
1813	 0.313827798858344 
1814	 5.77386235314718 
1815	-1.2994460064359 
1816	-0.393664943409069 
1817	-0.34227024308489 
1818	 0.759287262091101 
1819	 8.39090280374123E-02 
1820	-0.34682787145911 
1821	 0.240778424438732 
1822	 0.208717184882082 
1823	 1.0554030872731 
1824	 1.51931320998171 
1825	-0.453722153014428 
1826	-0.585206192380109 
1827	 0.405993798935892 
1828	 0.34069236331874 
1829	 0.144422976338409 
1830	 0.24278498217257 
1831	 0.840169794452014 
1832	 0.807591375578993 
1833	 0.984137386124006 
1834	 1.48405349965043 
1835	 2.11072394210941 
1836	 1.98138938897001 
1837	 3.30110626496429 
1838	 6.53518264842283 
1839	 4.39371833714151 
1840	 2.38636658693486 
1841	 83.5724597701621 
1842	 4.69792472286324 
1843	 5.4386386273048 
1844	-4.43954638089265 
1845	-2.74845491204088 
1846	-0.375436250675493 
1847	-0.703328194551505 
1848	 4.87353934088295 
1849	 6.46009766175669 
1850	 7.20426620277558 
1851	 4.34014336617162 
1852	 11.2158722773517 
1853	 2.66255847651535 
1854	 2.30472159074195 
1855	 5.75213378185183 
1856	 3.14110748630964 
1857	 1.26667267954642 
1858	 1.2639693079779 
1859	-44.1293264308603 
1860	 0.41032546695777 
1861	 5.18325328415886E-02 
1862	-0.257316979473105 
1863	-0.496933990070194 
1864	-0.540071751695369 
1865	-0.37093838325285 
1866	 0.241102716001225 
1867	 6.2001681431728 
1868	-6.07681734289663 
1869	-2.76579201240738 
1870	-1.05098504196 
1871	-0.986662903350014 
1872	-1.10489945316756 
1873	-0.734281130224001 
1874	-0.756006831768556 
1875	 0.410178644331386 
1876	 2.43324204491038 
1877	 0.856751387674294 
1878	 0.969321196235873 
1879	 2.27286955895834 
1880	 2.38434735657694 
1881	 1.79126047760295 
1882	 1.82372453963342 
1883	 3.59347183916127 
1884	-257.797513890575 
1885	-0.707788796303042 
1886	 0.219225876626676 
1887	 1.08844334657683 
1888	 1.00950851783282 
1889	 0.864319289398083 
1890	 0.125119027831266 
1891	 0.128293183861616 
1892	 1.81405001710997 
1893	-70.5325703161899 
1894	 76.9936462142936 
1895	-3.78029134706309 
1896	 1.53165667189763 
1897	 0.555094506968931 
1898	 0.966331819545044 
1899	 2.35776633915151 
1900	 2.37465069843491 
1901	 2.32664049427681 
1902	 2.99053940285092 
1903	 27.9583304229434 
1904	-4.1446438905076 
1905	-3.17710216072695 
1906	-1.41205807094592 
1907	-0.875889884220071 
1908	 0.198799055138295 
1909	 0.478935120024213 
1910	 0.329204553017645 
1911	 1.58764445773074E-02 
1912	 7.15482600869578 
1913	 0.895273034889708 
1914	 2.67245092550067E-02 
1915	-0.087647866700068 
1916	-0.195956187255486 
1917	 9.76542932306592E-02 
1918	 0.93870488265501 
1919	 0.796942332698808 
1920	 0.577317257140896 
1921	 0.729189536460054 
1922	 1.26228028581253 
1923	 2.73828504305482 
1924	 2.40875701562437 
1925	 2.7946907425787 
1926	 2.82702685647488 
1927	 3.83710662064661 
1928	 1.25438257444074 
1929	 0.150911447967669 
1930	 0.767568813133943 
1931	-3.36948132771425 
1932	 0.264048941580975 
1933	-0.100836256548576 
1934	 0.144230863021873 
1935	 1.3623863731998 
1936	-0.426859731363353 
1937	 0.219943569536043 
1938	 0.523720400626057 
1939	 1.17959832448208 
1940	-0.70600166385266 
1941	-1.59606771120263 
1942	-17.8968915377661 
1943	 0.80479081166847 
1944	-8.57594894099873E-02 
1945	-0.125851106863647 
1946	-0.155196789819106 
1947	 5.16774767410206E-02 
1948	 0.142820527588992 
1949	 0.186852129681273 
1950	 0.420381331719986 
1951	 0.303515084462928 
1952	 0.286572332888435 
1953	 0.377972977097508 
1954	 0.308154215868788 
1955	 1.08400663452329E-02 
1956	-0.162690133695757 
1957	-0.20490313720981 
1958	-0.14764501946625 
1959	-2.03101925291071E-02 
1960	 7.97055644228508E-02 
1961	 0.120305030437233 
1962	 0.100330420323063 
1963	 5.42849195172397E-02 
1964	 4.80569228524491E-02 
1965	 4.76799435172521E-02 
1966	 4.18009509874972E-02 
1967	 3.42813457342388E-02 
1968	 4.99670576324005E-02 
1969	 5.68762712139627E-02 
1970	 5.58991958190218E-02 
1971	 7.03481961593368E-02 
1972	 7.53033249301119E-02 
1973	 7.44277555115537E-02 
1974	 6.85777424785892E-02 
1975	 6.07284264677216E-02 
1976	 5.94128139210384E-02 
1977	 5.87447357800683E-02 
1978	 6.40318004431936E-02 
1979	 6.73366723683503E-02 
1980	 7.28295432831042E-02 
1981	 7.64991927579377E-02 
1982	 7.39862652913239E-02 
1983	 6.74800922358245E-02 
1984	 6.33438455087291E-02 
1985	 5.92724750409342E-02 
1986	 5.93380002797372E-02 
1987	 5.89467718573725E-02 
1988	 5.67742906961368E-02 
1989	 5.48943953265331E-02 
1990	 5.34338533778993E-02 
1991	 5.67393849711886E-02 
1992	 5.85855979819179E-02 
1993	 5.59816223842367E-02 
1994	 5.59641323949623E-02 
1995	 0.05412474754817 
1996	 5.27834975899997E-02 
1997	 0.052220076951447 
1998	 5.95993385799642E-02 
1999	 6.73581915675284E-02 
2000	 0.062314383448446 
2001	 6.29180607753309E-02 
2002	 6.52065283149079E-02 
2003	 5.18479133702668E-02 
2004	 4.15266206179121E-02 
2005	 5.07163904013307E-02 
2006	 5.07799312352495E-02 
2007	 5.93483554569994E-02 
2008	 8.10491170455908E-02 
2009	 8.75496172912332E-02 
2010	 8.73104308987922E-02 
2011	 8.37994442450675E-02 
2012	 7.42723931885199E-02 
2013	 5.73278113367478E-02 
2014	 4.50142105517843E-02 
2015	 4.13770218213349E-02 
2016	 0.036856143106652 
2017	 3.92734193976222E-02 
2018	 0.058193353685375 
2019	 7.35651216051914E-02 
2020	 8.16705275274211E-02 
2021	 8.55680714392624E-02 
2022	 8.34324919266358E-02 
2023	 7.28133692043752E-02 
2024	 6.47985222560947E-02 
2025	 5.44959362521669E-02 
2026	 5.29727054904638E-02 
2027	 5.39860743284708E-02 
2028	 5.27466636809291E-02 
2029	 5.53306428826279E-02 
2030	 5.98357916979793E-02 
2031	 0.055572876821484 
2032	 0.054975689244014 
2033	 5.61403226187949E-02 
2034	 0.053041287668406 
2035	 5.38310613949467E-02 
2036	 5.16846529581579E-02 
2037	 4.79327834435486E-02 
2038	 4.86222849623392E-02 
2039	 4.89570054479536E-02 
2040	 4.86454836885878E-02 
2041	 5.05612950621659E-02 
2042	 5.58077164188668E-02 
2043	 5.91836899848386E-02 
2044	 6.36885298757195E-02 
2045	 6.60833749006532E-02 
2046	 0.064448642907681 
2047	 6.07955544396064E-02 
2048	 6.08351034354146E-02 
2049	 6.51491383453345E-02 
2050	 6.64178769427519E-02 
2051	 6.49415189268613E-02 
2052	 6.33768584566168E-02 
2053	 0.055591067528325 
2054	 5.37575497142748E-02 
2055	 6.35955829573719E-02 
2056	 6.56891848119495E-02 
2057	 6.26682874212909E-02 
2058	 6.33486654760796E-02 
2059	 6.43214058464158E-02 
2060	 6.31823713390262E-02 
2061	 6.00847561378543E-02 
2062	 0.06412876714229 
2063	 6.58794137283652E-02 
2064	 6.25079831255402E-02 
2065	 6.01586967966735E-02 
2066	 5.51974476624527E-02 
2067	 5.19080768358754E-02 
2068	 4.98434396964585E-02 
2069	 0.052111223168975 
2070	 5.54489412647277E-02 
2071	 5.20537730401089E-02 
2072	 5.19017666755147E-02 
2073	 5.18663129511486E-02 
2074	 5.09145208058643E-02 
2075	 5.00472912328976E-02 
2076	 5.01595788639124E-02 
2077	 5.00786285838183E-02 
2078	 5.04929062956624E-02 
2079	 0.049533227023937 
2080	 4.83051049177525E-02 
2081	 4.73961851056969E-02 
2082	 4.55320101353686E-02 
2083	 4.18924139694028E-02 
2084	 4.32192338652186E-02 
2085	 4.56448028813821E-02 
2086	 4.57368922840154E-02 
2087	 4.62881187634974E-02 
2088	 4.63760505482428E-02 
2089	 0.046841555722839 
2090	 5.00376581878808E-02 
2091	 5.43871788889299E-02 
2092	 5.58772189757006E-02 
2093	 5.65179763373061E-02 
2094	 5.64249391894552E-02 
2095	 5.29741493855749E-02 
2096	 5.16196500924369E-02 
2097	 0.051438699815748 
2098	 5.09478097712598E-02 
2099	 5.05052419896106E-02 
2100	 5.05503184734669E-02 
2101	 4.98763726736576E-02 
2102	 4.86046429103233E-02 
2103	 4.77316049630247E-02 
2104	 4.73737635159088E-02 
2105	 0.046936641291201 
2106	 4.55753749131221E-02 
2107	 4.56654039166852E-02 
2108	 4.76282027762306E-02 
2109	 4.89035396551082E-02 
2110	 5.24586956208213E-02 
2111	 0.052980230692834 
2112	 4.97848479211266E-02 
2113	 5.09531985751985E-02 
2114	 5.51688709029347E-02 
2115	 5.59568912688097E-02 
2116	 5.80381797476511E-02 
2117	 5.95248472677051E-02 
2118	 5.83631630279635E-02 
2119	 5.64997774940307E-02 
2120	 5.48498786038638E-02 
2121	 5.25567827190033E-02 
2122	 0.049033909095016 
2123	 4.92440385332325E-02 
2124	 5.10912922650496E-02 
2125	 5.28795416835299E-02 
2126	 5.59520908315506E-02 
2127	 5.61703855064086E-02 
2128	 5.54615052812455E-02 
2129	 5.62220243288543E-02 
2130	 5.29493628015161E-02 
2131	 4.99350971242153E-02 
2132	 5.04519996482685E-02 
2133	 4.84496157214131E-02 
2134	 4.85065264146889E-02 
2135	 5.20240495607486E-02 
2136	 5.21011842960486E-02 
2137	 5.05731647728366E-02 
2138	 0.049969420025729 
2139	 4.79095598722791E-02 
2140	 4.76520279601537E-02 
2141	 0.048842623319907 
2142	 4.96221313988939E-02 
2143	 5.21676096576797E-02 
2144	 5.08863834432907E-02 
2145	 5.05524965917865E-02 
2146	 5.24905034940762E-02 
2147	 5.36383176525866E-02 
2148	 5.32681816718864E-02 
2149	 4.92150497286539E-02 
2150	 4.66987049325849E-02 
2151	 4.59673275847808E-02 
2152	 0.047288964757947 
2153	 5.23955348890584E-02 
2154	 5.58377108133812E-02 
2155	 5.69831970012389E-02 
2156	 5.67168923004846E-02 
2157	 5.83114792877268E-02 
2158	 6.19785142697661E-02 
2159	 6.10878042817229E-02 
2160	 5.87486028982829E-02 
2161	 5.89971536847091E-02 
2162	 5.59147090223125E-02 
2163	 5.48463059094335E-02 
2164	 0.057756153653018 
2165	 5.76531218036418E-02 
2166	 5.50759613759912E-02 
2167	 5.49868262634888E-02 
2168	 5.72773760141074E-02 
2169	 5.81523448817792E-02 
2170	 0.058808203651497 
2171	 5.80027634597687E-02 
2172	 5.99898583643211E-02 
2173	 5.93070613316572E-02 
2174	 5.65976521198407E-02 
2175	 0.055244275563119 
2176	 5.33312056897082E-02 
2177	 4.94888417420071E-02 
2178	 4.54948410680945E-02 
2179	 4.45601884327826E-02 
2180	 4.53504077593491E-02 
2181	 4.34647624600831E-02 
2182	 4.07631702084952E-02 
2183	 4.05932677039954E-02 
2184	 3.75797029984164E-02 
2185	 3.39044330074014E-02 
2186	 3.51027631935535E-02 
2187	 4.08887676524851E-02 
2188	 0.044613522233138 
2189	 0.053564905671065 
2190	 5.61119044951828E-02 
2191	 5.47126771164313E-02 
2192	 5.46463095218977E-02 
2193	 5.12676633090598E-02 
2194	 4.91257006551036E-02 
2195	 4.70192372650404E-02 
2196	 4.49570020371351E-02 
2197	 4.19609753285912E-02 
2198	 4.23846512088907E-02 
2199	 4.39442549729418E-02 
2200	 4.97523931818595E-02 
2201	 5.64034165431411E-02 
2202	 5.36282574320791E-02 
2203	 4.63148939622297E-02 
2204	 3.85024762263467E-02 
2205	 3.40421838853379E-02 
2206	 3.25267057821696E-02 
2207	 3.56999683599948E-02 
2208	 4.44933007338985E-02 
2209	 5.27337867091238E-02 
2210	 5.50121999621257E-02 
2211	 5.07789992623366E-02 
2212	 4.88845591151744E-02 
2213	 4.86597544399513E-02 
2214	 4.75231196867238E-02 
2215	 5.25061001324968E-02 
2216	 0.053879639250552 
2217	 5.32510818828226E-02 
2218	 4.89089002549009E-02 
2219	 4.89831075512207E-02 
2220	 4.85890790797054E-02 
2221	 4.83385866915851E-02 
2222	 5.16041347002241E-02 
2223	 4.97836139380006E-02 
2224	 4.68314389427016E-02 
2225	 4.34159501969037E-02 
2226	 3.31917016640499E-02 
2227	 2.87486790294601E-02 
2228	 2.69222536644708E-02 
2229	 2.48146363083009E-02 
2230	 0.024217735830612 
2231	 2.72281633016968E-02 
2232	 3.21705397193194E-02 
2233	 3.64578193443511E-02 
2234	 4.21466671411339E-02 
2235	 5.37351252314505E-02 
2236	 5.88165512529303E-02 
2237	 5.61713319287919E-02 
2238	 5.61278760963225E-02 
2239	 5.45788606512628E-02 
2240	 4.92336305332339E-02 
2241	 0.050307100449084 
2242	 5.23426462540834E-02 
2243	 4.95478703572925E-02 
2244	 4.82737576613756E-02 
2245	 4.73429076132626E-02 
2246	 4.52598013783526E-02 
2247	 4.50946543289266E-02 
2248	 0.04953072142163 
2249	 5.03869451393523E-02 
2250	 4.56637084618581E-02 
2251	 4.53851322502979E-02 
2252	 4.85063988850907E-02 
2253	 4.95191221899547E-02 
2254	 5.30717039391279E-02 
2255	 5.64122299371178E-02 
2256	 4.95922239130505E-02 
2257	 4.80735073722582E-02 
2258	 5.39776326623548E-02 
2259	 5.27800401463493E-02 
2260	 0.054561518609448 
2261	 6.19542526144292E-02 
2262	 6.10783587201983E-02 
2263	 5.54353575377951E-02 
2264	 5.44386827961339E-02 
2265	 5.10086023655353E-02 
2266	 4.57788739521177E-02 
2267	 4.05135677485761E-02 
2268	 3.93591962815084E-02 
2269	 3.66149691385075E-02 
2270	 3.77404278824027E-02 
2271	 4.70200784635115E-02 
2272	 4.87170465504115E-02 
2273	 4.65583408997627E-02 
2274	 4.69588048101135E-02 
2275	 4.68457565011696E-02 
2276	 4.71961907374125E-02 
2277	 5.12649718183083E-02 
2278	 4.86401740138693E-02 
2279	 3.90901564177119E-02 
2280	 3.61838067467118E-02 
2281	 2.97684811253821E-02 
2282	 3.11361622570534E-02 
2283	 4.52445055763606E-02 
2284	 4.94539888539448E-02 
2285	 5.22372408882192E-02 
2286	 6.01380091306639E-02 
2287	 5.64405205300275E-02 
2288	 5.65793884390407E-02 
2289	 6.26849313543102E-02 
2290	 0.055126339388045 
2291	 4.97964565837802E-02 
2292	 5.13297464995763E-02 
2293	 4.77159380878544E-02 
2294	 5.13589101565679E-02 
2295	 5.45604251727394E-02 
2296	 5.56693222105051E-02 
2297	 6.44607548665735E-02 
2298	 6.14760912446468E-02 
2299	 5.79214480793442E-02 
2300	 6.06559819307345E-02 
2301	 6.19942443413921E-02 
2302	 0.058093221755181 
2303	 4.75974243325709E-02 
2304	 4.28199486042433E-02 
2305	 3.50569718756888E-02 
2306	 0.036011358811544 
2307	 4.66653743305971E-02 
2308	 5.64669686830455E-02 
2309	 0.069393522699916 
2310	 7.28076472776219E-02 
2311	 7.96641584407522E-02 
2312	 7.47559398016911E-02 
2313	 5.03679515380242E-02 
2314	 3.70918810388238E-02 
2315	 2.81922130973644E-02 
2316	 3.20663953896306E-02 
2317	 3.56361640165655E-02 
2318	 2.64192923618859E-02 
2319	 2.12515685973823E-02 
2320	 0.014160076223284 
2321	 1.83886425753465E-02 
2322	 3.26200848248919E-02 
2323	 2.66845181474671E-02 
2324	 1.10114319371632E-02 
2325	 1.83469903801574E-02 
2326	 3.03238471636081E-02 
2327	 3.85171179509384E-02 
2328	 6.19132508178802E-02 
2329	 7.18865118355505E-02 
2330	 6.95507466229818E-02 
2331	 6.95456509179681E-02 
2332	 5.25874548583837E-02 
2333	 4.97636550418588E-02 
2334	 7.29699846703092E-02 
2335	 7.58122821992707E-02 
2336	 7.19942801362852E-02 
2337	 6.23554145343315E-02 
2338	 4.05159331725246E-02 
2339	 4.50918759652919E-02 
2340	 6.22752346835919E-02 
2341	 7.76050569135361E-02 
2342	 7.87894508783134E-02 
2343	 7.59095094683065E-02 
2344	 8.12770380438533E-02 
2345	 9.27274200553848E-02 
2346	 7.54927492818686E-02 
2347	 6.40795346615905E-02 
2348	 9.42862101375909E-02 
2349	 9.56540715935062E-02 
2350	 0.106420080473375 
2351	 9.95027065541004E-02 
2352	 4.52781952652846E-02 
2353	 5.10436794273844E-02 
2354	 0.102847206988731 
2355	 0.142154854556532 
2356	 0.186922797687106 
2357	 0.14728598390815 
2358	 5.10837239103984E-02 
2359	 4.54274894190407E-02 
2360	 9.14568611093485E-02 
2361	 0.157051643308233 
2362	 0.182040747594572 
2363	 0.135512969921322 
2364	 8.56710854518023E-02 
2365	 3.59284693959846E-02 
2366	 0.046190427915359 
2367	 0.125018667251201 
2368	 0.144069225924464 
2369	 0.136073842007827 
2370	 0.156066588194093 
2371	 0.123184345819369 
2372	 4.65674819972552E-02 
2373	 3.84547906914321E-02 
2374	 3.70409290311101E-02 
2375	-1.06293076740744E-03 
2376	 9.46809526960287E-02 
2377	 0.176144208482366 
2378	 0.176954367041517 
2379	 0.185219428079948 
2380	 0.123288319467565 
2381	 7.42227097517881E-02 
2382	 0.124186951926411 
2383	 0.154084157746657 
2384	 0.180076423762526 
2385	 0.186406882296807 
2386	 0.041887192337764 
2387	 0.106277876681144 
2388	 7.75528777929619E-02 
2389	-8.05388953613674E-04 
2390	 0.197867959747273 
2391	 7.11974150354068E-02 
2392	 0.177685018753783 
2393	 0.418679093660361 
2394	 0.218538978439482 
2395	 9.45336638776923E-02 
2396	-2.91781932169824E-02 
2397	-0.142125922706705 
2398	-9.28381319303187E-02 
2399	-7.09962367157989E-02 
2400	-0.149956624718396 
2401	-3.20866817263836E-02 
2402	 9.74757454369118E-02 
2403	 0.100767235996528 
2404	 0.314039319585301 
2405	 0.401785206984964 
2406	 0.227778180209936 
2407	 0.203085421094126 
2408	 0.249252842526094 
2409	 0.112348787505294 
2410	-7.54998902071847E-02 
2411	 1.36865475911964E-03 
2412	 0.127334650473421 
2413	 1.62906682242676E-03 
2414	-2.20910550247212E-02 
2415	-1.36525617493077E-02 
2416	-1.54527101506162E-02 
2417	 8.16566509976718E-02 
2418	 0.282696879654483 
2419	 0.350177220945134 
2420	 0.213816856540564 
2421	-0.11745585947317 
2422	-0.550427713572769 
2423	 13.7093890278708 
2424	-0.711379989100096 
2425	-1.41018605286339 
2426	-1.49354608619281 
2427	-0.874838863507992 
2428	-2.12828315766882 
2429	-2.5235618202903 
2430	-0.65097277399475 
2431	-0.888739231455725 
2432	-1.23899850920613 
2433	-0.770330531475191 
2434	-0.698545643450083 
2435	-0.740934316787428 
2436	 4.15242390285389E-02 
2437	 0.390177439867606 
2438	-0.36138276498488 
2439	-2.05228357809805 
2440	-2.24011904960421 
2441	-1.8819273319611 
2442	-0.785928388608747 
2443	-0.197411237501593 
2444	-0.553720081367133 
2445	-0.480783570117991 
2446	 0.198178088928674 
2447	 1.04900599967432 
2448	 1.55001093206089 
2449	-3.75571935508075 
2450	-5.17496780869069 
2451	-1.45786320412262 
2452	-1.9355259898611 
2453	-0.170865557541235 
2454	 0.755267370441325 
2455	 1.17298539815989 
2456	 2.35428880438424 
2457	 1.98372650826179 
2458	 6.75755627289193E-02 
2459	 0.205483985199335 
2460	 0.336950006838828 
2461	 0.302968630149617 
2462	-0.013154918417574 
2463	-4.37434359719563 
2464	 3.40616990127327 
2465	 0.921649814719165 
2466	 0.15550365690305 
2467	-0.155039361915111 
2468	-1.75076700174647 
2469	-0.823316130273662 
2470	-0.222469717129208 
2471	-0.880146035199457 
2472	-1.66781644435473 
2473	-0.737980332095339 
2474	-9.60929118482281E-02 
2475	-0.242168869219052 
2476	 0.788355705547851 
2477	 0.884771988679293 
2478	 1.40760772151336 
2479	 2.2527980814583 
2480	-5.15382043440362 
2481	-3.46913776903892 
2482	-4.71739024665328 
2483	-3.52955702227464 
2484	-2.9679257167065 
2485	-1.64140601587938 
2486	-0.853942955835944 
2487	-0.470364478199479 
2488	-0.341333674136576 
2489	-0.818028988014864 
2490	-8.26277523863312 
2491	 1.59477684315119 
2492	 1.01736399833438 
2493	 0.931596659419982 
2494	 0.470252084793274 
2495	 0.426532406330425 
2496	 0.280718104760284 
2497	 0.192509190088359 
2498	 2.66286410504755E-02 
2499	-0.268860691185206 
2500	-0.443504523904709 
