Wavelength	rt0714yellow300006.asd
350	 6.61654127396595E-02 
351	 6.54083920952279E-02 
352	 6.45686078995659E-02 
353	 6.47376209181324E-02 
354	 6.58656705522932E-02 
355	 6.58097578927336E-02 
356	 6.47594855241493E-02 
357	 6.43420307431141E-02 
358	 6.56186911643613E-02 
359	 6.53197082326281E-02 
360	 6.48604861365358E-02 
361	 6.49272835265656E-02 
362	 6.54836925499348E-02 
363	 6.57799836594353E-02 
364	 6.58506909700065E-02 
365	 6.58293186048429E-02 
366	 6.58083481279088E-02 
367	 6.62121217555719E-02 
368	 0.066383398759324 
369	 6.59404827440197E-02 
370	 6.65240574320601E-02 
371	 6.68083115616597E-02 
372	 6.68149660771435E-02 
373	 6.72287312049934E-02 
374	 6.68569054851537E-02 
375	 6.70315288955596E-02 
376	 6.80022289939382E-02 
377	 6.82363307718843E-02 
378	 6.81982747334463E-02 
379	 6.84305264763751E-02 
380	 6.91709408497226E-02 
381	 6.96026154585653E-02 
382	 7.04913170588749E-02 
383	 7.12306453040008E-02 
384	 7.09157070341722E-02 
385	 7.14447801423283E-02 
386	 7.14947143065616E-02 
387	 0.071283433715778 
388	 7.28725665992777E-02 
389	 7.40782951284165E-02 
390	 7.41626665266766E-02 
391	 7.35523080065908E-02 
392	 7.46270008005059E-02 
393	 7.53006235379221E-02 
394	 7.55425873878675E-02 
395	 0.075995080024506 
396	 7.63927694837528E-02 
397	 0.076592042666235 
398	 7.67140877267049E-02 
399	 7.70765242567999E-02 
400	 7.76807271869254E-02 
401	 7.81004501933136E-02 
402	 7.82312376460602E-02 
403	 7.88121781205938E-02 
404	 7.92602200801103E-02 
405	 7.95145887515842E-02 
406	 7.97748525050052E-02 
407	 8.05505464811656E-02 
408	 8.10722294349683E-02 
409	 8.12991565834284E-02 
410	 8.19340441728584E-02 
411	 8.24713956935569E-02 
412	 8.27877519585246E-02 
413	 8.30178710092346E-02 
414	 8.37558001668394E-02 
415	 8.44199855355101E-02 
416	 8.49178897586405E-02 
417	 0.08537340702889 
418	 8.58652639338369E-02 
419	 8.64759691211676E-02 
420	 8.72280810170768E-02 
421	 8.80771792914382E-02 
422	 8.85652416118829E-02 
423	 8.89996026024689E-02 
424	 8.97083339710446E-02 
425	 9.06447841894875E-02 
426	 9.12976594734038E-02 
427	 9.20066121908645E-02 
428	 9.33393649467945E-02 
429	 9.42888682956227E-02 
430	 9.51357328883209E-02 
431	 9.60673728415717E-02 
432	 9.70188478984055E-02 
433	 9.79162680145243E-02 
434	 9.87612166800901E-02 
435	 0.099609388020506 
436	 0.100619505394381 
437	 0.101635255659977 
438	 0.10261507621646 
439	 0.103586940590982 
440	 0.104638295527598 
441	 0.105514886523858 
442	 0.106194371762023 
443	 0.107038923028807 
444	 0.107947809646414 
445	 0.108729663455621 
446	 0.109287329594763 
447	 0.109985718517909 
448	 0.110742939853 
449	 0.111466431357102 
450	 0.112070834073989 
451	 0.112550558837434 
452	 0.113062474406862 
453	 0.113646925244108 
454	 0.114055407684009 
455	 0.114469800822587 
456	 0.11492327379424 
457	 0.115370479002469 
458	 0.115648994659669 
459	 0.115948938319069 
460	 0.116365812448167 
461	 0.116863374454869 
462	 0.117065342066062 
463	 0.117294163515217 
464	 0.117798304537763 
465	 0.118236299566457 
466	 0.118588818946839 
467	 0.118889723239757 
468	 0.119210873098515 
469	 0.119576618721706 
470	 0.119891756692708 
471	 0.120194234686696 
472	 0.120709591296827 
473	 0.121167266687247 
474	 0.121567229820627 
475	 0.121982104396681 
476	 0.122463153905648 
477	 0.122947421058154 
478	 0.12344068959336 
479	 0.123987135883996 
480	 0.124470544842537 
481	 0.124910503080308 
482	 0.125415108249536 
483	 0.126258025889996 
484	 0.126866910654702 
485	 0.12738053307993 
486	 0.12812804999857 
487	 0.128879796962411 
488	 0.129540647001963 
489	 0.130225677095265 
490	 0.131217489008354 
491	 0.131988350827158 
492	 0.132758050798148 
493	 0.133694975428677 
494	 0.134412938966223 
495	 0.135244622817605 
496	 0.13615286031209 
497	 0.136959848916896 
498	 0.137978220528028 
499	 0.139005659877621 
500	 0.13991885543796 
501	 0.140792750808295 
502	 0.141834666662464 
503	 0.143000450882299 
504	 0.144126900128893 
505	 0.144895478732717 
506	 0.145828850142799 
507	 0.146968635821034 
508	 0.147972460010393 
509	 0.149070487472179 
510	 0.150122035636592 
511	 0.151050492917226 
512	 0.152056551760008 
513	 0.153119014320885 
514	 0.154239254050008 
515	 0.155397531931016 
516	 0.156470112750761 
517	 0.157716103181716 
518	 0.159078149555504 
519	 0.160089720634227 
520	 0.161138673027339 
521	 0.162233378334307 
522	 0.163321290665731 
523	 0.164425500557412 
524	 0.165643443620095 
525	 0.166884615612499 
526	 0.167963946297263 
527	 0.169203756257737 
528	 0.170476510198999 
529	 0.171652418918267 
530	 0.172712859414462 
531	 0.173871350842326 
532	 0.175064566668998 
533	 0.176158836730348 
534	 0.177326867921093 
535	 0.178462898247361 
536	 0.179539953574889 
537	 0.180631517029021 
538	 0.181839723676954 
539	 0.183064894216012 
540	 0.184189347485105 
541	 0.185202926309339 
542	 0.186285079480918 
543	 0.187425432760072 
544	 0.188497714325749 
545	 0.189473429223056 
546	 0.190434898945993 
547	 0.191424231042616 
548	 0.192376955950605 
549	 0.193360887042175 
550	 0.194369446149548 
551	 0.195370165194723 
552	 0.196350170926545 
553	 0.19723137140108 
554	 0.198056660438844 
555	 0.198996092432905 
556	 0.199772641599121 
557	 0.200585479524805 
558	 0.201583721640196 
559	 0.202428189687431 
560	 0.203086245782059 
561	 0.203660130161582 
562	 0.204328873052804 
563	 0.205021161168465 
564	 0.205656062975365 
565	 0.206209133214038 
566	 0.206768181134265 
567	 0.2073594995996 
568	 0.207899506129639 
569	 0.208319718215859 
570	 0.208912677827012 
571	 0.209456067610976 
572	 0.209855979258547 
573	 0.210192860466443 
574	 0.210599537268225 
575	 0.211023187951056 
576	 0.211391579749163 
577	 0.211749559062689 
578	 0.212030663535284 
579	 0.212259157594202 
580	 0.212506649638193 
581	 0.21270364703587 
582	 0.212858013235857 
583	 0.213000277711825 
584	 0.213193627375292 
585	 0.213279611104956 
586	 0.213211205401508 
587	 0.213046515571681 
588	 0.213181933259901 
589	 0.213224539891063 
590	 0.213086562252879 
591	 0.213051695661002 
592	 0.212843748560819 
593	 0.212662676847387 
594	 0.212623739363978 
595	 0.212292802296069 
596	 0.211828392728962 
597	 0.211343460796004 
598	 0.210924801753717 
599	 0.210594436830263 
600	 0.210219089560807 
601	 0.209824198518231 
602	 0.209748631576249 
603	 0.209656672172528 
604	 0.209454476028389 
605	 0.209190591732134 
606	 0.209192589550538 
607	 0.209193264107383 
608	 0.209119837234154 
609	 0.209126232278024 
610	 0.209104056385814 
611	 0.209148227061477 
612	 0.209271153828342 
613	 0.209101173783245 
614	 0.20908978319839 
615	 0.209167409947088 
616	 0.209008567575435 
617	 0.208859768783232 
618	 0.20885097200329 
619	 0.208946936039899 
620	 0.208870633334251 
621	 0.208893334674088 
622	 0.208980143493422 
623	 0.208990183214406 
624	 0.208770971914012 
625	 0.208659906712917 
626	 0.208719764790026 
627	 0.208734683312089 
628	 0.208695220819679 
629	 0.208676028266797 
630	 0.208726004932659 
631	 0.208801291989571 
632	 0.208649539020296 
633	 0.208464125270934 
634	 0.208567798241597 
635	 0.20841173210269 
636	 0.20837917956095 
637	 0.208551537595212 
638	 0.208463893312629 
639	 0.208219758598618 
640	 0.208036052633496 
641	 0.208083191655096 
642	 0.208198425303544 
643	 0.208017675467539 
644	 0.207658744621916 
645	 0.207606908000649 
646	 0.207429284248187 
647	 0.207301991746293 
648	 0.207322754886009 
649	 0.207167498914271 
650	 0.206944702731193 
651	 0.206635082290359 
652	 0.206215033559623 
653	 0.205832138805877 
654	 0.205500135912847 
655	 0.205137669645856 
656	 0.204599851243927 
657	 0.204199885471514 
658	 0.203873760893775 
659	 0.203486835474804 
660	 0.202969048882756 
661	 0.202451599092263 
662	 0.202118990906411 
663	 0.202127146061659 
664	 0.201950625472993 
665	 0.201628802300069 
666	 0.201272651459863 
667	 0.200965734728354 
668	 0.200921869074747 
669	 0.200958123112876 
670	 0.200824898722085 
671	 0.200696141630381 
672	 0.200596494125986 
673	 0.200545923602898 
674	 0.200556788307319 
675	 0.200472491012896 
676	 0.200467293954222 
677	 0.200620463731634 
678	 0.20059963571326 
679	 0.200697662298599 
680	 0.200888693596784 
681	 0.20101852725273 
682	 0.201122866262468 
683	 0.201352793273515 
684	 0.201629106752222 
685	 0.201558793883684 
686	 0.201623664296176 
687	 0.201747377037526 
688	 0.201793998861741 
689	 0.202179350720026 
690	 0.202108515110642 
691	 0.201791654085628 
692	 0.201953539948263 
693	 0.201836100226076 
694	 0.201778134401435 
695	 0.201838810355919 
696	 0.201391343662955 
697	 0.201078345870475 
698	 0.200828402182561 
699	 0.200419155255625 
700	 0.199921911252635 
701	 0.199380660441336 
702	 0.198938911400939 
703	 0.198732107510074 
704	 0.19796930335336 
705	 0.197131552766717 
706	 0.196544524093904 
707	 0.195702089689433 
708	 0.194882818725449 
709	 0.194049458209294 
710	 0.193080308581078 
711	 0.19205030595922 
712	 0.190888360008055 
713	 0.189673197744278 
714	 0.188603675557423 
715	 0.187264614279363 
716	 0.185925372389298 
717	 0.184886216147842 
718	 0.183191134427818 
719	 0.181452246498563 
720	 0.180036111183428 
721	 0.17876048297479 
722	 0.177569701448091 
723	 0.176137745496807 
724	 0.174517206944512 
725	 0.172908626919774 
726	 0.171277962183298 
727	 0.169613694333345 
728	 0.167883016555424 
729	 0.165903917115867 
730	 0.163796822574079 
731	 0.161877166893949 
732	 0.160315091644289 
733	 0.158634857114687 
734	 0.157402540088374 
735	 0.156659964327544 
736	 0.155652469656752 
737	 0.154955242245379 
738	 0.154510131696365 
739	 0.154130122682974 
740	 0.153636737363573 
741	 0.153514376735476 
742	 0.153531308507732 
743	 0.153176891276418 
744	 0.153053190986172 
745	 0.153013984966204 
746	 0.152921638807346 
747	 0.152751594260477 
748	 0.152782747332094 
749	 0.152751463186912 
750	 0.152471363977823 
751	 0.152480577618685 
752	 0.152486412947498 
753	 0.152423914451435 
754	 0.15236020432688 
755	 0.15232246730777 
756	 0.152293092300543 
757	 0.152268004301219 
758	 0.152275661680392 
759	 0.152163127566696 
760	 0.152293666083569 
761	 0.152807863026379 
762	 0.152480022682398 
763	 0.152379524749494 
764	 0.152361293421814 
765	 0.152056338388265 
766	 0.151956924087801 
767	 0.152127424891453 
768	 0.152360593620071 
769	 0.152208404587405 
770	 0.152206494489996 
771	 0.152302183347723 
772	 0.152383495552029 
773	 0.152519582736222 
774	 0.152646115957801 
775	 0.152769752540742 
776	 0.152931797018965 
777	 0.153186473995693 
778	 0.153277820639139 
779	 0.153302645592341 
780	 0.153692865593473 
781	 0.15392071886145 
782	 0.154025717330617 
783	 0.154142462455886 
784	 0.154377927849121 
785	 0.154580281725646 
786	 0.154775646195547 
787	 0.155049010068169 
788	 0.155427268511682 
789	 0.155831795177638 
790	 0.156145684524481 
791	 0.156278055113654 
792	 0.156595134814033 
793	 0.156884011956648 
794	 0.157067947784433 
795	 0.157416011125764 
796	 0.157908903926564 
797	 0.158229400732899 
798	 0.158217469489904 
799	 0.158474666252281 
800	 0.158675125610916 
801	 0.15886323828205 
802	 0.15920691031916 
803	 0.159134582682767 
804	 0.159188820861846 
805	 0.159425531493966 
806	 0.159294214252457 
807	 0.159347614267149 
808	 0.159208534266246 
809	 0.158747730913245 
810	 0.158964528796846 
811	 0.158952088230236 
812	 0.158582076854687 
813	 0.158098287844728 
814	 0.157888372652567 
815	 0.157721990800771 
816	 0.15733765418634 
817	 0.156617000086493 
818	 0.156232786545028 
819	 0.155858774585257 
820	 0.155116940503139 
821	 0.153690142954232 
822	 0.152791393170037 
823	 0.152083179620573 
824	 0.151063009863552 
825	 0.149901579827082 
826	 0.148448336376546 
827	 0.146808832290022 
828	 0.145317706293162 
829	 0.144232374239446 
830	 0.143109830412463 
831	 0.142031164364328 
832	 0.141425362232855 
833	 0.140566795748225 
834	 0.139769672033607 
835	 0.139155975055888 
836	 0.138449082212403 
837	 0.13816809446023 
838	 0.137964640389397 
839	 0.137585704973566 
840	 0.137567912868622 
841	 0.137191900810824 
842	 0.136647201166423 
843	 0.136407606414987 
844	 0.136563437550437 
845	 0.136193262475513 
846	 0.135601451984772 
847	 0.135771932024482 
848	 0.135418762513567 
849	 0.134977628718744 
850	 0.134866333552107 
851	 0.135151605334323 
852	 0.134326296653274 
853	 0.133720556624391 
854	 0.134071967536 
855	 0.133516970916503 
856	 0.133592758486512 
857	 0.133636890637279 
858	 0.132926612434077 
859	 0.132699143846901 
860	 0.13266065213057 
861	 0.132650153430867 
862	 0.132558677718338 
863	 0.132217705132518 
864	 0.131941131986024 
865	 0.131747409462519 
866	 0.131394534396766 
867	 0.131209233662201 
868	 0.13119591420229 
869	 0.131205139554667 
870	 0.130966398776699 
871	 0.13021284147312 
872	 0.129822722209834 
873	 0.130076474523001 
874	 0.129353061547834 
875	 0.129174849046439 
876	 0.129257022573462 
877	 0.128928206896608 
878	 0.128229685310026 
879	 0.128169400189246 
880	 0.128227800026831 
881	 0.127509888566014 
882	 0.127577109667176 
883	 0.127239912171214 
884	 0.126678206549217 
885	 0.127006633588704 
886	 0.127190786619198 
887	 0.126702491070423 
888	 0.12597851588749 
889	 0.126326047688718 
890	 0.126494947391471 
891	 0.126128341427366 
892	 0.125348808198661 
893	 0.124878984799975 
894	 0.125255478422076 
895	 0.126195352055197 
896	 0.126700154040287 
897	 0.124674418205666 
898	 0.124187028991067 
899	 0.12490456130664 
900	 0.124880475587865 
901	 0.123110524615403 
902	 0.123236724450648 
903	 0.123934519383041 
904	 0.122840382832276 
905	 0.12272020172599 
906	 0.12270514864202 
907	 0.122936302980354 
908	 0.123974383473303 
909	 0.123720656506268 
910	 0.122315960838956 
911	 0.120962595725744 
912	 0.121238353876325 
913	 0.12187487954975 
914	 0.121417501302768 
915	 0.120314408333328 
916	 0.120770817104209 
917	 0.119710483207303 
918	 0.118847816917921 
919	 0.118693526085016 
920	 0.117406958045116 
921	 0.118267477217865 
922	 0.119306077847583 
923	 0.118870838906093 
924	 0.118100132525033 
925	 0.118620698679366 
926	 0.118778815645312 
927	 0.117315329713845 
928	 0.118858092133772 
929	 0.119287913636066 
930	 0.118343744129804 
931	 0.117547725324942 
932	 0.114513208874802 
933	 0.116419133550067 
934	 0.119608158561371 
935	 0.117425489260169 
936	 0.118173824708298 
937	 0.118609079994267 
938	 0.117913180306535 
939	 0.115760138969416 
940	 0.108887020207613 
941	 0.111438887787969 
942	 0.116872687293326 
943	 0.112552291350687 
944	 0.120626224736895 
945	 0.121933564668904 
946	 0.115992820968619 
947	 0.113868976992093 
948	 0.109210252631908 
949	 0.110940161591409 
950	 0.116297154223238 
951	 0.116100059749271 
952	 0.112437142465629 
953	 0.112100879462099 
954	 0.114186284714793 
955	 0.113306002516276 
956	 0.115085213327802 
957	 0.11603471848809 
958	 0.115842257685423 
959	 0.116198808572076 
960	 0.111873564134746 
961	 0.111587405229441 
962	 0.113496209460612 
963	 0.109636624476565 
964	 0.109537617484167 
965	 0.112044322783653 
966	 0.113789647621421 
967	 0.111762946396251 
968	 0.111310900129784 
969	 0.111406428335213 
970	 0.1101029374085 
971	 0.106544868053962 
972	 0.112014687760982 
973	 0.112862144978579 
974	 0.10815323888993 
975	 0.110540029624782 
976	 0.112467107811163 
977	 0.112871724808676 
978	 0.111643050755052 
979	 0.10950494345877 
980	 0.111141081642607 
981	 0.111429215083989 
982	 0.10998697280402 
983	 0.110549769547988 
984	 0.110966702269527 
985	 0.109653258712145 
986	 0.108281290942502 
987	 0.110172019972766 
988	 0.111937616623104 
989	 0.112837640818161 
990	 0.111898787436426 
991	 0.108825434729093 
992	 0.109487196898343 
993	 0.108666888452778 
994	 0.107330032760202 
995	 0.109939165116279 
996	 0.110487934478283 
997	 0.10930084266142 
998	 0.109591787494811 
999	 0.113561695095132 
1000	 0.110504081989969 
1001	 0.10466386912543 
1002	 0.103756591953504 
1003	 0.103724676442554 
1004	 0.103892318482165 
1005	 0.10390795249551 
1006	 0.104150933189095 
1007	 0.104640688771747 
1008	 0.104620781596873 
1009	 0.104459637412299 
1010	 0.104382191553554 
1011	 0.104181402934837 
1012	 0.10377705110124 
1013	 0.103475340465442 
1014	 0.103319894326496 
1015	 0.102976024448975 
1016	 0.103081757734005 
1017	 0.103719859111915 
1018	 0.104050719058668 
1019	 0.104494631410624 
1020	 0.104902685140251 
1021	 0.105419602861788 
1022	 0.105576352027201 
1023	 0.105181835176651 
1024	 0.105047432866494 
1025	 0.104467648671326 
1026	 0.10388007802211 
1027	 0.103898535692024 
1028	 0.104590837734787 
1029	 0.104494668121913 
1030	 0.104275933856959 
1031	 0.104249713916124 
1032	 0.104108825677877 
1033	 0.103895942562808 
1034	 0.103368286914881 
1035	 0.103640515934025 
1036	 0.104483373338656 
1037	 0.104685949137005 
1038	 0.105100842509053 
1039	 0.105881680026759 
1040	 0.105399596238899 
1041	 0.104073486497285 
1042	 0.103953784790229 
1043	 0.104107654070058 
1044	 0.104540312679994 
1045	 0.106057603643116 
1046	 0.106220118072809 
1047	 0.105673916089397 
1048	 0.105719794359564 
1049	 0.105532706844598 
1050	 0.105250678778348 
1051	 0.105389645347052 
1052	 0.105283776023327 
1053	 0.104316041318088 
1054	 0.10403291444512 
1055	 0.104326492223721 
1056	 0.10450915752766 
1057	 0.104780704784116 
1058	 0.10541248459538 
1059	 0.105442422599822 
1060	 0.105182727169264 
1061	 0.105112840676194 
1062	 0.104775609242787 
1063	 0.104659908792182 
1064	 0.104870560296792 
1065	 0.104790601095857 
1066	 0.104478936449412 
1067	 0.104351299391922 
1068	 0.104136827440822 
1069	 0.10409853180573 
1070	 0.104184989442391 
1071	 0.104357715410502 
1072	 0.104569727774111 
1073	 0.105176128912571 
1074	 0.10520036684261 
1075	 0.105167871178127 
1076	 0.10495444679535 
1077	 0.104058945774515 
1078	 0.103993898860357 
1079	 0.104307628381138 
1080	 0.104520780682361 
1081	 0.105442390528152 
1082	 0.105479051021583 
1083	 0.105085064433179 
1084	 0.104517993483272 
1085	 0.102679907477398 
1086	 0.102243538672256 
1087	 0.1025642733874 
1088	 0.1027417961223 
1089	 0.104103221388874 
1090	 0.104693436404121 
1091	 0.104883007151102 
1092	 0.104328276622019 
1093	 0.104144180040989 
1094	 0.103815999244423 
1095	 0.103639948848127 
1096	 0.103443052845008 
1097	 0.103417464927011 
1098	 0.103629691509851 
1099	 0.103457300948908 
1100	 0.103207258399859 
1101	 0.103104672625187 
1102	 0.102362731269172 
1103	 0.102301837520572 
1104	 0.103181603881213 
1105	 0.103560467527698 
1106	 0.103019211388727 
1107	 0.103746129620502 
1108	 0.103446809524254 
1109	 0.102870401274078 
1110	 0.102950454825899 
1111	 0.103942828859372 
1112	 0.103587771225983 
1113	 0.102494506737725 
1114	 0.102396739259927 
1115	 0.101415889106995 
1116	 0.102120692730646 
1117	 0.106830431379474 
1118	 0.10852870348602 
1119	 0.109517610576027 
1120	 0.109730425582827 
1121	 0.105472666915999 
1122	 0.1012963438334 
1123	 0.102895098271513 
1124	 0.106830028177786 
1125	 0.109960972561479 
1126	 0.11035711355001 
1127	 0.106154128390875 
1128	 0.102072993146139 
1129	 0.102388698634016 
1130	 0.108342806307704 
1131	 0.108060585721076 
1132	 0.105737091081664 
1133	 0.104807288432557 
1134	 0.100900663548944 
1135	 0.100214496952057 
1136	 0.105280519601088 
1137	 0.105417867274646 
1138	 0.103039770856565 
1139	 0.101218510000971 
1140	 0.10211735435065 
1141	 9.96829203070933E-02 
1142	 0.102018096831597 
1143	 0.107308503902279 
1144	 0.106315519117718 
1145	 0.103236281289156 
1146	 0.10170508620511 
1147	 0.100797068408876 
1148	 0.102356133430505 
1149	 0.104515035222046 
1150	 0.104171256024548 
1151	 0.101861935198287 
1152	 0.101180744021165 
1153	 9.95301138465711E-02 
1154	 9.94396049845426E-02 
1155	 0.101133355378895 
1156	 0.100916903443658 
1157	 0.100186770098946 
1158	 0.101161816174636 
1159	 0.100750374774091 
1160	 0.100180617974997 
1161	 0.100105014333699 
1162	 9.88926273383625E-02 
1163	 9.87636628818503E-02 
1164	 9.93360569689239E-02 
1165	 9.92160118339576E-02 
1166	 9.95650331411004E-02 
1167	 9.96469117152769E-02 
1168	 9.93759567315036E-02 
1169	 9.97001451740478E-02 
1170	 9.95816293900878E-02 
1171	 9.94310172896756E-02 
1172	 9.92292451784917E-02 
1173	 9.91380848810271E-02 
1174	 9.88726531689518E-02 
1175	 9.88307151926556E-02 
1176	 9.90506107244228E-02 
1177	 0.098812815586502 
1178	 9.86193048649787E-02 
1179	 9.89019886533096E-02 
1180	 9.87318704719989E-02 
1181	 9.82856215947168E-02 
1182	 9.82113724534858E-02 
1183	 9.78352301833763E-02 
1184	 9.78469515926352E-02 
1185	 9.86365319828174E-02 
1186	 9.89971313540769E-02 
1187	 9.88342424682407E-02 
1188	 9.86815153676439E-02 
1189	 9.83948929019298E-02 
1190	 9.78929046466775E-02 
1191	 9.77549080216277E-02 
1192	 9.77019294402352E-02 
1193	 9.77171616712304E-02 
1194	 9.76720925367836E-02 
1195	 9.81644047109501E-02 
1196	 9.85053233143683E-02 
1197	 9.87043781378122E-02 
1198	 9.88486153082184E-02 
1199	 9.84905579925337E-02 
1200	 9.83224300933264E-02 
1201	 0.098448977201216 
1202	 9.83064295278069E-02 
1203	 9.81461578126307E-02 
1204	 9.80218496779459E-02 
1205	 9.76547256626349E-02 
1206	 9.77510299481866E-02 
1207	 9.80270106766541E-02 
1208	 9.78162274338171E-02 
1209	 9.79196609200764E-02 
1210	 9.78113819078772E-02 
1211	 9.72788553806713E-02 
1212	 9.75931040378867E-02 
1213	 0.097807381999535 
1214	 9.76881009478433E-02 
1215	 9.72807600756709E-02 
1216	 9.74302523386535E-02 
1217	 9.76616200278898E-02 
1218	 0.09760262378211 
1219	 9.74564590594082E-02 
1220	 9.73781238262098E-02 
1221	 9.70985625044084E-02 
1222	 9.70413812506791E-02 
1223	 9.70696980884385E-02 
1224	 9.70546228718593E-02 
1225	 9.71991491221474E-02 
1226	 9.70610985061996E-02 
1227	 9.72064894458033E-02 
1228	 0.097498109104238 
1229	 9.73149601455047E-02 
1230	 9.70314572573173E-02 
1231	 9.70755111412345E-02 
1232	 9.71992365039558E-02 
1233	 9.70095811637668E-02 
1234	 9.69552698115171E-02 
1235	 9.69473702384473E-02 
1236	 9.67716305656648E-02 
1237	 9.67615106085204E-02 
1238	 9.70609859774779E-02 
1239	 9.71341089036586E-02 
1240	 9.66156534960436E-02 
1241	 9.64156844836534E-02 
1242	 0.096563755470154 
1243	 9.63414257042158E-02 
1244	 9.62946297835051E-02 
1245	 9.67211109875473E-02 
1246	 9.70012368910648E-02 
1247	 9.68485145247244E-02 
1248	 0.096627417646566 
1249	 9.67983321247816E-02 
1250	 9.70104164788576E-02 
1251	 9.65716790776173E-02 
1252	 9.61393442211224E-02 
1253	 9.63267845063037E-02 
1254	 9.59877404538384E-02 
1255	 9.57307606905312E-02 
1256	 9.59198433891866E-02 
1257	 9.69536989153141E-02 
1258	 9.71280650681158E-02 
1259	 9.70481219439687E-02 
1260	 9.72266246334448E-02 
1261	 9.74529813855444E-02 
1262	 9.72662839561869E-02 
1263	 9.68480702292757E-02 
1264	 0.096495105028827 
1265	 0.096333853348783 
1266	 9.62181681138585E-02 
1267	 9.64028410553197E-02 
1268	 9.68716754269964E-02 
1269	 9.69457774735669E-02 
1270	 9.65458078335937E-02 
1271	 9.63141936749084E-02 
1272	 9.66776512407583E-02 
1273	 9.68130852569311E-02 
1274	 9.64784906200482E-02 
1275	 9.63900449499503E-02 
1276	 9.61909932670336E-02 
1277	 9.57488284513403E-02 
1278	 9.59451274113945E-02 
1279	 0.096455316811615 
1280	 9.62111125928066E-02 
1281	 9.60740201706286E-02 
1282	 9.59783490557444E-02 
1283	 9.59937938943186E-02 
1284	 9.57438243478582E-02 
1285	 9.56918034746234E-02 
1286	 9.59419668515442E-02 
1287	 9.60637542409787E-02 
1288	 9.62276875977209E-02 
1289	 9.61646918699142E-02 
1290	 9.60595103381313E-02 
1291	 9.58551860702016E-02 
1292	 9.54433994647376E-02 
1293	 0.095412549866118 
1294	 9.57255543772907E-02 
1295	 9.55348515227409E-02 
1296	 9.52976273489955E-02 
1297	 9.57295161896311E-02 
1298	 9.59995138468519E-02 
1299	 9.54335229118979E-02 
1300	 9.52326188425529E-02 
1301	 9.52701473578465E-02 
1302	 0.094917794626157 
1303	 0.095400636599621 
1304	 0.095981217253807 
1305	 9.56977816945007E-02 
1306	 9.56397008732539E-02 
1307	 9.58057037449058E-02 
1308	 9.58579590453979E-02 
1309	 9.56415098396838E-02 
1310	 9.54740431794232E-02 
1311	 9.53813612050242E-02 
1312	 9.54890111497408E-02 
1313	 9.55763812160173E-02 
1314	 9.53881319638213E-02 
1315	 9.52465751291286E-02 
1316	 9.52216240969405E-02 
1317	 9.52445189188651E-02 
1318	 9.50434420654235E-02 
1319	 9.45338829779065E-02 
1320	 9.45008127341103E-02 
1321	 9.43955190928591E-02 
1322	 0.094365531854716 
1323	 9.46894588681449E-02 
1324	 9.52229113780372E-02 
1325	 9.49850114112737E-02 
1326	 9.47229182346991E-02 
1327	 9.49254835329345E-02 
1328	 9.53283417197333E-02 
1329	 9.61810909184288E-02 
1330	 9.62328861952616E-02 
1331	 9.62436809351039E-02 
1332	 0.09674945108595 
1333	 9.62541722144227E-02 
1334	 0.095959762667088 
1335	 0.095997040935278 
1336	 9.60996104961016E-02 
1337	 0.096463818851434 
1338	 9.75831506468343E-02 
1339	 9.73120012463628E-02 
1340	 9.64828595694317E-02 
1341	 0.095899756790209 
1342	 9.37765243857433E-02 
1343	 9.33335415917096E-02 
1344	 9.42204793361312E-02 
1345	 9.48068896576318E-02 
1346	 9.75699712492781E-02 
1347	 9.93211306281619E-02 
1348	 9.98736154834978E-02 
1349	 0.101940264313878 
1350	 0.103587934963391 
1351	 0.105895279553997 
1352	 0.114236425875582 
1353	 0.12381956525391 
1354	 0.118519762124004 
1355	 0.138590322252512 
1356	 0.238880697627581 
1357	 0.295647935138162 
1358	 0.265705343093208 
1359	 0.410334997714168 
1360	 0.545038128508039 
1361	 0.279727322365893 
1362	 0.262960938848206 
1363	 0.488836194704106 
1364	 0.500011538613792 
1365	 0.363616921083294 
1366	 0.270135498798211 
1367	 0.244417273600418 
1368	 0.241725932846114 
1369	 0.228084927460216 
1370	 0.25045615791569 
1371	 0.417977429739766 
1372	 0.503252422767794 
1373	 0.750358793279151 
1374	 0.769738220128409 
1375	 0.192981466459325 
1376	 0.134870990273098 
1377	-0.19205754165781 
1378	-0.141495567744845 
1379	 0.669043596133052 
1380	 0.766595324077248 
1381	 0.617594349440706 
1382	 0.779952589116528 
1383	 2.25006027249136 
1384	 2.13935491148588 
1385	 1.02127867390395 
1386	 0.940433006170023 
1387	 0.355705472769233 
1388	 0.200181120300533 
1389	 0.332197461789902 
1390	 0.262243508216572 
1391	-0.290774589242294 
1392	-0.208852035544349 
1393	-0.154221779302648 
1394	 3.07456550893056E-02 
1395	 0.270032706653641 
1396	 0.724833115359087 
1397	 1.5240658116439 
1398	 1.37979066834914 
1399	 2.52430624254525 
1400	 4.28241854209937 
1401	 4.63405802657174 
1402	 11.1761969966995 
1403	 0.654629405017968 
1404	 0.415037266248336 
1405	 0.252180645363628 
1406	 6.94777160537189E-02 
1407	 0.13677477748453 
1408	 0.299006942166405 
1409	 0.212855785211208 
1410	 0.15146305630436 
1411	 0.222225549486812 
1412	 0.15567756161531 
1413	 0.123734287852948 
1414	 0.262341790644033 
1415	 0.267432824691872 
1416	 0.146882410830761 
1417	 9.11323838811417E-02 
1418	 8.50749338339572E-02 
1419	 7.40040089010821E-02 
1420	 3.40566815579282E-02 
1421	 4.69741075995041E-02 
1422	 0.114110111166351 
1423	 0.112604902939861 
1424	 8.77641484009472E-02 
1425	 8.65086130606521E-02 
1426	 0.072852483615597 
1427	 6.46137752476724E-02 
1428	 7.26922861295386E-02 
1429	 7.68360861907758E-02 
1430	 7.44397766070417E-02 
1431	 0.072677372072367 
1432	 6.64269577051632E-02 
1433	 7.09515760075897E-02 
1434	 8.49323438825997E-02 
1435	 9.16646347053856E-02 
1436	 0.105460960706407 
1437	 0.114848191055654 
1438	 0.109295119603412 
1439	 9.61899409739447E-02 
1440	 8.01973575006429E-02 
1441	 7.62889931775875E-02 
1442	 7.93645550164574E-02 
1443	 7.30020477160175E-02 
1444	 6.70852676904419E-02 
1445	 7.09373250358345E-02 
1446	 7.42777056453499E-02 
1447	 7.18046503278484E-02 
1448	 7.45862091255294E-02 
1449	 7.77914868378945E-02 
1450	 7.58692462432442E-02 
1451	 7.46315412404129E-02 
1452	 7.42611094379284E-02 
1453	 7.33558362658016E-02 
1454	 7.36412571392569E-02 
1455	 7.68348498388457E-02 
1456	 7.57004772896398E-02 
1457	 7.13566732979132E-02 
1458	 7.22128116617748E-02 
1459	 7.53983820497448E-02 
1460	 7.36491883650571E-02 
1461	 7.08747999818992E-02 
1462	 7.11170161584587E-02 
1463	 6.92764360108107E-02 
1464	 6.68273490742594E-02 
1465	 6.77067923777444E-02 
1466	 6.99387237009279E-02 
1467	 7.00818113680344E-02 
1468	 6.92891456794603E-02 
1469	 0.071820812749731 
1470	 7.36234794151623E-02 
1471	 7.15853004082775E-02 
1472	 7.00386532002826E-02 
1473	 7.12059194204157E-02 
1474	 7.20544536143153E-02 
1475	 7.10845094593077E-02 
1476	 6.92575694481502E-02 
1477	 6.83690489416579E-02 
1478	 6.87984964998246E-02 
1479	 6.79598050987521E-02 
1480	 6.70763372780224E-02 
1481	 6.74084676398411E-02 
1482	 6.78850819316904E-02 
1483	 6.79089927197348E-02 
1484	 6.74270252985717E-02 
1485	 6.80593759908433E-02 
1486	 0.068244845681404 
1487	 6.62751635637594E-02 
1488	 6.57500718960094E-02 
1489	 6.69470087189047E-02 
1490	 6.74356742443356E-02 
1491	 6.80819464726423E-02 
1492	 6.78309095959216E-02 
1493	 6.61792297912383E-02 
1494	 6.61806876499192E-02 
1495	 6.69870413257959E-02 
1496	 6.71000266291876E-02 
1497	 6.72602767192085E-02 
1498	 6.79831667546617E-02 
1499	 6.91081483850693E-02 
1500	 6.92803073101527E-02 
1501	 6.97155673691542E-02 
1502	 0.069845987251072 
1503	 6.82810058899422E-02 
1504	 6.78511263252109E-02 
1505	 6.83669529207935E-02 
1506	 6.86665414787112E-02 
1507	 0.068931024145112 
1508	 6.99500634814524E-02 
1509	 7.06523369492023E-02 
1510	 7.08004064933165E-02 
1511	 7.08621484801447E-02 
1512	 7.07492162858851E-02 
1513	 7.06636924734038E-02 
1514	 7.09630613962359E-02 
1515	 0.071261334087478 
1516	 7.12790687701761E-02 
1517	 0.071329034808023 
1518	 7.15942585061609E-02 
1519	 7.16642945208926E-02 
1520	 7.17416909930057E-02 
1521	 7.16291925742623E-02 
1522	 7.14084485894215E-02 
1523	 7.17388356781819E-02 
1524	 7.19221035770459E-02 
1525	 7.19599175695797E-02 
1526	 7.25063120656781E-02 
1527	 7.24370551822463E-02 
1528	 7.17443118311891E-02 
1529	 7.23224309035286E-02 
1530	 7.28556255632711E-02 
1531	 7.27761422088373E-02 
1532	 7.38751378997123E-02 
1533	 7.45691808641183E-02 
1534	 7.38816068399195E-02 
1535	 7.34139379446349E-02 
1536	 7.34296578333243E-02 
1537	 7.36369165352942E-02 
1538	 0.074037199475917 
1539	 7.41366972574494E-02 
1540	 7.40427995137863E-02 
1541	 7.40840918789339E-02 
1542	 7.40963854299847E-02 
1543	 7.43425075895925E-02 
1544	 7.49792978266218E-02 
1545	 7.53925666871107E-02 
1546	 7.51110166307493E-02 
1547	 7.48820486620057E-02 
1548	 7.51154789453109E-02 
1549	 7.48808501174549E-02 
1550	 7.45986106779195E-02 
1551	 7.50537314137249E-02 
1552	 7.53791136973377E-02 
1553	 0.07549195934867 
1554	 7.55554570954672E-02 
1555	 7.59346297474362E-02 
1556	 7.65596569044303E-02 
1557	 7.61937150966882E-02 
1558	 7.59994466020134E-02 
1559	 7.66035847403743E-02 
1560	 7.66482676292867E-02 
1561	 7.65766568311571E-02 
1562	 7.69226926407901E-02 
1563	 7.67567876511874E-02 
1564	 7.62425424240989E-02 
1565	 0.076656223805101 
1566	 7.74563623212199E-02 
1567	 7.73250189153806E-02 
1568	 7.70176970939275E-02 
1569	 7.76275728701058E-02 
1570	 7.82421117650842E-02 
1571	 0.078251798078377 
1572	 7.82784615511101E-02 
1573	 7.80148574681059E-02 
1574	 7.75730951801449E-02 
1575	 7.77434335160341E-02 
1576	 7.84362393011118E-02 
1577	 7.88962175549309E-02 
1578	 7.84418030600786E-02 
1579	 7.83927306991617E-02 
1580	 7.89077270353925E-02 
1581	 7.83785321731266E-02 
1582	 7.82174281903024E-02 
1583	 7.89646061006435E-02 
1584	 7.88010679334577E-02 
1585	 7.80695785766612E-02 
1586	 7.80218964513485E-02 
1587	 7.81911136775196E-02 
1588	 7.82375561884491E-02 
1589	 7.87439948800155E-02 
1590	 7.91807641819117E-02 
1591	 7.87252189484883E-02 
1592	 7.85345559804917E-02 
1593	 7.91941994541759E-02 
1594	 7.90727345106862E-02 
1595	 7.86370053254201E-02 
1596	 0.078430003938975 
1597	 7.85131209287499E-02 
1598	 7.95119365667604E-02 
1599	 7.98832180914805E-02 
1600	 7.95165902398384E-02 
1601	 7.92987118848315E-02 
1602	 7.88820847042154E-02 
1603	 7.88999133529151E-02 
1604	 7.95611358223988E-02 
1605	 7.96519356832401E-02 
1606	 7.96814972873023E-02 
1607	 7.97915052158557E-02 
1608	 7.94272761280933E-02 
1609	 7.95939301789287E-02 
1610	 7.96619037527926E-02 
1611	 7.96830870830435E-02 
1612	 8.02816539246271E-02 
1613	 8.05178563643447E-02 
1614	 8.05962408440084E-02 
1615	 8.05290748906631E-02 
1616	 8.01344230153624E-02 
1617	 8.00641373158699E-02 
1618	 8.02590226928686E-02 
1619	 8.05538361145464E-02 
1620	 8.09027869242279E-02 
1621	 8.08303457230821E-02 
1622	 8.02977419528929E-02 
1623	 8.01204110619346E-02 
1624	 8.04614990203852E-02 
1625	 8.06938638400025E-02 
1626	 8.06289320525765E-02 
1627	 8.04256519946399E-02 
1628	 8.04685616419585E-02 
1629	 8.06142978017017E-02 
1630	 8.06141680954782E-02 
1631	 8.07743437964517E-02 
1632	 8.13348259495925E-02 
1633	 8.18877169764338E-02 
1634	 8.21761861437609E-02 
1635	 8.19535252415031E-02 
1636	 8.12493169333668E-02 
1637	 8.11603453103649E-02 
1638	 8.14740392608115E-02 
1639	 8.15125823623451E-02 
1640	 8.15090734795697E-02 
1641	 8.16327643241658E-02 
1642	 8.13824203970749E-02 
1643	 8.11239675446328E-02 
1644	 8.14099467136976E-02 
1645	 0.081009685277143 
1646	 8.04648041623828E-02 
1647	 8.06262016139371E-02 
1648	 8.06642575144028E-02 
1649	 8.06372906228316E-02 
1650	 8.06688025105185E-02 
1651	 8.06324536267423E-02 
1652	 8.10884027918067E-02 
1653	 8.17428241602471E-02 
1654	 8.14943097487417E-02 
1655	 0.080954188489048 
1656	 8.08312113891587E-02 
1657	 8.00452395264501E-02 
1658	 7.99211692361354E-02 
1659	 8.06258649119932E-02 
1660	 8.07807235750644E-02 
1661	 8.06122632294069E-02 
1662	 8.11439173843712E-02 
1663	 8.24403370413815E-02 
1664	 8.25577686133247E-02 
1665	 8.21461044998636E-02 
1666	 8.23459145041635E-02 
1667	 8.22643516880649E-02 
1668	 8.21085471571823E-02 
1669	 8.17112858437782E-02 
1670	 8.07912247696517E-02 
1671	 8.02771882231078E-02 
1672	 8.08778368974769E-02 
1673	 8.14845679652191E-02 
1674	 8.11297430186331E-02 
1675	 0.081228399030386 
1676	 8.16829324482482E-02 
1677	 8.17918934625332E-02 
1678	 0.082362050284375 
1679	 8.28478100793627E-02 
1680	 8.22656937833755E-02 
1681	 8.12985896139896E-02 
1682	 8.07049181606688E-02 
1683	 8.08427132630931E-02 
1684	 8.10549389392452E-02 
1685	 8.09326133415148E-02 
1686	 8.15165626736265E-02 
1687	 8.17279958824286E-02 
1688	 0.081391709578202 
1689	 8.15692981178125E-02 
1690	 8.19766851554856E-02 
1691	 8.26868110588636E-02 
1692	 0.082855087693683 
1693	 8.28546288290643E-02 
1694	 8.28510377083286E-02 
1695	 8.16280990232856E-02 
1696	 8.10913144200764E-02 
1697	 0.081795660846021 
1698	 8.16485983245685E-02 
1699	 0.081620456666531 
1700	 8.24434147431413E-02 
1701	 0.082514118262761 
1702	 8.24135047550512E-02 
1703	 8.29328910485875E-02 
1704	 8.21672148391302E-02 
1705	 8.09628535278105E-02 
1706	 8.20194707071391E-02 
1707	 8.25828043542232E-02 
1708	 8.13723730717097E-02 
1709	 8.16141394456025E-02 
1710	 8.19559946292354E-02 
1711	 8.12596946688314E-02 
1712	 0.081859367986467 
1713	 8.19132893606118E-02 
1714	 8.17987853283548E-02 
1715	 8.21048322057718E-02 
1716	 8.20502963896743E-02 
1717	 8.08686464081663E-02 
1718	 8.07125869891708E-02 
1719	 8.11020565976196E-02 
1720	 8.11940753313642E-02 
1721	 8.17406146406749E-02 
1722	 0.082034264435987 
1723	 8.13180027159265E-02 
1724	 8.03690455151673E-02 
1725	 8.05162246522266E-02 
1726	 8.08331216227828E-02 
1727	 8.06330755120776E-02 
1728	 8.11769602099543E-02 
1729	 8.13662425895432E-02 
1730	 8.10907889985085E-02 
1731	 8.09303977002745E-02 
1732	 0.080557212075313 
1733	 8.10666814165442E-02 
1734	 8.14086226358668E-02 
1735	 8.10653941506747E-02 
1736	 8.09751933475145E-02 
1737	 0.080217471207706 
1738	 7.98769506666611E-02 
1739	 8.07196827780864E-02 
1740	 8.13486586108586E-02 
1741	 8.16189916783074E-02 
1742	 8.09686993027897E-02 
1743	 8.07181059762102E-02 
1744	 8.19811212109149E-02 
1745	 8.24434778072098E-02 
1746	 8.28088494355761E-02 
1747	 8.27100787543153E-02 
1748	 0.080434906241026 
1749	 7.99112090571854E-02 
1750	 8.08157653130468E-02 
1751	 8.05698419101182E-02 
1752	 0.080276246524136 
1753	 8.03786121783799E-02 
1754	 8.00748765681046E-02 
1755	 8.00318234804912E-02 
1756	 8.07571768121641E-02 
1757	 8.04334253231147E-02 
1758	 7.92753080673464E-02 
1759	 7.91463078257577E-02 
1760	 7.87998492767842E-02 
1761	 7.83708728988445E-02 
1762	 8.03885212877033E-02 
1763	 8.16608890158911E-02 
1764	 8.17334216670053E-02 
1765	 8.11452456775147E-02 
1766	 7.89948021442662E-02 
1767	 7.83072118503671E-02 
1768	 7.77370478711306E-02 
1769	 0.077956348073438 
1770	 7.91117159554479E-02 
1771	 7.72672636807187E-02 
1772	 7.64679628611934E-02 
1773	 7.61564282364188E-02 
1774	 7.56805286096699E-02 
1775	 7.87655229701668E-02 
1776	 8.03627557274647E-02 
1777	 0.08311712319794 
1778	 8.31119119816931E-02 
1779	 7.88829113019569E-02 
1780	 7.80498353173412E-02 
1781	 0.077637151396194 
1782	 7.69559358076226E-02 
1783	 7.95308006941849E-02 
1784	 7.96794697170987E-02 
1785	 7.51400060308471E-02 
1786	 7.57302034671579E-02 
1787	 7.91167244800406E-02 
1788	 0.082061409486747 
1789	 9.04621638050822E-02 
1790	 8.59821936322377E-02 
1791	 8.49969965374252E-02 
1792	 8.15130773104086E-02 
1793	 7.13883833020712E-02 
1794	 8.24436843957371E-02 
1795	 8.95657576814391E-02 
1796	 7.98521155537549E-02 
1797	 0.085511723705879 
1798	 8.19328325229117E-02 
1799	 7.33182239955759E-02 
1800	 0.094212125709367 
1801	 0.10041438981405 
1802	 7.86366016478302E-02 
1803	 0.075517761863393 
1804	 9.09738270376322E-02 
1805	 8.92860897440207E-02 
1806	 8.98882829215495E-02 
1807	 0.10124186374992 
1808	 7.76992951335194E-02 
1809	 7.05180060042788E-02 
1810	 0.134707259561271 
1811	 0.144291217841867 
1812	 8.97358052327814E-02 
1813	 9.82292876798027E-02 
1814	 0.174784365796972 
1815	 0.124320506209398 
1816	-0.338614970127263 
1817	-0.275668353192338 
1818	 0.206458045894382 
1819	-0.119931254047874 
1820	 0.575814184777141 
1821	-0.155516009729816 
1822	-0.450992981584697 
1823	 0.804913671464582 
1824	 0.733438123897836 
1825	-0.229321226845076 
1826	-0.160411108344813 
1827	-5.67218177821611E-02 
1828	 0.195512742785849 
1829	 3.5226201072579 
1830	 9.84118064463991 
1831	-1.53761665898067 
1832	-1.15919763823433 
1833	 0.876553110680525 
1834	 8.75614927663126 
1835	 4.94956434318959 
1836	 8.39044784361774 
1837	 0.184215200352165 
1838	 1.04692039075614 
1839	 2.97670760512098 
1840	 1.72367133350122 
1841	 0.053534484494189 
1842	 8.10988765554731 
1843	 1.68483935872926 
1844	 0.519564021177307 
1845	 0.37672070716746 
1846	-0.348000734673653 
1847	-0.576409971944482 
1848	-0.738313652196992 
1849	 0.699024399990987 
1850	 1.82317957788402 
1851	 1.21493135224051 
1852	 35.2017822656984 
1853	 25.8639013733008 
1854	 6.05373079700514 
1855	 0.875551229227498 
1856	 0.757461879763738 
1857	 1.13872180181256 
1858	 1.18068744155466 
1859	 1.72136909246945 
1860	-0.851986619996686 
1861	-0.201545846256574 
1862	 1.77463992854675 
1863	 1.98529086176826 
1864	 0.670079792522399 
1865	 0.953949998609702 
1866	 6.31959754039594 
1867	-6.00544814315468 
1868	-4.85592861143069 
1869	-2.24547355769695 
1870	-0.480223163176561 
1871	 3.42153442434235E-04 
1872	-8.18846705677953E-02 
1873	-0.093214505261932 
1874	-0.260909986987281 
1875	-0.554840118728121 
1876	-0.608707906143848 
1877	-0.17094598355634 
1878	 8.35500883928899E-03 
1879	 1.13418109168282 
1880	-0.764433791759768 
1881	-0.330200331675049 
1882	 7.90002209036565E-02 
1883	 0.848657482299979 
1884	 4.43623919533776 
1885	-2.63729325309236 
1886	-1.49307034044662 
1887	-2.7612072997566 
1888	-5.89808821066249 
1889	-5.03343007703346 
1890	-1.57206413847723 
1891	-0.772337324857963 
1892	 1.42140164366238 
1893	 16.3088152518624 
1894	-6.71686096539586 
1895	-1.03666335914439 
1896	 22.531705444167 
1897	-1.67465407070192 
1898	-1.07502568402799E-02 
1899	-8.77554694555562E-02 
1900	 9.96030113766183E-02 
1901	 0.284512299009528 
1902	 0.14502384449006 
1903	-0.441300315626885 
1904	-0.270686213918538 
1905	-0.422343950368847 
1906	 0.060149414118469 
1907	-0.206674113093986 
1908	-3.15155374152024 
1909	-0.144955148872963 
1910	-0.235651516110137 
1911	 2.72346649828085E-02 
1912	-9.01966447069058E-02 
1913	-0.336047675831935 
1914	-1.20420026366678 
1915	-2.63234520643888 
1916	 34.8454793297792 
1917	 1.09877351249386 
1918	 8.46056192670612E-02 
1919	-0.131340364889107 
1920	-2.01596672411238E-02 
1921	 0.264091177560536 
1922	 1.73560317557449 
1923	 8.05122259881622 
1924	-0.364902334233757 
1925	-0.120124925613467 
1926	-0.118396123723871 
1927	-0.031950079232429 
1928	 0.305897280500542 
1929	 0.947657377232043 
1930	-0.151802668749418 
1931	-0.578170045305849 
1932	-0.12890103815292 
1933	-0.391717690605107 
1934	-0.107776650832064 
1935	 0.605274491306574 
1936	 0.632848136390807 
1937	 0.53008875004124 
1938	 0.618050157744366 
1939	 0.606902253015066 
1940	 0.415628775875459 
1941	 0.249271328650382 
1942	 0.23757426526054 
1943	 0.184704922187088 
1944	 8.88064418129667E-02 
1945	 0.172921395343895 
1946	 0.245718201707461 
1947	 0.281781745554024 
1948	 0.333429210602323 
1949	 0.260677081841869 
1950	 0.191217085067524 
1951	 0.195638390352032 
1952	 0.190423659634873 
1953	 0.199153283056768 
1954	 0.193396478677596 
1955	 0.183265118958378 
1956	 0.157564052582112 
1957	 9.06436085184009E-02 
1958	 7.13500567035322E-02 
1959	 0.084397190684847 
1960	 6.45728390128607E-02 
1961	 0.050471509766342 
1962	 5.39796201894967E-02 
1963	 4.93328440119693E-02 
1964	 5.56719836529877E-02 
1965	 5.84417390012544E-02 
1966	 0.058250735174585 
1967	 5.61006335420233E-02 
1968	 5.61709965158469E-02 
1969	 4.62190923270083E-02 
1970	 4.51848297311992E-02 
1971	 5.14708911509683E-02 
1972	 4.76830568524266E-02 
1973	 0.046782232552144 
1974	 4.80786158746808E-02 
1975	 4.29652650080604E-02 
1976	 4.00313528302727E-02 
1977	 3.79470163417583E-02 
1978	 0.033922626216571 
1979	 3.32887429627969E-02 
1980	 3.37679763576626E-02 
1981	 0.035553515691876 
1982	 3.76234742945498E-02 
1983	 4.14890299819627E-02 
1984	 4.54390825307707E-02 
1985	 4.66948020104833E-02 
1986	 4.72882184668655E-02 
1987	 4.75612563850595E-02 
1988	 4.80786201715501E-02 
1989	 4.70760947955699E-02 
1990	 4.61342607699852E-02 
1991	 4.61178933751063E-02 
1992	 0.04476410530975 
1993	 4.60392948209484E-02 
1994	 4.62824697234449E-02 
1995	 4.81068679267031E-02 
1996	 4.63419465994336E-02 
1997	 4.25055064343157E-02 
1998	 3.87746631224275E-02 
1999	 3.40437576545794E-02 
2000	 0.035118080301773 
2001	 4.16968102157076E-02 
2002	 4.60404225079614E-02 
2003	 5.33194057200967E-02 
2004	 5.47377424141554E-02 
2005	 0.05024859423671 
2006	 6.02028346054896E-02 
2007	 6.79664539302791E-02 
2008	 6.11028993566583E-02 
2009	 6.08850946125743E-02 
2010	 6.47012533517091E-02 
2011	 6.10809075750437E-02 
2012	 4.87868786279016E-02 
2013	 5.38626280636455E-02 
2014	 5.79117817127421E-02 
2015	 5.54390339622131E-02 
2016	 5.35654830593362E-02 
2017	 5.36157231750405E-02 
2018	 4.78166026169074E-02 
2019	 4.46663075625479E-02 
2020	 4.77755417328025E-02 
2021	 4.86877917863576E-02 
2022	 5.64771899823263E-02 
2023	 6.12852886867012E-02 
2024	 5.99623769150906E-02 
2025	 5.42318713964077E-02 
2026	 5.30401875294675E-02 
2027	 4.99981456941702E-02 
2028	 4.67051296509602E-02 
2029	 0.049182074004102 
2030	 5.08526533468121E-02 
2031	 5.12312222115911E-02 
2032	 0.050166653151555 
2033	 4.90447070453549E-02 
2034	 5.07589043430164E-02 
2035	 5.01170365871417E-02 
2036	 5.04995209566611E-02 
2037	 5.35888973389198E-02 
2038	 5.48032619418463E-02 
2039	 5.52416305787352E-02 
2040	 5.57041482856071E-02 
2041	 5.56679810309337E-02 
2042	 5.35895286493766E-02 
2043	 0.052589494480682 
2044	 5.10111406070348E-02 
2045	 5.24865807866619E-02 
2046	 5.55025913793907E-02 
2047	 5.57325640847332E-02 
2048	 5.34159081999801E-02 
2049	 5.25801408687966E-02 
2050	 5.00896217480209E-02 
2051	 4.83173120234885E-02 
2052	 5.10302842332361E-02 
2053	 5.15816200850787E-02 
2054	 5.18488162609167E-02 
2055	 5.36280496421957E-02 
2056	 5.29002402142779E-02 
2057	 5.02381040468774E-02 
2058	 0.049587180546106 
2059	 4.68507901177074E-02 
2060	 4.69246631446368E-02 
2061	 4.98663914661556E-02 
2062	 5.26982050996453E-02 
2063	 5.40664948191858E-02 
2064	 0.056278559690898 
2065	 5.62882041970147E-02 
2066	 5.89210023139405E-02 
2067	 6.06727441458835E-02 
2068	 5.76896394081567E-02 
2069	 0.057549415587403 
2070	 5.74616607832386E-02 
2071	 5.56988810308552E-02 
2072	 5.69029737351113E-02 
2073	 5.78068264158121E-02 
2074	 5.82306208830112E-02 
2075	 0.057783154846964 
2076	 5.74119823474109E-02 
2077	 5.77618847941501E-02 
2078	 5.88584215290649E-02 
2079	 5.80724124467101E-02 
2080	 5.67727136945945E-02 
2081	 5.64194259881566E-02 
2082	 5.41358258657679E-02 
2083	 5.23465935248292E-02 
2084	 5.31708753721932E-02 
2085	 5.42480723362589E-02 
2086	 5.69781502372214E-02 
2087	 5.92022421296519E-02 
2088	 6.05024976505491E-02 
2089	 6.16734710682826E-02 
2090	 6.10054956893637E-02 
2091	 0.058845727503785 
2092	 5.73181390738287E-02 
2093	 5.53012423478568E-02 
2094	 5.41581660006097E-02 
2095	 5.26761175900065E-02 
2096	 5.29825307855721E-02 
2097	 5.53334428157249E-02 
2098	 5.57795424120421E-02 
2099	 5.61996718997159E-02 
2100	 5.74153703554583E-02 
2101	 5.59293233636059E-02 
2102	 5.55597948417565E-02 
2103	 5.77593546530652E-02 
2104	 5.77895453762454E-02 
2105	 5.83798234161573E-02 
2106	 6.09646232489474E-02 
2107	 6.08088803489073E-02 
2108	 6.04132698201812E-02 
2109	 6.04109778292153E-02 
2110	 5.74538009526462E-02 
2111	 5.63266920074868E-02 
2112	 5.68302686500766E-02 
2113	 5.59283359793282E-02 
2114	 5.46124510659143E-02 
2115	 5.44768295931778E-02 
2116	 5.36919019346418E-02 
2117	 5.32268044431728E-02 
2118	 5.37561128054948E-02 
2119	 5.45489303221896E-02 
2120	 5.48972376538272E-02 
2121	 5.67291350038884E-02 
2122	 5.95663389819703E-02 
2123	 6.10657534254409E-02 
2124	 6.01020996222841E-02 
2125	 5.85083232666838E-02 
2126	 5.87965274939934E-02 
2127	 5.85590122817509E-02 
2128	 6.03879050870036E-02 
2129	 6.25128113765224E-02 
2130	 6.03491581146053E-02 
2131	 5.87688573749338E-02 
2132	 5.80334862801188E-02 
2133	 5.77652956161113E-02 
2134	 5.75855004949314E-02 
2135	 5.85433812091325E-02 
2136	 5.91330944249916E-02 
2137	 5.93045530304729E-02 
2138	 5.99100567558406E-02 
2139	 6.21831562245986E-02 
2140	 6.24016049340749E-02 
2141	 6.02307506773188E-02 
2142	 6.01209690290237E-02 
2143	 0.059871828714618 
2144	 6.09051559280557E-02 
2145	 6.24963625402043E-02 
2146	 6.44886656299193E-02 
2147	 6.48847152807044E-02 
2148	 6.46657740032207E-02 
2149	 6.47377554002506E-02 
2150	 6.28400681439505E-02 
2151	 6.22206004385554E-02 
2152	 6.41952017630985E-02 
2153	 6.47740562234819E-02 
2154	 6.58038722082264E-02 
2155	 6.60630037007952E-02 
2156	 6.34687008103455E-02 
2157	 6.18682197624585E-02 
2158	 5.99475093686035E-02 
2159	 0.058998363975976 
2160	 5.71153167293093E-02 
2161	 5.78405008906276E-02 
2162	 0.061449304365895 
2163	 6.31457465222632E-02 
2164	 6.63698247519296E-02 
2165	 6.79591876861521E-02 
2166	 0.067259547214061 
2167	 6.73789350597188E-02 
2168	 6.76793992956401E-02 
2169	 6.70942782078001E-02 
2170	 6.60988714258238E-02 
2171	 6.47043937466883E-02 
2172	 6.29097474099905E-02 
2173	 6.19086550301921E-02 
2174	 6.30910714608497E-02 
2175	 6.60958240264149E-02 
2176	 6.86025686840391E-02 
2177	 7.10224477880801E-02 
2178	 7.20545707872151E-02 
2179	 0.069309388044394 
2180	 6.44861155827373E-02 
2181	 6.34536174598463E-02 
2182	 6.38287269284154E-02 
2183	 6.58628028380584E-02 
2184	 0.068822397557044 
2185	 6.73882630430242E-02 
2186	 6.70069598258887E-02 
2187	 6.40617949464439E-02 
2188	 6.22299265639183E-02 
2189	 6.14755992706016E-02 
2190	 6.15980992223199E-02 
2191	 6.03131391860109E-02 
2192	 6.03465205156263E-02 
2193	 6.35809952547471E-02 
2194	 6.46497361503504E-02 
2195	 6.61003559201326E-02 
2196	 6.69250337649848E-02 
2197	 6.55402693900503E-02 
2198	 6.44185571408921E-02 
2199	 6.27180909762001E-02 
2200	 6.07912666189785E-02 
2201	 5.99773889636477E-02 
2202	 0.06126851756423 
2203	 6.37864382122853E-02 
2204	 6.38964431107957E-02 
2205	 0.061855940049911 
2206	 6.28215187114598E-02 
2207	 6.53698577669476E-02 
2208	 6.44246521051489E-02 
2209	 6.38996561492086E-02 
2210	 0.065585804541716 
2211	 6.24399410315803E-02 
2212	 6.03398798694786E-02 
2213	 6.24147304379159E-02 
2214	 6.08599103823922E-02 
2215	 6.07903030246624E-02 
2216	 6.40928692976301E-02 
2217	 6.46526867130987E-02 
2218	 6.34400915761285E-02 
2219	 6.28829194940024E-02 
2220	 6.15946729036944E-02 
2221	 6.26594545210959E-02 
2222	 0.064283052661368 
2223	 6.49429280975465E-02 
2224	 6.82600093331082E-02 
2225	 6.78189896017644E-02 
2226	 6.46111020000823E-02 
2227	 6.37813816838887E-02 
2228	 6.11027917640709E-02 
2229	 6.08151176147666E-02 
2230	 6.30705457007982E-02 
2231	 6.35825412656549E-02 
2232	 6.38958789770519E-02 
2233	 6.49436082658175E-02 
2234	 6.55905536752898E-02 
2235	 6.66125937704874E-02 
2236	 6.83440733530261E-02 
2237	 6.94380312199369E-02 
2238	 7.12997962805524E-02 
2239	 7.29803984623581E-02 
2240	 7.45902897085448E-02 
2241	 0.077538848831383 
2242	 7.44746474844968E-02 
2243	 7.36410599856674E-02 
2244	 7.31259117843724E-02 
2245	 6.99281607190542E-02 
2246	 7.05903333072772E-02 
2247	 6.72894751025044E-02 
2248	 6.78184003877694E-02 
2249	 7.49846129795799E-02 
2250	 7.74864665107935E-02 
2251	 7.73593389524924E-02 
2252	 7.51196238901298E-02 
2253	 6.76090577539756E-02 
2254	 6.12421025590772E-02 
2255	 6.22631180112332E-02 
2256	 6.26257370750838E-02 
2257	 6.51930367293878E-02 
2258	 6.86939417330099E-02 
2259	 6.52144208914823E-02 
2260	 6.49137805651324E-02 
2261	 6.39594801996441E-02 
2262	 6.16588779502512E-02 
2263	 6.04980332435994E-02 
2264	 6.03407793740846E-02 
2265	 5.92498582913415E-02 
2266	 5.69005493492482E-02 
2267	 5.24252164530469E-02 
2268	 5.37469489808802E-02 
2269	 5.66735321882513E-02 
2270	 5.95365248758129E-02 
2271	 6.94585680420096E-02 
2272	 7.36588894806315E-02 
2273	 7.47075984523752E-02 
2274	 7.25308093032291E-02 
2275	 0.067064940251759 
2276	 6.35252653348193E-02 
2277	 5.28976722410773E-02 
2278	 5.06718564544262E-02 
2279	 5.67965364776605E-02 
2280	 5.87343117380786E-02 
2281	 6.19792841375735E-02 
2282	 6.61709243966463E-02 
2283	 6.55320842716262E-02 
2284	 6.43444351599574E-02 
2285	 6.32024232748842E-02 
2286	 6.10339745156138E-02 
2287	 5.67823079248644E-02 
2288	 5.12885207506999E-02 
2289	 5.25209144268597E-02 
2290	 5.99390424013784E-02 
2291	 6.72228229800621E-02 
2292	 6.77799332575092E-02 
2293	 6.28812646131057E-02 
2294	 0.059775535032442 
2295	 5.70474616690584E-02 
2296	 5.22814509109536E-02 
2297	 4.70578984652115E-02 
2298	 3.90437684804892E-02 
2299	 3.32883263321677E-02 
2300	 0.036592347854897 
2301	 0.043438418343589 
2302	 4.98709489256093E-02 
2303	 5.64674100828704E-02 
2304	 6.29624163403888E-02 
2305	 0.068939323988197 
2306	 7.22924633479206E-02 
2307	 7.38599494841488E-02 
2308	 7.92480481446071E-02 
2309	 7.62640259857891E-02 
2310	 6.21641178623929E-02 
2311	 5.26235625481595E-02 
2312	 3.97825210023152E-02 
2313	 0.031442733863669 
2314	 4.02119758276016E-02 
2315	 4.53995265154295E-02 
2316	 4.89100247401573E-02 
2317	 5.53032253113485E-02 
2318	 5.47088536539866E-02 
2319	 5.61507871857473E-02 
2320	 0.054883405983234 
2321	 5.36786083820678E-02 
2322	 5.22422717947223E-02 
2323	 4.15870470687472E-02 
2324	 4.24508480539696E-02 
2325	 4.27876657773457E-02 
2326	 3.90330020831991E-02 
2327	 4.80599679620561E-02 
2328	 4.84546485209213E-02 
2329	 4.31335595528594E-02 
2330	 4.61843506688589E-02 
2331	 3.64501512423869E-02 
2332	 2.65618440959056E-02 
2333	 4.06768616913464E-02 
2334	 5.00256735333627E-02 
2335	 5.93405474228997E-02 
2336	 7.84419938089625E-02 
2337	 7.66231645360523E-02 
2338	 6.48919077124402E-02 
2339	 6.66123055614826E-02 
2340	 6.66666628689487E-02 
2341	 5.63696827018681E-02 
2342	 5.93893286688565E-02 
2343	 0.062211964046531 
2344	 4.68524685559162E-02 
2345	 4.11248873986658E-02 
2346	 3.76872552594063E-02 
2347	 3.38471392953011E-02 
2348	 3.35904561276244E-02 
2349	 2.70521114480472E-02 
2350	 4.22947535461558E-02 
2351	 5.42406920807261E-02 
2352	 4.74529192249861E-02 
2353	 4.79252085342681E-02 
2354	 5.29082232448222E-02 
2355	 6.11905178436802E-02 
2356	 6.34207058753443E-02 
2357	 6.29815020618971E-02 
2358	 6.88613193411983E-02 
2359	 7.15668733437493E-02 
2360	 7.73005686785141E-02 
2361	 8.89294966335086E-02 
2362	 0.103035463719402 
2363	 0.10953701047951 
2364	 9.89397709927764E-02 
2365	 0.117167568022384 
2366	 0.122232018517184 
2367	 9.64735477039219E-02 
2368	 9.63586643783058E-02 
2369	 7.45136001049096E-02 
2370	 7.78080689971453E-02 
2371	 9.51589534869729E-02 
2372	 5.53048668283713E-02 
2373	 1.40234887388694E-02 
2374	-3.70578321235309E-02 
2375	-0.036589240368003 
2376	 3.28682257930039E-03 
2377	 3.26624303702246E-02 
2378	 4.58386402506485E-02 
2379	 0.044103940991503 
2380	 0.070556491238529 
2381	 9.84723780749965E-02 
2382	 9.60322846891164E-02 
2383	 6.99314116645112E-02 
2384	 4.82613223388701E-02 
2385	 1.91444838419514E-02 
2386	 1.99311351087614E-02 
2387	 5.59675488496597E-02 
2388	 5.86612086231794E-02 
2389	 2.81332194128498E-02 
2390	 8.03329978758728E-03 
2391	 3.72269975999935E-02 
2392	 8.53936882657897E-02 
2393	 0.153624170729128 
2394	 0.231748397890809 
2395	 0.209359745638469 
2396	 9.95076604931628E-02 
2397	 0.051962929383511 
2398	 8.49909443433617E-02 
2399	 0.160063941431857 
2400	 0.192662056732931 
2401	 0.138567381443604 
2402	 7.03300666460066E-02 
2403	-3.62041987862999E-02 
2404	-7.68202355471145E-02 
2405	-3.04605233527334E-02 
2406	 8.38820284877389E-03 
2407	 5.68409229608521E-02 
2408	 0.120011523736877 
2409	 0.164251983645167 
2410	 4.45144329702207E-02 
2411	-0.117688856806765 
2412	-2.49494053320583E-02 
2413	 6.03673948331676E-02 
2414	 0.137518508396227 
2415	 0.222438595712769 
2416	 8.99277609367569E-02 
2417	 0.049775180882873 
2418	 4.77287234357783E-02 
2419	 0.119136265193557 
2420	 0.348194835615898 
2421	 0.469561079862642 
2422	 0.381981409249795 
2423	 0.442917602497537 
2424	 0.413330929530763 
2425	 0.438160548774102 
2426	 0.703591039023362 
2427	 0.318380368693046 
2428	 0.179073189226555 
2429	 0.157113210578461 
2430	 0.137913678076154 
2431	 0.312444995199572 
2432	 0.316988197464571 
2433	-5.64823680453949E-03 
2434	-0.123428294326519 
2435	 4.78069842266352E-02 
2436	 0.131123692884762 
2437	 0.152948410793158 
2438	 0.434386079654339 
2439	 0.350260547691023 
2440	-5.56438819348977E-02 
2441	-5.40105563509524E-02 
2442	-0.108245059415778 
2443	-0.277204418634218 
2444	-0.100530324144691 
2445	 0.204706131071128 
2446	 0.256563312311546 
2447	 4.53339033191237E-02 
2448	-3.28562526323871E-03 
2449	-5.59977000716145E-02 
2450	 5.16972570080167E-02 
2451	 1.13988814415804 
2452	-13.738518526786 
2453	 1.12401758003485 
2454	 0.378519354121336 
2455	 0.175868121334279 
2456	-0.041011602269751 
2457	 2.41890718505664 
2458	-1.08631737461499 
2459	-1.22994274749526 
2460	-9.99961731795384 
2461	 17.1510724048286 
2462	 4.25390266271435 
2463	 0.406408373064747 
2464	 6.98564879517708E-02 
2465	-0.371443218912313 
2466	 0.166253321978955 
2467	 4.72943245750584 
2468	 17.9369659381804 
2469	 2.90299125212851 
2470	 4.34052538359063 
2471	 5.17782234920104 
2472	 3.35589708872042 
2473	-0.233713499837509 
2474	 4.84553256522867E-02 
2475	 1.41779530288028 
2476	 1.89587608057155 
2477	 1.55604611488851 
2478	-2.02514202879972 
2479	-0.669121545955538 
2480	-0.464129400119132 
2481	-0.362814434046166 
2482	-1.22477580143753 
2483	 1.49260285690659 
2484	-0.544136441345987 
2485	-1.9008381991116 
2486	-0.314261779226193 
2487	-0.41386931325342 
2488	-0.185690961220856 
2489	-1.29365140770705 
2490	-24.9081547537891 
2491	 1.27621672605052 
2492	 0.621340260348534 
2493	-1.14852557420063 
2494	-0.670803564043232 
2495	-0.121591008308592 
2496	-3.46852063020407E-02 
2497	 0.836871957854391 
2498	-2.08556956567843 
2499	 0.35509936694787 
2500	 0.470867420786581 
