Wavelength	rt0714yellow200007.asd
350	 0.085349168457948 
351	 8.46817320079768E-02 
352	 8.37789787421674E-02 
353	 8.39138569180334E-02 
354	 8.51568931532319E-02 
355	 8.49764360939447E-02 
356	 8.40394498240935E-02 
357	 8.36781772503177E-02 
358	 8.46163696624003E-02 
359	 8.40662012183464E-02 
360	 8.37998648546412E-02 
361	 8.38043686515193E-02 
362	 8.29828791172721E-02 
363	 8.33589337913776E-02 
364	 0.08376742018386 
365	 8.35709892740681E-02 
366	 8.35192133588168E-02 
367	 8.33087010021774E-02 
368	 8.30548920462793E-02 
369	 8.30081844465744E-02 
370	 8.36069172804038E-02 
371	 8.36897308982985E-02 
372	 8.31987244678205E-02 
373	 8.27979841080559E-02 
374	 8.28668813027785E-02 
375	 8.34518483240172E-02 
376	 8.41618591368433E-02 
377	 8.41337291934721E-02 
378	 8.34361972056849E-02 
379	 8.30842291575336E-02 
380	 8.37607422674164E-02 
381	 8.45405113919122E-02 
382	 8.45558492025107E-02 
383	 8.42732173484325E-02 
384	 8.46951140382959E-02 
385	 0.08536434099208 
386	 8.53963450850095E-02 
387	 8.48745499715291E-02 
388	 8.49556554384621E-02 
389	 8.58134439056064E-02 
390	 8.65717277074373E-02 
391	 8.66760877065734E-02 
392	 8.68259921848654E-02 
393	 8.69903294526112E-02 
394	 8.71467827489248E-02 
395	 8.72590869520392E-02 
396	 8.72471119395516E-02 
397	 8.75531872517185E-02 
398	 8.79052019529176E-02 
399	 8.74929888304759E-02 
400	 8.73626153159216E-02 
401	 8.76280755168027E-02 
402	 8.81194802355607E-02 
403	 8.84660501578161E-02 
404	 8.84848743079348E-02 
405	 8.84823471570084E-02 
406	 8.88153848549167E-02 
407	 8.89363971987695E-02 
408	 8.89560915554045E-02 
409	 8.91269470281129E-02 
410	 8.97378668322825E-02 
411	 0.089682585548267 
412	 8.95224744501556E-02 
413	 8.98035293540004E-02 
414	 9.03261507728445E-02 
415	 9.07096796619626E-02 
416	 9.08929914625341E-02 
417	 0.09100333161642 
418	 9.13023335527789E-02 
419	 9.16011562276537E-02 
420	 9.18757066741681E-02 
421	 9.23053357821536E-02 
422	 0.092551792741909 
423	 9.28057592683872E-02 
424	 0.09323688649087 
425	 9.36541013804695E-02 
426	 9.39847602827286E-02 
427	 9.43950598349727E-02 
428	 9.50754666803281E-02 
429	 9.54918295166717E-02 
430	 0.095987404043181 
431	 9.65832626895329E-02 
432	 9.68417479165255E-02 
433	 9.72926518216129E-02 
434	 9.78351853950617E-02 
435	 9.82932337011505E-02 
436	 9.86856507313306E-02 
437	 9.92568741651458E-02 
438	 9.99004840631841E-02 
439	 0.100356778969364 
440	 0.100924134347897 
441	 0.101377433101429 
442	 0.10168497626905 
443	 0.102178874137294 
444	 0.102580905481944 
445	 0.102849089843388 
446	 0.103084089536352 
447	 0.103690882128274 
448	 0.104107390861481 
449	 0.104302249265973 
450	 0.104636310484049 
451	 0.104938058270788 
452	 0.105197418296355 
453	 0.105459923655887 
454	 0.105861264400529 
455	 0.106032469196799 
456	 0.106160369405896 
457	 0.106516613305439 
458	 0.106646425465653 
459	 0.106738877035257 
460	 0.106919385367608 
461	 0.10720052651299 
462	 0.107245527375487 
463	 0.107319364303117 
464	 0.107632099902382 
465	 0.107913889523411 
466	 0.108130469131407 
467	 0.108256404753333 
468	 0.108319734961454 
469	 0.108602489444957 
470	 0.108759576290987 
471	 0.108752320073282 
472	 0.10902140523517 
473	 0.109214584712803 
474	 0.109413441191125 
475	 0.109738634090147 
476	 0.110043460008456 
477	 0.110383836431827 
478	 0.11068186143665 
479	 0.110803794255536 
480	 0.111036992100757 
481	 0.11132909121527 
482	 0.111652557140706 
483	 0.112147692194042 
484	 0.112453250066496 
485	 0.112739032333673 
486	 0.113269369919306 
487	 0.113664312274651 
488	 0.113918768700721 
489	 0.114203164524106 
490	 0.114809187398007 
491	 0.115408633694402 
492	 0.115912951226927 
493	 0.11631004825592 
494	 0.116638199080174 
495	 0.11707305793405 
496	 0.117611350440607 
497	 0.118150705230403 
498	 0.118651873387194 
499	 0.119124759723748 
500	 0.119608879353003 
501	 0.120177180066756 
502	 0.120762280412621 
503	 0.121341619296236 
504	 0.121908673087618 
505	 0.122449819354221 
506	 0.123043939277992 
507	 0.12368326827429 
508	 0.124292010518635 
509	 0.12489056136588 
510	 0.125552845101447 
511	 0.126279532015549 
512	 0.126889241224864 
513	 0.127461759513167 
514	 0.128048107008559 
515	 0.128693425608706 
516	 0.129467531517967 
517	 0.130294693047393 
518	 0.131085239165496 
519	 0.131761179796609 
520	 0.132337729186984 
521	 0.1329164792525 
522	 0.133588460748676 
523	 0.134342677873123 
524	 0.135065976928239 
525	 0.135742795287276 
526	 0.136437717499458 
527	 0.137222894960549 
528	 0.137974448885639 
529	 0.138620324644722 
530	 0.13922673774321 
531	 0.139970265064057 
532	 0.140739102547767 
533	 0.141368329221401 
534	 0.142143674825219 
535	 0.142857339961999 
536	 0.14344246815883 
537	 0.144020718297572 
538	 0.144763060830626 
539	 0.14553049919768 
540	 0.146169506500129 
541	 0.146741464727366 
542	 0.147407112827252 
543	 0.148142802499483 
544	 0.14881235963897 
545	 0.149391844563178 
546	 0.150003028858661 
547	 0.150688124232231 
548	 0.151304687865052 
549	 0.151888469069421 
550	 0.152513447257827 
551	 0.153212367932178 
552	 0.153674753485473 
553	 0.154184029067316 
554	 0.154826621869929 
555	 0.155425644875312 
556	 0.15596221880584 
557	 0.156497559250497 
558	 0.157065988576977 
559	 0.157571878710598 
560	 0.157914761037388 
561	 0.158209622036478 
562	 0.158678500523075 
563	 0.159098570301164 
564	 0.159484786067533 
565	 0.159853812999518 
566	 0.160163262100979 
567	 0.160493897491569 
568	 0.160777656403696 
569	 0.160943287217792 
570	 0.161226951628002 
571	 0.161555584550003 
572	 0.161836262840844 
573	 0.1619812789999 
574	 0.162090085743808 
575	 0.162212417471216 
576	 0.16237759410265 
577	 0.162603796368326 
578	 0.162760990365546 
579	 0.162876339099054 
580	 0.163051991185068 
581	 0.163061836421257 
582	 0.16307955407782 
583	 0.163189223755363 
584	 0.163238910860083 
585	 0.163060322891076 
586	 0.162704510749894 
587	 0.162322182457949 
588	 0.162053687820517 
589	 0.161883902606604 
590	 0.161784477569341 
591	 0.161716891884696 
592	 0.161596566371937 
593	 0.161379848177791 
594	 0.161085444974778 
595	 0.160877036203938 
596	 0.160562067906571 
597	 0.160124139700074 
598	 0.159661537473237 
599	 0.159255353213325 
600	 0.158997450409524 
601	 0.158872495539004 
602	 0.158692739310665 
603	 0.158465977277163 
604	 0.158283471223904 
605	 0.15821213415918 
606	 0.157999090219669 
607	 0.157899399097327 
608	 0.157926694316082 
609	 0.157830920323311 
610	 0.157808366118188 
611	 0.157861574580409 
612	 0.157920265112441 
613	 0.157821569189616 
614	 0.157703470431159 
615	 0.15762361981401 
616	 0.157579507012402 
617	 0.157441651485197 
618	 0.157417281582605 
619	 0.157491496293355 
620	 0.157223443257872 
621	 0.157178332691267 
622	 0.157270710894745 
623	 0.157227953458707 
624	 0.156988301718626 
625	 0.156759307743059 
626	 0.156699474024227 
627	 0.156878322598341 
628	 0.156800423639544 
629	 0.156647958410832 
630	 0.156647273901667 
631	 0.156794601512309 
632	 0.156757667311663 
633	 0.156598963690817 
634	 0.156556447898064 
635	 0.15655128813094 
636	 0.15645799266528 
637	 0.156327562583776 
638	 0.156475289460604 
639	 0.156318067372389 
640	 0.156110393399166 
641	 0.156163425182518 
642	 0.155957334268845 
643	 0.15560501053709 
644	 0.155264702741298 
645	 0.155099601742349 
646	 0.154732061287885 
647	 0.15449096258517 
648	 0.154547492970015 
649	 0.154424734865126 
650	 0.154170968519474 
651	 0.153900651938241 
652	 0.153719782340835 
653	 0.153339388369351 
654	 0.152939206248743 
655	 0.152544730445968 
656	 0.151986137466469 
657	 0.151716695018281 
658	 0.151482103964491 
659	 0.151052913649975 
660	 0.15075009986484 
661	 0.150398806540365 
662	 0.1500070697198 
663	 0.149696873192124 
664	 0.149422799910488 
665	 0.149238422742571 
666	 0.149115832946433 
667	 0.148859394543171 
668	 0.14876080169617 
669	 0.148693148129866 
670	 0.148483018178079 
671	 0.148477717583642 
672	 0.148357294200746 
673	 0.148151945575784 
674	 0.148221258634625 
675	 0.148228534632413 
676	 0.148292430145597 
677	 0.148478469637453 
678	 0.148501286087954 
679	 0.148507471823752 
680	 0.148649339831865 
681	 0.148994338246917 
682	 0.148977459508733 
683	 0.149124551601811 
684	 0.14948288175968 
685	 0.149345899664608 
686	 0.149226043740616 
687	 0.14934533870544 
688	 0.149706371064157 
689	 0.150101692733209 
690	 0.150143918432298 
691	 0.14999635845091 
692	 0.150108310298929 
693	 0.150074558298461 
694	 0.150224813127086 
695	 0.150551526641814 
696	 0.150408181733372 
697	 0.150202002021939 
698	 0.149987803019481 
699	 0.149726368123675 
700	 0.149334015782742 
701	 0.148991989991283 
702	 0.148777018617816 
703	 0.148628722384683 
704	 0.148150519856432 
705	 0.147543766150268 
706	 0.146968286731881 
707	 0.1462291849964 
708	 0.145549657579801 
709	 0.144838136463873 
710	 0.143943401667004 
711	 0.143110272034817 
712	 0.142112438338807 
713	 0.140833699548983 
714	 0.139272491930728 
715	 0.137695692308263 
716	 0.136186810394978 
717	 0.134791588267454 
718	 0.132873795976585 
719	 0.131518296481705 
720	 0.130629785124048 
721	 0.129490558210138 
722	 0.128245355485048 
723	 0.126642058898847 
724	 0.124894112246303 
725	 0.12344013140463 
726	 0.121784883090361 
727	 0.120033367717367 
728	 0.118323413197901 
729	 0.116379014028805 
730	 0.114462384121037 
731	 0.112896304501557 
732	 0.111755585795991 
733	 0.110320612332187 
734	 0.108940246974404 
735	 0.107848385020348 
736	 0.107023577488569 
737	 0.106375131886568 
738	 0.105950883053832 
739	 0.105740112660024 
740	 0.105401249171879 
741	 0.105306236660694 
742	 0.105348147771769 
743	 0.105218178218964 
744	 0.10524029387061 
745	 0.105178361280535 
746	 0.104998598066178 
747	 0.105004670123373 
748	 0.105038720515628 
749	 0.104991370011892 
750	 0.104823170522003 
751	 0.104661157678193 
752	 0.104637261658351 
753	 0.104713997912816 
754	 0.10475415902469 
755	 0.104715023684603 
756	 0.104599284471034 
757	 0.104451188953259 
758	 0.104353968956755 
759	 0.103701945668353 
760	 0.102861412714356 
761	 0.103053268080192 
762	 0.103191355126506 
763	 0.103547515689661 
764	 0.103854802983913 
765	 0.103906080024343 
766	 0.104193170566582 
767	 0.104627802723213 
768	 0.105012584864355 
769	 0.10503960271732 
770	 0.105101676623527 
771	 0.105220939801653 
772	 0.105378312883777 
773	 0.105691694927336 
774	 0.105755640377126 
775	 0.105743684551 
776	 0.106024134629823 
777	 0.106426462253708 
778	 0.106696293852593 
779	 0.106856181490037 
780	 0.107192540209346 
781	 0.107308036951857 
782	 0.107391507979657 
783	 0.107610509908479 
784	 0.107848044098048 
785	 0.108026313204001 
786	 0.108256332447647 
787	 0.108640037004903 
788	 0.108824329941837 
789	 0.109189532096176 
790	 0.109651092572511 
791	 0.10980256986874 
792	 0.11030847013358 
793	 0.110771675549325 
794	 0.110945738492569 
795	 0.111047523683588 
796	 0.111523276496967 
797	 0.111901009027452 
798	 0.11182736963868 
799	 0.112235509398459 
800	 0.112734202436936 
801	 0.113043910535442 
802	 0.113038754283373 
803	 0.113096430343074 
804	 0.113227282246181 
805	 0.113389399218523 
806	 0.113520677641563 
807	 0.113419041136733 
808	 0.113138441029601 
809	 0.112829615533024 
810	 0.112758246304088 
811	 0.112406415880861 
812	 0.111828820304765 
813	 0.111334043956348 
814	 0.11104197119393 
815	 0.11058015932439 
816	 0.110042847836376 
817	 0.109850742315122 
818	 0.109640883015791 
819	 0.109337146750153 
820	 0.10870620613036 
821	 0.107252143368949 
822	 0.106310974118461 
823	 0.105776404780292 
824	 0.105029878624798 
825	 0.103266054468141 
826	 0.101770631758349 
827	 0.100400021331354 
828	 9.87359534554806E-02 
829	 9.76402111319444E-02 
830	 9.66069008267007E-02 
831	 9.55950975144632E-02 
832	 9.49242765805155E-02 
833	 9.40727235835189E-02 
834	 9.34593128450262E-02 
835	 9.30912400134044E-02 
836	 9.23383057882261E-02 
837	 9.22425008385474E-02 
838	 9.22433033167891E-02 
839	 9.18311093441133E-02 
840	 9.15415919661374E-02 
841	 9.12717857335735E-02 
842	 9.09572630060092E-02 
843	 9.06062984307067E-02 
844	 9.05346529882659E-02 
845	 9.04758879898502E-02 
846	 9.02350648486789E-02 
847	 8.97797561634247E-02 
848	 8.98633674123995E-02 
849	 8.98355100801009E-02 
850	 8.93801084387756E-02 
851	 8.88344626346003E-02 
852	 8.85763095626863E-02 
853	 8.84739717034627E-02 
854	 8.83020843915216E-02 
855	 8.78983704123102E-02 
856	 8.79758445704461E-02 
857	 8.80424768800906E-02 
858	 8.76055494814583E-02 
859	 8.74344794160146E-02 
860	 8.71016576492793E-02 
861	 0.086828565433059 
862	 8.69875811086633E-02 
863	 8.67760287881068E-02 
864	 8.65502006233464E-02 
865	 8.64244014153985E-02 
866	 8.62081022143154E-02 
867	 8.56423170018803E-02 
868	 8.55720784071736E-02 
869	 8.59843674504294E-02 
870	 8.56417829474187E-02 
871	 8.53234931457574E-02 
872	 8.49251933832062E-02 
873	 8.43791509368075E-02 
874	 8.40774344119802E-02 
875	 8.39700711840583E-02 
876	 8.39776426617298E-02 
877	 8.39128135686415E-02 
878	 8.33077907442852E-02 
879	 8.25891413676972E-02 
880	 8.22240516603026E-02 
881	 8.24480321665847E-02 
882	 0.082357616420672 
883	 8.20129797344197E-02 
884	 8.17458181634295E-02 
885	 8.18959932106937E-02 
886	 8.13933270864272E-02 
887	 8.11632939020017E-02 
888	 8.13152945141161E-02 
889	 8.08691633511614E-02 
890	 8.06404111004536E-02 
891	 8.03579346265876E-02 
892	 7.98577961336717E-02 
893	 7.95297928131683E-02 
894	 7.92975918644988E-02 
895	 7.93150349845481E-02 
896	 0.079316163623283 
897	 0.077629851452897 
898	 7.69134361427838E-02 
899	 7.75332787335564E-02 
900	 7.82856685452411E-02 
901	 7.63654428916545E-02 
902	 7.64173976887283E-02 
903	 7.74952356460763E-02 
904	 7.70886882971289E-02 
905	 7.67066665709213E-02 
906	 7.58133389353598E-02 
907	 7.52552240704195E-02 
908	 7.63472641948265E-02 
909	 7.58594986613989E-02 
910	 0.075120962579765 
911	 7.44555154099933E-02 
912	 7.31696409743413E-02 
913	 7.37764527714707E-02 
914	 7.41178656808305E-02 
915	 7.35889257900602E-02 
916	 7.38551937262831E-02 
917	 0.073317171274749 
918	 7.24358429750878E-02 
919	 7.15118829926528E-02 
920	 7.02788148297988E-02 
921	 0.071010814238737 
922	 7.22239395465811E-02 
923	 7.21685582731415E-02 
924	 7.01072725084803E-02 
925	 6.98713633925382E-02 
926	 7.04207653931013E-02 
927	 6.99966598885069E-02 
928	 7.05395026898687E-02 
929	 6.97219407780451E-02 
930	 6.86861264280931E-02 
931	 6.95230601037682E-02 
932	 6.57014051800467E-02 
933	 6.26550278278639E-02 
934	 0.064399671054845 
935	 0.069195578185985 
936	 6.57553797669683E-02 
937	 6.64754647025822E-02 
938	 6.76399580083107E-02 
939	 6.39478326081419E-02 
940	 0.06470816424001 
941	 6.53523240269866E-02 
942	 6.41051443591467E-02 
943	 6.21883467655564E-02 
944	 6.88561792729094E-02 
945	 6.75578380987238E-02 
946	 6.30282695111845E-02 
947	 6.80123947064261E-02 
948	 0.055287758479023 
949	 5.29530404245646E-02 
950	 6.23142011978384E-02 
951	 6.59913029175881E-02 
952	 5.97184251977917E-02 
953	 5.97537134715669E-02 
954	 6.44733451833037E-02 
955	 6.14531563390539E-02 
956	 6.33276097560726E-02 
957	 6.55663646257336E-02 
958	 6.52361391933622E-02 
959	 6.26211588286344E-02 
960	 6.32648740895847E-02 
961	 6.30796860763704E-02 
962	 6.13762008855369E-02 
963	 6.06017885504495E-02 
964	 6.18796581352181E-02 
965	 6.34029241045795E-02 
966	 6.36558954128295E-02 
967	 0.06228218581671 
968	 6.36865522580125E-02 
969	 6.44575679405379E-02 
970	 6.37604240169093E-02 
971	 6.36481836437013E-02 
972	 6.55875692271962E-02 
973	 6.48555939723629E-02 
974	 6.16518946111769E-02 
975	 6.12682371235941E-02 
976	 6.25603027050181E-02 
977	 6.39754201721471E-02 
978	 6.45360782930761E-02 
979	 0.064160760162272 
980	 6.38469502362944E-02 
981	 6.43710786531828E-02 
982	 6.38927855911022E-02 
983	 6.00962802424935E-02 
984	 6.24721600844318E-02 
985	 6.46159910097245E-02 
986	 6.40087606002089E-02 
987	 6.30864000653928E-02 
988	 6.61271448754378E-02 
989	 6.80662462195921E-02 
990	 6.72070291402261E-02 
991	 6.52854048489434E-02 
992	 6.30653049598216E-02 
993	 6.37294803733776E-02 
994	 6.53154684400919E-02 
995	 6.32183270800789E-02 
996	 6.02208318464195E-02 
997	 6.13505028854101E-02 
998	 6.56739380412867E-02 
999	 6.80571038862932E-02 
1000	 6.49262615675452E-02 
1001	 6.79297139644653E-02 
1002	 6.79062632505463E-02 
1003	 6.76715300127928E-02 
1004	 6.68042939181393E-02 
1005	 6.63269413961376E-02 
1006	 6.57599004815469E-02 
1007	 6.58124246442858E-02 
1008	 6.55428404424505E-02 
1009	 6.54814502753582E-02 
1010	 6.57522084587221E-02 
1011	 0.065971090090431 
1012	 6.61252274442897E-02 
1013	 6.58813283221647E-02 
1014	 6.59069702750973E-02 
1015	 6.56904201761512E-02 
1016	 6.57203789822878E-02 
1017	 6.60673999680323E-02 
1018	 0.066325882212456 
1019	 6.68335258137593E-02 
1020	 6.70266023268899E-02 
1021	 6.69476032015184E-02 
1022	 6.71866521858443E-02 
1023	 6.70526826835207E-02 
1024	 6.63178550997271E-02 
1025	 6.62854505654656E-02 
1026	 6.63029517611674E-02 
1027	 6.61365901983528E-02 
1028	 6.59756640157177E-02 
1029	 6.61721377313578E-02 
1030	 6.63418872048222E-02 
1031	 6.64810286809974E-02 
1032	 0.067168534450196 
1033	 6.71916228898786E-02 
1034	 6.67206031793686E-02 
1035	 6.64445505803151E-02 
1036	 6.58037409953243E-02 
1037	 6.56380614011831E-02 
1038	 6.58605135742589E-02 
1039	 6.57580342711113E-02 
1040	 6.58032653495759E-02 
1041	 6.64579663480824E-02 
1042	 0.06672145954656 
1043	 6.69909395140954E-02 
1044	 6.70492838242891E-02 
1045	 6.68415737483671E-02 
1046	 6.69224759245764E-02 
1047	 6.69947135538127E-02 
1048	 6.70606740224476E-02 
1049	 6.74989780831389E-02 
1050	 6.75439852356543E-02 
1051	 6.70998530438457E-02 
1052	 6.70401230215913E-02 
1053	 6.68774022513972E-02 
1054	 0.067003794377871 
1055	 6.80655624319018E-02 
1056	 6.82235866347639E-02 
1057	 6.80471256989591E-02 
1058	 6.74501843686152E-02 
1059	 6.73584782140358E-02 
1060	 6.67735327290929E-02 
1061	 0.066761984104963 
1062	 6.76903397456959E-02 
1063	 6.77775812619989E-02 
1064	 6.72758946184262E-02 
1065	 0.067281274642299 
1066	 6.73925042003352E-02 
1067	 6.74004899996588E-02 
1068	 6.78225261815875E-02 
1069	 6.78013086966345E-02 
1070	 6.70132971069298E-02 
1071	 6.68441519173248E-02 
1072	 6.71120732935667E-02 
1073	 6.69371139064298E-02 
1074	 6.69949324622939E-02 
1075	 0.067572098444305 
1076	 6.74773914841241E-02 
1077	 6.66707271495938E-02 
1078	 6.67225529796195E-02 
1079	 6.73131062196797E-02 
1080	 6.71395397101431E-02 
1081	 6.70399161928778E-02 
1082	 6.68601075836935E-02 
1083	 6.53497652407646E-02 
1084	 0.065199184340081 
1085	 6.68869266866313E-02 
1086	 6.69490355944481E-02 
1087	 6.62889348759255E-02 
1088	 6.63288149404194E-02 
1089	 6.61953928981059E-02 
1090	 6.51175013947787E-02 
1091	 6.50378421151883E-02 
1092	 6.61905804910129E-02 
1093	 6.62087309180251E-02 
1094	 6.57936914865421E-02 
1095	 6.54493560861804E-02 
1096	 6.46897817602322E-02 
1097	 6.43390208141082E-02 
1098	 6.39768263576176E-02 
1099	 6.36971239676931E-02 
1100	 6.39233017461059E-02 
1101	 6.39829191305024E-02 
1102	 6.38345290336227E-02 
1103	 6.37524140240766E-02 
1104	 6.41144196728567E-02 
1105	 6.34902890995998E-02 
1106	 6.29918786112994E-02 
1107	 6.31913824071516E-02 
1108	 6.31451551699419E-02 
1109	 6.35932026562926E-02 
1110	 6.33673126566773E-02 
1111	 0.062792988551102 
1112	 6.23541194586234E-02 
1113	 6.10403052630615E-02 
1114	 6.02868633781124E-02 
1115	 5.98128568094125E-02 
1116	 5.99030489636612E-02 
1117	 6.23144993303667E-02 
1118	 6.24781582646298E-02 
1119	 6.08580297241062E-02 
1120	 5.98646229824708E-02 
1121	 5.69230532612426E-02 
1122	 5.20101101338512E-02 
1123	 0.050364465215397 
1124	 5.56252402406916E-02 
1125	 6.12264223681928E-02 
1126	 6.05768125488316E-02 
1127	 6.01094663222857E-02 
1128	 6.17476431134104E-02 
1129	 6.06930061805079E-02 
1130	 5.64680446487447E-02 
1131	 5.76470512114941E-02 
1132	 0.060847876841282 
1133	 5.98504205332636E-02 
1134	 5.95749238914193E-02 
1135	 5.90663142662395E-02 
1136	 5.44953841100971E-02 
1137	 5.48179342884076E-02 
1138	 5.97881007321391E-02 
1139	 5.96518674851809E-02 
1140	 5.78768880763592E-02 
1141	 0.059221883944731 
1142	 5.76750751412641E-02 
1143	 5.60984092507326E-02 
1144	 5.86127434921411E-02 
1145	 6.06525353720042E-02 
1146	 6.12123837177556E-02 
1147	 5.98586990290551E-02 
1148	 5.84970933402129E-02 
1149	 5.72906718433839E-02 
1150	 5.68884063429162E-02 
1151	 5.82235556208195E-02 
1152	 5.89488234766431E-02 
1153	 5.84880684118446E-02 
1154	 5.87972794743866E-02 
1155	 5.99391897720084E-02 
1156	 5.93786288537677E-02 
1157	 5.84484955710655E-02 
1158	 5.98014199258122E-02 
1159	 5.98658177918429E-02 
1160	 5.91344584756572E-02 
1161	 0.059549566842373 
1162	 5.96819151604167E-02 
1163	 5.96774172529182E-02 
1164	 6.03486954598903E-02 
1165	 6.02722271158065E-02 
1166	 5.99392874413006E-02 
1167	 6.00242156955746E-02 
1168	 6.01281899292046E-02 
1169	 6.03324511863442E-02 
1170	 6.03434630153525E-02 
1171	 0.060317348648528 
1172	 5.99710890666323E-02 
1173	 5.98122253088151E-02 
1174	 5.96370734727969E-02 
1175	 5.97809331984612E-02 
1176	 5.97664704486005E-02 
1177	 5.94927985683526E-02 
1178	 5.98411786415319E-02 
1179	 5.99662832810944E-02 
1180	 5.95848754546407E-02 
1181	 5.95866314181573E-02 
1182	 5.97862434837607E-02 
1183	 6.03659608566158E-02 
1184	 6.09067452486726E-02 
1185	 6.07200412162631E-02 
1186	 6.02182505103397E-02 
1187	 5.96757309263292E-02 
1188	 5.94801694718742E-02 
1189	 5.93627781409542E-02 
1190	 5.93409221611469E-02 
1191	 5.94508768747114E-02 
1192	 0.059494990348755 
1193	 5.94496189872127E-02 
1194	 6.01225961390428E-02 
1195	 6.04030463659582E-02 
1196	 5.99361518854438E-02 
1197	 6.00899896282188E-02 
1198	 6.02563134631726E-02 
1199	 6.01978610472868E-02 
1200	 6.06478415332657E-02 
1201	 6.08162330027239E-02 
1202	 6.03946177883703E-02 
1203	 6.05108195639757E-02 
1204	 6.05882373237975E-02 
1205	 6.00976093161944E-02 
1206	 5.99243997417371E-02 
1207	 5.97707738617102E-02 
1208	 5.99152736524087E-02 
1209	 6.04132280030364E-02 
1210	 6.01809466267651E-02 
1211	 5.98671778123909E-02 
1212	 5.99551382255743E-02 
1213	 5.98475584897448E-02 
1214	 5.97568585579751E-02 
1215	 6.00189075507465E-02 
1216	 6.04754470676697E-02 
1217	 6.03312986647688E-02 
1218	 6.00466215873152E-02 
1219	 6.02309592002896E-02 
1220	 6.01249721460005E-02 
1221	 0.059868316641976 
1222	 6.01703320469328E-02 
1223	 6.03505234536967E-02 
1224	 6.02867941865484E-02 
1225	 6.04394939581564E-02 
1226	 0.060397371146202 
1227	 6.01464761826209E-02 
1228	 6.03552459066195E-02 
1229	 6.05861838439306E-02 
1230	 6.03657383923446E-02 
1231	 6.03550282150339E-02 
1232	 6.04158659037077E-02 
1233	 6.01337468490366E-02 
1234	 5.99269581290318E-02 
1235	 5.99204618504571E-02 
1236	 0.060044805117141 
1237	 6.00751211578901E-02 
1238	 6.02630806631489E-02 
1239	 6.03359395157652E-02 
1240	 6.00855469892517E-02 
1241	 5.99167367452343E-02 
1242	 5.98870539590343E-02 
1243	 5.98382243147614E-02 
1244	 6.00289486710211E-02 
1245	 0.060398893004915 
1246	 6.07148285285051E-02 
1247	 0.060732318347503 
1248	 0.060456248106739 
1249	 6.02262965460405E-02 
1250	 6.00438506471755E-02 
1251	 6.01091185452615E-02 
1252	 6.03318381388568E-02 
1253	 6.05083106369631E-02 
1254	 6.05958881735591E-02 
1255	 6.02930713293208E-02 
1256	 6.01961481133368E-02 
1257	 6.04536171229507E-02 
1258	 6.03177631351021E-02 
1259	 5.97481832988409E-02 
1260	 5.96105788580119E-02 
1261	 5.95315938328628E-02 
1262	 5.93912516530045E-02 
1263	 5.93208844210705E-02 
1264	 5.95899989718426E-02 
1265	 5.93192843929065E-02 
1266	 5.90677859272287E-02 
1267	 5.93922633417854E-02 
1268	 5.93928306203182E-02 
1269	 5.92461655652212E-02 
1270	 5.94609117480258E-02 
1271	 5.94426927707098E-02 
1272	 5.93375016459877E-02 
1273	 5.94999758851663E-02 
1274	 5.96631478927711E-02 
1275	 5.95650860950095E-02 
1276	 5.92413909713976E-02 
1277	 0.059268254055373 
1278	 5.93925932768125E-02 
1279	 0.059329623213759 
1280	 5.94272434572637E-02 
1281	 5.94621423265099E-02 
1282	 5.94815979487313E-02 
1283	 5.95062781433199E-02 
1284	 5.95595602476281E-02 
1285	 0.059588712093771 
1286	 5.96714797133426E-02 
1287	 5.96754831609824E-02 
1288	 5.94870759348092E-02 
1289	 5.93315392013862E-02 
1290	 5.91600331997456E-02 
1291	 5.91448771786889E-02 
1292	 5.88926867101509E-02 
1293	 5.90337979874721E-02 
1294	 5.93302103322661E-02 
1295	 5.91806864773324E-02 
1296	 5.92406368378325E-02 
1297	 0.059495142115727 
1298	 0.059046339303832 
1299	 5.85586288805911E-02 
1300	 5.82832634799805E-02 
1301	 5.77664632077171E-02 
1302	 5.75325966922078E-02 
1303	 5.77765995849014E-02 
1304	 5.81691535491533E-02 
1305	 5.84009580667133E-02 
1306	 0.058276047819524 
1307	 5.78407432388294E-02 
1308	 0.057852606574253 
1309	 5.77587257003493E-02 
1310	 5.76704202662181E-02 
1311	 5.81080380871302E-02 
1312	 0.058136404574221 
1313	 5.75084328944076E-02 
1314	 5.72389920860987E-02 
1315	 5.72830038948731E-02 
1316	 5.72763461607928E-02 
1317	 5.70948638947667E-02 
1318	 5.72593938461863E-02 
1319	 0.058342881170989 
1320	 5.81316968122512E-02 
1321	 5.73325092569643E-02 
1322	 5.61718699792349E-02 
1323	 0.055523123240297 
1324	 5.49495762624551E-02 
1325	 5.49928564887503E-02 
1326	 5.62421278244789E-02 
1327	 5.63736524710258E-02 
1328	 5.57366523781951E-02 
1329	 5.60941336160692E-02 
1330	 5.66556534485851E-02 
1331	 5.60871696225641E-02 
1332	 5.51350640896882E-02 
1333	 5.54359864882593E-02 
1334	 5.58159665034907E-02 
1335	 5.58500430157156E-02 
1336	 5.65088228489398E-02 
1337	 5.66941107268876E-02 
1338	 5.61614546911595E-02 
1339	 0.055857586677805 
1340	 5.50727800419723E-02 
1341	 5.53218249282553E-02 
1342	 5.71818561801503E-02 
1343	 5.72538022411859E-02 
1344	 5.57720209950108E-02 
1345	 5.67268542274924E-02 
1346	 5.89282602222486E-02 
1347	 5.83876250291801E-02 
1348	 5.89901206595786E-02 
1349	 6.25749820308724E-02 
1350	 6.10920711489911E-02 
1351	 6.01941969568228E-02 
1352	 7.53246357614313E-02 
1353	 9.06100476546953E-02 
1354	 0.103491952674371 
1355	 0.10172999660129 
1356	 0.110325370648264 
1357	 0.107081300661597 
1358	 7.08853577101175E-02 
1359	 3.17483269678821E-02 
1360	 0.137585837477918 
1361	 0.120823905106052 
1362	 3.23473362512284E-02 
1363	 0.160622327164111 
1364	 0.113366134417992 
1365	 7.53442806468865E-02 
1366	 0.278962337847463 
1367	 0.41270735037008 
1368	 0.190716160129973 
1369	-0.296551188239161 
1370	-0.335567346954018 
1371	-0.165375084534514 
1372	-0.265102645698984 
1373	-0.354938001913733 
1374	-0.272677755518302 
1375	-0.363015313129998 
1376	-0.319206175339401 
1377	 0.198895082851047 
1378	 0.479830787055301 
1379	 0.151029906203499 
1380	 6.58801852912117E-02 
1381	 0.10991875338492 
1382	 0.199924883497903 
1383	-2.87236601949101E-02 
1384	 0.012584459409962 
1385	 0.807260157276155 
1386	 1.02288615957713 
1387	 0.613106232206253 
1388	 0.485570254984479 
1389	 0.276962973251109 
1390	 0.26484967784557 
1391	 0.688597576611735 
1392	 0.282887817250563 
1393	-2.45373156958669E-02 
1394	 0.154750597873816 
1395	 0.211403253594193 
1396	 4.60786112449143E-02 
1397	 0.209366498949186 
1398	 0.585630026417815 
1399	 1.11045749564837 
1400	 1.75812189167898 
1401	 3.50825145428873 
1402	 16.1734953604743 
1403	 0.657178261922541 
1404	 0.270326559796877 
1405	 0.183055101038828 
1406	 8.15432830935216E-02 
1407	 8.83834140447633E-02 
1408	 0.144574645824993 
1409	 0.262283633695885 
1410	 0.575028066940676 
1411	 0.511872777033724 
1412	 0.32878252474452 
1413	 0.314522832949125 
1414	 0.282454693313194 
1415	 0.195569629795801 
1416	 0.108477313064827 
1417	 0.120871152532883 
1418	 0.122760832202092 
1419	 8.16221758926285E-02 
1420	 0.085033340178729 
1421	 9.05830137384229E-02 
1422	 4.90051004250014E-02 
1423	 3.91557651269709E-02 
1424	 7.36089263312822E-02 
1425	 8.34547397107364E-02 
1426	 7.56522215244114E-02 
1427	 6.97792017385088E-02 
1428	 7.39041803671664E-02 
1429	 6.50397626502356E-02 
1430	 3.75838399584675E-02 
1431	 0.029607209515213 
1432	 2.09485024669796E-02 
1433	 2.13322243352833E-02 
1434	 4.42816440450064E-02 
1435	 4.54115989123078E-02 
1436	 2.78192732155559E-02 
1437	 3.81365678775008E-02 
1438	 3.84058340843473E-02 
1439	 3.54462044648654E-02 
1440	 5.84408955650167E-02 
1441	 6.38194744833398E-02 
1442	 5.18283391439701E-02 
1443	 5.22252257317393E-02 
1444	 4.68620242866594E-02 
1445	 3.36380531402723E-02 
1446	 3.63825190317446E-02 
1447	 4.66122194999107E-02 
1448	 4.83050294844194E-02 
1449	 4.99877537081962E-02 
1450	 5.13077578944569E-02 
1451	 4.67080555604373E-02 
1452	 4.33274232781074E-02 
1453	 4.33051515546416E-02 
1454	 4.30697462604695E-02 
1455	 4.21661369586731E-02 
1456	 4.11859212451246E-02 
1457	 4.09947810160325E-02 
1458	 4.18381465674327E-02 
1459	 4.20703874251359E-02 
1460	 0.042717759120149 
1461	 4.54660400865257E-02 
1462	 4.56719989892135E-02 
1463	 4.45452817776149E-02 
1464	 4.40646711255925E-02 
1465	 4.22060554995074E-02 
1466	 4.25450871274214E-02 
1467	 4.47505228050947E-02 
1468	 4.39219775740951E-02 
1469	 4.29263839819442E-02 
1470	 4.25456357101522E-02 
1471	 3.84972220688908E-02 
1472	 3.88772389075407E-02 
1473	 4.44439267486571E-02 
1474	 4.58217507554234E-02 
1475	 4.67155846566917E-02 
1476	 4.66836354696912E-02 
1477	 4.36698787041835E-02 
1478	 4.30128462002167E-02 
1479	 0.044149107702187 
1480	 4.41525089773823E-02 
1481	 0.044314646215092 
1482	 4.38211459377984E-02 
1483	 4.12183942374293E-02 
1484	 4.17095784369748E-02 
1485	 4.50821547739827E-02 
1486	 0.044912245339501 
1487	 4.31741110729677E-02 
1488	 0.043727291916676 
1489	 4.38895149529236E-02 
1490	 4.37632237893604E-02 
1491	 4.56454115341818E-02 
1492	 4.60518146867689E-02 
1493	 0.044201576852103 
1494	 4.40857692403677E-02 
1495	 4.49317426021968E-02 
1496	 4.52802842318922E-02 
1497	 4.61968768968012E-02 
1498	 4.63143086116609E-02 
1499	 4.55716571229403E-02 
1500	 0.045608803882204 
1501	 4.58870172385385E-02 
1502	 0.045670122616448 
1503	 4.53735701717884E-02 
1504	 4.54294111747834E-02 
1505	 4.49819022644241E-02 
1506	 0.045321970679157 
1507	 0.045716961343596 
1508	 4.65345801182903E-02 
1509	 4.67088477331115E-02 
1510	 0.045997619465628 
1511	 4.60586964067691E-02 
1512	 4.62103951979335E-02 
1513	 4.64442041045982E-02 
1514	 4.71066107774912E-02 
1515	 4.72847690599785E-02 
1516	 4.69281765660292E-02 
1517	 4.66663723379433E-02 
1518	 4.67923478703758E-02 
1519	 4.68452842863148E-02 
1520	 4.68364885552898E-02 
1521	 4.68959212230654E-02 
1522	 4.69420403334292E-02 
1523	 4.72184871318456E-02 
1524	 4.69403914174996E-02 
1525	 4.62186190560443E-02 
1526	 4.61875460766665E-02 
1527	 4.63439183356832E-02 
1528	 4.65647995923719E-02 
1529	 4.76224293964265E-02 
1530	 4.84560219297643E-02 
1531	 0.048324201750482 
1532	 4.84352343346869E-02 
1533	 4.85023621215095E-02 
1534	 4.81698059075343E-02 
1535	 4.79279601719226E-02 
1536	 4.79077988415267E-02 
1537	 4.83078693787119E-02 
1538	 4.84948299581358E-02 
1539	 4.84601402036705E-02 
1540	 4.84261255184736E-02 
1541	 4.84040480023715E-02 
1542	 4.82427371962271E-02 
1543	 4.80745698767754E-02 
1544	 4.86367162692125E-02 
1545	 4.92820374058969E-02 
1546	 4.93179271575215E-02 
1547	 4.90418248358328E-02 
1548	 4.91467767487978E-02 
1549	 4.94071938606579E-02 
1550	 4.92248528364751E-02 
1551	 4.87350790964509E-02 
1552	 4.87001245429461E-02 
1553	 4.91071444377165E-02 
1554	 4.88847359224147E-02 
1555	 4.91654823791419E-02 
1556	 5.00313269139762E-02 
1557	 4.97598344960348E-02 
1558	 4.91590362762733E-02 
1559	 4.90185796706536E-02 
1560	 4.88246072731684E-02 
1561	 4.86377809919657E-02 
1562	 4.86952555996072E-02 
1563	 4.89973243261078E-02 
1564	 4.92008648564763E-02 
1565	 4.93334520974612E-02 
1566	 4.95224259457252E-02 
1567	 4.92785786710342E-02 
1568	 0.04910970587162 
1569	 4.95262445955012E-02 
1570	 4.99239442765446E-02 
1571	 5.01326199956306E-02 
1572	 5.04528280694943E-02 
1573	 5.06176724263616E-02 
1574	 5.03134785301191E-02 
1575	 5.01277642371416E-02 
1576	 5.01926608454116E-02 
1577	 5.00255260191103E-02 
1578	 4.99536988807089E-02 
1579	 5.01981293866844E-02 
1580	 0.050426411276397 
1581	 5.06349401151337E-02 
1582	 5.09054287536283E-02 
1583	 5.10257977258011E-02 
1584	 5.10375409583854E-02 
1585	 5.09405389913552E-02 
1586	 5.06337074293896E-02 
1587	 5.07676159479428E-02 
1588	 5.11560721040513E-02 
1589	 5.10570670957298E-02 
1590	 5.08079043840135E-02 
1591	 5.06471031729904E-02 
1592	 5.06528385823116E-02 
1593	 5.08277488583001E-02 
1594	 5.10645612119535E-02 
1595	 5.13184231880078E-02 
1596	 5.13074472994377E-02 
1597	 5.12041687366164E-02 
1598	 5.13821628142295E-02 
1599	 5.13957169604792E-02 
1600	 5.11639070122982E-02 
1601	 5.13406825249864E-02 
1602	 5.15089874677272E-02 
1603	 5.14148076989917E-02 
1604	 5.17085530956346E-02 
1605	 5.17922458374288E-02 
1606	 5.13978718140086E-02 
1607	 0.051281702308104 
1608	 5.12495362282725E-02 
1609	 5.09974959341295E-02 
1610	 5.10761777530573E-02 
1611	 5.16708413091828E-02 
1612	 5.16525512734089E-02 
1613	 5.14023135368403E-02 
1614	 5.18942698109683E-02 
1615	 5.20709408488743E-02 
1616	 5.17692723361782E-02 
1617	 5.16490325052066E-02 
1618	 5.14293869852855E-02 
1619	 0.051258102212413 
1620	 5.13130971233338E-02 
1621	 5.14909085963779E-02 
1622	 0.051899482972441 
1623	 5.18677230279034E-02 
1624	 5.18003325728157E-02 
1625	 0.052418107434154 
1626	 5.25872659557787E-02 
1627	 5.21777530885153E-02 
1628	 5.19803036605794E-02 
1629	 5.18477722151609E-02 
1630	 5.18338075858099E-02 
1631	 5.19245137102339E-02 
1632	 0.051871148342412 
1633	 5.16740890087678E-02 
1634	 5.13335106103164E-02 
1635	 5.14326374275112E-02 
1636	 5.16245728863938E-02 
1637	 5.16060260747704E-02 
1638	 5.19346448976988E-02 
1639	 0.051824953971533 
1640	 5.16035083688677E-02 
1641	 5.20043422896795E-02 
1642	 5.21279336450739E-02 
1643	 5.21708230664116E-02 
1644	 5.25502101345074E-02 
1645	 5.24958989785772E-02 
1646	 5.15251743332956E-02 
1647	 5.08175866744441E-02 
1648	 0.051234450995875 
1649	 5.11063534105934E-02 
1650	 5.09527277179869E-02 
1651	 5.17352954324808E-02 
1652	 5.18368467504129E-02 
1653	 5.14109353701082E-02 
1654	 0.051589457464285 
1655	 5.15558662885453E-02 
1656	 5.12957224385425E-02 
1657	 5.14957146298031E-02 
1658	 0.051969541203232 
1659	 5.18369257004776E-02 
1660	 5.18148600074671E-02 
1661	 5.27992638466421E-02 
1662	 5.28558241450109E-02 
1663	 5.18191750299337E-02 
1664	 5.19489940823106E-02 
1665	 5.25759273164544E-02 
1666	 5.24185149292715E-02 
1667	 0.052337917384757 
1668	 5.24714051272088E-02 
1669	 5.26653850934084E-02 
1670	 5.25819645296328E-02 
1671	 5.19861980772621E-02 
1672	 5.18344712949175E-02 
1673	 0.051831239194542 
1674	 5.20706492388158E-02 
1675	 5.22557350704956E-02 
1676	 5.18063690691017E-02 
1677	 5.20181342632592E-02 
1678	 5.26776048172423E-02 
1679	 5.31514967735445E-02 
1680	 5.34849743876851E-02 
1681	 5.31694882276768E-02 
1682	 5.27673033697346E-02 
1683	 5.25102935457387E-02 
1684	 5.23082916851256E-02 
1685	 5.23457012014584E-02 
1686	 5.23541023963784E-02 
1687	 5.23670050322441E-02 
1688	 5.24537062205939E-02 
1689	 5.25630667047018E-02 
1690	 5.32523606122933E-02 
1691	 5.42260513799032E-02 
1692	 5.39865852378047E-02 
1693	 5.30026473898073E-02 
1694	 5.22315767605551E-02 
1695	 5.22391746700708E-02 
1696	 5.32637085729983E-02 
1697	 5.33493968323546E-02 
1698	 5.23352698189947E-02 
1699	 5.15668529427356E-02 
1700	 5.11521567756999E-02 
1701	 5.19816928047677E-02 
1702	 5.34833411050033E-02 
1703	 5.32752630419429E-02 
1704	 5.24619606138567E-02 
1705	 5.27241568332833E-02 
1706	 5.24392385185894E-02 
1707	 0.052180274626114 
1708	 5.27788195376169E-02 
1709	 5.21203931629351E-02 
1710	 5.11515833191632E-02 
1711	 0.05151111645181 
1712	 5.15172214977003E-02 
1713	 5.20277640085332E-02 
1714	 5.23464095427403E-02 
1715	 5.22608537719829E-02 
1716	 5.22773673445907E-02 
1717	 5.21309175550073E-02 
1718	 5.24552780910039E-02 
1719	 5.29717882203536E-02 
1720	 5.28058191831782E-02 
1721	 5.26172762398417E-02 
1722	 0.052585071667818 
1723	 5.21503297854826E-02 
1724	 5.19607320111352E-02 
1725	 0.052255303341235 
1726	 5.21133575272988E-02 
1727	 5.17182105767649E-02 
1728	 5.16840471960673E-02 
1729	 0.051315251587231 
1730	 5.07157869790456E-02 
1731	 5.10344758596146E-02 
1732	 5.14008558766817E-02 
1733	 5.12375783454092E-02 
1734	 5.12273293177093E-02 
1735	 5.09375514102474E-02 
1736	 5.12158317494348E-02 
1737	 5.25400861382263E-02 
1738	 0.053165404806793 
1739	 5.30329209794932E-02 
1740	 5.21106037303374E-02 
1741	 0.050642186511431 
1742	 5.10475002063648E-02 
1743	 5.25447567065206E-02 
1744	 0.052944887785041 
1745	 5.25920034997672E-02 
1746	 5.17218380708718E-02 
1747	 5.11838135044212E-02 
1748	 5.16277136157181E-02 
1749	 5.16680030825901E-02 
1750	 5.04174397501996E-02 
1751	 5.04709294946038E-02 
1752	 5.17565152122974E-02 
1753	 5.13396623762388E-02 
1754	 0.050968184142147 
1755	 5.08245806831955E-02 
1756	 4.90895357060323E-02 
1757	 4.99799263970791E-02 
1758	 5.05422935958644E-02 
1759	 5.00701424404118E-02 
1760	 5.02820153542677E-02 
1761	 4.95773216306151E-02 
1762	 4.87004900260237E-02 
1763	 4.82245318405193E-02 
1764	 0.046684270679047 
1765	 4.74643208835604E-02 
1766	 4.92055021663565E-02 
1767	 4.85706421770815E-02 
1768	 4.89569139316011E-02 
1769	 4.82506701516273E-02 
1770	 0.045514886842353 
1771	 4.72970993212667E-02 
1772	 4.99759404362221E-02 
1773	 4.94974705612493E-02 
1774	 5.04048910896867E-02 
1775	 4.93769281155044E-02 
1776	 4.80897382819594E-02 
1777	 4.63055366916306E-02 
1778	 0.046104938882248 
1779	 4.69445953160534E-02 
1780	 0.046443487528669 
1781	 4.76979355667754E-02 
1782	 4.82254092488743E-02 
1783	 4.36070237301141E-02 
1784	 4.44728712990736E-02 
1785	 5.13754067251289E-02 
1786	 5.31648633089591E-02 
1787	 5.66910539448126E-02 
1788	 5.77338169841307E-02 
1789	 5.22294571478784E-02 
1790	 4.74513288261932E-02 
1791	 0.046120096490694 
1792	 4.44630882887593E-02 
1793	 4.51465858820424E-02 
1794	 4.88806114334597E-02 
1795	 5.12608393006779E-02 
1796	 4.97622148269721E-02 
1797	 4.66171654390474E-02 
1798	 0.046181052707584 
1799	 4.92199822643701E-02 
1800	 0.0691476647574 
1801	 7.18157552819305E-02 
1802	 0.041970140927057 
1803	 0.030465879429688 
1804	 9.22552188658747E-03 
1805	-1.8809058361725E-03 
1806	 4.91319292877471E-02 
1807	 5.64147730219999E-02 
1808	-1.21867371904235E-02 
1809	-1.49043789854989E-02 
1810	 1.23866002628234E-02 
1811	 5.66486353339816E-02 
1812	 0.24423291886761 
1813	 0.326067547447973 
1814	 0.311575710348309 
1815	 0.384305982720411 
1816	 0.472902345206061 
1817	 1.03536673181905 
1818	 1.3871096391486 
1819	 0.14786404933062 
1820	-0.138692889820745 
1821	-0.376524155936239 
1822	-0.270029029952777 
1823	 2.24308879807041 
1824	 2.43611641161392 
1825	 0.604524306977495 
1826	 0.345923368226167 
1827	-0.378755993035445 
1828	-0.649393358467419 
1829	-0.391760778670778 
1830	 0.153398301328965 
1831	 2.45998036180445 
1832	 2.34015495780113 
1833	 3.97656532511363 
1834	 12.4065949917859 
1835	 0.553401991605824 
1836	-1.67338748821156 
1837	 1.18802228912589 
1838	 0.772543575944095 
1839	 1.16953080788869 
1840	 7.08347898752609E-02 
1841	-3.01677980423578 
1842	 11.9284425452681 
1843	 1.86518112184011 
1844	 0.048302979522211 
1845	-3.92296701457313E-02 
1846	-5.46437505718139E-02 
1847	-0.199249021856062 
1848	-0.351282484207561 
1849	 0.349090757939083 
1850	 3.44526797607628 
1851	 9.93435317131086 
1852	 22.8581699351436 
1853	 6.20836471290485 
1854	 1.21063576151861 
1855	 0.429027113219339 
1856	 0.133012238268214 
1857	-0.39339800367189 
1858	-0.93333584663087 
1859	-7.20012212609916 
1860	 6.05707583181165 
1861	 0.930420126785221 
1862	 0.33434250022086 
1863	 7.81848283830672E-02 
1864	-6.57554035477776E-02 
1865	 3.06114908942731E-02 
1866	 5.23810891768955 
1867	-3.98595556997894 
1868	 0.63117721812247 
1869	 0.532715726507873 
1870	 0.534787526476069 
1871	 0.255301607621675 
1872	-0.251553580315547 
1873	-0.521344025403246 
1874	-0.588555611854474 
1875	-0.586274216902259 
1876	-0.675965507621671 
1877	-0.78740973880173 
1878	-0.896559986915416 
1879	-3.7572739521643 
1880	 1.4398365393781 
1881	 0.299587589091457 
1882	-0.29307539304008 
1883	-0.475627725719217 
1884	-0.996808215052386 
1885	 2.03586655313157 
1886	 0.991894049844876 
1887	-0.403663449460778 
1888	-2.3905362375647 
1889	-3.17858059679417 
1890	-1.92972135677664 
1891	-4.14780639296041 
1892	-1.99241578898226 
1893	-8.35717768054995 
1894	 10.6626156482523 
1895	 17.8437600167253 
1896	 103.836776610748 
1897	-4.54373821044649 
1898	-2.53224725126225 
1899	-2.45783253644359 
1900	-1.83549713860375 
1901	-0.702120148672001 
1902	-0.656244563659996 
1903	-1.00467219306226 
1904	-1.01940732516899 
1905	 0.812822775877773 
1906	 0.671422778066224 
1907	 0.657541309893835 
1908	-4.44454885997043 
1909	-0.106753934591107 
1910	-0.284323905445087 
1911	-5.92982612550709E-02 
1912	-0.206821969822874 
1913	-0.211810929649389 
1914	 0.64265589598374 
1915	 0.82164072718851 
1916	 9.86749825187638 
1917	 1.16273135762006 
1918	 0.648195703234529 
1919	 0.795226713618429 
1920	 0.567167378948073 
1921	-0.15628126038472 
1922	-1.85012050514086 
1923	-17.5271112952601 
1924	-2.38300555109249 
1925	-0.965068199365211 
1926	-0.433042710153372 
1927	 0.203222877690222 
1928	 0.34259808907152 
1929	 0.894551384244654 
1930	 0.893179889876721 
1931	 0.277469876118984 
1932	-0.222933017805303 
1933	-0.476724505475863 
1934	-0.278342437167331 
1935	-2.59553873945035E-02 
1936	-3.69588028578591E-04 
1937	 3.29143423626042E-02 
1938	-0.204489717805949 
1939	-0.311428621712928 
1940	-0.401551935901379 
1941	-0.343040656505537 
1942	-0.363446967987443 
1943	-0.243889714457742 
1944	-0.169284110056724 
1945	-0.143004070740894 
1946	-8.59633123545406E-02 
1947	-0.107878360262893 
1948	-0.125790745116172 
1949	-9.03392249692614E-02 
1950	-6.92786247183931E-02 
1951	-2.65727708314941E-02 
1952	 4.38236941197687E-03 
1953	 2.84810018548392E-02 
1954	 5.26807100027748E-02 
1955	 8.71964634146227E-02 
1956	 7.47074928972582E-02 
1957	 4.60270158671416E-02 
1958	 0.036402994031748 
1959	 0.039384542952194 
1960	 4.25949026328362E-02 
1961	 4.67500944801016E-02 
1962	 5.42687037902578E-02 
1963	 4.30295970065103E-02 
1964	 3.76928758524085E-02 
1965	 4.51193418589423E-02 
1966	 4.59000648575556E-02 
1967	 4.49686239294638E-02 
1968	 4.53894785365134E-02 
1969	 4.25953816500097E-02 
1970	 3.65974864033511E-02 
1971	 3.26552546857808E-02 
1972	 3.52233177243765E-02 
1973	 4.06376272207358E-02 
1974	 3.90069905512804E-02 
1975	 3.64330857832504E-02 
1976	 3.39946093098098E-02 
1977	 3.09807472986482E-02 
1978	 3.20982769912099E-02 
1979	 3.26143886245619E-02 
1980	 3.49882726334151E-02 
1981	 3.56991171180924E-02 
1982	 0.034314065970063 
1983	 3.41132160749628E-02 
1984	 3.58527641483844E-02 
1985	 3.45306924798521E-02 
1986	 3.36687147829369E-02 
1987	 3.29496103825104E-02 
1988	 2.95575620059375E-02 
1989	 2.91463495554265E-02 
1990	 3.10107202938825E-02 
1991	 3.21153122386173E-02 
1992	 3.46600164465609E-02 
1993	 3.41348266479174E-02 
1994	 3.49029697576246E-02 
1995	 3.50232091455506E-02 
1996	 3.75295984791765E-02 
1997	 3.68934814273272E-02 
1998	 4.09904343171194E-02 
1999	 4.79536059384702E-02 
2000	 4.74298925075027E-02 
2001	 4.34813197587264E-02 
2002	 4.01767162884477E-02 
2003	 3.09768361005019E-02 
2004	 1.98843830374337E-02 
2005	 2.48125391350581E-02 
2006	 0.0377397960556 
2007	 4.26514910994217E-02 
2008	 4.59555706025001E-02 
2009	 4.63240895073751E-02 
2010	 3.69145862852676E-02 
2011	 3.51191840389722E-02 
2012	 3.50167287534898E-02 
2013	 3.63531451142249E-02 
2014	 4.09694298513569E-02 
2015	 4.25858178675542E-02 
2016	 4.19276513207208E-02 
2017	 3.80956832253755E-02 
2018	 3.82918650794102E-02 
2019	 0.041507683195673 
2020	 3.78411534274274E-02 
2021	 3.99296475895078E-02 
2022	 0.042873081019725 
2023	 4.25748716349918E-02 
2024	 4.28136013628595E-02 
2025	 4.41289180125424E-02 
2026	 4.37269951391185E-02 
2027	 4.18540284995279E-02 
2028	 4.18722127140212E-02 
2029	 4.12005251681572E-02 
2030	 4.17872207347042E-02 
2031	 4.07825331706196E-02 
2032	 3.98802628426478E-02 
2033	 3.92065822613141E-02 
2034	 3.94122055424061E-02 
2035	 0.042635231085428 
2036	 4.44254767284998E-02 
2037	 4.57839017431686E-02 
2038	 4.73792436228353E-02 
2039	 4.77018651953869E-02 
2040	 4.64957299894845E-02 
2041	 4.63231908821638E-02 
2042	 4.61308699640809E-02 
2043	 4.50534903595885E-02 
2044	 4.37989826256601E-02 
2045	 4.20913081442529E-02 
2046	 3.99902027539506E-02 
2047	 3.97136292109177E-02 
2048	 4.24472396338146E-02 
2049	 4.42916638450957E-02 
2050	 4.61772967351732E-02 
2051	 4.92743378750627E-02 
2052	 5.03556065646595E-02 
2053	 5.09610355221516E-02 
2054	 5.14304775004502E-02 
2055	 4.91149760120619E-02 
2056	 4.82420799468765E-02 
2057	 4.89826751796058E-02 
2058	 0.047998988288345 
2059	 4.52508708576825E-02 
2060	 4.36499898935493E-02 
2061	 0.042235451794874 
2062	 3.94121533797723E-02 
2063	 3.68327861501581E-02 
2064	 3.92999883158584E-02 
2065	 3.92955602166295E-02 
2066	 3.73108662436038E-02 
2067	 3.82397029142522E-02 
2068	 0.038802874823664 
2069	 3.80152151869676E-02 
2070	 3.77336233613618E-02 
2071	 3.80369627349417E-02 
2072	 3.61468909890275E-02 
2073	 3.67187647893868E-02 
2074	 3.99308578390303E-02 
2075	 0.041137761304918 
2076	 4.23079239843757E-02 
2077	 4.35609565784256E-02 
2078	 0.045836931104401 
2079	 4.54150532809584E-02 
2080	 4.36776667444461E-02 
2081	 0.040848667316236 
2082	 0.040086498331338 
2083	 3.87798467620736E-02 
2084	 0.038006160607236 
2085	 4.09309666089915E-02 
2086	 4.26504917989903E-02 
2087	 4.20161262900384E-02 
2088	 4.40907259068091E-02 
2089	 4.57674331247356E-02 
2090	 4.63237472662151E-02 
2091	 0.04561547138395 
2092	 4.52674641093976E-02 
2093	 4.45201438203135E-02 
2094	 4.47191083512392E-02 
2095	 4.52147422716818E-02 
2096	 4.58830982985605E-02 
2097	 0.047868176342277 
2098	 4.79737467569643E-02 
2099	 0.046448714233817 
2100	 4.62428081516499E-02 
2101	 4.69106294660411E-02 
2102	 4.54966444900746E-02 
2103	 4.62170520797745E-02 
2104	 4.80981827248401E-02 
2105	 4.76295262917257E-02 
2106	 4.74333114307551E-02 
2107	 4.82895302320383E-02 
2108	 4.71420804896402E-02 
2109	 4.52607218042716E-02 
2110	 4.57200374623626E-02 
2111	 0.04455703382443 
2112	 4.26931307965321E-02 
2113	 4.27708999562766E-02 
2114	 4.46002903670621E-02 
2115	 0.044913690508754 
2116	 4.57746723870761E-02 
2117	 4.69387951473536E-02 
2118	 4.80284190076872E-02 
2119	 4.80988560363286E-02 
2120	 4.82494934810398E-02 
2121	 4.78540541033522E-02 
2122	 4.71451794487944E-02 
2123	 0.046880733045511 
2124	 4.64757983943768E-02 
2125	 4.54370423350632E-02 
2126	 0.044167188778687 
2127	 4.44627567920683E-02 
2128	 4.58909945669692E-02 
2129	 4.69251826622124E-02 
2130	 4.71340192302806E-02 
2131	 4.52789237176265E-02 
2132	 4.39580879574577E-02 
2133	 4.50043540915525E-02 
2134	 4.50288024335419E-02 
2135	 4.57357910927635E-02 
2136	 0.046178577463373 
2137	 4.54618144776318E-02 
2138	 4.54207493330249E-02 
2139	 4.56516643213829E-02 
2140	 4.57631871934764E-02 
2141	 4.68895652296261E-02 
2142	 4.72632940321212E-02 
2143	 4.65398959448962E-02 
2144	 0.047915410335575 
2145	 0.048782083420657 
2146	 4.72406809649931E-02 
2147	 4.75144697418909E-02 
2148	 4.69815344066347E-02 
2149	 4.52641818816102E-02 
2150	 0.046391810969542 
2151	 4.56641387827934E-02 
2152	 4.30340142048132E-02 
2153	 4.21892931094352E-02 
2154	 4.05783714985272E-02 
2155	 4.22550364211991E-02 
2156	 0.046532928646283 
2157	 4.86510928036187E-02 
2158	 5.14970761435094E-02 
2159	 5.28249862750999E-02 
2160	 5.25089623469079E-02 
2161	 5.20373355255289E-02 
2162	 0.050512261355693 
2163	 5.01141183768202E-02 
2164	 4.92359029674662E-02 
2165	 4.89738558830661E-02 
2166	 5.01107363922697E-02 
2167	 5.05147632021724E-02 
2168	 5.17975094070675E-02 
2169	 5.09506689031112E-02 
2170	 4.88380799798446E-02 
2171	 4.61153987602473E-02 
2172	 4.35133034270995E-02 
2173	 4.19520543628557E-02 
2174	 4.03918468296004E-02 
2175	 3.89611056501541E-02 
2176	 4.03863723764937E-02 
2177	 0.040161695519075 
2178	 4.13418840377485E-02 
2179	 4.64575482248187E-02 
2180	 4.79239014811682E-02 
2181	 4.71124432097447E-02 
2182	 4.57807789444842E-02 
2183	 4.37722465654992E-02 
2184	 4.20316765682459E-02 
2185	 0.042750823106775 
2186	 4.34772137355205E-02 
2187	 4.54649460457879E-02 
2188	 4.65658416335216E-02 
2189	 4.73791669078165E-02 
2190	 4.92787072869697E-02 
2191	 0.053534696152308 
2192	 5.34915949855798E-02 
2193	 5.31661910228383E-02 
2194	 5.09997810008858E-02 
2195	 4.04976036297826E-02 
2196	 3.91227694841249E-02 
2197	 4.30261037764636E-02 
2198	 4.39316737742132E-02 
2199	 4.71905199003913E-02 
2200	 5.30527496184738E-02 
2201	 5.17921298068374E-02 
2202	 4.94349742678559E-02 
2203	 4.89128602028522E-02 
2204	 4.61049986362899E-02 
2205	 4.33764637033582E-02 
2206	 4.23522401024345E-02 
2207	 4.10811128147114E-02 
2208	 0.03971243303043 
2209	 3.98186280673068E-02 
2210	 4.13716947581987E-02 
2211	 4.45422830992114E-02 
2212	 4.58713683526977E-02 
2213	 4.23019621737852E-02 
2214	 4.28658753890525E-02 
2215	 0.047235290543767 
2216	 4.83972682826297E-02 
2217	 4.85628930447647E-02 
2218	 5.03961318990873E-02 
2219	 0.051163988456977 
2220	 4.74883662330683E-02 
2221	 4.68753183223148E-02 
2222	 5.20115587203417E-02 
2223	 5.23180880010028E-02 
2224	 4.71523864563124E-02 
2225	 4.59084713338435E-02 
2226	 4.65174866361451E-02 
2227	 4.51213743457785E-02 
2228	 4.36645737612996E-02 
2229	 4.36412944335154E-02 
2230	 4.21724009065016E-02 
2231	 4.24271621856533E-02 
2232	 4.52351252444429E-02 
2233	 4.65860709186495E-02 
2234	 4.83634909492379E-02 
2235	 4.96911359235602E-02 
2236	 4.99614356741516E-02 
2237	 5.28364437575652E-02 
2238	 5.47278972601469E-02 
2239	 5.18594750089764E-02 
2240	 4.68970981670605E-02 
2241	 4.53974019017294E-02 
2242	 4.48899213764734E-02 
2243	 0.047621962289166 
2244	 5.47463616505003E-02 
2245	 5.43940093375154E-02 
2246	 0.050959138255112 
2247	 4.70536422847697E-02 
2248	 4.39777194610336E-02 
2249	 4.74010622863225E-02 
2250	 0.049165087422244 
2251	 5.24676197667394E-02 
2252	 5.41776788594314E-02 
2253	 5.04357462439939E-02 
2254	 4.75618183569164E-02 
2255	 4.43312896523122E-02 
2256	 4.44095883688388E-02 
2257	 4.49267220470213E-02 
2258	 4.40999505207099E-02 
2259	 4.97895139081528E-02 
2260	 0.05268500167384 
2261	 5.18948766057474E-02 
2262	 5.10999738964721E-02 
2263	 5.23223469053048E-02 
2264	 5.18189767321129E-02 
2265	 4.94460898095708E-02 
2266	 0.048923142348704 
2267	 4.84148400359258E-02 
2268	 4.97279836121847E-02 
2269	 5.12779912081705E-02 
2270	 5.30333650316876E-02 
2271	 5.81868199413893E-02 
2272	 0.057779453287827 
2273	 5.29451268383218E-02 
2274	 5.13182351791428E-02 
2275	 4.87044733301541E-02 
2276	 4.84490046961018E-02 
2277	 5.27285972446938E-02 
2278	 5.44715254342399E-02 
2279	 5.37973802985187E-02 
2280	 5.58893705572648E-02 
2281	 6.22489462179037E-02 
2282	 5.81082232848066E-02 
2283	 5.66177986429603E-02 
2284	 6.01759474271032E-02 
2285	 5.61874727987064E-02 
2286	 5.98372546818675E-02 
2287	 6.90253502361254E-02 
2288	 7.06655564760785E-02 
2289	 6.98954475742884E-02 
2290	 6.54472378547551E-02 
2291	 6.12104776148353E-02 
2292	 5.34483798159924E-02 
2293	 0.043742038656033 
2294	 4.33917467014282E-02 
2295	 4.35484433839894E-02 
2296	 4.38680164217557E-02 
2297	 4.76691495489076E-02 
2298	 4.84491761020068E-02 
2299	 3.96674595554161E-02 
2300	 3.41359892413751E-02 
2301	 3.56876214436665E-02 
2302	 3.57698857711781E-02 
2303	 4.38102791999475E-02 
2304	 4.98764755603305E-02 
2305	 5.24213232429306E-02 
2306	 5.49973121791138E-02 
2307	 5.10531253946251E-02 
2308	 0.053896256847278 
2309	 5.74900626402789E-02 
2310	 5.64897955066622E-02 
2311	 6.24136347974585E-02 
2312	 5.85054579988686E-02 
2313	 4.64662450751989E-02 
2314	 4.81621003153055E-02 
2315	 5.18791736497755E-02 
2316	 5.37048913711462E-02 
2317	 0.058966528741721 
2318	 6.38146524806631E-02 
2319	 5.65744385029454E-02 
2320	 4.38684044134552E-02 
2321	 4.34887906952965E-02 
2322	 3.53826641040183E-02 
2323	 3.02710314428219E-02 
2324	 3.40737564808061E-02 
2325	 3.83882103777136E-02 
2326	 4.35402243310651E-02 
2327	 3.91628254641625E-02 
2328	 4.53739109176346E-02 
2329	 4.65592507939462E-02 
2330	 3.94241793559654E-02 
2331	 0.047456426493107 
2332	 5.06697930265264E-02 
2333	 5.09145283588892E-02 
2334	 4.99732631389406E-02 
2335	 4.57042843190816E-02 
2336	 4.66672744572441E-02 
2337	 4.48920111188696E-02 
2338	 4.81224306478437E-02 
2339	 5.07253376146659E-02 
2340	 3.95574398733555E-02 
2341	 1.57138287863321E-02 
2342	-1.57346849479317E-03 
2343	-5.88967028784119E-03 
2344	-1.35807645953836E-02 
2345	-6.86027023281886E-03 
2346	 0.018257357414017 
2347	 3.99540926008913E-02 
2348	 5.05101797451001E-02 
2349	 5.37671697500931E-02 
2350	 3.02465196745305E-02 
2351	 2.50755621192607E-03 
2352	 2.00963210935507E-02 
2353	 4.08420692965117E-02 
2354	 3.28675243249757E-02 
2355	 3.54540963830892E-02 
2356	 5.43768017088819E-02 
2357	 6.68478198186433E-02 
2358	 8.74361642174852E-02 
2359	 9.40706998839838E-02 
2360	 8.22182526651811E-02 
2361	 6.89333683881563E-02 
2362	 6.33006752671912E-02 
2363	 8.67519226226425E-02 
2364	 0.103084974609397 
2365	 9.82084073362843E-02 
2366	 9.26078680813592E-02 
2367	 7.06154419750199E-02 
2368	 3.72416699634506E-02 
2369	 7.74187618876201E-03 
2370	-6.69934088003156E-03 
2371	-0.026669126673751 
2372	-5.60798304379374E-02 
2373	-3.93068992787131E-02 
2374	-5.49663498814347E-02 
2375	-0.101847873096985 
2376	-5.89975882081127E-02 
2377	-1.76884830884845E-02 
2378	-2.78396587839702E-03 
2379	 2.88408241307221E-02 
2380	 3.76748778477197E-03 
2381	-5.50078638784281E-02 
2382	-6.74793313262474E-02 
2383	-2.93898472742482E-02 
2384	 3.71260516576801E-02 
2385	 7.92013025116443E-02 
2386	 9.70733292865778E-02 
2387	 0.121027949740709 
2388	 0.104594169336721 
2389	 6.87420111900417E-02 
2390	 3.13939774261024E-02 
2391	 6.68741704743074E-02 
2392	 0.101984226289937 
2393	 2.79261491345163E-02 
2394	 3.76567591269693E-03 
2395	 6.07544461499564E-03 
2396	-3.22058924882791E-03 
2397	 4.35182820246805E-02 
2398	 6.95952063887507E-02 
2399	 2.78762314967725E-02 
2400	-5.89158154649831E-03 
2401	-6.07850181172181E-03 
2402	 1.99476939945146E-02 
2403	 0.145278990962056 
2404	 0.135730864938264 
2405	 3.59116124322294E-02 
2406	 6.99425479677254E-02 
2407	-5.31411664622055E-02 
2408	-0.243442914338262 
2409	-0.20156595657897 
2410	-0.113864216085843 
2411	-9.99404260965774E-02 
2412	-3.28844691719038E-02 
2413	-1.14451429058013E-02 
2414	-0.41551158252313 
2415	-0.693319812531272 
2416	-0.43201526461376 
2417	-0.335631442820681 
2418	-0.30509301969457 
2419	-0.11657110876931 
2420	 6.01100661166822E-03 
2421	 9.49555872171208E-02 
2422	 0.154450031709229 
2423	 0.288965623517984 
2424	 0.184458871136554 
2425	-0.183529823703383 
2426	-2.76837237433867E-02 
2427	-0.126461262149769 
2428	-0.329861887789711 
2429	-5.81189656816146E-02 
2430	-5.84427763013814E-02 
2431	-7.98556615887219E-02 
2432	 0.071414621523151 
2433	 4.62442275378999E-02 
2434	 1.94137406324135E-02 
2435	-3.16511150755011E-03 
2436	 0.081718800290836 
2437	 0.153699520660341 
2438	 0.133218393831266 
2439	 0.344541232538686 
2440	 0.364243822458218 
2441	 0.137311302356494 
2442	 0.109515382140941 
2443	 6.84738327638851E-02 
2444	-0.101079259631958 
2445	-0.170342240935168 
2446	 2.28661016069019E-02 
2447	 0.408851607710654 
2448	 0.534785750302252 
2449	 0.10165458594161 
2450	 0.075752589329315 
2451	 1.34143018484362 
2452	-16.8029318943325 
2453	 1.10452422331728 
2454	 1.47410685595433 
2455	 0.675729029143811 
2456	 4.04359184895908E-02 
2457	-7.74030271004786 
2458	-6.67237692463524 
2459	-1.4877513489179 
2460	-12.4977934390554 
2461	 8.87207599222105 
2462	-0.023853429033549 
2463	 0.702783690317492 
2464	 0.438732482804956 
2465	-0.406985460008452 
2466	-1.13657921125141 
2467	-6.25146737995618 
2468	-4.2548270648791 
2469	 2.77756673601349 
2470	 10.1641702018063 
2471	 10.756982268549 
2472	 4.9697711013144 
2473	-0.976647308549207 
2474	 0.343814553275162 
2475	 1.33920579684206 
2476	 0.860703777736309 
2477	 1.50856718318746 
2478	-2.58324505575445 
2479	-1.00606347339838 
2480	-1.16138651252694 
2481	-0.760727571602803 
2482	-1.3084097443791 
2483	 1.94745571251723 
2484	 1.66486481632468 
2485	 4.75421941780066 
2486	 2.06514353248816 
2487	 0.469076711840948 
2488	-0.457490451467379 
2489	 2.78366597052551 
2490	 8.62746639446538 
2491	 2.75083180409983E-02 
2492	 5.50142624228512E-02 
2493	 1.4359481589297 
2494	 1.2550275457647 
2495	 1.59857600036042 
2496	 0.334259166136932 
2497	-0.634071507140909 
2498	 2.84179373983379 
2499	 1.22763434134285 
2500	 0.892247494319769 
