Wavelength	rt0714yellow00004.asd
350	 6.75508081028468E-02 
351	 6.60279653787447E-02 
352	 6.55263948090387E-02 
353	 6.61614454590932E-02 
354	 6.71016852600976E-02 
355	 6.67284105543964E-02 
356	 6.69544972547811E-02 
357	 6.72522870211735E-02 
358	 6.67981565869383E-02 
359	 6.68718212307314E-02 
360	 6.71765652031393E-02 
361	 6.72683339032712E-02 
362	 6.68066022277742E-02 
363	 6.71407511450474E-02 
364	 6.74775556760746E-02 
365	 6.74098945745427E-02 
366	 6.75066688456813E-02 
367	 6.78951026017647E-02 
368	 6.83415738083046E-02 
369	 6.85663729109609E-02 
370	 6.85044925576277E-02 
371	 0.068693650228771 
372	 0.068977695121302 
373	 6.89039579049335E-02 
374	 6.92915252048881E-02 
375	 6.99640120428171E-02 
376	 0.070571857434589 
377	 7.07134675082793E-02 
378	 7.11350116804899E-02 
379	 7.14878702994016E-02 
380	 7.15641109484097E-02 
381	 7.24746266970843E-02 
382	 7.30018466340122E-02 
383	 7.30869669517188E-02 
384	 7.33470751204841E-02 
385	 7.47350521475765E-02 
386	 7.50474694062121E-02 
387	 7.44674814198154E-02 
388	 7.59239926607306E-02 
389	 7.67231460550091E-02 
390	 7.71657802453635E-02 
391	 7.77701710598131E-02 
392	 7.80743468921752E-02 
393	 7.83569619869744E-02 
394	 7.89155487154945E-02 
395	 7.98171479505365E-02 
396	 7.99912783147266E-02 
397	 8.04189493462468E-02 
398	 8.10521850417609E-02 
399	 8.09582706565216E-02 
400	 8.15526840647986E-02 
401	 8.21586598656083E-02 
402	 8.23077105601058E-02 
403	 8.26783292602356E-02 
404	 8.33061471102889E-02 
405	 8.36982569802315E-02 
406	 8.35032778417912E-02 
407	 8.44363002136908E-02 
408	 8.51115474138272E-02 
409	 8.52987016693349E-02 
410	 8.60259423332503E-02 
411	 0.086485034531043 
412	 8.69087921855378E-02 
413	 8.75449444751742E-02 
414	 8.82540333323064E-02 
415	 8.88900781326478E-02 
416	 8.94045020157174E-02 
417	 8.98592174118096E-02 
418	 9.06299963470122E-02 
419	 9.14527923010788E-02 
420	 9.21552419456848E-02 
421	 9.27293320394238E-02 
422	 0.093490491344706 
423	 9.42591732635385E-02 
424	 0.094926883990261 
425	 9.59328326467267E-02 
426	 9.65859114932822E-02 
427	 9.72597635099736E-02 
428	 9.86441136607042E-02 
429	 9.97231794502881E-02 
430	 0.100714281667642 
431	 0.101755314694172 
432	 0.102759152928221 
433	 0.103710946278326 
434	 0.10467032778998 
435	 0.105687218929733 
436	 0.106743988484333 
437	 0.107760630941838 
438	 0.108738458291126 
439	 0.109720839882752 
440	 0.11070518860041 
441	 0.111716051173399 
442	 0.112701119078467 
443	 0.113488113451215 
444	 0.114446255065846 
445	 0.11530902673218 
446	 0.115845626913839 
447	 0.116665989605215 
448	 0.117494544137959 
449	 0.11820368324163 
450	 0.118797956345993 
451	 0.119286271685051 
452	 0.119759162722686 
453	 0.120278163822833 
454	 0.120833788016369 
455	 0.121292250015152 
456	 0.121695025146272 
457	 0.122119689011423 
458	 0.122449785376993 
459	 0.12270372258828 
460	 0.123011293782693 
461	 0.123575668364515 
462	 0.123844636800829 
463	 0.124048327222194 
464	 0.124428569277846 
465	 0.124810237319365 
466	 0.125160100725828 
467	 0.125482097154115 
468	 0.12582244463016 
469	 0.126336626660021 
470	 0.12673093195606 
471	 0.126945208075205 
472	 0.12727730695526 
473	 0.127735468753401 
474	 0.128307357008293 
475	 0.128913713080487 
476	 0.129311206462089 
477	 0.129604440432557 
478	 0.129943846928983 
479	 0.130488617375512 
480	 0.131161916057047 
481	 0.131763620513118 
482	 0.132250508959362 
483	 0.132930567365116 
484	 0.13347713154606 
485	 0.134052527039879 
486	 0.134892446492751 
487	 0.135602217639398 
488	 0.136356314392885 
489	 0.137206776583484 
490	 0.138063613048585 
491	 0.138967173055961 
492	 0.139855092591367 
493	 0.140674043780913 
494	 0.141435394707372 
495	 0.14235639210969 
496	 0.143366073890289 
497	 0.144277356642521 
498	 0.145307505315661 
499	 0.146284763470463 
500	 0.1471865453183 
501	 0.148277433992864 
502	 0.149353785406768 
503	 0.150407792817957 
504	 0.151461910665856 
505	 0.152400096017079 
506	 0.153414902039744 
507	 0.154516380967671 
508	 0.155573689208723 
509	 0.15675795428822 
510	 0.157925843094469 
511	 0.158980879234944 
512	 0.160067020334214 
513	 0.161013375733365 
514	 0.162016022986648 
515	 0.163345983727965 
516	 0.164629314198612 
517	 0.165864038625665 
518	 0.16707474325772 
519	 0.168281656600392 
520	 0.169418130324957 
521	 0.17051416290362 
522	 0.171628031356019 
523	 0.172810625475375 
524	 0.173998969895432 
525	 0.175177640298413 
526	 0.176374416527958 
527	 0.177625775145704 
528	 0.17887298796047 
529	 0.180076762692666 
530	 0.181268970139101 
531	 0.182422617283116 
532	 0.183554317604589 
533	 0.184704995645352 
534	 0.185988552893087 
535	 0.187088224382102 
536	 0.188074202706104 
537	 0.189461020192384 
538	 0.190655077566147 
539	 0.191641924495095 
540	 0.192606962115253 
541	 0.193893659223624 
542	 0.195144170623904 
543	 0.19623938468409 
544	 0.197241117044162 
545	 0.198297202579223 
546	 0.199362794349993 
547	 0.200364819504091 
548	 0.201213727034498 
549	 0.202210687260088 
550	 0.203315671837654 
551	 0.204368500306954 
552	 0.205314623224377 
553	 0.206274884812577 
554	 0.207230298243335 
555	 0.207992177762385 
556	 0.208776034462778 
557	 0.209680973534377 
558	 0.21066996897336 
559	 0.211426204112598 
560	 0.212044364244874 
561	 0.212679590360169 
562	 0.213497576441246 
563	 0.214313030196854 
564	 0.214960254995176 
565	 0.215441246793378 
566	 0.216068679576645 
567	 0.216754090330242 
568	 0.217338291571863 
569	 0.217716129655461 
570	 0.218302043935231 
571	 0.218870240840166 
572	 0.21926708332407 
573	 0.219467975948078 
574	 0.219796755274367 
575	 0.22015757778597 
576	 0.220448372135518 
577	 0.220931851097758 
578	 0.2211986796527 
579	 0.221291987897354 
580	 0.221520462958128 
581	 0.221762400755958 
582	 0.221923674853601 
583	 0.22200836780771 
584	 0.222207652636658 
585	 0.222235553853948 
586	 0.222099515887967 
587	 0.221935443121817 
588	 0.221934365953033 
589	 0.221969221000126 
590	 0.221958422694806 
591	 0.221902495122803 
592	 0.221772432304923 
593	 0.221613257192916 
594	 0.221462309411668 
595	 0.221305412106555 
596	 0.220892324319919 
597	 0.22035187184859 
598	 0.219996854580358 
599	 0.219529672543971 
600	 0.219214316758975 
601	 0.219124637810285 
602	 0.218903523634764 
603	 0.218576732108299 
604	 0.218395270375779 
605	 0.218529032041932 
606	 0.218284996413837 
607	 0.218145142309973 
608	 0.2181962632319 
609	 0.218074273649196 
610	 0.218099336881363 
611	 0.218127116660614 
612	 0.218013254683752 
613	 0.217884242380334 
614	 0.217837379028739 
615	 0.217828915053519 
616	 0.217734790732908 
617	 0.217539395928788 
618	 0.217439311630021 
619	 0.217486469331242 
620	 0.217471086663304 
621	 0.217531317184922 
622	 0.217595727071027 
623	 0.217536013855523 
624	 0.217263459144679 
625	 0.217159253845492 
626	 0.217221371589925 
627	 0.217083829029998 
628	 0.216991014816179 
629	 0.21694917380776 
630	 0.216920727386931 
631	 0.216879311309179 
632	 0.216830805212614 
633	 0.216735540605796 
634	 0.216557679787952 
635	 0.216452219201692 
636	 0.216359934903669 
637	 0.216254830348038 
638	 0.216192438981251 
639	 0.215949646111234 
640	 0.215823202890264 
641	 0.216033327565801 
642	 0.215875068163921 
643	 0.215567046259127 
644	 0.215260544298167 
645	 0.215037926463774 
646	 0.214898782775846 
647	 0.214820176661275 
648	 0.214732172774142 
649	 0.214471939600121 
650	 0.214188097502478 
651	 0.213891358365468 
652	 0.21355283814632 
653	 0.213190264022302 
654	 0.212795727025143 
655	 0.212334506577846 
656	 0.211801419346252 
657	 0.211421747724195 
658	 0.211068889579196 
659	 0.210598037557456 
660	 0.210036809428131 
661	 0.2097019800106 
662	 0.209531895029509 
663	 0.209245534570557 
664	 0.2089706393203 
665	 0.208697851229028 
666	 0.208433925441908 
667	 0.208241349830748 
668	 0.208201219397774 
669	 0.208113398412546 
670	 0.207821315573231 
671	 0.207896584567385 
672	 0.207833253283731 
673	 0.207616250800503 
674	 0.207707691960368 
675	 0.207761946883153 
676	 0.207822054969868 
677	 0.207934428385658 
678	 0.207948222593519 
679	 0.208148144449151 
680	 0.208468507359326 
681	 0.208697470406451 
682	 0.208846575836335 
683	 0.209169806353894 
684	 0.209604711464655 
685	 0.209659032398264 
686	 0.209993642455512 
687	 0.210592006194749 
688	 0.211142690144058 
689	 0.211489644840413 
690	 0.211535694587532 
691	 0.211611394529873 
692	 0.212204390547347 
693	 0.21234422198224 
694	 0.212537880047772 
695	 0.212920915696001 
696	 0.212726066988273 
697	 0.212691939203167 
698	 0.212671999344817 
699	 0.212368424272764 
700	 0.212102673418957 
701	 0.212014370312174 
702	 0.211983182252084 
703	 0.211700545980744 
704	 0.211135365700732 
705	 0.210651210833696 
706	 0.21033840196435 
707	 0.209510101706106 
708	 0.208779038142125 
709	 0.208178474635504 
710	 0.207513099133452 
711	 0.20660689731285 
712	 0.205664438719248 
713	 0.204714671308185 
714	 0.203558044832789 
715	 0.202441995531048 
716	 0.201390943711494 
717	 0.200388020897501 
718	 0.199009174514135 
719	 0.197799347002042 
720	 0.196788564872067 
721	 0.195629174751447 
722	 0.194637560290391 
723	 0.193422276375683 
724	 0.192064669251654 
725	 0.191001545395143 
726	 0.189483237624863 
727	 0.188116464955679 
728	 0.187229283353615 
729	 0.18534026454583 
730	 0.183723875032684 
731	 0.182517008473464 
732	 0.181271076946198 
733	 0.180169055005387 
734	 0.179232593204145 
735	 0.178458895335535 
736	 0.177805575559536 
737	 0.177356484284181 
738	 0.177024308190729 
739	 0.176733969358791 
740	 0.176567788987204 
741	 0.176325640163104 
742	 0.176135676164275 
743	 0.176219948134146 
744	 0.176081948770606 
745	 0.175997685322673 
746	 0.176007328725572 
747	 0.175732442269492 
748	 0.175772523862371 
749	 0.175830576328363 
750	 0.17561831807083 
751	 0.175671200829603 
752	 0.175649418350045 
753	 0.175529822212964 
754	 0.175471545257299 
755	 0.175564315247973 
756	 0.175591277958109 
757	 0.175513739095394 
758	 0.1756130880123 
759	 0.175306893770669 
760	 0.17492572280421 
761	 0.175293031005831 
762	 0.175317732385701 
763	 0.175253943890396 
764	 0.175065306670841 
765	 0.174768580543294 
766	 0.17495947001142 
767	 0.175136832900433 
768	 0.175157784807999 
769	 0.175198046471008 
770	 0.175243982208971 
771	 0.175268239856897 
772	 0.175277007865785 
773	 0.175389144934921 
774	 0.175442749687483 
775	 0.175496578766339 
776	 0.175668314186533 
777	 0.175804503343082 
778	 0.175863804125972 
779	 0.175933374977013 
780	 0.176197969890741 
781	 0.176351804694839 
782	 0.176396069408899 
783	 0.176412100428537 
784	 0.176522278523258 
785	 0.176622594948748 
786	 0.176824585458517 
787	 0.177210537271619 
788	 0.177335950108163 
789	 0.177416947677686 
790	 0.177576360934038 
791	 0.177827344980458 
792	 0.178174734990038 
793	 0.17846908860222 
794	 0.178626744688834 
795	 0.178691090953766 
796	 0.178848237869388 
797	 0.178992610723 
798	 0.179057456099293 
799	 0.179409065703148 
800	 0.179732050046291 
801	 0.179853009462282 
802	 0.179746446737844 
803	 0.179643498090392 
804	 0.179805652563257 
805	 0.180073508258719 
806	 0.179880717230933 
807	 0.179856160753891 
808	 0.179810481145371 
809	 0.17960629805407 
810	 0.17968259146903 
811	 0.179528150006981 
812	 0.179135296207976 
813	 0.178736099021457 
814	 0.178545963089165 
815	 0.178400210217743 
816	 0.178016990279546 
817	 0.177233306226315 
818	 0.177142185856399 
819	 0.176997982327954 
820	 0.176384910320556 
821	 0.17550292062467 
822	 0.174649790582633 
823	 0.174013212909047 
824	 0.173486778198328 
825	 0.1724522505039 
826	 0.171297189136898 
827	 0.170005236438627 
828	 0.168616663488399 
829	 0.167722849465153 
830	 0.167125307521217 
831	 0.166676092650076 
832	 0.166286474963984 
833	 0.16550334071741 
834	 0.164901544623564 
835	 0.16458721288295 
836	 0.16393026698203 
837	 0.163919955495451 
838	 0.163952269086044 
839	 0.163550742677889 
840	 0.163503709978152 
841	 0.163124879146921 
842	 0.162717166952956 
843	 0.162739815714998 
844	 0.162586913490073 
845	 0.1622957965425 
846	 0.162097861260359 
847	 0.162249949610665 
848	 0.162127331535999 
849	 0.161920614474008 
850	 0.161679832139668 
851	 0.161175868899334 
852	 0.160807057559637 
853	 0.160800987398924 
854	 0.160931780522836 
855	 0.160117287798543 
856	 0.160350945369149 
857	 0.160857969327233 
858	 0.160525271303955 
859	 0.159913921633641 
860	 0.159615076677628 
861	 0.15968786217976 
862	 0.159840111239281 
863	 0.159780546680931 
864	 0.159296882407607 
865	 0.158762684997391 
866	 0.158910239886946 
867	 0.158488886374288 
868	 0.158519692918261 
869	 0.159013320796701 
870	 0.158368013039185 
871	 0.157514446388584 
872	 0.157334529445077 
873	 0.157920774962986 
874	 0.15769189997566 
875	 0.157060650078827 
876	 0.156838341320325 
877	 0.157346269065026 
878	 0.15663968658001 
879	 0.156406324531457 
880	 0.156537342773314 
881	 0.156189646205452 
882	 0.155823082965307 
883	 0.155390629120317 
884	 0.15524261107658 
885	 0.155810021598374 
886	 0.155632781316044 
887	 0.155298709330468 
888	 0.155126071072737 
889	 0.154886127709055 
890	 0.155112372459569 
891	 0.155416547287091 
892	 0.155308041512437 
893	 0.15444018048078 
894	 0.154173833741878 
895	 0.154377854569215 
896	 0.15445373061734 
897	 0.153993539314635 
898	 0.15365428131577 
899	 0.153429114772956 
900	 0.153138271706139 
901	 0.152924014202204 
902	 0.153068736319667 
903	 0.1531481571398 
904	 0.152688666853705 
905	 0.152342661715261 
906	 0.151865206566768 
907	 0.151828497045788 
908	 0.152963725368844 
909	 0.152709761529193 
910	 0.152018754282085 
911	 0.151543234174199 
912	 0.151325072533144 
913	 0.151836908938546 
914	 0.15120572327475 
915	 0.14989723624153 
916	 0.150833504957389 
917	 0.150846562208753 
918	 0.150153017587967 
919	 0.149110023848949 
920	 0.147623608861908 
921	 0.149623454782954 
922	 0.150788691314404 
923	 0.148781010387047 
924	 0.148731114465823 
925	 0.149752625336079 
926	 0.150515692220221 
927	 0.150116695411046 
928	 0.150475713259408 
929	 0.149756741222324 
930	 0.148808751620943 
931	 0.149379365930349 
932	 0.147505030286412 
933	 0.14673989248444 
934	 0.147976810397099 
935	 0.149241915319592 
936	 0.147187717875109 
937	 0.1485789564637 
938	 0.151076581394956 
939	 0.150363172688187 
940	 0.145621236060723 
941	 0.145331761410689 
942	 0.147871608676402 
943	 0.147430835987928 
944	 0.14832641019074 
945	 0.150375007306316 
946	 0.150331582711749 
947	 0.145348254048668 
948	 0.142544360262044 
949	 0.140443040954477 
950	 0.141151982761139 
951	 0.146553039088514 
952	 0.142780419619727 
953	 0.14392193009601 
954	 0.147483808591401 
955	 0.1413308783196 
956	 0.138734994506367 
957	 0.139568964775 
958	 0.140893361922373 
959	 0.139678049808695 
960	 0.140179418235087 
961	 0.142572470940831 
962	 0.143891250217966 
963	 0.14081715612242 
964	 0.138977047510057 
965	 0.139992628225422 
966	 0.141509302452244 
967	 0.13983936412875 
968	 0.140842340099175 
969	 0.142061778967597 
970	 0.140928063433803 
971	 0.136819344477483 
972	 0.140463202559255 
973	 0.141076729016289 
974	 0.137045691065629 
975	 0.137404669892788 
976	 0.139578464216288 
977	 0.141025683573811 
978	 0.141511281572063 
979	 0.14237510201268 
980	 0.139585907817889 
981	 0.139470936066729 
982	 0.140847871418561 
983	 0.137404520135816 
984	 0.13813829906149 
985	 0.139100459120754 
986	 0.138551058889123 
987	 0.138162041469552 
988	 0.143293261389769 
989	 0.143287485474873 
990	 0.139284209215051 
991	 0.140424583021395 
992	 0.138477901865388 
993	 0.138859995809345 
994	 0.140636906760557 
995	 0.13896658195685 
996	 0.138546818589754 
997	 0.138562227193121 
998	 0.139997187475361 
999	 0.143528745086387 
1000	 0.142128347714351 
1001	 0.140302517891393 
1002	 0.14100795717304 
1003	 0.141228958535915 
1004	 0.14148631690414 
1005	 0.141729791584404 
1006	 0.141397390557307 
1007	 0.141709365767146 
1008	 0.142230581659289 
1009	 0.142329957759696 
1010	 0.142358364291412 
1011	 0.141589916354318 
1012	 0.140752975844989 
1013	 0.140760057041937 
1014	 0.140613292955121 
1015	 0.140559016598309 
1016	 0.140646010676445 
1017	 0.141025183317032 
1018	 0.141063627784136 
1019	 0.140777502383036 
1020	 0.141070381288548 
1021	 0.14170582037681 
1022	 0.142167379421379 
1023	 0.141987293317332 
1024	 0.141825970491387 
1025	 0.142009722682817 
1026	 0.14139026456663 
1027	 0.141543502806871 
1028	 0.143068652222091 
1029	 0.143081387485136 
1030	 0.142043943399438 
1031	 0.141988372106448 
1032	 0.141811811169578 
1033	 0.141826124229455 
1034	 0.142615466823163 
1035	 0.14280143794999 
1036	 0.142520929834773 
1037	 0.142444560946126 
1038	 0.14212707345823 
1039	 0.142294157477874 
1040	 0.142053213291208 
1041	 0.142505588255886 
1042	 0.142950771221455 
1043	 0.143592873972905 
1044	 0.144111492468805 
1045	 0.145240659619698 
1046	 0.145220746862869 
1047	 0.144436838878461 
1048	 0.144076837012232 
1049	 0.142934581887878 
1050	 0.142682291976898 
1051	 0.143418738181674 
1052	 0.143491333286755 
1053	 0.143389622634598 
1054	 0.143488157462561 
1055	 0.143540228200145 
1056	 0.14343101416114 
1057	 0.143322858771853 
1058	 0.143487312012755 
1059	 0.143322972133665 
1060	 0.142631807634621 
1061	 0.142551999111248 
1062	 0.14279083534711 
1063	 0.142846779033071 
1064	 0.143166414598855 
1065	 0.143173853752938 
1066	 0.142663306567442 
1067	 0.142729915917505 
1068	 0.143230831834889 
1069	 0.143325516760853 
1070	 0.143668028618163 
1071	 0.143730038461008 
1072	 0.143740484570044 
1073	 0.142879598543431 
1074	 0.142372151714848 
1075	 0.141597900893292 
1076	 0.141513179458731 
1077	 0.141720402485261 
1078	 0.141724153965125 
1079	 0.14211961899141 
1080	 0.142257345884398 
1081	 0.142166382472439 
1082	 0.141954187761366 
1083	 0.141690098447891 
1084	 0.141580830017267 
1085	 0.141088448065953 
1086	 0.140951630189836 
1087	 0.141512706594408 
1088	 0.141601570644127 
1089	 0.141551342910268 
1090	 0.141227492580336 
1091	 0.141345874359263 
1092	 0.141612781024157 
1093	 0.141491770272693 
1094	 0.141720984844192 
1095	 0.141302485531909 
1096	 0.139534157362535 
1097	 0.139202045862665 
1098	 0.139347803854679 
1099	 0.139554734286267 
1100	 0.14154169026372 
1101	 0.1416828732887 
1102	 0.139979988574524 
1103	 0.139620251575359 
1104	 0.139404344167494 
1105	 0.138368343593481 
1106	 0.138451107734791 
1107	 0.139584384773808 
1108	 0.139305508244037 
1109	 0.138083985369698 
1110	 0.138274274028773 
1111	 0.139578990408941 
1112	 0.139823088637071 
1113	 0.140788613107153 
1114	 0.141101803638649 
1115	 0.139055957363456 
1116	 0.138540222842654 
1117	 0.139711117299562 
1118	 0.140033917653819 
1119	 0.140455926473869 
1120	 0.140972176465105 
1121	 0.141957281448799 
1122	 0.139573237529726 
1123	 0.138603591743174 
1124	 0.144518680502451 
1125	 0.144103959080992 
1126	 0.140351657401617 
1127	 0.14462717569738 
1128	 0.143917208099161 
1129	 0.141864453649063 
1130	 0.142863594558957 
1131	 0.140724818621916 
1132	 0.132091768602637 
1133	 0.131345879738384 
1134	 0.134323834874286 
1135	 0.135333846735101 
1136	 0.139535375974928 
1137	 0.138439297518143 
1138	 0.132798732500099 
1139	 0.131274743709562 
1140	 0.131365736033075 
1141	 0.132147801968506 
1142	 0.135528368303416 
1143	 0.136508828294573 
1144	 0.13551099037829 
1145	 0.133849394774188 
1146	 0.132541921425905 
1147	 0.132792318360367 
1148	 0.131543444223912 
1149	 0.13061055292714 
1150	 0.130279720471487 
1151	 0.13059709728724 
1152	 0.13044564817592 
1153	 0.130560591976037 
1154	 0.129879108256185 
1155	 0.12852906187928 
1156	 0.128606364252037 
1157	 0.128587546829148 
1158	 0.12805270666563 
1159	 0.128680264385888 
1160	 0.129190186249596 
1161	 0.128218473088659 
1162	 0.127998610753482 
1163	 0.128449061760101 
1164	 0.128506420293154 
1165	 0.129406365775813 
1166	 0.130076545158106 
1167	 0.129645717405141 
1168	 0.129305233600127 
1169	 0.129058929461157 
1170	 0.128828676429533 
1171	 0.128817078556683 
1172	 0.129622863378747 
1173	 0.129533000720569 
1174	 0.128916741066367 
1175	 0.128486503976017 
1176	 0.128284802019787 
1177	 0.128068775041247 
1178	 0.127947483679938 
1179	 0.128165521318058 
1180	 0.128922994052181 
1181	 0.128541608430115 
1182	 0.127532927464655 
1183	 0.127608658405106 
1184	 0.127648910340212 
1185	 0.127630215988802 
1186	 0.128527153475737 
1187	 0.1286118516232 
1188	 0.127408485905606 
1189	 0.127338468965785 
1190	 0.127876327872878 
1191	 0.127770605394328 
1192	 0.127705973808257 
1193	 0.128001628146126 
1194	 0.127672658615555 
1195	 0.126995987540214 
1196	 0.127330849753191 
1197	 0.127689180666182 
1198	 0.127338046222713 
1199	 0.127175881384422 
1200	 0.127017451615912 
1201	 0.126715455270108 
1202	 0.126894386535834 
1203	 0.127127970569335 
1204	 0.126881306497005 
1205	 0.126584610022322 
1206	 0.126701548113842 
1207	 0.126704490682509 
1208	 0.126518572399613 
1209	 0.126642500095883 
1210	 0.126889195512064 
1211	 0.127012769675775 
1212	 0.127026127874119 
1213	 0.126842154781846 
1214	 0.126672090021709 
1215	 0.126218797425589 
1216	 0.126052826118312 
1217	 0.126226258682426 
1218	 0.126230234011023 
1219	 0.126005281139521 
1220	 0.125597844343765 
1221	 0.125583634118448 
1222	 0.126192166115859 
1223	 0.126518290298172 
1224	 0.126578993049908 
1225	 0.126435903235576 
1226	 0.125912544971136 
1227	 0.125897137325874 
1228	 0.126329171836012 
1229	 0.126357229550526 
1230	 0.126233382650006 
1231	 0.126147378235375 
1232	 0.126040048724632 
1233	 0.126214350724664 
1234	 0.126192211183825 
1235	 0.126177834519068 
1236	 0.126216468235493 
1237	 0.126312535114532 
1238	 0.126359897306241 
1239	 0.126444172304573 
1240	 0.126408424864212 
1241	 0.125865016402105 
1242	 0.125797749754137 
1243	 0.126123764802224 
1244	 0.126281065341816 
1245	 0.126543630273699 
1246	 0.126543008814201 
1247	 0.126293358832599 
1248	 0.126343424358082 
1249	 0.126410666910824 
1250	 0.126135824594466 
1251	 0.125988673670061 
1252	 0.126247876460231 
1253	 0.12646991559134 
1254	 0.12638848475159 
1255	 0.126318152741988 
1256	 0.126379192861408 
1257	 0.126155607530746 
1258	 0.125984369847811 
1259	 0.126233147050455 
1260	 0.126330591527216 
1261	 0.126175754449592 
1262	 0.125996805584825 
1263	 0.126030377966763 
1264	 0.125650590582725 
1265	 0.125212703116152 
1266	 0.125104661507761 
1267	 0.125409587529828 
1268	 0.125472163305357 
1269	 0.125522543390669 
1270	 0.126015153273248 
1271	 0.126033538160811 
1272	 0.125857671463146 
1273	 0.126039693737267 
1274	 0.125941283827171 
1275	 0.125690492832413 
1276	 0.125505288980021 
1277	 0.125452543613051 
1278	 0.125519385747802 
1279	 0.125583621849518 
1280	 0.126026270354467 
1281	 0.125941543538629 
1282	 0.124988685929287 
1283	 0.124773505338769 
1284	 0.125042716553351 
1285	 0.124834795052374 
1286	 0.124603913174682 
1287	 0.124496286002532 
1288	 0.123995739000173 
1289	 0.123716027866404 
1290	 0.12361510678191 
1291	 0.123981812278784 
1292	 0.124311939055042 
1293	 0.124206864053499 
1294	 0.123994926395649 
1295	 0.124090216611646 
1296	 0.123946496990842 
1297	 0.123337436164891 
1298	 0.123290574174257 
1299	 0.123788342929608 
1300	 0.12354596137056 
1301	 0.123177591641924 
1302	 0.123590873641917 
1303	 0.123506983368362 
1304	 0.122996140528437 
1305	 0.123135952749864 
1306	 0.123035799239944 
1307	 0.122282932075988 
1308	 0.121945171290917 
1309	 0.122134421119592 
1310	 0.122192171531374 
1311	 0.122153196781348 
1312	 0.122132804938014 
1313	 0.122438437621285 
1314	 0.122212019338183 
1315	 0.121366680242319 
1316	 0.120924799988025 
1317	 0.120559445283185 
1318	 0.120284627078682 
1319	 0.120101812189991 
1320	 0.120080970308494 
1321	 0.120405447614574 
1322	 0.12024600423556 
1323	 0.119854763600118 
1324	 0.11949745431946 
1325	 0.118002531501386 
1326	 0.116579216629164 
1327	 0.116615336684773 
1328	 0.116506081270073 
1329	 0.11651766954378 
1330	 0.117369061327524 
1331	 0.118269247591047 
1332	 0.118581004847267 
1333	 0.118367993695601 
1334	 0.118170066957125 
1335	 0.118292355887125 
1336	 0.117532748784018 
1337	 0.116682856962782 
1338	 0.116958404015707 
1339	 0.117021782094809 
1340	 0.115091983001525 
1341	 0.113947089699094 
1342	 0.114800316277156 
1343	 0.114718179256809 
1344	 0.112289810849023 
1345	 0.112606182412032 
1346	 0.117689617237142 
1347	 0.118027993126432 
1348	 0.114764577805535 
1349	 0.114544980972035 
1350	 0.112243080752837 
1351	 0.104952023102206 
1352	 8.83291647719027E-02 
1353	 8.41734241481209E-02 
1354	 9.62079675589905E-02 
1355	 0.111082727707385 
1356	 0.158323402623059 
1357	 0.208950221257674 
1358	 0.170758131482453 
1359	 7.14770811621276E-02 
1360	 2.89981437111154E-02 
1361	 7.60606179646829E-02 
1362	-0.144388315675382 
1363	-0.187734939982488 
1364	 0.211090527008255 
1365	 0.165529829037193 
1366	-7.05014151521303E-02 
1367	 1.11900711047525E-02 
1368	 0.210261151864501 
1369	 0.18204834624702 
1370	 0.257414625216242 
1371	 0.836570497543573 
1372	 0.806387230790884 
1373	 0.433104297447532 
1374	 0.173626902007897 
1375	-0.386170604677088 
1376	-0.311629677050742 
1377	-0.235642118497934 
1378	-0.174861870721167 
1379	 0.26077857540507 
1380	 0.311269396016175 
1381	 0.197779786684214 
1382	 0.196057871175304 
1383	 0.653157024496632 
1384	 0.346215378803095 
1385	-0.585524635409808 
1386	-0.777864943751753 
1387	-0.436834836819749 
1388	-0.275587818114412 
1389	 0.305254334412264 
1390	 0.538628724839984 
1391	 4.74433230719079E-02 
1392	 0.153674539023437 
1393	 0.388245796088655 
1394	 0.177976560692976 
1395	 0.31101034735273 
1396	 0.452026404741109 
1397	 0.105687669096471 
1398	 0.173617879197954 
1399	 0.514065880998832 
1400	 1.44717586875844 
1401	 3.52214031361625 
1402	 9.51863407546983 
1403	-0.21819162841118 
1404	-0.201631305322541 
1405	-0.172428247111255 
1406	-0.143278890595907 
1407	-0.206232656235353 
1408	-0.243194319798854 
1409	-0.135265495464251 
1410	-5.18030707192298E-02 
1411	 2.71454852927834E-04 
1412	 0.192023304257127 
1413	 0.230155262459391 
1414	 0.130538446904406 
1415	 7.63321513653176E-02 
1416	 5.00306012038455E-02 
1417	 1.97093504480711E-02 
1418	-4.30091193981521E-02 
1419	-6.17524670927484E-02 
1420	-5.65543094475589E-02 
1421	-3.23512213796265E-02 
1422	-7.04890201693157E-03 
1423	 1.48185665382357E-02 
1424	 5.64060483516546E-02 
1425	 6.93326865880332E-02 
1426	 5.74481902766094E-02 
1427	 0.068223738116376 
1428	 9.43185372570752E-02 
1429	 0.100044737283182 
1430	 0.102019321764899 
1431	 0.104687704079827 
1432	 0.104964580728369 
1433	 9.59070151952439E-02 
1434	 7.70199311126368E-02 
1435	 7.15527004623381E-02 
1436	 6.51466120331886E-02 
1437	 5.64622078707232E-02 
1438	 5.92497391424405E-02 
1439	 6.57100627094688E-02 
1440	 6.56401695929961E-02 
1441	 6.16445230508385E-02 
1442	 6.86614476352608E-02 
1443	 7.31855006182154E-02 
1444	 7.04144620473255E-02 
1445	 6.85928911708425E-02 
1446	 6.70566168856046E-02 
1447	 6.85512373419228E-02 
1448	 6.92650533298899E-02 
1449	 7.06153618826667E-02 
1450	 7.15133935935412E-02 
1451	 7.09857070727897E-02 
1452	 6.93629415883509E-02 
1453	 0.069601250913957 
1454	 7.19493103549449E-02 
1455	 7.46328750347486E-02 
1456	 7.41083099774756E-02 
1457	 0.075478632020617 
1458	 7.50564603794009E-02 
1459	 6.97715646660409E-02 
1460	 6.98801192506637E-02 
1461	 7.51695077805435E-02 
1462	 0.074387991454489 
1463	 0.06929800444392 
1464	 7.04062438706219E-02 
1465	 7.32568989321718E-02 
1466	 7.29889545005332E-02 
1467	 7.70332999589346E-02 
1468	 7.77225664385855E-02 
1469	 7.09755601809527E-02 
1470	 6.80525760461716E-02 
1471	 6.73762526098262E-02 
1472	 0.068893969538673 
1473	 7.12484116184226E-02 
1474	 7.20682383384924E-02 
1475	 7.60744378496602E-02 
1476	 7.63912511685477E-02 
1477	 7.25771381413814E-02 
1478	 7.12468462502042E-02 
1479	 7.08592152768435E-02 
1480	 7.00021047651948E-02 
1481	 6.90531851255139E-02 
1482	 6.89145225865361E-02 
1483	 6.70395771815589E-02 
1484	 0.068665103434584 
1485	 7.40038154166519E-02 
1486	 7.49207278239588E-02 
1487	 7.52648682148511E-02 
1488	 7.60699737163022E-02 
1489	 7.47376595876738E-02 
1490	 7.46543238468924E-02 
1491	 7.59700693527999E-02 
1492	 7.66800473043117E-02 
1493	 7.74353858868008E-02 
1494	 7.72545670030174E-02 
1495	 7.62084651595726E-02 
1496	 7.63069994452265E-02 
1497	 7.62978800963234E-02 
1498	 7.64315711536947E-02 
1499	 7.79657520179465E-02 
1500	 7.84030369504082E-02 
1501	 7.75819602025604E-02 
1502	 7.74972760510933E-02 
1503	 7.73286513515864E-02 
1504	 7.76289500684451E-02 
1505	 7.87420912029564E-02 
1506	 7.94343701116224E-02 
1507	 7.92220485228284E-02 
1508	 7.94968945973888E-02 
1509	 8.00999327503368E-02 
1510	 7.96645432825374E-02 
1511	 7.95672681774373E-02 
1512	 7.99071226078366E-02 
1513	 0.079789517388649 
1514	 8.00236686835465E-02 
1515	 0.080607806077343 
1516	 8.11307520694472E-02 
1517	 8.09214749235511E-02 
1518	 8.07786216222676E-02 
1519	 8.19367254148138E-02 
1520	 8.25664828590568E-02 
1521	 8.24695657289073E-02 
1522	 8.31881019084038E-02 
1523	 8.36773856765086E-02 
1524	 8.32700735932334E-02 
1525	 8.33199781600021E-02 
1526	 8.40997795313443E-02 
1527	 8.39424209062229E-02 
1528	 8.33293146524634E-02 
1529	 8.38607858099881E-02 
1530	 8.41635436089406E-02 
1531	 8.38928188837453E-02 
1532	 8.45557707431442E-02 
1533	 8.52397616582278E-02 
1534	 8.50016207296479E-02 
1535	 8.50885425149007E-02 
1536	 8.57672880543414E-02 
1537	 8.62113134810607E-02 
1538	 8.65184272335897E-02 
1539	 8.69497843272395E-02 
1540	 8.71467913422836E-02 
1541	 8.69907210819987E-02 
1542	 0.087184279468691 
1543	 8.78023903403161E-02 
1544	 8.80556836333837E-02 
1545	 8.78598233686315E-02 
1546	 8.80499049514564E-02 
1547	 8.85462194163651E-02 
1548	 0.088691466082985 
1549	 0.088975344907186 
1550	 8.90701938894645E-02 
1551	 8.86797064363472E-02 
1552	 8.89213300668998E-02 
1553	 0.089655452686999 
1554	 8.98789003708069E-02 
1555	 9.00387879263753E-02 
1556	 9.03774874150596E-02 
1557	 9.03194350418771E-02 
1558	 9.04879126849323E-02 
1559	 9.08524347459856E-02 
1560	 9.09123406393632E-02 
1561	 9.09268955507767E-02 
1562	 9.07647494697953E-02 
1563	 9.11489206818784E-02 
1564	 9.18634495192333E-02 
1565	 9.19333802401717E-02 
1566	 9.19844290433512E-02 
1567	 9.19198827993322E-02 
1568	 9.16249167071397E-02 
1569	 9.13791705866967E-02 
1570	 9.12413050897071E-02 
1571	 9.13664194915842E-02 
1572	 9.14549969806394E-02 
1573	 9.17746007802842E-02 
1574	 9.21635296930623E-02 
1575	 9.23598362478129E-02 
1576	 9.26767590004249E-02 
1577	 0.092918155124214 
1578	 9.29433235283811E-02 
1579	 9.29147062237344E-02 
1580	 9.27794175863019E-02 
1581	 0.092463088151033 
1582	 9.26326954285647E-02 
1583	 9.31421218460631E-02 
1584	 9.33421686372637E-02 
1585	 9.33372587760374E-02 
1586	 9.32873660347226E-02 
1587	 9.37383118732908E-02 
1588	 9.40960888819403E-02 
1589	 9.37680007691635E-02 
1590	 9.41212188072294E-02 
1591	 9.46089094091459E-02 
1592	 9.43432751751953E-02 
1593	 0.094723501461545 
1594	 9.55122778757762E-02 
1595	 9.57099333958304E-02 
1596	 9.55565600831903E-02 
1597	 9.51110315791875E-02 
1598	 9.47187721165035E-02 
1599	 9.48231792552543E-02 
1600	 0.094920857978878 
1601	 0.094849816887054 
1602	 9.51531728490806E-02 
1603	 9.55601487595604E-02 
1604	 9.55895531674174E-02 
1605	 9.56459903160441E-02 
1606	 9.57958968758726E-02 
1607	 9.55798759925786E-02 
1608	 9.52397128781937E-02 
1609	 9.51387302378909E-02 
1610	 9.51645693074758E-02 
1611	 9.53494341737034E-02 
1612	 9.57026987126551E-02 
1613	 9.61981778830152E-02 
1614	 9.62554589061307E-02 
1615	 9.58005660297528E-02 
1616	 9.55916992726876E-02 
1617	 9.54409863707271E-02 
1618	 9.55774609820366E-02 
1619	 9.59810014975072E-02 
1620	 9.64376443139899E-02 
1621	 9.69341112436775E-02 
1622	 9.68796737787315E-02 
1623	 9.65195436050812E-02 
1624	 0.096064678031074 
1625	 9.58408036010567E-02 
1626	 9.61608066636513E-02 
1627	 9.68215958535919E-02 
1628	 9.73194975861904E-02 
1629	 9.69320742326501E-02 
1630	 9.65296445695116E-02 
1631	 9.66025287170734E-02 
1632	 9.63604742241059E-02 
1633	 9.62056528250685E-02 
1634	 9.64577927050468E-02 
1635	 9.63522518084181E-02 
1636	 9.63611749999186E-02 
1637	 9.70332097850478E-02 
1638	 0.097215878836283 
1639	 9.69838604658577E-02 
1640	 9.67852356190084E-02 
1641	 9.64863859569342E-02 
1642	 9.66017579737408E-02 
1643	 9.67710548405909E-02 
1644	 0.096570927104557 
1645	 9.64357579935702E-02 
1646	 9.68663461465483E-02 
1647	 9.78276896653121E-02 
1648	 9.81142975683607E-02 
1649	 9.78366053838596E-02 
1650	 9.79859509727875E-02 
1651	 9.77049485500238E-02 
1652	 9.77723087173458E-02 
1653	 0.09764714097484 
1654	 9.74629827697449E-02 
1655	 9.73240958772459E-02 
1656	 9.74108263902424E-02 
1657	 9.78314380821273E-02 
1658	 9.79357539756442E-02 
1659	 9.79482615073117E-02 
1660	 9.77907202833991E-02 
1661	 9.70719777680562E-02 
1662	 9.72211200566692E-02 
1663	 0.098087029884358 
1664	 9.81026457576457E-02 
1665	 9.81414958461351E-02 
1666	 9.84750558163055E-02 
1667	 9.80746582371271E-02 
1668	 9.80401354487921E-02 
1669	 9.87304050870732E-02 
1670	 9.84723346687689E-02 
1671	 9.82089094493948E-02 
1672	 9.89752549516696E-02 
1673	 9.90783301288622E-02 
1674	 9.83488535835421E-02 
1675	 9.79393517305775E-02 
1676	 9.75122091499588E-02 
1677	 9.73654663252623E-02 
1678	 0.097786814641523 
1679	 9.78407197197634E-02 
1680	 9.75147733755988E-02 
1681	 9.74094575911257E-02 
1682	 9.74054246080568E-02 
1683	 9.76157729231549E-02 
1684	 9.81072323113819E-02 
1685	 9.82317504429931E-02 
1686	 9.76609243833627E-02 
1687	 9.76960339099144E-02 
1688	 9.84750452427541E-02 
1689	 9.80720121344311E-02 
1690	 0.0979571580348 
1691	 9.87202453351612E-02 
1692	 9.79167481745791E-02 
1693	 9.75041294629215E-02 
1694	 0.098522003141222 
1695	 9.81459364905069E-02 
1696	 9.70265715987477E-02 
1697	 9.72269328382387E-02 
1698	 9.74844197730992E-02 
1699	 9.70908459998385E-02 
1700	 9.77798910563191E-02 
1701	 9.81615378176294E-02 
1702	 9.65868639041395E-02 
1703	 9.60851659257529E-02 
1704	 9.72624423522564E-02 
1705	 9.75446327467541E-02 
1706	 9.76111608310853E-02 
1707	 9.82100786380984E-02 
1708	 9.73469744730361E-02 
1709	 9.59708217054989E-02 
1710	 9.64923032761767E-02 
1711	 9.72047977250424E-02 
1712	 9.66942412167808E-02 
1713	 9.70011965452176E-02 
1714	 0.09724050103502 
1715	 9.69800780700676E-02 
1716	 9.72052976286938E-02 
1717	 9.65297964331331E-02 
1718	 0.096079351708927 
1719	 9.65472408775225E-02 
1720	 9.67975007561262E-02 
1721	 9.67747840282227E-02 
1722	 9.64322362648179E-02 
1723	 9.55762171333628E-02 
1724	 9.56568423895891E-02 
1725	 9.67023295535894E-02 
1726	 9.69395970965829E-02 
1727	 9.60113571859494E-02 
1728	 9.48653997827567E-02 
1729	 9.47766333367603E-02 
1730	 9.57052098767046E-02 
1731	 9.68653215318842E-02 
1732	 9.71109821520246E-02 
1733	 9.60666815229832E-02 
1734	 9.50634401259644E-02 
1735	 9.43845222178527E-02 
1736	 9.51707331223237E-02 
1737	 9.66999358555815E-02 
1738	 9.58833776503129E-02 
1739	 9.46556399875794E-02 
1740	 9.43490788674708E-02 
1741	 9.35934136521925E-02 
1742	 9.34933352727938E-02 
1743	 9.44338808323464E-02 
1744	 9.40748336071617E-02 
1745	 0.092128454325275 
1746	 9.20507952105709E-02 
1747	 9.22209605408272E-02 
1748	 9.35727879406079E-02 
1749	 0.093620232261267 
1750	 9.25921782614325E-02 
1751	 9.19831679570685E-02 
1752	 9.05702409371587E-02 
1753	 9.03649149737358E-02 
1754	 9.15841308302918E-02 
1755	 9.16739585225593E-02 
1756	 9.12153051223823E-02 
1757	 9.07909511303459E-02 
1758	 9.13537510079047E-02 
1759	 9.10942152225365E-02 
1760	 0.090344420578099 
1761	 8.97527117257657E-02 
1762	 8.82394885072321E-02 
1763	 8.76033406424471E-02 
1764	 8.85315566627647E-02 
1765	 8.93220000884239E-02 
1766	 0.089782831466071 
1767	 8.91042464999451E-02 
1768	 8.81585738081116E-02 
1769	 8.80771895057942E-02 
1770	 8.80417331458987E-02 
1771	 8.87163240909859E-02 
1772	 8.95950071054175E-02 
1773	 9.02106730627951E-02 
1774	 8.99829967373384E-02 
1775	 8.83298368961957E-02 
1776	 8.89955565903959E-02 
1777	 9.05255237053171E-02 
1778	 9.07499608156589E-02 
1779	 9.30922452803949E-02 
1780	 9.34158908489221E-02 
1781	 9.00189532377945E-02 
1782	 8.93286699618982E-02 
1783	 0.089977325301166 
1784	 8.93726776730386E-02 
1785	 8.89610049553441E-02 
1786	 8.84983806757424E-02 
1787	 8.72903140651555E-02 
1788	 8.75181367677055E-02 
1789	 8.77714422802292E-02 
1790	 8.76330497471221E-02 
1791	 9.01758910326835E-02 
1792	 8.77440702664331E-02 
1793	 9.10623240081105E-02 
1794	 9.32557880935102E-02 
1795	 8.87488635046007E-02 
1796	 8.55344182709889E-02 
1797	 7.92374729413962E-02 
1798	 7.70870911302061E-02 
1799	 7.76337117407427E-02 
1800	 9.63543491143414E-02 
1801	 0.104552989385392 
1802	 0.102829970545384 
1803	 9.84633157959095E-02 
1804	 0.063943355022932 
1805	 4.49956445493987E-02 
1806	 3.85008542886481E-02 
1807	 2.31590001150245E-02 
1808	 0.017969201826891 
1809	 1.61766308768083E-02 
1810	 2.22283251995468E-02 
1811	 2.38779493331827E-02 
1812	 4.12623051464648E-02 
1813	 7.40812139210577E-02 
1814	 9.45507771813144E-02 
1815	 0.144714709662036 
1816	 0.582277529824597 
1817	-0.170127309679642 
1818	-0.942072237689068 
1819	-0.313668703646916 
1820	-0.123112544319737 
1821	 0.825438034260411 
1822	 1.0758652111901 
1823	-0.547972519907602 
1824	-1.0762665357173 
1825	-0.459912400167434 
1826	-0.557896520501167 
1827	-0.671192781516682 
1828	-0.583433408115621 
1829	-0.866373928920148 
1830	-2.14334782348904 
1831	 0.21058166831525 
1832	-0.105891610845189 
1833	-1.00330519240167 
1834	-2.71977158757662 
1835	-0.483683731119725 
1836	 2.27175847572877E-02 
1837	-2.45157621643904 
1838	-2.43094689418922 
1839	-4.03712473521144 
1840	-2.17689520539163 
1841	-1.27768653690625 
1842	 1.77784276747091 
1843	-9.19442011854425E-02 
1844	-0.221280432919053 
1845	-0.401144065650484 
1846	-0.64336097489195 
1847	-0.775978385003273 
1848	-3.22360580924314 
1849	 2.2841554951761 
1850	 1.70640795905028 
1851	-1.6920738984258 
1852	-7.09434176870292 
1853	 23.1018974412322 
1854	 6.8369090609178 
1855	 1.53276934857505 
1856	 1.47180067254745 
1857	 2.02412994207193 
1858	 2.20239625951284 
1859	 2.55097786343426 
1860	-2.32408787509861 
1861	-2.43803495445482 
1862	-2.07209651507094 
1863	-1.72655945360399 
1864	-1.75132080891861 
1865	-2.54466582644765 
1866	-15.9059890931007 
1867	 14.1590624964517 
1868	 7.00781742148154 
1869	 3.04120667409035 
1870	 0.914922420074104 
1871	-0.427753552280753 
1872	-0.158820741516131 
1873	 0.155575977293916 
1874	-0.379626348152756 
1875	-0.46065233728109 
1876	-0.641262727000172 
1877	-1.6200843271992 
1878	-2.10982220321457 
1879	-4.26379585194285 
1880	 0.161722287887299 
1881	-1.52406037516716 
1882	-1.1589331106104 
1883	-0.709997261040335 
1884	-1.80114048086507 
1885	 0.531520438396612 
1886	-0.375679859735583 
1887	-0.424510143484462 
1888	 0.337063624162023 
1889	 1.51565231053556 
1890	 1.21598416005939 
1891	 3.22222522424698 
1892	 4.95428808258374 
1893	 21.5855307998202 
1894	-9.44292983566208 
1895	-6.42141082796763 
1896	-0.508244569355168 
1897	-0.745081356615135 
1898	-9.57447010513283E-02 
1899	-0.52627083686262 
1900	-0.383106815887808 
1901	 0.279452502290389 
1902	 0.436171929640871 
1903	 0.480970470316475 
1904	 1.10229151263576 
1905	-5.95265765551879 
1906	-2.39377735191129 
1907	-3.6007191323447 
1908	-6.30258247316825 
1909	 0.418144640834588 
1910	-0.495757029052679 
1911	-0.437518948401693 
1912	 0.3277892712435 
1913	 0.962713063592266 
1914	 1.86839544035012 
1915	 3.95645250581859 
1916	-40.2771623055648 
1917	-2.19180532708547 
1918	-0.760739700578509 
1919	-0.430180308985221 
1920	-0.222945705544544 
1921	 0.1110277651199 
1922	 0.3940316527719 
1923	-2.85261883287618 
1924	-0.584264524353919 
1925	-0.684362686475818 
1926	-0.58033425102581 
1927	-0.249543377853743 
1928	 0.558320556530459 
1929	 0.747395954027277 
1930	 0.697101291116001 
1931	 1.03107093326429 
1932	 1.12094019793994 
1933	 1.03825598630145 
1934	 0.493467481290897 
1935	-0.068450221429007 
1936	-0.4533574518645 
1937	-0.787431305702089 
1938	-0.825433048463753 
1939	-0.838162558590724 
1940	-0.697679177884307 
1941	-0.674066349502141 
1942	-0.550732889239613 
1943	-0.426597455446185 
1944	-0.311500115965414 
1945	-0.163073169370506 
1946	-2.65528176745206E-02 
1947	 4.42836928558808E-02 
1948	 3.86230212700295E-02 
1949	 6.04143154482529E-02 
1950	 3.95214859538327E-02 
1951	-4.98621248667713E-02 
1952	-4.80311973860734E-02 
1953	 2.38527853194918E-02 
1954	 6.98780167570887E-02 
1955	 5.87256701293726E-02 
1956	 8.29711269627098E-02 
1957	 5.65305380859575E-02 
1958	 0.014966992703166 
1959	 3.39049110617897E-02 
1960	 5.32664885953605E-02 
1961	 0.039874733375095 
1962	 4.24319251861882E-02 
1963	 4.36192547157271E-02 
1964	 3.25234196993001E-02 
1965	 3.23967112054013E-02 
1966	 0.033647638920129 
1967	 0.03553333967317 
1968	 3.43337867144078E-02 
1969	 4.12665876430135E-02 
1970	 4.65820605443302E-02 
1971	 5.03443823806541E-02 
1972	 5.41123821840961E-02 
1973	 5.02755162041773E-02 
1974	 4.76333681934435E-02 
1975	 4.86279074486771E-02 
1976	 4.63323960819699E-02 
1977	 4.73872981607647E-02 
1978	 4.85775554997566E-02 
1979	 4.74466104513415E-02 
1980	 0.044922033147893 
1981	 4.37269302845894E-02 
1982	 4.20204340157265E-02 
1983	 4.27358034144174E-02 
1984	 4.34811176746562E-02 
1985	 4.29253061409734E-02 
1986	 4.20738184456778E-02 
1987	 3.99750909367633E-02 
1988	 4.03055084914059E-02 
1989	 3.97154130132144E-02 
1990	 3.50690591306237E-02 
1991	 2.81806154801705E-02 
1992	 2.50435746710394E-02 
1993	 2.78462391783089E-02 
1994	 0.028720162714033 
1995	 3.28780909089349E-02 
1996	 3.93642203890461E-02 
1997	 0.041815369226122 
1998	 3.77590437204883E-02 
1999	 3.87403969035046E-02 
2000	 3.78786588737993E-02 
2001	 3.02786858672191E-02 
2002	 2.87631220557194E-02 
2003	 3.70653205361584E-02 
2004	 4.97042438419848E-02 
2005	 6.06582480024968E-02 
2006	 6.30056079728917E-02 
2007	 5.68092410782289E-02 
2008	 4.55044745558046E-02 
2009	 3.78374799758263E-02 
2010	 3.52384740852514E-02 
2011	 3.40279520628263E-02 
2012	 3.13440422499419E-02 
2013	 2.96639919033803E-02 
2014	 3.52928712436824E-02 
2015	 4.21413260044956E-02 
2016	 4.74347206870785E-02 
2017	 4.71034778930816E-02 
2018	 4.73760203671028E-02 
2019	 4.70193289636641E-02 
2020	 4.76235686465423E-02 
2021	 4.97716418820978E-02 
2022	 5.02715290528881E-02 
2023	 4.97947947955227E-02 
2024	 4.92250563044664E-02 
2025	 4.81666158951309E-02 
2026	 4.77744346307531E-02 
2027	 4.79450233729024E-02 
2028	 4.55974337445825E-02 
2029	 4.71616211283038E-02 
2030	 4.78731858054395E-02 
2031	 4.88120390025085E-02 
2032	 5.21134623990808E-02 
2033	 5.24606285326537E-02 
2034	 5.07485985969738E-02 
2035	 4.99564403929731E-02 
2036	 4.94817045248285E-02 
2037	 4.94100806676843E-02 
2038	 0.048674436942095 
2039	 4.80296003995002E-02 
2040	 4.64850172638143E-02 
2041	 4.69948711074864E-02 
2042	 4.91258925333356E-02 
2043	 5.04143736079673E-02 
2044	 5.36359606105071E-02 
2045	 5.28430521840774E-02 
2046	 5.17586481964158E-02 
2047	 5.23897278254265E-02 
2048	 5.16787263047945E-02 
2049	 5.32412061426951E-02 
2050	 0.053637191079555 
2051	 5.03609718310132E-02 
2052	 4.88601454516578E-02 
2053	 4.80970037123261E-02 
2054	 4.94948601009496E-02 
2055	 5.41284938506529E-02 
2056	 5.67370692098593E-02 
2057	 5.99304393219199E-02 
2058	 6.15680282710274E-02 
2059	 6.24293561250903E-02 
2060	 6.08853396612374E-02 
2061	 5.76367954269626E-02 
2062	 5.32981028024744E-02 
2063	 4.86892340027703E-02 
2064	 4.64602118879328E-02 
2065	 4.80973114934672E-02 
2066	 5.10618796705623E-02 
2067	 5.23190650457821E-02 
2068	 5.49859874390437E-02 
2069	 0.055769855460682 
2070	 5.47399845203459E-02 
2071	 5.67785385267863E-02 
2072	 5.68008904397033E-02 
2073	 5.68255704224048E-02 
2074	 5.69951050118081E-02 
2075	 5.66044213005767E-02 
2076	 0.054879287890745 
2077	 5.47403735652902E-02 
2078	 5.55830300057746E-02 
2079	 5.52669550694824E-02 
2080	 5.45088450118576E-02 
2081	 5.51471628473718E-02 
2082	 5.45797090472923E-02 
2083	 5.42328754134472E-02 
2084	 5.56706460813476E-02 
2085	 5.51484012147022E-02 
2086	 5.61258265083976E-02 
2087	 5.72857085710066E-02 
2088	 5.84635611473813E-02 
2089	 6.10145907765349E-02 
2090	 5.99604122452971E-02 
2091	 5.81770027375776E-02 
2092	 5.80875731239225E-02 
2093	 5.75516211759207E-02 
2094	 5.76506619637584E-02 
2095	 5.99805065165046E-02 
2096	 6.08391682962328E-02 
2097	 6.11085367255676E-02 
2098	 0.060458407001839 
2099	 5.87803075667545E-02 
2100	 0.058111352805846 
2101	 0.057466881378522 
2102	 5.91697149940058E-02 
2103	 6.26209678432761E-02 
2104	 6.39014330612935E-02 
2105	 6.38847440652862E-02 
2106	 6.25462368620481E-02 
2107	 5.94753718399386E-02 
2108	 5.86386259293294E-02 
2109	 0.058859661316958 
2110	 5.84412646160256E-02 
2111	 5.91076853740154E-02 
2112	 5.84537959661676E-02 
2113	 5.83380412345559E-02 
2114	 5.77008893261926E-02 
2115	 5.85452751824988E-02 
2116	 6.04524242010923E-02 
2117	 6.19623172660315E-02 
2118	 6.37792018933822E-02 
2119	 6.48018297981087E-02 
2120	 6.51854477132406E-02 
2121	 6.66669945834482E-02 
2122	 6.65370409688935E-02 
2123	 6.77732788092429E-02 
2124	 6.71670010046599E-02 
2125	 6.54439230575115E-02 
2126	 6.55531768576527E-02 
2127	 6.46843279738816E-02 
2128	 6.35524549703106E-02 
2129	 6.24318117658678E-02 
2130	 6.02182777081916E-02 
2131	 6.02430469832086E-02 
2132	 6.15987012757958E-02 
2133	 6.29085352039335E-02 
2134	 6.37964930519028E-02 
2135	 6.49665107064669E-02 
2136	 6.51241715109579E-02 
2137	 6.42711028847452E-02 
2138	 6.42746982860955E-02 
2139	 6.38542330821139E-02 
2140	 6.39885224645605E-02 
2141	 6.54410588534297E-02 
2142	 6.56470214814094E-02 
2143	 6.45111787732293E-02 
2144	 6.61593727735351E-02 
2145	 6.71364435944177E-02 
2146	 6.52054962986254E-02 
2147	 6.53679449963735E-02 
2148	 6.47512920784793E-02 
2149	 6.27934378179131E-02 
2150	 6.36383305954383E-02 
2151	 6.60340294010503E-02 
2152	 0.06774738789802 
2153	 6.88264385825056E-02 
2154	 6.91924515493115E-02 
2155	 0.067646598831743 
2156	 6.42438891188003E-02 
2157	 6.24303037312984E-02 
2158	 6.01359832114841E-02 
2159	 6.03729068252055E-02 
2160	 6.34088782209782E-02 
2161	 6.46318772458946E-02 
2162	 0.0672130661357 
2163	 6.69567669634722E-02 
2164	 6.27618320232565E-02 
2165	 6.18691628634441E-02 
2166	 6.15224474550704E-02 
2167	 6.22689183354541E-02 
2168	 6.50881921656088E-02 
2169	 6.73565703064768E-02 
2170	 7.09326636694463E-02 
2171	 0.072133865164637 
2172	 7.11827618791868E-02 
2173	 7.09348339070046E-02 
2174	 6.93676819411115E-02 
2175	 6.79052524115609E-02 
2176	 6.89145135207267E-02 
2177	 7.02480585444941E-02 
2178	 6.87187104713184E-02 
2179	 6.79667435514692E-02 
2180	 6.56635730325592E-02 
2181	 6.34495979879251E-02 
2182	 6.62014721330184E-02 
2183	 6.73367953617705E-02 
2184	 6.92008487865251E-02 
2185	 7.15067471602317E-02 
2186	 7.03607892788597E-02 
2187	 6.42324556612094E-02 
2188	 6.17138405391277E-02 
2189	 5.82895147684129E-02 
2190	 5.78402880829657E-02 
2191	 5.98815505727559E-02 
2192	 6.12132290971791E-02 
2193	 0.064666031329195 
2194	 6.59738006427168E-02 
2195	 6.61866560793367E-02 
2196	 6.74059984888187E-02 
2197	 6.92221785767478E-02 
2198	 6.93598008998523E-02 
2199	 6.91679342906243E-02 
2200	 6.82394155781983E-02 
2201	 6.24581133858669E-02 
2202	 6.04002292791832E-02 
2203	 0.061547967434793 
2204	 5.92140185092583E-02 
2205	 6.46024992254743E-02 
2206	 6.62530048686571E-02 
2207	 6.26058656914449E-02 
2208	 0.061445409781815 
2209	 0.059467026713224 
2210	 5.95104337917299E-02 
2211	 0.059734622173635 
2212	 6.03488924826969E-02 
2213	 5.88188216474492E-02 
2214	 5.86722499281155E-02 
2215	 6.30645249215695E-02 
2216	 6.57554182501967E-02 
2217	 6.71127702876599E-02 
2218	 6.91471608140628E-02 
2219	 6.88976312080321E-02 
2220	 6.55435171896518E-02 
2221	 6.53343212517253E-02 
2222	 0.067714817931596 
2223	 6.61667690039249E-02 
2224	 6.02883091124111E-02 
2225	 5.79374996406322E-02 
2226	 5.58123753358688E-02 
2227	 5.47438203368169E-02 
2228	 5.84667071377608E-02 
2229	 5.94021647678391E-02 
2230	 5.69663251808096E-02 
2231	 5.58576523520585E-02 
2232	 0.052720486201608 
2233	 0.054366826548388 
2234	 5.98606211430403E-02 
2235	 6.48826072678796E-02 
2236	 6.73493962531586E-02 
2237	 7.28859737661234E-02 
2238	 7.52122964089888E-02 
2239	 7.38993681338278E-02 
2240	 7.73612132577921E-02 
2241	 7.72645019431531E-02 
2242	 7.19269804971398E-02 
2243	 6.87216569984195E-02 
2244	 6.85149392530929E-02 
2245	 6.58062725242131E-02 
2246	 6.23592282998546E-02 
2247	 0.063685636040645 
2248	 6.20859339644459E-02 
2249	 0.061634509907227 
2250	 6.52630367611247E-02 
2251	 6.73104301656559E-02 
2252	 6.94058416381645E-02 
2253	 6.78510375920358E-02 
2254	 6.42247113146612E-02 
2255	 6.10455278504899E-02 
2256	 6.16688282021518E-02 
2257	 6.53429664850867E-02 
2258	 6.27948887498415E-02 
2259	 5.91911994868967E-02 
2260	 5.90249046910832E-02 
2261	 5.79892497611089E-02 
2262	 5.68953722765818E-02 
2263	 5.93843385979007E-02 
2264	 6.05064819332312E-02 
2265	 5.78003102674211E-02 
2266	 5.80570128709873E-02 
2267	 0.06597138515013 
2268	 6.65291528059192E-02 
2269	 5.79924681540084E-02 
2270	 5.84040832410265E-02 
2271	 6.07734013940966E-02 
2272	 0.062190780953152 
2273	 7.37340772565568E-02 
2274	 7.49226133725345E-02 
2275	 6.48602149815904E-02 
2276	 6.13042669097532E-02 
2277	 5.41797523636991E-02 
2278	 5.27424826996584E-02 
2279	 0.061027611003418 
2280	 6.26801989364652E-02 
2281	 6.12307035265904E-02 
2282	 6.42505195118827E-02 
2283	 6.57666408968623E-02 
2284	 6.51869461467271E-02 
2285	 6.91494624730409E-02 
2286	 6.96223992850437E-02 
2287	 6.25605353396383E-02 
2288	 5.65186707499386E-02 
2289	 5.02836944323083E-02 
2290	 4.76187315043467E-02 
2291	 4.65552289633102E-02 
2292	 4.57407479273172E-02 
2293	 5.19267674806099E-02 
2294	 5.29751948546776E-02 
2295	 5.49987798440376E-02 
2296	 5.91991768048901E-02 
2297	 5.32697672896236E-02 
2298	 4.66750523604923E-02 
2299	 4.28797780305803E-02 
2300	 4.24332374571099E-02 
2301	 4.59079815453959E-02 
2302	 5.05696230280965E-02 
2303	 5.74823100118916E-02 
2304	 5.72220481133655E-02 
2305	 5.56882711747507E-02 
2306	 5.38917298117099E-02 
2307	 0.039282664535883 
2308	 0.03380041769064 
2309	 3.13159600054593E-02 
2310	 2.26794909987242E-02 
2311	 2.68675935765213E-02 
2312	 2.80176272811752E-02 
2313	 2.46218548929377E-02 
2314	 3.10821795963071E-02 
2315	 3.20125023888868E-02 
2316	 0.029260460847184 
2317	 3.98924322628325E-02 
2318	 4.16644968801507E-02 
2319	 4.10967669485907E-02 
2320	 4.91393239164752E-02 
2321	 4.47764156830873E-02 
2322	 4.63782994455909E-02 
2323	 4.58088766840341E-02 
2324	 4.44791379979087E-02 
2325	 0.053243554761061 
2326	 5.83116442708807E-02 
2327	 6.48807481986477E-02 
2328	 6.15532753769581E-02 
2329	 5.26341448733786E-02 
2330	 3.82057357519014E-02 
2331	 2.11650136546641E-02 
2332	 0.029671580592142 
2333	 4.46212071792861E-02 
2334	 4.71493682106264E-02 
2335	 5.11968670759599E-02 
2336	 5.25767222712804E-02 
2337	 4.36470891044785E-02 
2338	 0.035405180245667 
2339	 3.28262653971983E-02 
2340	 2.30850950043262E-02 
2341	 2.51600495340281E-02 
2342	 0.038867018858228 
2343	 0.044180408120196 
2344	 0.056144094587778 
2345	 5.14407764995238E-02 
2346	 0.029571826928064 
2347	 3.61720650627985E-02 
2348	 3.99477453783034E-02 
2349	 3.15313643694324E-02 
2350	 3.67484547696636E-02 
2351	 2.12791338176122E-02 
2352	-2.51214327514776E-03 
2353	-5.77621467729921E-03 
2354	 2.25781220390213E-03 
2355	 9.28924759811405E-03 
2356	 2.39418453373538E-02 
2357	 4.29938856061704E-02 
2358	 5.02157664223847E-02 
2359	 5.56375851759128E-02 
2360	 5.78316460706451E-02 
2361	 4.81183806840529E-02 
2362	 5.64943933549356E-02 
2363	 0.070196341316074 
2364	 5.80972955207337E-02 
2365	 4.80395884386593E-02 
2366	 3.57511611939059E-02 
2367	-6.91655289568017E-03 
2368	-1.30363577395183E-02 
2369	 2.29357177789861E-02 
2370	-9.63329710754233E-03 
2371	-4.61504933181763E-02 
2372	-3.18522479271824E-02 
2373	-0.044851555223159 
2374	-3.93468214590344E-02 
2375	-6.40162304857857E-04 
2376	 2.34075795251606E-02 
2377	 2.53407608164207E-02 
2378	 2.76097683488034E-03 
2379	 6.79116188778668E-03 
2380	 4.65598613238037E-04 
2381	-6.37762916322555E-02 
2382	-0.103241809275929 
2383	-9.85834872524548E-02 
2384	-5.52250329298626E-02 
2385	 3.17332235948458E-02 
2386	 0.139124114696177 
2387	 0.176867793820712 
2388	 0.117282089549894 
2389	 9.94205621380988E-02 
2390	 3.59731438110725E-02 
2391	 4.27952730384841E-02 
2392	 0.103903214873352 
2393	 6.95191169161326E-02 
2394	 0.129660886076504 
2395	 0.179493380784374 
2396	 0.1429608278451 
2397	 0.141362128106708 
2398	 5.32536536909215E-02 
2399	-2.47333167160621E-02 
2400	 1.10496335288032E-02 
2401	 4.19265834997052E-02 
2402	 0.140603453232813 
2403	 0.179541764841575 
2404	 6.02350879280407E-02 
2405	-5.48715054146304E-02 
2406	-0.144879423074087 
2407	-0.243635152694347 
2408	-0.165990338032283 
2409	 0.102842474863566 
2410	 0.18631722698176 
2411	 0.18314261554491 
2412	-0.116945414282188 
2413	-0.511635930895683 
2414	-0.620057333374726 
2415	-0.566102018592941 
2416	-0.338388817688713 
2417	-0.126889804664049 
2418	-0.137051185152661 
2419	-0.236902540617023 
2420	-0.305130636885673 
2421	-0.376492295232961 
2422	-0.341707856805644 
2423	-0.232780134753787 
2424	-0.127791972999346 
2425	-4.87516177278439E-02 
2426	 0.14604846289951 
2427	-5.26308330022059E-02 
2428	-0.239407105525744 
2429	-0.30447506585351 
2430	-0.368582427083017 
2431	-0.320279691898538 
2432	-0.280359482785951 
2433	-0.281768422723449 
2434	-0.280420894660004 
2435	-0.524949164815747 
2436	-0.621892170204471 
2437	-0.380878529894884 
2438	-0.324241053482234 
2439	-0.197756482024719 
2440	 2.15884785467246E-02 
2441	-0.134865905959302 
2442	-0.407456755508607 
2443	-0.512820900992722 
2444	-0.450815099787849 
2445	-0.535373820134901 
2446	-0.585539819163891 
2447	-0.945331024637138 
2448	-1.12637690902912 
2449	-0.959756574070995 
2450	-1.02733783462765 
2451	-2.00320656573544 
2452	 11.8768203660289 
2453	 0.107007678237964 
2454	 1.42482328222251 
2455	 1.99178886293478 
2456	 1.39860237208241 
2457	-4.13290602277815 
2458	 5.61852613708311E-02 
2459	 5.23006677242039 
2460	 4.89103059609234 
2461	 9.18217943811603 
2462	 1.03982034203604 
2463	 0.205080742710954 
2464	 0.631207631386279 
2465	 0.32328768991236 
2466	 0.66853457120051 
2467	 5.8915823472379 
2468	-21.2890124539635 
2469	-5.4885626864169 
2470	-10.7925658341319 
2471	-11.0576247083167 
2472	-2.90753960590924 
2473	 0.143305630028568 
2474	 0.196373586593806 
2475	 0.648830988607875 
2476	 1.4901554658958 
2477	 1.62616518586952 
2478	-1.9772944985214 
2479	-0.870201408329992 
2480	-0.356800978708911 
2481	 0.119956368948118 
2482	 0.353601201827255 
2483	-1.71385848572551 
2484	-1.08005676207365 
2485	-1.50717452132686 
2486	-0.276176896150093 
2487	 0.326916669192428 
2488	 3.30175109678735 
2489	 4.89045253388734 
2490	 43.9773042927373 
2491	-3.84945321942022 
2492	-4.12934575486079 
2493	-2.58025070660518 
2494	-0.749404616203556 
2495	-0.843252895945565 
2496	-0.44333169654666 
2497	-1.38220317412725 
2498	 5.69099246745985 
2499	 2.69615491505211 
2500	 3.85330461078197 
