Wavelength	rt0714yellow00009.asd
350	 7.18826916846196E-02 
351	 7.15528021383003E-02 
352	 7.18973510552265E-02 
353	 7.20125957154357E-02 
354	 7.15602509889189E-02 
355	 7.18443493770832E-02 
356	 0.071500806924304 
357	 7.17656733220209E-02 
358	 7.35197232401483E-02 
359	 7.27946126909761E-02 
360	 7.20493049445138E-02 
361	 7.19785715199913E-02 
362	 7.19555037018445E-02 
363	 7.26455941903851E-02 
364	 7.31301944329066E-02 
365	 7.29870949398803E-02 
366	 7.27861517231497E-02 
367	 7.29753269129559E-02 
368	 7.32738804135385E-02 
369	 7.34267209885534E-02 
370	 7.41637201343259E-02 
371	 7.41959913218374E-02 
372	 0.07390526032082 
373	 7.44753078304868E-02 
374	 7.46076909158032E-02 
375	 7.50456424380056E-02 
376	 7.58001892391642E-02 
377	 7.56543510631211E-02 
378	 7.58487186150127E-02 
379	 7.63013512770354E-02 
380	 7.67504347055681E-02 
381	 7.74465397154472E-02 
382	 7.80265730231607E-02 
383	 0.078472010249858 
384	 7.89490886760284E-02 
385	 7.95908661432916E-02 
386	 7.98796786872701E-02 
387	 8.00261801023707E-02 
388	 8.10328674798734E-02 
389	 8.20905803302201E-02 
390	 8.26743980628082E-02 
391	 0.0828194712425 
392	 8.37057474394804E-02 
393	 8.43862083731801E-02 
394	 8.47264677716214E-02 
395	 8.49521904686958E-02 
396	 8.53320954185286E-02 
397	 8.57151075729267E-02 
398	 8.61880413044053E-02 
399	 8.70122203728466E-02 
400	 8.72223920879509E-02 
401	 8.73487161680925E-02 
402	 8.78573999544612E-02 
403	 8.86063428802372E-02 
404	 8.90493644986088E-02 
405	 8.93132384346837E-02 
406	 0.089768202519358 
407	 9.05256372477427E-02 
408	 9.10299765354594E-02 
409	 9.14121949603741E-02 
410	 9.24347295613914E-02 
411	 9.29195971224443E-02 
412	 9.32048772803069E-02 
413	 9.37072703980591E-02 
414	 9.43453895504255E-02 
415	 0.095049029487867 
416	 9.57936251289833E-02 
417	 9.65426287334161E-02 
418	 9.70300148398435E-02 
419	 9.76644640785601E-02 
420	 9.85465667171629E-02 
421	 9.94002559486485E-02 
422	 9.99880393016327E-02 
423	 0.100710444545854 
424	 0.101804394520353 
425	 0.102680528459187 
426	 0.103509252959861 
427	 0.104436263362992 
428	 0.105553292428086 
429	 0.106649517086565 
430	 0.107714957179899 
431	 0.108811755991524 
432	 0.110064303204668 
433	 0.111120879093853 
434	 0.112046962824439 
435	 0.113011724772934 
436	 0.114189003560042 
437	 0.115401313747999 
438	 0.116552105311982 
439	 0.117613216173629 
440	 0.118756687059192 
441	 0.119857717747878 
442	 0.120802994181331 
443	 0.121530560923262 
444	 0.122592046850633 
445	 0.123632490156616 
446	 0.124288461392387 
447	 0.125225597426274 
448	 0.126041785313025 
449	 0.126672452359825 
450	 0.127315481993187 
451	 0.127915413556914 
452	 0.128485076857571 
453	 0.129030978893694 
454	 0.129520861428638 
455	 0.130087869026784 
456	 0.130624708867936 
457	 0.130984691971251 
458	 0.13130443769555 
459	 0.131739452256654 
460	 0.13227781825367 
461	 0.132733694586347 
462	 0.132932659754452 
463	 0.133178251750229 
464	 0.133677896908511 
465	 0.134119182381233 
466	 0.134430908915376 
467	 0.134751979766829 
468	 0.135286375700394 
469	 0.135810489944744 
470	 0.136127351990201 
471	 0.136317453633141 
472	 0.136813209419931 
473	 0.137271459720242 
474	 0.137786053909452 
475	 0.138446795475595 
476	 0.138925782130265 
477	 0.139417775049262 
478	 0.13993249704473 
479	 0.140374894597973 
480	 0.140994839987809 
481	 0.141606451497021 
482	 0.142149386326859 
483	 0.142945989813994 
484	 0.143635165316939 
485	 0.14433454519289 
486	 0.145239805013152 
487	 0.145958877218151 
488	 0.146687946211745 
489	 0.147519332382092 
490	 0.1484146145125 
491	 0.149392783792143 
492	 0.150338915689392 
493	 0.151193797829006 
494	 0.152130941651682 
495	 0.153031824779896 
496	 0.153992404377632 
497	 0.155164731339046 
498	 0.156185929255013 
499	 0.157191204475498 
500	 0.158288691979814 
501	 0.159465797274274 
502	 0.160611807048454 
503	 0.161723603548914 
504	 0.16283702316814 
505	 0.163977825400287 
506	 0.165110150259143 
507	 0.166205049245473 
508	 0.167260269567409 
509	 0.168607508687918 
510	 0.169937472576647 
511	 0.171017831573392 
512	 0.172014599149825 
513	 0.173178129289822 
514	 0.174483926213769 
515	 0.175772798560962 
516	 0.177064847660013 
517	 0.178423038305038 
518	 0.179817933969342 
519	 0.181111007401035 
520	 0.182354056621473 
521	 0.183565260067736 
522	 0.184775960238999 
523	 0.186059175748488 
524	 0.187354364620724 
525	 0.188643226635473 
526	 0.189950303070201 
527	 0.191351115861371 
528	 0.192742242120141 
529	 0.19405486100338 
530	 0.195346034884689 
531	 0.196541905064748 
532	 0.197759293878397 
533	 0.199126230085725 
534	 0.200410740205848 
535	 0.201645836373883 
536	 0.20288224999835 
537	 0.204160336419194 
538	 0.205493144626352 
539	 0.206761109496635 
540	 0.207898141991155 
541	 0.209104453853349 
542	 0.21036710324896 
543	 0.211597386310649 
544	 0.212688585613072 
545	 0.213814621804096 
546	 0.214933173116182 
547	 0.216003160468237 
548	 0.217045109741398 
549	 0.218040433018336 
550	 0.219122869587179 
551	 0.220381953521618 
552	 0.22135725022687 
553	 0.222205737191465 
554	 0.223098424547556 
555	 0.224164330402822 
556	 0.225029995474229 
557	 0.225915842420574 
558	 0.226990956118163 
559	 0.227820137082645 
560	 0.228488987550608 
561	 0.229160921308228 
562	 0.230015522353603 
563	 0.230778164883233 
564	 0.231464247521004 
565	 0.232133273928363 
566	 0.232866056353999 
567	 0.233478634781139 
568	 0.234027197953372 
569	 0.234622929507965 
570	 0.235129274041553 
571	 0.235689800681158 
572	 0.236242658214315 
573	 0.23650222856583 
574	 0.236899855328824 
575	 0.237337297781181 
576	 0.237666971472864 
577	 0.238020595496271 
578	 0.238253337030412 
579	 0.238483290410536 
580	 0.238931194192547 
581	 0.239137408635644 
582	 0.239211033589531 
583	 0.239311875982089 
584	 0.239579653888569 
585	 0.239593703751516 
586	 0.23948406122075 
587	 0.239523958593825 
588	 0.239507402827866 
589	 0.239529809022526 
590	 0.239613511007774 
591	 0.239683138671334 
592	 0.239505249717992 
593	 0.239286489668412 
594	 0.239194592258144 
595	 0.238982876322859 
596	 0.238681700957378 
597	 0.238311775458429 
598	 0.237909809993712 
599	 0.237654749655268 
600	 0.23732423573254 
601	 0.236908136946469 
602	 0.236854502048528 
603	 0.236768007836063 
604	 0.236632863015472 
605	 0.236541367460199 
606	 0.236476341843233 
607	 0.236390056035393 
608	 0.236334950199528 
609	 0.23645468848764 
610	 0.236459123480282 
611	 0.236420849478466 
612	 0.236428383597246 
613	 0.236379231372754 
614	 0.23626029652784 
615	 0.236162272490958 
616	 0.236207558096538 
617	 0.236205886607223 
618	 0.236171686971255 
619	 0.236164838948463 
620	 0.236291008461662 
621	 0.236249774996505 
622	 0.236173123065889 
623	 0.23622774705583 
624	 0.235989879050941 
625	 0.235837972461883 
626	 0.235855993530784 
627	 0.23582647165016 
628	 0.235890858161791 
629	 0.235873844521558 
630	 0.235731211269319 
631	 0.235934324805814 
632	 0.235963579831865 
633	 0.235766641507806 
634	 0.235544913272932 
635	 0.235519140255611 
636	 0.235616359779106 
637	 0.235677118261495 
638	 0.235467388509065 
639	 0.235271847475868 
640	 0.235193177469487 
641	 0.235226243820125 
642	 0.235203825212068 
643	 0.23498637356235 
644	 0.234727081795613 
645	 0.234782644711094 
646	 0.234650873475563 
647	 0.234507040993271 
648	 0.23448787092381 
649	 0.234357540063134 
650	 0.234117835324279 
651	 0.233858565374468 
652	 0.233672546394507 
653	 0.233333928753153 
654	 0.232947981600752 
655	 0.232563630505003 
656	 0.232169908504579 
657	 0.231895169091037 
658	 0.231632464666495 
659	 0.231271379993039 
660	 0.230839071751983 
661	 0.230509067514463 
662	 0.230306171600349 
663	 0.23014452072725 
664	 0.229828908941517 
665	 0.2295723930708 
666	 0.22946780987508 
667	 0.229298581785178 
668	 0.229293900142625 
669	 0.229210398238731 
670	 0.228837831541308 
671	 0.228932180913303 
672	 0.228961198211156 
673	 0.228795406097465 
674	 0.22873561875992 
675	 0.228833371278777 
676	 0.228902076863013 
677	 0.228842185979848 
678	 0.228887630555305 
679	 0.229032080203262 
680	 0.229214652861867 
681	 0.229342243154626 
682	 0.229332157168654 
683	 0.229510975561981 
684	 0.229824732798748 
685	 0.229671387256991 
686	 0.229645613142819 
687	 0.229815272602448 
688	 0.230036394636505 
689	 0.230251277633042 
690	 0.230150708117771 
691	 0.230030079221334 
692	 0.230432682956722 
693	 0.230237433735053 
694	 0.23006173838782 
695	 0.230177567990249 
696	 0.22989373643402 
697	 0.229852637066165 
698	 0.229756357073364 
699	 0.229213918388088 
700	 0.228831910631117 
701	 0.228556673140291 
702	 0.228333064289329 
703	 0.228097257074695 
704	 0.22746617376719 
705	 0.226859289836983 
706	 0.226475763142288 
707	 0.22571056531302 
708	 0.225047781120015 
709	 0.224409324116314 
710	 0.223566813244677 
711	 0.222667409234963 
712	 0.221800383590429 
713	 0.220919553457577 
714	 0.219822686276216 
715	 0.21873998809828 
716	 0.217772271117271 
717	 0.216914290417374 
718	 0.215378091661934 
719	 0.214221823860064 
720	 0.213365038731436 
721	 0.212205690388246 
722	 0.211370133824637 
723	 0.210296235788508 
724	 0.20897268111978 
725	 0.20795941599464 
726	 0.206667923846276 
727	 0.205415328901522 
728	 0.20438064675287 
729	 0.202643987048038 
730	 0.201186109973792 
731	 0.200098614791863 
732	 0.198992596683676 
733	 0.197911847988464 
734	 0.197110781350444 
735	 0.196515110931077 
736	 0.195593902093546 
737	 0.195172720420951 
738	 0.194947145185306 
739	 0.194575808453371 
740	 0.194459959137308 
741	 0.194353020561915 
742	 0.194245933670875 
743	 0.19423040048744 
744	 0.194145330666127 
745	 0.194003109639909 
746	 0.193830493907229 
747	 0.193645273538635 
748	 0.193520648960083 
749	 0.193485139281704 
750	 0.193494789355365 
751	 0.193303091757658 
752	 0.193338334339061 
753	 0.193466139600766 
754	 0.193307774069917 
755	 0.193274764615059 
756	 0.193266099775237 
757	 0.193231903929041 
758	 0.193278285670528 
759	 0.193038268268949 
760	 0.192817724996011 
761	 0.19316032870847 
762	 0.193025082025637 
763	 0.193047936137961 
764	 0.193051374641313 
765	 0.19278743745564 
766	 0.192815679227848 
767	 0.192799768060264 
768	 0.192695478068806 
769	 0.192735766006335 
770	 0.192730338806647 
771	 0.192703776484955 
772	 0.192736680558746 
773	 0.192974843895955 
774	 0.192984326263491 
775	 0.192903649110017 
776	 0.193058830594593 
777	 0.193216316836145 
778	 0.193244088403381 
779	 0.193262323425061 
780	 0.193598549419005 
781	 0.193718693923262 
782	 0.193559447232555 
783	 0.193343173181334 
784	 0.193740309591239 
785	 0.193993451091318 
786	 0.19404194895627 
787	 0.194093302929054 
788	 0.194306779123773 
789	 0.19453872178333 
790	 0.194727498477567 
791	 0.194891273191643 
792	 0.194922150416932 
793	 0.19514071654395 
794	 0.19555523225839 
795	 0.195575598715616 
796	 0.195593547255503 
797	 0.195721022670755 
798	 0.195944079603434 
799	 0.196096010143417 
800	 0.196225641392536 
801	 0.196294293517063 
802	 0.19624944085988 
803	 0.196254528417307 
804	 0.196365851663805 
805	 0.19644840003222 
806	 0.196209941999693 
807	 0.196357506957623 
808	 0.196309987604821 
809	 0.19579574946097 
810	 0.19603830876155 
811	 0.195970097784076 
812	 0.195681943685848 
813	 0.195604182290754 
814	 0.195089632905352 
815	 0.194821976435226 
816	 0.194750142614086 
817	 0.194244642011233 
818	 0.193802734848528 
819	 0.193454142499119 
820	 0.193005141980311 
821	 0.192066848544507 
822	 0.19141910104498 
823	 0.191049276632586 
824	 0.190595885097963 
825	 0.189452314278372 
826	 0.188451486024302 
827	 0.187522114885745 
828	 0.186382962995759 
829	 0.185277046979568 
830	 0.184765375661676 
831	 0.184543140404679 
832	 0.183799128282844 
833	 0.183264181986058 
834	 0.182839900961873 
835	 0.182420535937687 
836	 0.182030306725852 
837	 0.181832306674057 
838	 0.181636776275679 
839	 0.181300184508489 
840	 0.180964787122375 
841	 0.180976258892279 
842	 0.18095761931374 
843	 0.180521361217477 
844	 0.180667608730158 
845	 0.180248456383482 
846	 0.17964945895807 
847	 0.180116944899505 
848	 0.180109390125515 
849	 0.179778568730093 
850	 0.179424146408652 
851	 0.17925038192061 
852	 0.178859089012143 
853	 0.178666788987656 
854	 0.178761925396038 
855	 0.178168660740388 
856	 0.178240175026427 
857	 0.178503688812829 
858	 0.178277761728799 
859	 0.178052308019321 
860	 0.177774534220234 
861	 0.177640619397417 
862	 0.177790655081992 
863	 0.177319528243132 
864	 0.176939336875963 
865	 0.176868810439497 
866	 0.176771783401636 
867	 0.176683314740749 
868	 0.176752310031163 
869	 0.176831801163516 
870	 0.17640398060275 
871	 0.175780589482439 
872	 0.175624743238007 
873	 0.176041672276389 
874	 0.175780901638334 
875	 0.175244547627856 
876	 0.175004676802421 
877	 0.175260886928483 
878	 0.174673709431119 
879	 0.174181357100601 
880	 0.173937668948262 
881	 0.17378867628906 
882	 0.174306982156532 
883	 0.174066510290798 
884	 0.173405668710883 
885	 0.173800245636952 
886	 0.173671033074307 
887	 0.173608013905279 
888	 0.173630353960359 
889	 0.172972748213947 
890	 0.173157080101921 
891	 0.173351659375702 
892	 0.173036744662599 
893	 0.173080598787236 
894	 0.172692591617387 
895	 0.17263431060749 
896	 0.173230181773248 
897	 0.172032693003975 
898	 0.171650822923888 
899	 0.172052894615754 
900	 0.172149516809601 
901	 0.171004802658456 
902	 0.171401293158365 
903	 0.171983079258385 
904	 0.170712268978183 
905	 0.170579850700381 
906	 0.170588771879651 
907	 0.170813311552604 
908	 0.171809971432358 
909	 0.171446076428702 
910	 0.170671063711208 
911	 0.170035804408378 
912	 0.169521948901023 
913	 0.1704141790056 
914	 0.17024504958866 
915	 0.169221261574306 
916	 0.17053238596817 
917	 0.169884494967421 
918	 0.168483834116754 
919	 0.16775331916634 
920	 0.168178568507624 
921	 0.168673625012251 
922	 0.168690162042199 
923	 0.168284144776815 
924	 0.168480969197917 
925	 0.168615758167436 
926	 0.168443685842279 
927	 0.167930263899197 
928	 0.167412610716868 
929	 0.166611702180921 
930	 0.166208001318714 
931	 0.166797185200346 
932	 0.164059166373271 
933	 0.168548762626494 
934	 0.171880546485286 
935	 0.163655333484053 
936	 0.165949357535553 
937	 0.164766680373813 
938	 0.162523876270592 
939	 0.164331880183149 
940	 0.164186837360668 
941	 0.163327942814583 
942	 0.163323337311191 
943	 0.165182513366977 
944	 0.165561100045357 
945	 0.16587874907946 
946	 0.167268377263353 
947	 0.168505402719819 
948	 0.157088575657801 
949	 0.157201102930696 
950	 0.165620828383725 
951	 0.163916914762838 
952	 0.163436435466684 
953	 0.163336146893255 
954	 0.162459344396078 
955	 0.160796089270972 
956	 0.163666023304292 
957	 0.162998277521484 
958	 0.160367225511014 
959	 0.162928221061423 
960	 0.1618152181129 
961	 0.160701300897866 
962	 0.160492884531615 
963	 0.159638335947041 
964	 0.160305757858803 
965	 0.160482696266466 
966	 0.160147617544622 
967	 0.160781412720515 
968	 0.162140797871942 
969	 0.160956130329673 
970	 0.159094631953552 
971	 0.161716137150545 
972	 0.161380978185481 
973	 0.161623161913429 
974	 0.162189638908833 
975	 0.15928541465698 
976	 0.16169009213862 
977	 0.16298558402083 
978	 0.162038217394846 
979	 0.162997882213861 
980	 0.160273008957321 
981	 0.161707737610481 
982	 0.164473208082736 
983	 0.158912911782475 
984	 0.158750058029011 
985	 0.158335551097742 
986	 0.157183053869395 
987	 0.159637377835464 
988	 0.163208148259693 
989	 0.163882003528564 
990	 0.161700339400569 
991	 0.159899282526753 
992	 0.160117237605334 
993	 0.159638785332146 
994	 0.158419657648957 
995	 0.158440825711663 
996	 0.159950876382544 
997	 0.158518374032119 
998	 0.157884420990538 
999	 0.163461186757085 
1000	 0.160369083300644 
1001	 0.157567793238334 
1002	 0.157455457843789 
1003	 0.15765821707322 
1004	 0.157478110944159 
1005	 0.157408450189733 
1006	 0.157600241811179 
1007	 0.158015664810495 
1008	 0.158276640282183 
1009	 0.158450239485605 
1010	 0.158288700119382 
1011	 0.158736066034841 
1012	 0.158982498191877 
1013	 0.158794216600819 
1014	 0.158857686764307 
1015	 0.159275810393328 
1016	 0.159216981640681 
1017	 0.158911853583748 
1018	 0.15860842520982 
1019	 0.157937502470202 
1020	 0.157697029329193 
1021	 0.157505256637794 
1022	 0.157603105211749 
1023	 0.157586566090522 
1024	 0.157657070454828 
1025	 0.157730037494575 
1026	 0.157593547830851 
1027	 0.157884838401988 
1028	 0.158828072209429 
1029	 0.158867900018134 
1030	 0.158668535248687 
1031	 0.158595025043334 
1032	 0.157894069534693 
1033	 0.157758421681103 
1034	 0.158227187488755 
1035	 0.158182595770432 
1036	 0.157854087746582 
1037	 0.157851992300521 
1038	 0.158014373524613 
1039	 0.157715137384171 
1040	 0.15819621970331 
1041	 0.158756302875018 
1042	 0.158838726340147 
1043	 0.158785243184383 
1044	 0.158734665619843 
1045	 0.158174094473656 
1046	 0.158211641828705 
1047	 0.158814522158711 
1048	 0.158776968880501 
1049	 0.158528057288634 
1050	 0.158472482583329 
1051	 0.158048636484318 
1052	 0.157961743907159 
1053	 0.158353903783512 
1054	 0.158544202864255 
1055	 0.159000614026483 
1056	 0.158908802164294 
1057	 0.158561494528058 
1058	 0.157763855230426 
1059	 0.157651256557183 
1060	 0.157280539328807 
1061	 0.157454341243481 
1062	 0.158639642056195 
1063	 0.158914584949629 
1064	 0.158917527774762 
1065	 0.158879844155773 
1066	 0.158591144013633 
1067	 0.158247809875691 
1068	 0.157622217825125 
1069	 0.157289419816338 
1070	 0.156767253623206 
1071	 0.156607446910711 
1072	 0.156802094926638 
1073	 0.157283414642896 
1074	 0.157356499645434 
1075	 0.157444408947231 
1076	 0.157485524524772 
1077	 0.157172966804089 
1078	 0.15729298153416 
1079	 0.157866242836016 
1080	 0.157891060115679 
1081	 0.157800138959307 
1082	 0.157682307769313 
1083	 0.157156589954851 
1084	 0.156910580508736 
1085	 0.156930091834933 
1086	 0.156812706990373 
1087	 0.156429417101862 
1088	 0.156348825200271 
1089	 0.156493380387315 
1090	 0.15658684183392 
1091	 0.156602124033053 
1092	 0.156764553257617 
1093	 0.15681123154369 
1094	 0.156644161793919 
1095	 0.156527364790159 
1096	 0.156578839993621 
1097	 0.156603594974854 
1098	 0.156304373417473 
1099	 0.156307091868315 
1100	 0.156892808490688 
1101	 0.156794674652025 
1102	 0.15603164156919 
1103	 0.156010577487194 
1104	 0.156326372281032 
1105	 0.155939550349714 
1106	 0.156245812872144 
1107	 0.157486894879684 
1108	 0.157099896952714 
1109	 0.156016450901829 
1110	 0.155993291446323 
1111	 0.155992516960228 
1112	 0.156218230896663 
1113	 0.158494635591084 
1114	 0.158520808731257 
1115	 0.155421192237361 
1116	 0.155172808971993 
1117	 0.156120528048019 
1118	 0.156417539643627 
1119	 0.160489835470096 
1120	 0.161915334676842 
1121	 0.16002110691704 
1122	 0.154663159380691 
1123	 0.152066954574187 
1124	 0.154747281637504 
1125	 0.158262043991838 
1126	 0.160025709529197 
1127	 0.161689759480379 
1128	 0.156326073305101 
1129	 0.153646992474918 
1130	 0.150930335930372 
1131	 0.15012643476835 
1132	 0.14999877850708 
1133	 0.149778272147052 
1134	 0.148171118715022 
1135	 0.149652547118355 
1136	 0.154496404955517 
1137	 0.155027083082046 
1138	 0.155793422734197 
1139	 0.155369855640057 
1140	 0.150890023387882 
1141	 0.150574546032676 
1142	 0.154751389181909 
1143	 0.155995096270512 
1144	 0.156812294637376 
1145	 0.156631977666731 
1146	 0.154788879853389 
1147	 0.154725077925913 
1148	 0.155398336066446 
1149	 0.154842529351163 
1150	 0.153553359136817 
1151	 0.150468437306414 
1152	 0.149681818103694 
1153	 0.149726177820607 
1154	 0.149464453916907 
1155	 0.149864126204874 
1156	 0.149668901152892 
1157	 0.149277344282985 
1158	 0.149557787793392 
1159	 0.149978320345399 
1160	 0.150872261824711 
1161	 0.151474547120758 
1162	 0.151127238166884 
1163	 0.151206254649061 
1164	 0.151164800677072 
1165	 0.150519336404296 
1166	 0.150075974278691 
1167	 0.149896434526662 
1168	 0.149853591214302 
1169	 0.149996053841815 
1170	 0.150278822028386 
1171	 0.15042077369119 
1172	 0.150315919364919 
1173	 0.150090580098581 
1174	 0.149772473555486 
1175	 0.149875367752 
1176	 0.149256237751435 
1177	 0.148678875367007 
1178	 0.149314707132333 
1179	 0.149645327879011 
1180	 0.149537716817263 
1181	 0.149956421311568 
1182	 0.150136345369035 
1183	 0.14969356929318 
1184	 0.149749240955997 
1185	 0.149955804011954 
1186	 0.149455214576775 
1187	 0.149239651720475 
1188	 0.149198565122951 
1189	 0.148947927331887 
1190	 0.149066808978758 
1191	 0.149089624274563 
1192	 0.148914453266165 
1193	 0.14850201053751 
1194	 0.148572954813189 
1195	 0.148844900977577 
1196	 0.148622284457343 
1197	 0.148787804898182 
1198	 0.149177761296133 
1199	 0.148580653904321 
1200	 0.148383259944701 
1201	 0.14905383627744 
1202	 0.149167304892582 
1203	 0.148999204148067 
1204	 0.149065903204798 
1205	 0.148674314287839 
1206	 0.148611588567704 
1207	 0.149482442153023 
1208	 0.149620101385985 
1209	 0.149058210403958 
1210	 0.148754140672547 
1211	 0.148658113985114 
1212	 0.148728222446919 
1213	 0.148950186842714 
1214	 0.149110325346569 
1215	 0.149215410595303 
1216	 0.148777913865494 
1217	 0.148559902019363 
1218	 0.148670943507679 
1219	 0.148423873557051 
1220	 0.148048341555327 
1221	 0.148087841705903 
1222	 0.148243125978252 
1223	 0.147851938880774 
1224	 0.147791161375407 
1225	 0.14812459620517 
1226	 0.147877405115243 
1227	 0.147903022293618 
1228	 0.14810561914913 
1229	 0.147746781940364 
1230	 0.147386523067342 
1231	 0.147431591973138 
1232	 0.14784995409608 
1233	 0.148048026338167 
1234	 0.147785731870984 
1235	 0.147594582663441 
1236	 0.147126029014354 
1237	 0.147055627157166 
1238	 0.147047184466407 
1239	 0.147211634446699 
1240	 0.147580102641387 
1241	 0.147522101250217 
1242	 0.14689873874623 
1243	 0.146786104433978 
1244	 0.147337009836756 
1245	 0.147719244032297 
1246	 0.147613554089227 
1247	 0.14740792169082 
1248	 0.147148180121927 
1249	 0.146683600869138 
1250	 0.14689798977349 
1251	 0.147481625400094 
1252	 0.147225108493444 
1253	 0.146867522769477 
1254	 0.146923251274065 
1255	 0.147095914896392 
1256	 0.147012337275612 
1257	 0.147032587743807 
1258	 0.146961690745265 
1259	 0.146438441045578 
1260	 0.146161544123253 
1261	 0.146166690074184 
1262	 0.146213441817976 
1263	 0.146368641402093 
1264	 0.146248358218682 
1265	 0.14602420324778 
1266	 0.146037392332413 
1267	 0.14583723498334 
1268	 0.145472227394738 
1269	 0.145617761857194 
1270	 0.145808765545841 
1271	 0.145543335624086 
1272	 0.145445146655277 
1273	 0.145917970741631 
1274	 0.146171133202828 
1275	 0.146055850013331 
1276	 0.146319641043029 
1277	 0.146375472923929 
1278	 0.146092176806653 
1279	 0.146064160135534 
1280	 0.146095008003255 
1281	 0.146063373290188 
1282	 0.145834906022349 
1283	 0.145650938435444 
1284	 0.145520873546761 
1285	 0.145574576247226 
1286	 0.145726667833141 
1287	 0.145628770499731 
1288	 0.145427781665979 
1289	 0.14550898718727 
1290	 0.145543283440652 
1291	 0.145617898199048 
1292	 0.145832305559177 
1293	 0.145977447374906 
1294	 0.145582019093536 
1295	 0.144956171293101 
1296	 0.14497995071763 
1297	 0.145249300257861 
1298	 0.144953405783598 
1299	 0.144687219674886 
1300	 0.144700600500151 
1301	 0.144074931277602 
1302	 0.143547175094858 
1303	 0.143615850219876 
1304	 0.143476480827263 
1305	 0.143297868037341 
1306	 0.143128417228061 
1307	 0.143028929224411 
1308	 0.143096180526922 
1309	 0.143163773206452 
1310	 0.143213804512397 
1311	 0.143685736161108 
1312	 0.14370385364343 
1313	 0.143179760771508 
1314	 0.143235431150035 
1315	 0.143706459449947 
1316	 0.14357531997161 
1317	 0.143105852736154 
1318	 0.143065084877239 
1319	 0.142991178044472 
1320	 0.142747233225402 
1321	 0.142782679009966 
1322	 0.142843930624289 
1323	 0.142994453354646 
1324	 0.142690032164599 
1325	 0.141993375686597 
1326	 0.142396757139727 
1327	 0.142702130603407 
1328	 0.141288273748191 
1329	 0.140973758773277 
1330	 0.141578200904837 
1331	 0.140044071289699 
1332	 0.139003953308276 
1333	 0.139644511783843 
1334	 0.13901188985157 
1335	 0.138775030033111 
1336	 0.139342937329963 
1337	 0.139816977722743 
1338	 0.139966353237822 
1339	 0.14013121013656 
1340	 0.141238067402462 
1341	 0.140732430928158 
1342	 0.137378812387255 
1343	 0.136426498430838 
1344	 0.136934861566811 
1345	 0.136409702508515 
1346	 0.138291078217638 
1347	 0.138558743016488 
1348	 0.131090117110056 
1349	 0.1288777122333 
1350	 0.138294263868081 
1351	 0.138377439147454 
1352	 0.13365499177358 
1353	 0.133751692207269 
1354	 0.111855303123092 
1355	 7.97088343735274E-02 
1356	 0.10703594338647 
1357	 8.77020587695348E-02 
1358	 1.52960357320341E-02 
1359	-0.119034718703584 
1360	-0.223860383783999 
1361	 2.99488564851044E-02 
1362	-1.05401902505371E-02 
1363	-7.5575158073329E-03 
1364	 0.335973957204514 
1365	 0.243162864861621 
1366	 4.12000210426111E-02 
1367	 9.88333594179131E-02 
1368	 0.38164250825686 
1369	 0.573738184112296 
1370	 0.527059772479526 
1371	 0.634797469811553 
1372	 0.664358132242273 
1373	 0.197625824182002 
1374	-5.18918881220488E-02 
1375	 0.404094913095596 
1376	 0.491817135519622 
1377	 0.299491728812351 
1378	 0.318801739795964 
1379	 0.577234647790533 
1380	 0.529561028380943 
1381	 0.211018527531126 
1382	 0.106173383865493 
1383	-0.320910246788003 
1384	-0.582332597182321 
1385	 0.209405721984148 
1386	 0.397565327194036 
1387	 0.387170905558074 
1388	 0.310993941833495 
1389	 9.63865306889732E-02 
1390	 6.18011767341456E-02 
1391	 0.211839178010839 
1392	-8.19286794302905E-02 
1393	 0.165383742760978 
1394	 0.13668071718233 
1395	-0.369772373549029 
1396	-0.625194982278125 
1397	-0.405085793007163 
1398	-0.744385453447643 
1399	-1.33601397576681 
1400	 0.235958292665076 
1401	 3.32922342651399 
1402	 20.3439536797069 
1403	 1.63804806676446 
1404	 0.988620248784381 
1405	 0.735787267396333 
1406	 0.301605917889932 
1407	 8.54759404047358E-02 
1408	-0.188188583152665 
1409	-0.235639483589156 
1410	-6.55532248263295E-02 
1411	-8.26918760243397E-02 
1412	-9.78112627551995E-02 
1413	-0.068769546948014 
1414	-0.11902065874184 
1415	-8.52718308521538E-02 
1416	 4.81205503857502E-02 
1417	 9.57251986519559E-02 
1418	 0.115785167832 
1419	 0.118354367840243 
1420	 0.109009948453226 
1421	 0.103913842265715 
1422	 7.95232432085245E-02 
1423	 7.59734514802145E-02 
1424	 8.27191703082308E-02 
1425	 8.22056006352072E-02 
1426	 7.97648971897075E-02 
1427	 9.25065493429525E-02 
1428	 0.120713158988231 
1429	 0.120332879356553 
1430	 0.10735426397564 
1431	 0.107633751543894 
1432	 0.099410649468769 
1433	 9.38473499733152E-02 
1434	 0.103571939027232 
1435	 0.107946081749787 
1436	 0.103180357418606 
1437	 0.103000409925213 
1438	 9.91464179674704E-02 
1439	 8.75816054097574E-02 
1440	 9.25210152793281E-02 
1441	 8.74791662624839E-02 
1442	 7.52390588857667E-02 
1443	 8.14104429370371E-02 
1444	 7.97298020487612E-02 
1445	 7.56744313901894E-02 
1446	 8.28681740097428E-02 
1447	 0.082894012241351 
1448	 8.10509118015502E-02 
1449	 0.087839669984584 
1450	 9.46092267100132E-02 
1451	 0.092821587915092 
1452	 0.086889209289218 
1453	 0.085248933432808 
1454	 8.42746997692104E-02 
1455	 8.37432378154012E-02 
1456	 8.26595596590015E-02 
1457	 8.07185349777549E-02 
1458	 8.28040906089642E-02 
1459	 8.77522594292342E-02 
1460	 8.81119476101341E-02 
1461	 8.88667069679117E-02 
1462	 9.03362658950796E-02 
1463	 8.85669800979197E-02 
1464	 8.85813864235881E-02 
1465	 9.29324429812978E-02 
1466	 9.38406547222865E-02 
1467	 9.00175331591857E-02 
1468	 8.94651188908952E-02 
1469	 9.24967307983588E-02 
1470	 9.22097044632004E-02 
1471	 9.02953030233039E-02 
1472	 8.82336289911635E-02 
1473	 8.31665910750052E-02 
1474	 8.33989125066539E-02 
1475	 8.72939397418456E-02 
1476	 8.74665697139945E-02 
1477	 0.087213192532359 
1478	 8.84067286307088E-02 
1479	 8.86865606468807E-02 
1480	 8.91905447289453E-02 
1481	 9.27896231654494E-02 
1482	 9.28416078939212E-02 
1483	 8.84477954397659E-02 
1484	 8.85567636827412E-02 
1485	 9.07584741400549E-02 
1486	 9.09840323972975E-02 
1487	 9.17378327906826E-02 
1488	 9.24853074495576E-02 
1489	 9.23926439354284E-02 
1490	 9.20814929413872E-02 
1491	 9.21597358546306E-02 
1492	 9.23911736015671E-02 
1493	 0.091770033807629 
1494	 9.18939299141789E-02 
1495	 9.28299723220647E-02 
1496	 9.33659038213622E-02 
1497	 9.39599715188191E-02 
1498	 9.42825528039951E-02 
1499	 9.43123588850869E-02 
1500	 9.46456324190696E-02 
1501	 0.095067192447442 
1502	 9.53991695393084E-02 
1503	 9.60096731553501E-02 
1504	 0.096386235936131 
1505	 9.68260553082813E-02 
1506	 9.63498712866165E-02 
1507	 9.66812679207637E-02 
1508	 9.73696385342881E-02 
1509	 0.097155846444326 
1510	 9.76528623123533E-02 
1511	 9.83260585302062E-02 
1512	 9.80407612568861E-02 
1513	 9.81450157086833E-02 
1514	 9.84925771885325E-02 
1515	 0.098554223418289 
1516	 9.86638210026209E-02 
1517	 9.87017722819863E-02 
1518	 9.91905299775394E-02 
1519	 0.100198054102325 
1520	 0.100517921159979 
1521	 0.100381404077393 
1522	 0.100912122193741 
1523	 0.101423876058092 
1524	 0.101348946554153 
1525	 0.101786749172749 
1526	 0.102696736540289 
1527	 0.102913755952862 
1528	 0.102931903493866 
1529	 0.103330615330593 
1530	 0.103442958308115 
1531	 0.103333232570895 
1532	 0.103607887658732 
1533	 0.104111063092585 
1534	 0.104346649601372 
1535	 0.104419316570328 
1536	 0.104936803240297 
1537	 0.105547812953354 
1538	 0.105723218876066 
1539	 0.106196304069185 
1540	 0.106954305338802 
1541	 0.107105087961487 
1542	 0.107090926200741 
1543	 0.10752823376243 
1544	 0.107847639105844 
1545	 0.107687287427975 
1546	 0.107615669522998 
1547	 0.108093257420224 
1548	 0.108233932096891 
1549	 0.107949516811517 
1550	 0.108256148142676 
1551	 0.108454982586334 
1552	 0.108110144470242 
1553	 0.108457019340369 
1554	 0.109597928769614 
1555	 0.110163138948135 
1556	 0.110007424587494 
1557	 0.110220061851878 
1558	 0.110856650627653 
1559	 0.110934024928018 
1560	 0.110698560138876 
1561	 0.111032422624503 
1562	 0.11114618304036 
1563	 0.110862540801822 
1564	 0.111342883096797 
1565	 0.112111850679328 
1566	 0.112191379605323 
1567	 0.112191785979297 
1568	 0.112623395362407 
1569	 0.112986650365806 
1570	 0.112878702523894 
1571	 0.112653499812758 
1572	 0.11303517116653 
1573	 0.113701124301332 
1574	 0.113958240944213 
1575	 0.114117715658777 
1576	 0.11395987795742 
1577	 0.113021119795389 
1578	 0.112849531730285 
1579	 0.113773545157066 
1580	 0.114352464141222 
1581	 0.11503596380704 
1582	 0.115338997486615 
1583	 0.114933095428972 
1584	 0.115132614156115 
1585	 0.115124870948828 
1586	 0.115099992027058 
1587	 0.11561509886634 
1588	 0.115657242635669 
1589	 0.116263955383651 
1590	 0.11680747228597 
1591	 0.116266868005281 
1592	 0.116481101969976 
1593	 0.116804975371398 
1594	 0.116180840899638 
1595	 0.11626918708874 
1596	 0.116943423214717 
1597	 0.116978567458477 
1598	 0.117312139446403 
1599	 0.117654999063411 
1600	 0.117403263231942 
1601	 0.117451689893701 
1602	 0.117566540719404 
1603	 0.117722423292779 
1604	 0.117854181804038 
1605	 0.118195254197992 
1606	 0.118724211345761 
1607	 0.118331112744816 
1608	 0.118056225869726 
1609	 0.118381558141291 
1610	 0.118187086307758 
1611	 0.118245160264393 
1612	 0.119025530733838 
1613	 0.118858046608624 
1614	 0.118520769311277 
1615	 0.119272718634564 
1616	 0.119586924997888 
1617	 0.119413455010086 
1618	 0.119018051670631 
1619	 0.118334967276914 
1620	 0.118064219703503 
1621	 0.118446305509082 
1622	 0.118946079948208 
1623	 0.118940313546355 
1624	 0.118657877780506 
1625	 0.118097757955111 
1626	 0.11762872771561 
1627	 0.118060950815275 
1628	 0.11855561371181 
1629	 0.118626908908864 
1630	 0.118750327028053 
1631	 0.118761230201566 
1632	 0.11905061195874 
1633	 0.11938009024696 
1634	 0.119659708691964 
1635	 0.120079793776751 
1636	 0.119598389718409 
1637	 0.118991769565142 
1638	 0.119094241691038 
1639	 0.118716508977829 
1640	 0.118713472048366 
1641	 0.119624756215054 
1642	 0.119969267912895 
1643	 0.119947241399277 
1644	 0.120050335991483 
1645	 0.120043062369877 
1646	 0.120082851176386 
1647	 0.120417736655142 
1648	 0.120427638869619 
1649	 0.119936311182346 
1650	 0.119831528895045 
1651	 0.120219531609534 
1652	 0.120480178067376 
1653	 0.120265695693333 
1654	 0.120182892711365 
1655	 0.119728797278026 
1656	 0.119947457085976 
1657	 0.121088006542149 
1658	 0.121267172535313 
1659	 0.120898881842769 
1660	 0.120874456665595 
1661	 0.120375160836716 
1662	 0.12049010765066 
1663	 0.121577435553742 
1664	 0.121563339452497 
1665	 0.12093720994602 
1666	 0.121211888907397 
1667	 0.121640048464041 
1668	 0.121439700444967 
1669	 0.121280472733896 
1670	 0.120962482868161 
1671	 0.120550203430718 
1672	 0.120648841170901 
1673	 0.121221201093088 
1674	 0.120781131320856 
1675	 0.119916697826858 
1676	 0.120158014203208 
1677	 0.120777684853979 
1678	 0.121322697577843 
1679	 0.121832885473258 
1680	 0.121556644113393 
1681	 0.1207439115652 
1682	 0.120419298791472 
1683	 0.120700370645228 
1684	 0.120950984937944 
1685	 0.120808572570369 
1686	 0.120769728635734 
1687	 0.120985020822185 
1688	 0.120951246180673 
1689	 0.120957909637187 
1690	 0.121218983288686 
1691	 0.120890535663461 
1692	 0.120154146106302 
1693	 0.120433421748 
1694	 0.120913074255013 
1695	 0.120244214603533 
1696	 0.120205724028352 
1697	 0.120849095703394 
1698	 0.120322083825068 
1699	 0.119521104276599 
1700	 0.119539005768938 
1701	 0.119417161350308 
1702	 0.119120451956613 
1703	 0.120133351448789 
1704	 0.120942419858982 
1705	 0.120696715954301 
1706	 0.121093223890862 
1707	 0.120638525078787 
1708	 0.119791434862754 
1709	 0.120532216829583 
1710	 0.120310486489493 
1711	 0.119577466440629 
1712	 0.120430927298315 
1713	 0.120416850078854 
1714	 0.120398688561786 
1715	 0.121482095413183 
1716	 0.121701338953659 
1717	 0.121184107659086 
1718	 0.12039474104792 
1719	 0.11984475352149 
1720	 0.119540021475108 
1721	 0.119197472868191 
1722	 0.119484157234553 
1723	 0.119355578251148 
1724	 0.118546688342728 
1725	 0.118672664137668 
1726	 0.11985827828228 
1727	 0.120543324634049 
1728	 0.120621213505623 
1729	 0.121047237872041 
1730	 0.120885535895915 
1731	 0.120160006622931 
1732	 0.119118749246205 
1733	 0.118231801445915 
1734	 0.118069472399028 
1735	 0.118090114447127 
1736	 0.11831484688597 
1737	 0.117889626475367 
1738	 0.116977668134859 
1739	 0.116870930885486 
1740	 0.117986857855322 
1741	 0.11950165866036 
1742	 0.118826568269786 
1743	 0.116569790518547 
1744	 0.115376341127878 
1745	 0.114940485038661 
1746	 0.11830820915185 
1747	 0.118703794723641 
1748	 0.117084603969898 
1749	 0.116693644910821 
1750	 0.114509470647364 
1751	 0.114287996902079 
1752	 0.117221387139013 
1753	 0.117523029770678 
1754	 0.116903955203943 
1755	 0.116807242871334 
1756	 0.115526691507249 
1757	 0.115826926963669 
1758	 0.116033567243126 
1759	 0.115571513781054 
1760	 0.115732415650103 
1761	 0.114348876341828 
1762	 0.112477522625676 
1763	 0.112918043271576 
1764	 0.112222881345921 
1765	 0.111214760224594 
1766	 0.112829634190013 
1767	 0.112199170954943 
1768	 0.110915224101638 
1769	 0.112688077285006 
1770	 0.110917667311857 
1771	 0.108742957394309 
1772	 0.112085472545069 
1773	 0.114498898699287 
1774	 0.115959667861956 
1775	 0.114065762047948 
1776	 0.113676449133999 
1777	 0.112804612221558 
1778	 0.113247776762604 
1779	 0.117580175261094 
1780	 0.118233850820106 
1781	 0.115591282150575 
1782	 0.115412561310175 
1783	 0.115282515035359 
1784	 0.115311221623524 
1785	 0.116521378310775 
1786	 0.116997816080786 
1787	 0.117040130243446 
1788	 0.116504518889372 
1789	 0.116469154018691 
1790	 0.11295698046585 
1791	 0.108898159921161 
1792	 0.110199884834351 
1793	 0.113217510215221 
1794	 0.115180561454644 
1795	 0.118234484026068 
1796	 0.116778979078703 
1797	 0.115043024166493 
1798	 0.118744967229974 
1799	 0.123519291746462 
1800	 0.120871201672879 
1801	 0.120719151542217 
1802	 0.1204832662723 
1803	 0.120428476889957 
1804	 0.122856140282197 
1805	 0.126757452903591 
1806	 0.138816592416839 
1807	 0.134975374888748 
1808	 0.100461353420757 
1809	 9.59603769759372E-02 
1810	 8.65899723553431E-02 
1811	 0.110542897100085 
1812	 0.249443054571426 
1813	 0.315929182162849 
1814	 0.3606218559687 
1815	 0.404841758406812 
1816	 0.403013960736234 
1817	 0.429343747812923 
1818	-0.255426169963242 
1819	-0.054637428270738 
1820	-4.66102178681512E-02 
1821	 4.97210231177283E-02 
1822	 0.381207862449313 
1823	 1.75821582638125 
1824	 1.73500633097924 
1825	 0.61168322127084 
1826	 0.589613621541194 
1827	 0.54810093738734 
1828	 0.432603289163 
1829	 0.850911312453059 
1830	 1.95313025673417 
1831	 0.142740379844562 
1832	 0.370359471314336 
1833	 1.94274325736574 
1834	 8.74270542266398 
1835	 1.26477829035323 
1836	 1.33164151801774 
1837	 0.111417977840872 
1838	 0.232461100385252 
1839	-0.276318930091003 
1840	 0.351736039731574 
1841	 0.272797481573407 
1842	-0.526272538616336 
1843	-0.543037028672344 
1844	-0.670341577908216 
1845	-0.675151375236491 
1846	-0.936463014804 
1847	-0.975519241264321 
1848	-1.78761596533367 
1849	-1.06088228085343 
1850	-2.63937257103602 
1851	-9.01810058356917 
1852	-29.5498379172149 
1853	-7.20904769327835 
1854	-1.32958362163454 
1855	-0.528774889408471 
1856	-0.450394140804182 
1857	-0.410468851572175 
1858	-0.359637968952633 
1859	 1.21115461426617 
1860	-0.298443995285233 
1861	 1.67078890425217 
1862	 2.4516446630907 
1863	 1.96973686980467 
1864	 1.08279934460353 
1865	 1.10918008001198 
1866	-0.611341037153774 
1867	 0.562775174179649 
1868	-4.02227888214949 
1869	-2.36935553703982 
1870	-1.44357334443875 
1871	-0.690705647777966 
1872	-0.214418602747029 
1873	 0.302535014519594 
1874	 0.557643722703226 
1875	 0.31764006079922 
1876	 0.163086253718252 
1877	-0.528612953505639 
1878	-1.05427881464251 
1879	-7.42670587633484 
1880	 3.80095384957334 
1881	 1.17835721597995 
1882	-6.21719269381796E-03 
1883	-0.637220835634179 
1884	-2.7119390885859 
1885	 0.778050049516165 
1886	-0.294505672757335 
1887	-2.01054949203223 
1888	-8.08757814747187 
1889	-9.71081792040392 
1890	-2.09868128231278 
1891	-2.38026346586135 
1892	-0.667662967287801 
1893	-4.52220154726428 
1894	 6.65347501706396 
1895	 1.6893776542415 
1896	-12.5532772944811 
1897	 2.51080269485195 
1898	 2.67436188857825 
1899	 2.67626745881011 
1900	 2.29817453090297 
1901	 1.06378145516047 
1902	 0.634710253483234 
1903	-0.148627384362493 
1904	-0.651934833910274 
1905	 4.02698507151947 
1906	 0.396123361125297 
1907	-0.397215064649701 
1908	-2.76373394348545 
1909	 2.19062105781821 
1910	 0.619571744915563 
1911	 0.764978403060279 
1912	 1.03857820769574 
1913	 1.10185629384534 
1914	 0.631992393108932 
1915	 0.558284124956457 
1916	 4.98940961670695 
1917	 0.124665708475293 
1918	 3.68226684112831E-02 
1919	 8.24429376063898E-02 
1920	 0.323319291997475 
1921	 0.837900064094345 
1922	 1.80129709088564 
1923	 15.4499532393714 
1924	 2.27306016106791 
1925	 0.885369675015599 
1926	 0.426678706286886 
1927	 0.544354947263805 
1928	 0.365193490276087 
1929	-0.57453029347717 
1930	-0.764187478964424 
1931	-0.807938782981122 
1932	-0.826067986113589 
1933	-0.722063536546758 
1934	-0.154666789963512 
1935	 0.355368109861223 
1936	 0.472709709080809 
1937	 0.416380089127602 
1938	 0.187768000915732 
1939	 8.56948412684494E-02 
1940	 1.39593766593396E-02 
1941	-1.25573997652638E-03 
1942	-0.132552753813343 
1943	-0.260238931219577 
1944	-0.295210748361233 
1945	-0.230224283919855 
1946	-0.174925000201012 
1947	-3.15104891504332E-02 
1948	 0.120823275528253 
1949	 0.134465136009373 
1950	 7.02495907985364E-02 
1951	 3.66871841470223E-02 
1952	 2.36528911619658E-02 
1953	-6.29343779642821E-05 
1954	-4.84139469805498E-02 
1955	-1.52768449127725E-02 
1956	-1.39192029916784E-03 
1957	-2.23856301947795E-02 
1958	-1.63525130593307E-03 
1959	-1.18541306250481E-02 
1960	-3.01857267238364E-03 
1961	 7.20746688145762E-03 
1962	 0.018007622020508 
1963	 5.05176799192915E-02 
1964	 6.65562555752019E-02 
1965	 6.25815496704933E-02 
1966	 5.89065740146227E-02 
1967	 5.23194445940688E-02 
1968	 0.046503363286907 
1969	 3.87398164700061E-02 
1970	 3.99373870089365E-02 
1971	 4.60053683386207E-02 
1972	 4.39986965753058E-02 
1973	 4.65717769976741E-02 
1974	 4.90774414795605E-02 
1975	 4.00615757881664E-02 
1976	 3.79117017510538E-02 
1977	 3.93526486530371E-02 
1978	 3.44175062451681E-02 
1979	 3.43225482913855E-02 
1980	 3.98472769067473E-02 
1981	 4.31738276258319E-02 
1982	 0.039106889371742 
1983	 0.042139764231193 
1984	 4.38537958365795E-02 
1985	 4.07275963446005E-02 
1986	 4.27959524163858E-02 
1987	 4.27016818678137E-02 
1988	 4.18833754121174E-02 
1989	 4.26695572280804E-02 
1990	 4.25698769379929E-02 
1991	 4.35972495188818E-02 
1992	 4.33721589252219E-02 
1993	 4.55244056206269E-02 
1994	 4.75549989376426E-02 
1995	 5.14554890253667E-02 
1996	 5.20540707721354E-02 
1997	 5.08496949218118E-02 
1998	 4.94739960378392E-02 
1999	 0.048319520483832 
2000	 4.60470957441917E-02 
2001	 4.90746399641977E-02 
2002	 5.42620228655543E-02 
2003	 5.41609958851518E-02 
2004	 0.050792907695482 
2005	 4.33885226323722E-02 
2006	 4.02250087311938E-02 
2007	 4.22135892083656E-02 
2008	 0.038554789198921 
2009	 3.95745025990152E-02 
2010	 4.88563026459864E-02 
2011	 4.98500363285587E-02 
2012	 4.43046051050255E-02 
2013	 4.79793137510891E-02 
2014	 4.93732603394642E-02 
2015	 5.00172960600351E-02 
2016	 5.63955299035301E-02 
2017	 0.055697985846475 
2018	 6.11144830194347E-02 
2019	 6.40423477175554E-02 
2020	 6.19981021164129E-02 
2021	 6.51468409172198E-02 
2022	 6.33789701260093E-02 
2023	 6.32382314715788E-02 
2024	 6.25901022229283E-02 
2025	 6.18696564241252E-02 
2026	 6.07183521428178E-02 
2027	 6.04477950854383E-02 
2028	 5.67056747382798E-02 
2029	 5.49690941625806E-02 
2030	 5.58615970197809E-02 
2031	 5.69876742293153E-02 
2032	 6.11076105223273E-02 
2033	 6.37984387991273E-02 
2034	 6.27574794277504E-02 
2035	 0.062402433090672 
2036	 6.04343473773144E-02 
2037	 5.93538771822878E-02 
2038	 6.07753075228843E-02 
2039	 6.16069490418802E-02 
2040	 0.063409450614368 
2041	 6.54916347051239E-02 
2042	 6.84854557883754E-02 
2043	 6.90983058326053E-02 
2044	 0.069573135162749 
2045	 6.82961723014078E-02 
2046	 6.55080878239935E-02 
2047	 6.50625700069008E-02 
2048	 6.54976367040443E-02 
2049	 6.32560928845473E-02 
2050	 6.11237704275019E-02 
2051	 0.060053727105883 
2052	 0.060777759539497 
2053	 6.19637891006618E-02 
2054	 6.43921184517533E-02 
2055	 6.80232302906955E-02 
2056	 6.97658881072748E-02 
2057	 7.13537493800039E-02 
2058	 7.16972981324752E-02 
2059	 6.90604847693641E-02 
2060	 6.78620026140414E-02 
2061	 6.53412050426179E-02 
2062	 6.65041770197682E-02 
2063	 6.91977731543073E-02 
2064	 6.94031340983688E-02 
2065	 6.65977755757524E-02 
2066	 6.62000553244039E-02 
2067	 6.46859521636803E-02 
2068	 6.34314380999825E-02 
2069	 0.067639537514624 
2070	 6.89907630855434E-02 
2071	 6.93075699650919E-02 
2072	 7.23398643855683E-02 
2073	 7.32845638452387E-02 
2074	 7.31284529406715E-02 
2075	 7.20173003309259E-02 
2076	 6.93954059956141E-02 
2077	 6.92052694040172E-02 
2078	 6.99565186493745E-02 
2079	 7.06086110257089E-02 
2080	 7.36979884528301E-02 
2081	 7.21716436288941E-02 
2082	 7.10073866285419E-02 
2083	 6.95375273518612E-02 
2084	 6.69702982765992E-02 
2085	 6.82193049940643E-02 
2086	 7.07819599707414E-02 
2087	 7.06905423470692E-02 
2088	 7.15893322727389E-02 
2089	 7.32509269787748E-02 
2090	 0.073427785279473 
2091	 7.46144538506781E-02 
2092	 7.45942530669638E-02 
2093	 0.074264069336011 
2094	 7.32184387037719E-02 
2095	 6.98762842834551E-02 
2096	 0.06926063493495 
2097	 0.070314822760564 
2098	 7.11064711840794E-02 
2099	 7.24153486622991E-02 
2100	 7.40900483842749E-02 
2101	 7.83472651915418E-02 
2102	 8.12868583936058E-02 
2103	 8.04837094276897E-02 
2104	 8.06409256175547E-02 
2105	 8.19422695404988E-02 
2106	 8.04790784766274E-02 
2107	 8.02864582367497E-02 
2108	 0.08211597528604 
2109	 8.11610046371501E-02 
2110	 0.079892986238717 
2111	 8.01100976221703E-02 
2112	 8.14050068236545E-02 
2113	 8.20035621693868E-02 
2114	 8.12884724326105E-02 
2115	 8.08243008564361E-02 
2116	 0.080734677392957 
2117	 8.08294166326452E-02 
2118	 8.04762243317733E-02 
2119	 8.08654074591261E-02 
2120	 0.082152928757359 
2121	 8.35454315473172E-02 
2122	 8.39038459580852E-02 
2123	 8.34971452618312E-02 
2124	 8.40506520400418E-02 
2125	 8.23169386325346E-02 
2126	 8.02847024138285E-02 
2127	 7.98063422961992E-02 
2128	 7.92654692252828E-02 
2129	 8.02783590728583E-02 
2130	 8.15532020007909E-02 
2131	 8.26095661040391E-02 
2132	 8.37332250790213E-02 
2133	 0.083117654557687 
2134	 8.30646293610127E-02 
2135	 8.37835194909704E-02 
2136	 8.37859597212423E-02 
2137	 8.20184898763955E-02 
2138	 8.23354850747751E-02 
2139	 8.39036202536343E-02 
2140	 0.083798294160302 
2141	 0.083995848078063 
2142	 8.44528175435414E-02 
2143	 8.38454231558497E-02 
2144	 8.44664609079364E-02 
2145	 8.46617102721536E-02 
2146	 8.37668741430481E-02 
2147	 0.082951397561809 
2148	 8.06161191009683E-02 
2149	 8.14106501009784E-02 
2150	 8.40476255882077E-02 
2151	 8.52583411422357E-02 
2152	 8.74637983760538E-02 
2153	 0.085503694594933 
2154	 8.18424239094191E-02 
2155	 8.11313770937263E-02 
2156	 8.09328040804184E-02 
2157	 8.17038267550707E-02 
2158	 8.56358901400262E-02 
2159	 8.68241613762021E-02 
2160	 8.68170807348645E-02 
2161	 8.68828274204897E-02 
2162	 8.59101230591958E-02 
2163	 0.085579594400649 
2164	 0.086393046822143 
2165	 8.59719267042246E-02 
2166	 8.37393897075075E-02 
2167	 8.27215592763041E-02 
2168	 8.23138130957158E-02 
2169	 8.19525273607561E-02 
2170	 8.01888392073394E-02 
2171	 8.32490630152264E-02 
2172	 8.72630324230542E-02 
2173	 8.75129396761344E-02 
2174	 8.92344153810779E-02 
2175	 8.92630714246586E-02 
2176	 8.74914514024009E-02 
2177	 8.52621099538459E-02 
2178	 8.39529446025906E-02 
2179	 8.28481237546621E-02 
2180	 0.08213463192541 
2181	 8.24375468770774E-02 
2182	 8.39048425134288E-02 
2183	 8.72383347303553E-02 
2184	 8.63592076385417E-02 
2185	 8.42541377997415E-02 
2186	 8.48276491748028E-02 
2187	 8.47662450434396E-02 
2188	 8.50325652552466E-02 
2189	 8.94322343529327E-02 
2190	 9.00555634674692E-02 
2191	 8.60505887267101E-02 
2192	 8.65964959815887E-02 
2193	 8.99892113126681E-02 
2194	 8.98838961236156E-02 
2195	 8.95972244818776E-02 
2196	 8.91545941921626E-02 
2197	 8.56760117368605E-02 
2198	 0.08463523545604 
2199	 8.63602988609066E-02 
2200	 8.75633193576152E-02 
2201	 8.40315260602534E-02 
2202	 7.93476325677906E-02 
2203	 7.73729882988909E-02 
2204	 0.07577248867161 
2205	 7.43763105220194E-02 
2206	 7.74095565478115E-02 
2207	 8.23108014905282E-02 
2208	 8.41122881224078E-02 
2209	 8.57894975584891E-02 
2210	 8.55101327538955E-02 
2211	 8.14007230881872E-02 
2212	 0.079418897236444 
2213	 8.10681479740378E-02 
2214	 8.31236757909393E-02 
2215	 8.68247878509123E-02 
2216	 8.84748326440359E-02 
2217	 8.70451341070392E-02 
2218	 8.25562229001498E-02 
2219	 8.10939869298768E-02 
2220	 0.076338158386168 
2221	 7.50932156144225E-02 
2222	 7.77162195467805E-02 
2223	 7.90992536914475E-02 
2224	 8.15828999303628E-02 
2225	 8.33296068443507E-02 
2226	 8.61430527130254E-02 
2227	 8.67713474389208E-02 
2228	 8.52956647930634E-02 
2229	 8.39154296722556E-02 
2230	 7.99691793120755E-02 
2231	 7.91186678253421E-02 
2232	 0.08073400523524 
2233	 7.99310422643579E-02 
2234	 0.079057419944721 
2235	 7.98674619398368E-02 
2236	 7.70085236723844E-02 
2237	 7.73930844521461E-02 
2238	 8.13136908956704E-02 
2239	 8.21355029660589E-02 
2240	 8.28978471363934E-02 
2241	 8.57578454825472E-02 
2242	 0.086308719033542 
2243	 8.63566353088103E-02 
2244	 8.32690504376845E-02 
2245	 7.81414476898461E-02 
2246	 7.76629950641865E-02 
2247	 7.43213088305577E-02 
2248	 7.34001954427272E-02 
2249	 7.75655662768497E-02 
2250	 8.00329249977576E-02 
2251	 8.29799189445458E-02 
2252	 8.42650646102321E-02 
2253	 0.08411273355948 
2254	 8.42110990181429E-02 
2255	 8.18260634164463E-02 
2256	 8.17541754705275E-02 
2257	 8.20040820568379E-02 
2258	 7.87851697693334E-02 
2259	 7.94950642597708E-02 
2260	 8.00818456521763E-02 
2261	 8.34459831639924E-02 
2262	 8.45012257492882E-02 
2263	 8.34018325375681E-02 
2264	 0.084096458548882 
2265	 8.68107410523136E-02 
2266	 8.43118534062448E-02 
2267	 0.079588562456364 
2268	 7.82035124851496E-02 
2269	 7.39850017957076E-02 
2270	 0.071498784835437 
2271	 0.072549084542516 
2272	 7.23769551915961E-02 
2273	 0.071655242969014 
2274	 7.24649296888516E-02 
2275	 7.67329462792764E-02 
2276	 7.67024010306322E-02 
2277	 0.071305800134148 
2278	 6.93478811540134E-02 
2279	 6.85245390792369E-02 
2280	 6.65429614965424E-02 
2281	 6.45687810893841E-02 
2282	 0.066659048617796 
2283	 6.37151062146651E-02 
2284	 6.73076336329875E-02 
2285	 7.93123023355739E-02 
2286	 8.35915707186708E-02 
2287	 9.15881290162359E-02 
2288	 9.40917427083266E-02 
2289	 8.36255039482153E-02 
2290	 8.12156730183762E-02 
2291	 0.078308333011866 
2292	 7.26991348498378E-02 
2293	 7.54088884487109E-02 
2294	 7.42256916525559E-02 
2295	 7.20639696005813E-02 
2296	 6.61174774543258E-02 
2297	 5.48113977255496E-02 
2298	 5.30512875104619E-02 
2299	 0.052642293420855 
2300	 5.99074333988333E-02 
2301	 7.04501976682342E-02 
2302	 6.87505369098115E-02 
2303	 6.63489287704289E-02 
2304	 6.12188347544466E-02 
2305	 0.05746637261729 
2306	 6.37483960979755E-02 
2307	 6.79655305047704E-02 
2308	 7.09688817398417E-02 
2309	 7.50970204407402E-02 
2310	 7.91475889191796E-02 
2311	 7.98886840574985E-02 
2312	 8.03791810983306E-02 
2313	 8.26478068537538E-02 
2314	 8.00227908841457E-02 
2315	 0.077938368823254 
2316	 7.49569052422012E-02 
2317	 7.69313532267366E-02 
2318	 7.30826267567457E-02 
2319	 5.93226556460504E-02 
2320	 5.94726617207844E-02 
2321	 5.83549732405239E-02 
2322	 5.99186011349703E-02 
2323	 7.19918838806776E-02 
2324	 8.02757915361409E-02 
2325	 8.00051935440124E-02 
2326	 7.23335280121221E-02 
2327	 7.40244054712776E-02 
2328	 6.93423129234662E-02 
2329	 6.63525670625743E-02 
2330	 6.97397023168087E-02 
2331	 6.37586483914733E-02 
2332	 5.92767149651707E-02 
2333	 5.19749358309296E-02 
2334	 5.02971346111727E-02 
2335	 5.08651079479548E-02 
2336	 5.59999077577841E-02 
2337	 6.84650239373584E-02 
2338	 7.75200642886762E-02 
2339	 8.44677369624526E-02 
2340	 7.11090431945821E-02 
2341	 5.47488146667783E-02 
2342	 5.08653415855552E-02 
2343	 5.10301706841276E-02 
2344	 5.62140669810451E-02 
2345	 5.97374585089703E-02 
2346	 7.31828345877895E-02 
2347	 8.31839510650643E-02 
2348	 0.08379416123882 
2349	 8.74857468438619E-02 
2350	 9.36107347085139E-02 
2351	 9.08121665089819E-02 
2352	 8.03604759750018E-02 
2353	 9.62133028528925E-02 
2354	 8.79776433569993E-02 
2355	 3.99706757681964E-02 
2356	 3.41272024922878E-02 
2357	 1.62361841675045E-02 
2358	-2.38026674363382E-02 
2359	-9.81504029413934E-03 
2360	 0.011363275794279 
2361	 4.16139406328123E-02 
2362	 6.16494823503195E-02 
2363	 5.86754907041695E-02 
2364	 0.085746748479471 
2365	 7.63623406199004E-02 
2366	 6.86035813510911E-02 
2367	 9.23384997765862E-02 
2368	 6.19887812528027E-02 
2369	 2.83251665553585E-02 
2370	 1.08921334940031E-02 
2371	-5.43696321565302E-03 
2372	 1.18177917818606E-03 
2373	-1.19155189603714E-02 
2374	-6.30353170424032E-03 
2375	 3.05226205747853E-02 
2376	 3.99637631228952E-02 
2377	 2.87653666030072E-02 
2378	 1.80488618450446E-02 
2379	 4.25770066036094E-02 
2380	 6.11486670473555E-02 
2381	 4.40228739706219E-02 
2382	 4.37289314397782E-02 
2383	 6.66871139637318E-03 
2384	-8.10944412322199E-02 
2385	-3.23168367262234E-02 
2386	 6.61007956554718E-02 
2387	 8.14652033556962E-02 
2388	 0.114746632250198 
2389	 0.132212503573893 
2390	 0.105241530318683 
2391	 0.109603647718762 
2392	 0.080230266128084 
2393	 3.37350366838766E-02 
2394	 3.05498179101822E-02 
2395	 1.41172545684635E-02 
2396	-1.44311035551311E-02 
2397	-5.13169002879326E-02 
2398	-7.19188821622025E-02 
2399	-3.74258339944657E-02 
2400	 1.63757581196538E-02 
2401	 4.26189290316232E-02 
2402	 1.68520518118535E-02 
2403	-0.108985273392783 
2404	-0.152928178850262 
2405	-5.33314658677567E-02 
2406	-1.27810358185293E-02 
2407	 7.99751771017521E-02 
2408	 0.121515471871257 
2409	-5.17498315788656E-02 
2410	-0.119494494381517 
2411	-0.135223014222967 
2412	-0.146674025973284 
2413	-0.177977463489324 
2414	-0.206614868300952 
2415	-0.295124535252799 
2416	-0.392317382810536 
2417	-0.323727450216593 
2418	-0.23741593979497 
2419	-0.279388263425117 
2420	-0.251640749273817 
2421	-0.128068027077906 
2422	-9.62103314622441E-02 
2423	-0.140115336075877 
2424	-0.21977875104396 
2425	-0.464646206996136 
2426	-0.884464044807548 
2427	-0.610268589294621 
2428	-0.271017802075656 
2429	-7.57519172315526E-02 
2430	-3.31108336255018E-02 
2431	-0.013778081780886 
2432	 3.09698787519826E-02 
2433	-0.100285613917892 
2434	-0.122322744657169 
2435	 2.65748285382444E-03 
2436	-2.69571008928149E-02 
2437	 3.21127428860783E-02 
2438	-3.14144291971431E-02 
2439	-0.237346385355595 
2440	-0.183284037321994 
2441	-0.190968170044836 
2442	-0.155636584383176 
2443	-0.261051689917837 
2444	-0.449478689084374 
2445	-0.615195046022754 
2446	-0.28544871054288 
2447	 0.239716061922211 
2448	 0.395713557728912 
2449	 0.276779766958158 
2450	 0.102764197852225 
2451	-1.13055079865519 
2452	 32.8836273144098 
2453	-3.54377686371456 
2454	-2.80370964793881 
2455	-2.10650420304678 
2456	-2.62896439137514 
2457	 16.5612957456074 
2458	 16.3071302508629 
2459	 12.1435409317309 
2460	 43.3219004611427 
2461	-29.8811801996216 
2462	-20.8175278155015 
2463	-3.98426996697295 
2464	-0.757441283045776 
2465	 7.65321456090395E-03 
2466	 0.464396832447068 
2467	 5.67148999515577 
2468	 0.179042991428924 
2469	-2.07454192937976 
2470	-2.24170824165471 
2471	-5.15331593424155 
2472	-5.16124694273228 
2473	 0.901233070391273 
2474	 0.93761191243988 
2475	 2.45834864653545 
2476	 2.49470458447339 
2477	 3.75338769052619 
2478	-6.24140472047038 
2479	-1.79391415714682 
2480	-1.51595786087449 
2481	-1.12854871487452 
2482	-1.8812707197549 
2483	 2.092849679958 
2484	 0.710371401059443 
2485	 0.541445989185187 
2486	 0.369150962505787 
2487	 0.266451594295252 
2488	 5.57049807644552 
2489	 6.95532915445544 
2490	 32.7828769399312 
2491	-2.12629555596428 
2492	-2.55491967763467 
2493	-2.53468949451914 
2494	-1.89808562141707 
2495	-3.85759830427986 
2496	-1.91413151333285 
2497	-1.49472111901875 
2498	 4.30219449399171 
2499	 2.03233333687375 
2500	 3.25062953362431 
