Wavelength	rt0714yellow300003.asd
350	 6.12316147971631E-02 
351	 0.060907986152227 
352	 0.060669626853833 
353	 6.07528255664853E-02 
354	 0.061207117060456 
355	 6.19967993002449E-02 
356	 6.20271350274522E-02 
357	 6.17498949058896E-02 
358	 6.18724039157683E-02 
359	 6.18807119571667E-02 
360	 0.061568195999168 
361	 6.13028088519922E-02 
362	 6.17099670353518E-02 
363	 6.19706747947339E-02 
364	 0.0621907244264 
365	 6.23344908899328E-02 
366	 6.19558570863321E-02 
367	 6.21263025635856E-02 
368	 6.26111266901641E-02 
369	 6.29645973321421E-02 
370	 6.34179218984552E-02 
371	 0.063415418207308 
372	 6.32738965245264E-02 
373	 6.37374382939105E-02 
374	 6.43949627419887E-02 
375	 6.46838918371063E-02 
376	 6.48311036875789E-02 
377	 0.066097298628425 
378	 6.59902078474325E-02 
379	 6.55477521542733E-02 
380	 6.61367399455315E-02 
381	 6.74525417958175E-02 
382	 6.79944632378511E-02 
383	 6.82197332793351E-02 
384	 6.92913145147425E-02 
385	 6.98555125122581E-02 
386	 6.95763831855287E-02 
387	 6.92819259619215E-02 
388	 0.070812774811715 
389	 0.071838919705051 
390	 7.21281735952338E-02 
391	 7.22351658551984E-02 
392	 7.35384704896641E-02 
393	 7.41070784404604E-02 
394	 7.43490281358569E-02 
395	 7.52228148365537E-02 
396	 7.55358652534365E-02 
397	 7.57960426146959E-02 
398	 0.076208770710954 
399	 7.66338031987246E-02 
400	 7.71572915841977E-02 
401	 7.76738536676987E-02 
402	 7.81252913194059E-02 
403	 7.85935023828174E-02 
404	 7.91898946730747E-02 
405	 7.96467458883845E-02 
406	 7.97599554881898E-02 
407	 8.05344562128958E-02 
408	 8.12579699591529E-02 
409	 8.17260041642885E-02 
410	 8.23195410818289E-02 
411	 8.28078260947207E-02 
412	 8.32270825158728E-02 
413	 8.37285915523681E-02 
414	 0.08466018230074 
415	 8.55221299176127E-02 
416	 8.61609231818771E-02 
417	 8.66362746910975E-02 
418	 8.72690999601635E-02 
419	 8.80185952984049E-02 
420	 8.88278255822746E-02 
421	 8.96590126033445E-02 
422	 0.090451825702392 
423	 9.13454938748627E-02 
424	 9.23904789971314E-02 
425	 9.32817154192157E-02 
426	 9.41340690321062E-02 
427	 9.51273659447249E-02 
428	 9.63992626788412E-02 
429	 9.75866652106835E-02 
430	 9.88383946550615E-02 
431	 0.100130362704101 
432	 0.101196375303075 
433	 0.102267434267025 
434	 0.103344421854802 
435	 0.104426188071961 
436	 0.105680616588912 
437	 0.106872838031974 
438	 0.1080556151286 
439	 0.10939691913801 
440	 0.110636953182716 
441	 0.111754440798564 
442	 0.112775259720845 
443	 0.113746548796568 
444	 0.114800935093082 
445	 0.115781710152474 
446	 0.116573043607969 
447	 0.117554889400393 
448	 0.118486162179885 
449	 0.119285478920457 
450	 0.120006382740301 
451	 0.120645485602832 
452	 0.121296361325395 
453	 0.121986805415354 
454	 0.122588185629851 
455	 0.123128804960541 
456	 0.123645045730013 
457	 0.124156557962386 
458	 0.124545249426831 
459	 0.125007605461553 
460	 0.125582518090251 
461	 0.1261239102034 
462	 0.126344407875818 
463	 0.126637259583746 
464	 0.12725304905176 
465	 0.12765905589029 
466	 0.12813526481456 
467	 0.128666157192212 
468	 0.129119000335338 
469	 0.129602619315682 
470	 0.129992258040088 
471	 0.130318988659235 
472	 0.130839623473917 
473	 0.131450986675782 
474	 0.132092276163454 
475	 0.132708864317817 
476	 0.133233754820314 
477	 0.133780257278465 
478	 0.134376414420826 
479	 0.134988694867981 
480	 0.135589047850056 
481	 0.136262861222255 
482	 0.137058613387215 
483	 0.137930472594951 
484	 0.138683963832872 
485	 0.139490994248189 
486	 0.140551004317272 
487	 0.141418523414829 
488	 0.142159871812539 
489	 0.143017419100187 
490	 0.144329761899265 
491	 0.145310064412076 
492	 0.146262193802199 
493	 0.147448431307623 
494	 0.148401914905718 
495	 0.149551594147166 
496	 0.150796131241637 
497	 0.151835485514515 
498	 0.153116549781296 
499	 0.15437143290514 
500	 0.155509044634026 
501	 0.156821763269705 
502	 0.158115463223742 
503	 0.159425571958775 
504	 0.160795555424585 
505	 0.16201984775001 
506	 0.163272739935698 
507	 0.164573047676764 
508	 0.165821297415678 
509	 0.167212045796144 
510	 0.168760071237772 
511	 0.170315819974959 
512	 0.171388570406511 
513	 0.172670826293824 
514	 0.174195615491305 
515	 0.175701116656191 
516	 0.177168850862084 
517	 0.178799939394868 
518	 0.180499900826168 
519	 0.181808722839833 
520	 0.183143955910227 
521	 0.184571311710762 
522	 0.186063346970682 
523	 0.187553541182223 
524	 0.189071150176195 
525	 0.19061946196456 
526	 0.192186817849065 
527	 0.193740189194805 
528	 0.19526827481302 
529	 0.196787752861632 
530	 0.198384433200722 
531	 0.19983793709183 
532	 0.201280108372772 
533	 0.202909299629714 
534	 0.204504668056564 
535	 0.205896579745583 
536	 0.207188693995534 
537	 0.208765922947861 
538	 0.210344679407159 
539	 0.211831529604108 
540	 0.213224090645675 
541	 0.214655257622694 
542	 0.216105978830133 
543	 0.21752989156308 
544	 0.218876746410271 
545	 0.220158961398838 
546	 0.221511337792047 
547	 0.222930808428573 
548	 0.224120938471094 
549	 0.225330779180321 
550	 0.226629694456161 
551	 0.227983287847974 
552	 0.229141809858055 
553	 0.230316336034509 
554	 0.23152030723363 
555	 0.232514240147229 
556	 0.233600551470389 
557	 0.234811689915107 
558	 0.236032190017495 
559	 0.236957111372133 
560	 0.237810862447967 
561	 0.23867793360261 
562	 0.239562145029283 
563	 0.240577151574028 
564	 0.241426019536257 
565	 0.242040382815608 
566	 0.242904310557558 
567	 0.243668324515615 
568	 0.244369838954783 
569	 0.245128160263449 
570	 0.24572764413171 
571	 0.246274060385119 
572	 0.246839979990892 
573	 0.247436294410943 
574	 0.247963502143275 
575	 0.248432646210728 
576	 0.248892421629653 
577	 0.24943661968556 
578	 0.249924743611493 
579	 0.250313536152995 
580	 0.25063206650907 
581	 0.250935133033486 
582	 0.251252392590746 
583	 0.251564635752277 
584	 0.251771990415594 
585	 0.251918838583055 
586	 0.251991914244424 
587	 0.251991806632693 
588	 0.252100900297247 
589	 0.252173198968108 
590	 0.252193876492379 
591	 0.252303861924122 
592	 0.252248309303039 
593	 0.25217399318009 
594	 0.252180663875521 
595	 0.25196517355486 
596	 0.251715074153466 
597	 0.251437075186586 
598	 0.251051942036059 
599	 0.25066986375624 
600	 0.250391117276095 
601	 0.250263242596476 
602	 0.250260105715234 
603	 0.250195443601806 
604	 0.250112390845329 
605	 0.250094416295166 
606	 0.249982040786489 
607	 0.249872197461212 
608	 0.249856926545148 
609	 0.250000674678366 
610	 0.250150264242751 
611	 0.250213996513239 
612	 0.250172879408144 
613	 0.250160262538051 
614	 0.25012388336017 
615	 0.250079061569296 
616	 0.250066388712315 
617	 0.249981242194193 
618	 0.250058167035847 
619	 0.250273711816118 
620	 0.250124369123906 
621	 0.250162574563562 
622	 0.25033812612952 
623	 0.250398017895775 
624	 0.250115897409379 
625	 0.249992305763585 
626	 0.250100938634725 
627	 0.250092629057535 
628	 0.250149670773343 
629	 0.25013598357611 
630	 0.250025364056606 
631	 0.250256925268333 
632	 0.250229273794748 
633	 0.250062610348748 
634	 0.250161635515797 
635	 0.250195077945976 
636	 0.250174184879408 
637	 0.250154511441281 
638	 0.250213893336025 
639	 0.250009625499757 
640	 0.249876702258768 
641	 0.250118005266467 
642	 0.250088240747794 
643	 0.249798072343249 
644	 0.249481877562468 
645	 0.249522309564173 
646	 0.249620469101834 
647	 0.249568182142621 
648	 0.249333797785353 
649	 0.249257414231943 
650	 0.249084598960373 
651	 0.24881391538788 
652	 0.248534048599304 
653	 0.248196376068067 
654	 0.247898224639385 
655	 0.247619778969607 
656	 0.247206836084899 
657	 0.246893444064357 
658	 0.246591853797094 
659	 0.24618998123966 
660	 0.245704871567252 
661	 0.245477048717397 
662	 0.245372540153692 
663	 0.245008136925665 
664	 0.244769576752109 
665	 0.244601872698688 
666	 0.244423675659599 
667	 0.244201220947283 
668	 0.244182625811702 
669	 0.244149591721724 
670	 0.24387596007677 
671	 0.243943368976184 
672	 0.2438876955709 
673	 0.243719506269078 
674	 0.243897540123798 
675	 0.243811138086397 
676	 0.243838842124406 
677	 0.244184896409559 
678	 0.24412584360764 
679	 0.244198746380878 
680	 0.244352018356424 
681	 0.24432917165257 
682	 0.244392138649425 
683	 0.244683445071288 
684	 0.245035992444268 
685	 0.244890206992528 
686	 0.244911574993942 
687	 0.24508461983398 
688	 0.245210003331069 
689	 0.245419051900877 
690	 0.245341115382366 
691	 0.245180830271356 
692	 0.245413622258924 
693	 0.245372545841918 
694	 0.245277645735882 
695	 0.245229228943514 
696	 0.244914121280846 
697	 0.244685513837308 
698	 0.24444896122853 
699	 0.244039658186657 
700	 0.243580933273143 
701	 0.24316674564289 
702	 0.242842771693254 
703	 0.242578094295822 
704	 0.242080371440097 
705	 0.241469641619598 
706	 0.240855825781852 
707	 0.240122561074675 
708	 0.239495318434964 
709	 0.238812760617019 
710	 0.237849167507914 
711	 0.236907007386872 
712	 0.23585337946045 
713	 0.234753029346582 
714	 0.233860121235597 
715	 0.23270149552868 
716	 0.231502327362627 
717	 0.230539260931679 
718	 0.228967890889249 
719	 0.227678268472165 
720	 0.226584415563375 
721	 0.225154919799651 
722	 0.224263660342187 
723	 0.223222765929827 
724	 0.221825485603078 
725	 0.220401379048815 
726	 0.218998055025592 
727	 0.217641795253429 
728	 0.21625314139706 
729	 0.214398679890692 
730	 0.212586581142133 
731	 0.211103818898697 
732	 0.209925903552556 
733	 0.208663683055846 
734	 0.207541446312598 
735	 0.206665482557155 
736	 0.205916902454873 
737	 0.205453816906863 
738	 0.205114372828052 
739	 0.204745605718085 
740	 0.204417814758702 
741	 0.2042449168511 
742	 0.204202008003036 
743	 0.204168208733999 
744	 0.203963209092933 
745	 0.203861192232059 
746	 0.203850869219526 
747	 0.203479208655483 
748	 0.203504857119748 
749	 0.203584247845946 
750	 0.203350123968926 
751	 0.203337259981498 
752	 0.203263969151506 
753	 0.203175230425155 
754	 0.203248219495891 
755	 0.203183214166805 
756	 0.2030905110099 
757	 0.203037508110861 
758	 0.202965774760211 
759	 0.202827264667477 
760	 0.202692204072214 
761	 0.202747306269606 
762	 0.202908746722426 
763	 0.203049765830779 
764	 0.2030011835441 
765	 0.20275638483747 
766	 0.202799667439378 
767	 0.202844444818138 
768	 0.202849688023081 
769	 0.20300243487732 
770	 0.20301970436462 
771	 0.203050138086846 
772	 0.203196098671242 
773	 0.203179865855511 
774	 0.203294878831734 
775	 0.203393036439562 
776	 0.203258018413711 
777	 0.203485160332611 
778	 0.203754532866406 
779	 0.203909568984445 
780	 0.204030374050899 
781	 0.204144991987618 
782	 0.204160372785411 
783	 0.204125274584474 
784	 0.204480335401681 
785	 0.204638579762335 
786	 0.204757881515515 
787	 0.205150739728775 
788	 0.205437954859871 
789	 0.205632887619484 
790	 0.205814800186817 
791	 0.206082386355849 
792	 0.206226438296637 
793	 0.206410619184957 
794	 0.206731015594631 
795	 0.207091447168438 
796	 0.207284806516106 
797	 0.207299962983798 
798	 0.207286772576363 
799	 0.207706636681974 
800	 0.207879519484173 
801	 0.207892568966345 
802	 0.208157021646291 
803	 0.207851988755261 
804	 0.207909354162671 
805	 0.208404918166926 
806	 0.208363599929866 
807	 0.20831139499144 
808	 0.208068590553994 
809	 0.20760192763032 
810	 0.207585418241069 
811	 0.207487301099174 
812	 0.207281068143655 
813	 0.207116645976766 
814	 0.206900441669452 
815	 0.206654583805766 
816	 0.206182313432535 
817	 0.205279185294484 
818	 0.204980905745678 
819	 0.204665681704027 
820	 0.203992901274815 
821	 0.203184970326994 
822	 0.202279518746811 
823	 0.201647688325872 
824	 0.201218595846796 
825	 0.199762806337153 
826	 0.198395698329793 
827	 0.197102048897277 
828	 0.195626812043439 
829	 0.194352647172606 
830	 0.193555290669663 
831	 0.193028844947094 
832	 0.192284080335713 
833	 0.191401444614386 
834	 0.190834452847686 
835	 0.190507398699135 
836	 0.189653324204557 
837	 0.189514069918824 
838	 0.189456493529911 
839	 0.188958598233464 
840	 0.18889965513737 
841	 0.188481453689821 
842	 0.187970703942469 
843	 0.187893285132133 
844	 0.188055101349336 
845	 0.187740455229793 
846	 0.187160401653076 
847	 0.187091366982111 
848	 0.187075352116317 
849	 0.186811926012925 
850	 0.18635896037528 
851	 0.186170354283913 
852	 0.18562640255949 
853	 0.185389291952769 
854	 0.185631500762697 
855	 0.184927917484617 
856	 0.184954190316341 
857	 0.185003878430073 
858	 0.18429995221857 
859	 0.184272464538352 
860	 0.184139117872729 
861	 0.183880396527191 
862	 0.183798114835203 
863	 0.183565588747096 
864	 0.183414596240609 
865	 0.18334002085512 
866	 0.183105253833294 
867	 0.182734074087626 
868	 0.182663779685826 
869	 0.182892101956167 
870	 0.18280312248087 
871	 0.181960552504173 
872	 0.181488113378111 
873	 0.181849218277435 
874	 0.181261256548362 
875	 0.180841721442651 
876	 0.180749413611992 
877	 0.180732990166724 
878	 0.18018002749576 
879	 0.179953471595757 
880	 0.179757501478748 
881	 0.179049542462829 
882	 0.179309301672728 
883	 0.178967402617036 
884	 0.178316376161966 
885	 0.178850139673138 
886	 0.17862100673028 
887	 0.178447542976959 
888	 0.178518771379702 
889	 0.178074805522514 
890	 0.17858395851605 
891	 0.178372301059986 
892	 0.176920704689159 
893	 0.176910271079505 
894	 0.177060378509982 
895	 0.17717493000913 
896	 0.177142308472014 
897	 0.176308933881404 
898	 0.175860757377804 
899	 0.175704023868842 
900	 0.175347654166576 
901	 0.174709875642635 
902	 0.175312283105495 
903	 0.175807235724576 
904	 0.174600587557841 
905	 0.174555611448285 
906	 0.174323662449305 
907	 0.174176625242858 
908	 0.175193432793967 
909	 0.174734068619601 
910	 0.174100569577425 
911	 0.173818924403378 
912	 0.173429598850865 
913	 0.173798348146932 
914	 0.173101273528914 
915	 0.171858735893387 
916	 0.173024794626214 
917	 0.17255055781057 
918	 0.171790224376177 
919	 0.171294301694291 
920	 0.169612220276003 
921	 0.170632100040862 
922	 0.171464673316827 
923	 0.17037887892639 
924	 0.170841399841856 
925	 0.170470785117225 
926	 0.169696608922898 
927	 0.169593652781065 
928	 0.170428573424559 
929	 0.170464102446632 
930	 0.17041371532917 
931	 0.171299790155491 
932	 0.165677203523408 
933	 0.167230055083624 
934	 0.171205898583548 
935	 0.167118786938276 
936	 0.168504903212719 
937	 0.170548771528416 
938	 0.171711425339854 
939	 0.171276780920538 
940	 0.16586042048857 
941	 0.165028378877657 
942	 0.166485664029323 
943	 0.164217921948885 
944	 0.170577747036259 
945	 0.172129483748986 
946	 0.166504060578001 
947	 0.160400330019272 
948	 0.15943426366747 
949	 0.161059768434545 
950	 0.164260811853432 
951	 0.168067695321009 
952	 0.162672201954665 
953	 0.164099269333271 
954	 0.168634272822003 
955	 0.161847188893511 
956	 0.162418481356199 
957	 0.165191686398051 
958	 0.165380611055139 
959	 0.161598093388764 
960	 0.161300332691717 
961	 0.162914534933724 
962	 0.162806847594353 
963	 0.158652748474313 
964	 0.160241501434383 
965	 0.162448774259369 
966	 0.163511789275719 
967	 0.164877516645848 
968	 0.164731167755385 
969	 0.163121372501854 
970	 0.161399733234427 
971	 0.161477160212739 
972	 0.162183871932366 
973	 0.162154604508899 
974	 0.161499390110094 
975	 0.161719390294475 
976	 0.16278403823795 
977	 0.164242807642816 
978	 0.164574658599522 
979	 0.162320906019753 
980	 0.162112833791562 
981	 0.161918089944495 
982	 0.161081565830341 
983	 0.160707187512506 
984	 0.16170895817552 
985	 0.162644334653956 
986	 0.161733502112698 
987	 0.158541836332559 
988	 0.161729303710239 
989	 0.164689698978484 
990	 0.164407823713739 
991	 0.162146222219335 
992	 0.159271352735319 
993	 0.160265352340558 
994	 0.162194072375926 
995	 0.159082801112496 
996	 0.16044761136303 
997	 0.161824198886138 
998	 0.162402492239849 
999	 0.163270851958137 
1000	 0.159162930952516 
1001	 0.171995604408788 
1002	 0.171232053729417 
1003	 0.171331882844007 
1004	 0.172326336610879 
1005	 0.172265184655337 
1006	 0.172043962449062 
1007	 0.17151285391925 
1008	 0.170758531880173 
1009	 0.170081644550737 
1010	 0.17014627334918 
1011	 0.170550221714883 
1012	 0.170493959971312 
1013	 0.17030547760593 
1014	 0.170304342841709 
1015	 0.170378573922407 
1016	 0.17032417957571 
1017	 0.170204861418543 
1018	 0.170316358642768 
1019	 0.170648906778688 
1020	 0.17056772585689 
1021	 0.17031383442955 
1022	 0.170391062294942 
1023	 0.170005281861953 
1024	 0.169661952797758 
1025	 0.169691213112723 
1026	 0.169903226988357 
1027	 0.169955814897076 
1028	 0.169751530398819 
1029	 0.170084679762395 
1030	 0.170948876754642 
1031	 0.171015635433757 
1032	 0.171131635354605 
1033	 0.171056405284789 
1034	 0.17003290681909 
1035	 0.169812142855795 
1036	 0.17022729006595 
1037	 0.170166106365929 
1038	 0.169927236461066 
1039	 0.169999386987718 
1040	 0.169914746156053 
1041	 0.170229464534275 
1042	 0.170285479141046 
1043	 0.170514839088799 
1044	 0.170734786344214 
1045	 0.170889164576714 
1046	 0.170820257642065 
1047	 0.170917114265842 
1048	 0.170827977722091 
1049	 0.17002812748771 
1050	 0.169909398679762 
1051	 0.170493876242665 
1052	 0.170436764504131 
1053	 0.170257387925876 
1054	 0.170117237964072 
1055	 0.169429506241247 
1056	 0.169110388644434 
1057	 0.168972716299838 
1058	 0.169063035241187 
1059	 0.169283522365698 
1060	 0.169820963618851 
1061	 0.170034888911626 
1062	 0.170479917806257 
1063	 0.170464897176384 
1064	 0.169924870085255 
1065	 0.169710612410836 
1066	 0.169248588904018 
1067	 0.169204256451756 
1068	 0.169610717101995 
1069	 0.169767721200793 
1070	 0.17025090530531 
1071	 0.170315227818482 
1072	 0.169948488847956 
1073	 0.169758458599599 
1074	 0.16923728709151 
1075	 0.168213808624049 
1076	 0.167935141919523 
1077	 0.167630568674232 
1078	 0.16777460920586 
1079	 0.168974383460946 
1080	 0.169040895442268 
1081	 0.168538548052319 
1082	 0.168542353904584 
1083	 0.168316185524394 
1084	 0.168060770639828 
1085	 0.168520217986911 
1086	 0.168324100157887 
1087	 0.166744685354131 
1088	 0.166391395490807 
1089	 0.166907990888369 
1090	 0.166818267777095 
1091	 0.166950712013313 
1092	 0.168004625023977 
1093	 0.167846154343193 
1094	 0.166542810890607 
1095	 0.16639930575327 
1096	 0.166445847041703 
1097	 0.166459334433836 
1098	 0.167283768336036 
1099	 0.167320560716989 
1100	 0.166551347347832 
1101	 0.166280566122665 
1102	 0.165791854864191 
1103	 0.165745942838574 
1104	 0.166100605498678 
1105	 0.166808341889741 
1106	 0.167508652050495 
1107	 0.167212868200736 
1108	 0.166146963773093 
1109	 0.165624352014711 
1110	 0.165452653584504 
1111	 0.165596799776825 
1112	 0.165724891965067 
1113	 0.166671284472646 
1114	 0.166916272534738 
1115	 0.166424416647876 
1116	 0.166646401213535 
1117	 0.167411342005701 
1118	 0.167502817671377 
1119	 0.166839433190977 
1120	 0.167475950623622 
1121	 0.168352572975762 
1122	 0.169859213525188 
1123	 0.173737928737511 
1124	 0.17612045514721 
1125	 0.173184155380421 
1126	 0.169313589828704 
1127	 0.165254786195806 
1128	 0.162209271898669 
1129	 0.161489911130344 
1130	 0.163726967338092 
1131	 0.163164526823711 
1132	 0.162400451837643 
1133	 0.162568286095574 
1134	 0.162829290860039 
1135	 0.163223968944578 
1136	 0.164589661884983 
1137	 0.16464594724531 
1138	 0.164162619944256 
1139	 0.162280708170747 
1140	 0.162350371193555 
1141	 0.163084688137192 
1142	 0.161021360806464 
1143	 0.15986650830142 
1144	 0.159334941437274 
1145	 0.158565411622673 
1146	 0.161709809002872 
1147	 0.165179280240696 
1148	 0.165853155477343 
1149	 0.163108050730791 
1150	 0.161351565505121 
1151	 0.157828365513397 
1152	 0.157074777642668 
1153	 0.157522831689496 
1154	 0.157727360873114 
1155	 0.158799687002632 
1156	 0.158647238995147 
1157	 0.158142082217412 
1158	 0.15870398502168 
1159	 0.159028093072424 
1160	 0.159230191795906 
1161	 0.158484233800152 
1162	 0.157822484435537 
1163	 0.15856772247432 
1164	 0.159203878558768 
1165	 0.159751164950884 
1166	 0.160046004294718 
1167	 0.159312678129693 
1168	 0.158740002629244 
1169	 0.158920727667812 
1170	 0.159286990699285 
1171	 0.159360778584149 
1172	 0.159626533565177 
1173	 0.159352480379623 
1174	 0.158332893579606 
1175	 0.158191884422514 
1176	 0.158750516318438 
1177	 0.158553401046406 
1178	 0.158358010984366 
1179	 0.15813336102617 
1180	 0.157324971159362 
1181	 0.15706916812906 
1182	 0.157522228904474 
1183	 0.157707239657628 
1184	 0.15732788491677 
1185	 0.157214350338688 
1186	 0.157586168584796 
1187	 0.157307648047287 
1188	 0.156985872292884 
1189	 0.157231215486165 
1190	 0.157136780860364 
1191	 0.156924896109223 
1192	 0.15698284198114 
1193	 0.157538735801599 
1194	 0.157537412779832 
1195	 0.156876584076333 
1196	 0.156977879480417 
1197	 0.157318062285486 
1198	 0.157181324399856 
1199	 0.157350456903828 
1200	 0.157395922561033 
1201	 0.156970092010953 
1202	 0.156631887957624 
1203	 0.156788083341296 
1204	 0.156990544603204 
1205	 0.156645699400459 
1206	 0.156531730097168 
1207	 0.15661387088469 
1208	 0.156572579287777 
1209	 0.157100080802409 
1210	 0.157099725952799 
1211	 0.156701215626233 
1212	 0.156774234839964 
1213	 0.156276583818113 
1214	 0.155916576881144 
1215	 0.15561806108481 
1216	 0.155894752027956 
1217	 0.155802177733358 
1218	 0.155662317499312 
1219	 0.156038039502339 
1220	 0.156115432300119 
1221	 0.156183401783515 
1222	 0.156526160363931 
1223	 0.156054992911819 
1224	 0.155507334710561 
1225	 0.155414251126324 
1226	 0.155344401766778 
1227	 0.15562875925098 
1228	 0.155866238161573 
1229	 0.155752517238743 
1230	 0.155643004926126 
1231	 0.155477289410761 
1232	 0.155412817898793 
1233	 0.155411297807588 
1234	 0.155225845045926 
1235	 0.155149025076534 
1236	 0.155366195606818 
1237	 0.155416023229808 
1238	 0.155373788971462 
1239	 0.155348768473669 
1240	 0.155186839316341 
1241	 0.15486957505525 
1242	 0.154857874411168 
1243	 0.154903152968267 
1244	 0.155015262730016 
1245	 0.155264060625488 
1246	 0.15522509493918 
1247	 0.154973187490942 
1248	 0.154793631241575 
1249	 0.155102508252824 
1250	 0.155114478113838 
1251	 0.154633855563257 
1252	 0.154950862652465 
1253	 0.155018501359346 
1254	 0.154713111565968 
1255	 0.155122612093482 
1256	 0.155103884644054 
1257	 0.154161189753517 
1258	 0.154139160435486 
1259	 0.155035111535917 
1260	 0.154902156325609 
1261	 0.154292501662143 
1262	 0.154209140939644 
1263	 0.153934942443232 
1264	 0.153662809314668 
1265	 0.153595343917912 
1266	 0.153843195720305 
1267	 0.153982393530112 
1268	 0.153919078079562 
1269	 0.153839318522934 
1270	 0.153849577826855 
1271	 0.153785954160787 
1272	 0.153542960355824 
1273	 0.153777451030541 
1274	 0.15431405932164 
1275	 0.154270517251136 
1276	 0.15372603906226 
1277	 0.153883145920872 
1278	 0.154107745649581 
1279	 0.153700604650995 
1280	 0.15362131231831 
1281	 0.153414819258869 
1282	 0.152526559259644 
1283	 0.152379140587863 
1284	 0.153001620363366 
1285	 0.152932413778884 
1286	 0.15262699130243 
1287	 0.152667357500058 
1288	 0.152734212159998 
1289	 0.152530624765588 
1290	 0.152279686556909 
1291	 0.15234559937626 
1292	 0.152489711694748 
1293	 0.152392688030111 
1294	 0.152561746889594 
1295	 0.152806691630794 
1296	 0.152523364755788 
1297	 0.152161736864004 
1298	 0.152379021379666 
1299	 0.15275694702931 
1300	 0.152611652998899 
1301	 0.152101824597396 
1302	 0.151642433892048 
1303	 0.151178771158417 
1304	 0.15084025513483 
1305	 0.150916997569826 
1306	 0.151019702331788 
1307	 0.151449757636876 
1308	 0.151480870861977 
1309	 0.151584225419469 
1310	 0.151422002485696 
1311	 0.150849397368234 
1312	 0.15052377987415 
1313	 0.149805081873276 
1314	 0.149675924768148 
1315	 0.150402561835457 
1316	 0.150330775159124 
1317	 0.149963637662291 
1318	 0.149975602168478 
1319	 0.149847970795947 
1320	 0.149508860970974 
1321	 0.149339655624023 
1322	 0.149135104303667 
1323	 0.149066571469204 
1324	 0.149113618416701 
1325	 0.149273536930681 
1326	 0.149850678884484 
1327	 0.150545089863638 
1328	 0.149944637099754 
1329	 0.148401791679696 
1330	 0.148260515744831 
1331	 0.148276410347738 
1332	 0.147814652598223 
1333	 0.147871306737822 
1334	 0.148622493489035 
1335	 0.14883908673308 
1336	 0.147604557065237 
1337	 0.147611598211417 
1338	 0.149483497507816 
1339	 0.149303854772367 
1340	 0.146708493030943 
1341	 0.147194235017517 
1342	 0.15031805710386 
1343	 0.149872497289261 
1344	 0.147809099675522 
1345	 0.149380836617052 
1346	 0.150832282550388 
1347	 0.150300586532953 
1348	 0.153738148469996 
1349	 0.160472303270216 
1350	 0.168524166533046 
1351	 0.167779640439706 
1352	 0.154439031133116 
1353	 0.167165103499665 
1354	 0.201878509459706 
1355	 0.205513944268074 
1356	 0.243291006737531 
1357	 0.302892351877677 
1358	 0.333277871245537 
1359	 0.335932902027766 
1360	 0.31444933453243 
1361	 0.496357485747014 
1362	 0.492889105493634 
1363	 0.215548073210359 
1364	 0.28133640046956 
1365	 0.495202189704712 
1366	 0.628259556583705 
1367	 0.733937472845456 
1368	 0.746722638494967 
1369	 0.813533890959356 
1370	 1.00918192237294 
1371	 1.20062323341909 
1372	 1.01264179213553 
1373	 0.728418786709587 
1374	 0.780830867092937 
1375	 0.719576703073337 
1376	 0.289307476816106 
1377	-0.123816235369249 
1378	-4.44407607437952E-02 
1379	 0.248439959310552 
1380	 0.171377348263783 
1381	 8.25052267262587E-02 
1382	 0.285422033908472 
1383	 1.19468283811456 
1384	 0.863626616886179 
1385	 0.310889532329 
1386	 0.684923323783908 
1387	 0.549710458891267 
1388	 0.353068269837081 
1389	 0.592611226666668 
1390	 0.845669224505806 
1391	 0.570384466087537 
1392	-7.52959306212438E-02 
1393	-1.89083389470263E-02 
1394	 0.328034174220657 
1395	 0.467264052310179 
1396	 0.571525940645188 
1397	 1.04385698664113 
1398	 1.30862715128566 
1399	 2.59053234723869 
1400	 3.26056590238239 
1401	 2.32982607039255 
1402	 9.50307115376091 
1403	 0.752556743324565 
1404	 0.302911933040277 
1405	 0.246395741329542 
1406	 0.270060196134229 
1407	 0.294186378630041 
1408	 0.367354821345703 
1409	 0.357874245310825 
1410	 0.354543889250848 
1411	 0.308751759828964 
1412	 0.197513814602369 
1413	 0.176379581985478 
1414	 0.191690321171037 
1415	 0.217983308553891 
1416	 0.247611577257775 
1417	 0.261936487203549 
1418	 0.334319654073931 
1419	 0.301033045550665 
1420	 0.21606651203016 
1421	 0.189859641046745 
1422	 0.155008942250441 
1423	 0.128251389680306 
1424	 0.122391920699051 
1425	 0.112703954518857 
1426	 9.63582379903083E-02 
1427	 9.13915131112004E-02 
1428	 9.01147464747752E-02 
1429	 8.95286259729747E-02 
1430	 9.53050152385592E-02 
1431	 9.24068469101758E-02 
1432	 7.71294082155578E-02 
1433	 8.20735962116661E-02 
1434	 0.110759652569446 
1435	 0.110385223877364 
1436	 0.099075068188157 
1437	 9.56055957765457E-02 
1438	 9.08849530511098E-02 
1439	 7.00012469683154E-02 
1440	 6.62422279237231E-02 
1441	 7.79815779920413E-02 
1442	 8.71447581755997E-02 
1443	 8.73358670221841E-02 
1444	 8.39468849555619E-02 
1445	 8.96647052862837E-02 
1446	 9.25562947939267E-02 
1447	 8.66004111844246E-02 
1448	 8.43661837429186E-02 
1449	 8.57587120405452E-02 
1450	 8.50797819680728E-02 
1451	 8.25372418510798E-02 
1452	 8.29123508810285E-02 
1453	 8.74064622506375E-02 
1454	 9.06247815758941E-02 
1455	 9.42748671363647E-02 
1456	 9.52025612375791E-02 
1457	 9.65323388173786E-02 
1458	 9.57563779868496E-02 
1459	 0.092049826501223 
1460	 0.091091301312137 
1461	 9.13436405005812E-02 
1462	 8.99258176560608E-02 
1463	 8.72988638612725E-02 
1464	 8.63183345923454E-02 
1465	 0.08429391326351 
1466	 8.57028253133948E-02 
1467	 9.32880635462699E-02 
1468	 0.093056065499942 
1469	 0.08858276895253 
1470	 0.088396654436156 
1471	 8.61649313585001E-02 
1472	 8.39912620966532E-02 
1473	 8.40224378552398E-02 
1474	 8.63748451511752E-02 
1475	 8.95491886159964E-02 
1476	 8.91740824670581E-02 
1477	 8.93566846908554E-02 
1478	 9.05875603677148E-02 
1479	 8.92269037341678E-02 
1480	 8.83025374733254E-02 
1481	 8.99168798789952E-02 
1482	 9.09317944614397E-02 
1483	 8.97498282136692E-02 
1484	 8.93572102039504E-02 
1485	 9.08941534434228E-02 
1486	 9.13803259261301E-02 
1487	 9.04196769998255E-02 
1488	 9.04906335025949E-02 
1489	 9.11294970046299E-02 
1490	 9.15464522112177E-02 
1491	 9.22287841703724E-02 
1492	 9.23617413973113E-02 
1493	 9.19296231984715E-02 
1494	 9.22044715223754E-02 
1495	 0.092450837776471 
1496	 9.27421579309746E-02 
1497	 9.38437027799319E-02 
1498	 9.42704027767505E-02 
1499	 9.40761738752987E-02 
1500	 9.44563127879896E-02 
1501	 9.52091671387239E-02 
1502	 9.52749622405515E-02 
1503	 9.46220019652948E-02 
1504	 9.50674584628315E-02 
1505	 0.09588660534926 
1506	 9.64595611099397E-02 
1507	 9.69016884333426E-02 
1508	 0.097309846945776 
1509	 9.76176294342828E-02 
1510	 9.76936331018182E-02 
1511	 9.77359091215524E-02 
1512	 9.78609105888761E-02 
1513	 9.81559600946417E-02 
1514	 9.88440505013584E-02 
1515	 0.100101897211787 
1516	 0.101310431994962 
1517	 0.101371251262232 
1518	 0.100920443478233 
1519	 0.101486568255444 
1520	 0.102176609158041 
1521	 0.102218791240913 
1522	 0.102685005316628 
1523	 0.102714539574277 
1524	 0.102397998426559 
1525	 0.10294786495147 
1526	 0.103361809803297 
1527	 0.103223492850676 
1528	 0.103413783944786 
1529	 0.104145692488345 
1530	 0.104357966263314 
1531	 0.104301143042821 
1532	 0.105027804192755 
1533	 0.105524846088525 
1534	 0.105411145294207 
1535	 0.105811889260722 
1536	 0.1066744537745 
1537	 0.107201026307414 
1538	 0.107485471231123 
1539	 0.107829103465794 
1540	 0.108367018410198 
1541	 0.108707055992111 
1542	 0.108848907772013 
1543	 0.109085094062378 
1544	 0.108940704496332 
1545	 0.109096144983587 
1546	 0.109503070908044 
1547	 0.109553282640965 
1548	 0.109925760542107 
1549	 0.110296604812858 
1550	 0.110407334032256 
1551	 0.111099527257441 
1552	 0.111799429132825 
1553	 0.111405525955995 
1554	 0.11124646070524 
1555	 0.111759365152392 
1556	 0.111991873341498 
1557	 0.112541931579915 
1558	 0.113204621882831 
1559	 0.113092944689979 
1560	 0.112667030186758 
1561	 0.112597024352786 
1562	 0.112725778938826 
1563	 0.113258419023323 
1564	 0.113780000549709 
1565	 0.114057768938816 
1566	 0.114615809768536 
1567	 0.114758889215855 
1568	 0.114800451426263 
1569	 0.114858917077905 
1570	 0.114795667161185 
1571	 0.115109509333415 
1572	 0.115322375473265 
1573	 0.116022613209302 
1574	 0.116930471344596 
1575	 0.116666478715864 
1576	 0.11680338599794 
1577	 0.117307002206642 
1578	 0.116733741274227 
1579	 0.116750493536784 
1580	 0.117510449886037 
1581	 0.117558091482858 
1582	 0.117561023642535 
1583	 0.11816301020809 
1584	 0.118284631140576 
1585	 0.117793769939637 
1586	 0.117642811953089 
1587	 0.117965353127171 
1588	 0.118383051745301 
1589	 0.118585064850154 
1590	 0.118826673722795 
1591	 0.118586795494449 
1592	 0.117987952727323 
1593	 0.118686272018099 
1594	 0.119499504992442 
1595	 0.119329640286637 
1596	 0.119529385275061 
1597	 0.119760132623106 
1598	 0.119402859545119 
1599	 0.11969695163122 
1600	 0.120363283467554 
1601	 0.120453843439742 
1602	 0.120580151036674 
1603	 0.120399571727909 
1604	 0.120257255316194 
1605	 0.120261248223182 
1606	 0.12003254289042 
1607	 0.120411178973919 
1608	 0.120627540763747 
1609	 0.120457253462781 
1610	 0.121021119309526 
1611	 0.121788030407249 
1612	 0.121810592805796 
1613	 0.121614554578484 
1614	 0.121678673807245 
1615	 0.121500414710219 
1616	 0.121305890447153 
1617	 0.121363694509605 
1618	 0.121328863669796 
1619	 0.121470210497175 
1620	 0.121776928434502 
1621	 0.121794022673631 
1622	 0.121718978698683 
1623	 0.12183288726408 
1624	 0.121902024126757 
1625	 0.122243220419985 
1626	 0.122697896663854 
1627	 0.122465233784642 
1628	 0.121934978230003 
1629	 0.121922199512718 
1630	 0.122331038097486 
1631	 0.122134559597829 
1632	 0.121885338178129 
1633	 0.122249320956275 
1634	 0.122010038966688 
1635	 0.121812468682534 
1636	 0.122351197634863 
1637	 0.122955688657 
1638	 0.123281899709818 
1639	 0.122856272244047 
1640	 0.122762065206882 
1641	 0.12293677969355 
1642	 0.122407960748536 
1643	 0.122424370435164 
1644	 0.123158224454395 
1645	 0.123366429050479 
1646	 0.123109325023305 
1647	 0.123389847447641 
1648	 0.123684243580151 
1649	 0.123160001547998 
1650	 0.123095182677659 
1651	 0.123534145031666 
1652	 0.123572067357488 
1653	 0.124404130566569 
1654	 0.124277545221853 
1655	 0.123047046625157 
1656	 0.122923059852212 
1657	 0.122870267336433 
1658	 0.122950227554301 
1659	 0.123943750550317 
1660	 0.124151361023869 
1661	 0.124033256101935 
1662	 0.123804833091342 
1663	 0.122934759330299 
1664	 0.122749847093601 
1665	 0.122942123971899 
1666	 0.12275679133643 
1667	 0.122727322912757 
1668	 0.123200445055547 
1669	 0.122975003094469 
1670	 0.122812113509377 
1671	 0.12340147160677 
1672	 0.1241120023651 
1673	 0.123863078034678 
1674	 0.123958782533404 
1675	 0.124513006871187 
1676	 0.123852785270032 
1677	 0.123552696362368 
1678	 0.124082266179156 
1679	 0.124040797447288 
1680	 0.124171418792214 
1681	 0.124371655221042 
1682	 0.123842535699019 
1683	 0.123808510073653 
1684	 0.12426816704803 
1685	 0.124333354765551 
1686	 0.124483556489907 
1687	 0.123988428381068 
1688	 0.123195801080032 
1689	 0.123014313810306 
1690	 0.123112892998168 
1691	 0.123515581923087 
1692	 0.123504474393194 
1693	 0.123321862397342 
1694	 0.123512562478233 
1695	 0.123388781307161 
1696	 0.123237663578981 
1697	 0.123478220839642 
1698	 0.123303142450089 
1699	 0.123128163544358 
1700	 0.123333712604941 
1701	 0.123388805158957 
1702	 0.123923282874796 
1703	 0.124076715497443 
1704	 0.123717538274327 
1705	 0.123627941631119 
1706	 0.123479447299759 
1707	 0.124200829174159 
1708	 0.124673195556596 
1709	 0.124079124961907 
1710	 0.124115734366079 
1711	 0.124233167765573 
1712	 0.123760275781519 
1713	 0.123971739218653 
1714	 0.123991247961331 
1715	 0.12276170823441 
1716	 0.122854238915828 
1717	 0.123096975776873 
1718	 0.121789977788618 
1719	 0.121634713814585 
1720	 0.122962391212496 
1721	 0.122871246645583 
1722	 0.122738565918649 
1723	 0.123786714843697 
1724	 0.124044808549264 
1725	 0.123231573564643 
1726	 0.123231377535094 
1727	 0.123084965645132 
1728	 0.122159894704149 
1729	 0.122377661023629 
1730	 0.122681459290374 
1731	 0.122189889156581 
1732	 0.121724533629268 
1733	 0.121508929221969 
1734	 0.121416047858148 
1735	 0.120869812266458 
1736	 0.120043096883552 
1737	 0.120021531110052 
1738	 0.120690949263663 
1739	 0.121150533853562 
1740	 0.121043367546905 
1741	 0.12089424764354 
1742	 0.120998247612593 
1743	 0.120368117481805 
1744	 0.120092772825678 
1745	 0.120511295098328 
1746	 0.119848223171795 
1747	 0.119629770154493 
1748	 0.120387016294008 
1749	 0.120242411584495 
1750	 0.119328222842838 
1751	 0.118728692150377 
1752	 0.117509839060925 
1753	 0.117748787625187 
1754	 0.11935488072437 
1755	 0.119549706542236 
1756	 0.120430786955983 
1757	 0.119014249300018 
1758	 0.117134421039905 
1759	 0.11731201752902 
1760	 0.117320433566287 
1761	 0.116113202004032 
1762	 0.11571209789442 
1763	 0.116061533841686 
1764	 0.11594241696591 
1765	 0.115640921876798 
1766	 0.115152258915883 
1767	 0.114309300581881 
1768	 0.113663228487859 
1769	 0.114739903735606 
1770	 0.115921203418372 
1771	 0.114487433741855 
1772	 0.112684123078767 
1773	 0.1125756060694 
1774	 0.11292428281925 
1775	 0.113781496810885 
1776	 0.114520815254675 
1777	 0.115255452820438 
1778	 0.114908322302468 
1779	 0.113474358369938 
1780	 0.113932987327482 
1781	 0.114105772399851 
1782	 0.113947671834096 
1783	 0.116365381330198 
1784	 0.116655004103946 
1785	 0.113500169168845 
1786	 0.11378237186967 
1787	 0.116554888433399 
1788	 0.117243339788516 
1789	 0.118827341280561 
1790	 0.119763282301661 
1791	 0.118089468549797 
1792	 0.114701318318477 
1793	 0.111475527104473 
1794	 0.111357368475026 
1795	 0.108885897908492 
1796	 0.113251155816144 
1797	 0.118089531410731 
1798	 0.121128333627884 
1799	 0.133694064899807 
1800	 0.1140815630321 
1801	 0.11255721583327 
1802	 0.113991104108154 
1803	 0.104792927505569 
1804	 0.121898311712724 
1805	 0.131274362066784 
1806	 9.94533431036817E-02 
1807	 0.086896720033202 
1808	 0.113188793315339 
1809	 0.126851270308315 
1810	 0.130223130965999 
1811	 0.12422370184409 
1812	 0.101572557121046 
1813	 0.131705130545008 
1814	 0.176135334938995 
1815	 0.209848116030795 
1816	 0.560715215679095 
1817	 0.389422419635747 
1818	 0.453565466698025 
1819	 0.511339686108744 
1820	 0.111013280767884 
1821	 0.494034480740277 
1822	 0.566800048913231 
1823	 0.550187582923882 
1824	 0.703556990959846 
1825	 0.575461589246071 
1826	 0.47173694839141 
1827	 0.419468077112673 
1828	 0.347702020670716 
1829	-0.768561281602705 
1830	-2.90236745931726 
1831	-1.43736974815415E-02 
1832	 0.157891278862573 
1833	-2.43282559916846 
1834	-13.581815717732 
1835	-2.85187035619345 
1836	-4.4291180502963 
1837	 1.40967870918371 
1838	 0.698659742163086 
1839	-0.325153961056739 
1840	 2.49715884380065E-02 
1841	-0.379801879981741 
1842	-6.94081008279021 
1843	-1.08735904882518 
1844	 0.25046672202863 
1845	 0.244621385221869 
1846	-0.020085299559901 
1847	 5.10788200891579E-03 
1848	 1.1508497496265 
1849	 1.94964670024007 
1850	 5.10409386876129 
1851	 17.5720166320472 
1852	 118.327907543181 
1853	 58.387267903261 
1854	 11.5897084023289 
1855	 0.539138560209032 
1856	 8.17402485271346E-02 
1857	-3.79846248317424E-02 
1858	-0.157656059466409 
1859	 1.52452043282665 
1860	-3.21923883900758 
1861	-0.601300014379734 
1862	-1.18499570843237E-02 
1863	 0.30255413423911 
1864	 0.729676977334528 
1865	 1.11152421354836 
1866	 4.65288917062713 
1867	-1.49340337170388 
1868	 1.79975228058874 
1869	 1.00851231802626 
1870	 1.0318135554345 
1871	 0.770687766683074 
1872	-0.268137045868412 
1873	-0.697883229184277 
1874	-0.791022207205999 
1875	-0.678056689100838 
1876	-0.711871531702458 
1877	-0.623319267334214 
1878	-0.623260039095599 
1879	-2.93564218809219 
1880	 1.30647352591204 
1881	 0.579862547522556 
1882	-2.27489497428026E-02 
1883	-0.21070788214514 
1884	-1.38821665799548 
1885	 0.492778822354718 
1886	-0.155840130914475 
1887	 0.236602424787295 
1888	 2.57663335766664 
1889	 1.5225108109655 
1890	-1.20558301249931 
1891	-1.02891048537909 
1892	 0.118087611476148 
1893	-2.57379132451936 
1894	-4.29867670276583 
1895	-7.34937679255247 
1896	-0.383327474840388 
1897	-3.74911545023596 
1898	-3.62611030253574 
1899	-3.40388283888485 
1900	-2.75021543286895 
1901	-0.907282380221748 
1902	-0.545723080828343 
1903	 0.211918358483552 
1904	-0.342065101295221 
1905	 4.99926825326985 
1906	 1.295998373304 
1907	 0.504842005860571 
1908	-5.60420098349079 
1909	 5.0289697955358 
1910	 1.74296015415464 
1911	 0.999405241849829 
1912	 0.349169616269927 
1913	 0.313777425540406 
1914	 0.617879173582232 
1915	 0.921569712352373 
1916	-14.5177441944642 
1917	-1.84616503596131 
1918	-0.836711052469013 
1919	-0.508463059200825 
1920	-0.664806773167408 
1921	-1.11905290394347 
1922	-1.55392385943143 
1923	-4.40315101458793 
1924	-1.33540909603701 
1925	-0.845857098693561 
1926	-0.581274213259406 
1927	-0.625071129391711 
1928	-1.13823075440017 
1929	-0.503262776497291 
1930	 0.432239416465911 
1931	 0.399668357374427 
1932	 0.643803501704342 
1933	 0.778141509690232 
1934	 0.59038157319001 
1935	 0.442918428055618 
1936	 0.254626587601389 
1937	 0.197124966978982 
1938	 0.121761179556476 
1939	 0.103272970228474 
1940	 0.132452217212989 
1941	 0.162182733917638 
1942	 0.224809918323335 
1943	 0.202598930393087 
1944	 6.46520418670514E-02 
1945	 7.27519767866581E-02 
1946	 1.93164396064578E-02 
1947	-7.57991770719867E-02 
1948	-7.82741649980696E-02 
1949	-0.113551157279809 
1950	-0.117619183578471 
1951	-2.70101382102591E-02 
1952	 2.09964231178257E-02 
1953	 8.60988830830387E-02 
1954	 9.53351660945257E-02 
1955	 0.10397121680749 
1956	 8.13346161334041E-02 
1957	 1.61499623632481E-02 
1958	 1.77001186433779E-02 
1959	 3.27264245544704E-02 
1960	 1.35986563776707E-02 
1961	 3.95816365552781E-03 
1962	 1.08248132387777E-02 
1963	 1.75939457750944E-02 
1964	 2.29232174624094E-02 
1965	 0.04379957212312 
1966	 5.08582426217012E-02 
1967	 5.41520657879973E-02 
1968	 4.25188736082613E-02 
1969	 4.22344568544298E-02 
1970	 4.03969272255226E-02 
1971	 3.57966995341867E-02 
1972	 4.08078895690183E-02 
1973	 4.20751637106474E-02 
1974	 3.92380942294316E-02 
1975	 3.91596887319492E-02 
1976	 3.67234761881584E-02 
1977	 0.036284809409948 
1978	 3.52250901615771E-02 
1979	 3.42896571388718E-02 
1980	 3.23808762868062E-02 
1981	 3.49540714071317E-02 
1982	 3.76890673881917E-02 
1983	 4.05954597531493E-02 
1984	 4.60830799182596E-02 
1985	 4.55310149260774E-02 
1986	 4.09468828097383E-02 
1987	 4.16668259409637E-02 
1988	 4.08146797110362E-02 
1989	 4.03730771222535E-02 
1990	 4.28177871958244E-02 
1991	 0.040640380965088 
1992	 3.96767818912323E-02 
1993	 0.041789055911302 
1994	 4.17169876001266E-02 
1995	 4.12799271430805E-02 
1996	 3.96916420361663E-02 
1997	 4.03542397773042E-02 
1998	 4.54910824711635E-02 
1999	 4.83533584221663E-02 
2000	 5.20825972535643E-02 
2001	 5.48618834559712E-02 
2002	 4.53845735059686E-02 
2003	 4.11761185740125E-02 
2004	 4.72380230827849E-02 
2005	 4.92571284352441E-02 
2006	 0.043272006955453 
2007	 0.041634298472722 
2008	 0.051387653441121 
2009	 5.06753042716822E-02 
2010	 4.90804384331905E-02 
2011	 0.049217248201843 
2012	 4.95426935003912E-02 
2013	 2.91696352103269E-02 
2014	 2.82355301047212E-02 
2015	 4.05937757661881E-02 
2016	 4.96240638375986E-02 
2017	 6.39877976546934E-02 
2018	 0.07433403448613 
2019	 7.15649630890956E-02 
2020	 6.32892846576715E-02 
2021	 0.05539095507408 
2022	 4.90071733039043E-02 
2023	 4.73050601601141E-02 
2024	 4.86364271380185E-02 
2025	 5.61006974252679E-02 
2026	 0.05767652349334 
2027	 5.95187612175612E-02 
2028	 5.90665648676087E-02 
2029	 0.056014502995172 
2030	 5.28377219121003E-02 
2031	 5.29460928166431E-02 
2032	 5.20738854232092E-02 
2033	 5.07147849026229E-02 
2034	 0.054386201773368 
2035	 5.68161041582235E-02 
2036	 5.77838749323324E-02 
2037	 0.059170472253205 
2038	 5.72574766264975E-02 
2039	 0.056401248687951 
2040	 5.37391918063333E-02 
2041	 5.33266870047631E-02 
2042	 5.55852928166744E-02 
2043	 0.05613236793161 
2044	 5.57855540606884E-02 
2045	 5.65200661189542E-02 
2046	 5.82672289105918E-02 
2047	 5.82458681487685E-02 
2048	 5.94160589710025E-02 
2049	 6.09867557996075E-02 
2050	 5.85599301555376E-02 
2051	 5.46951439643355E-02 
2052	 5.11732621339256E-02 
2053	 4.78672554544646E-02 
2054	 5.27972420436517E-02 
2055	 5.85263586368967E-02 
2056	 6.01834396312779E-02 
2057	 6.23437787207408E-02 
2058	 6.44046775611643E-02 
2059	 6.11678594062961E-02 
2060	 6.02916778373155E-02 
2061	 6.17340149600367E-02 
2062	 6.24325690549775E-02 
2063	 0.063084217860937 
2064	 6.44319383149162E-02 
2065	 6.64196349144065E-02 
2066	 6.75386805239602E-02 
2067	 6.53969063133192E-02 
2068	 6.52985372070486E-02 
2069	 6.72463943698618E-02 
2070	 6.88352600271312E-02 
2071	 6.94701210204664E-02 
2072	 6.80023973009537E-02 
2073	 6.81533009783876E-02 
2074	 6.82118227614508E-02 
2075	 6.73598076446295E-02 
2076	 6.73251699061139E-02 
2077	 0.067601691737955 
2078	 6.64117181613645E-02 
2079	 6.65710335445063E-02 
2080	 6.84165279917299E-02 
2081	 6.89970809460105E-02 
2082	 0.069031411316489 
2083	 6.71084032544933E-02 
2084	 6.64561505452104E-02 
2085	 6.73068439385335E-02 
2086	 6.93323703077925E-02 
2087	 0.073353155848502 
2088	 7.43415564221527E-02 
2089	 7.37697196498032E-02 
2090	 7.37378800217928E-02 
2091	 7.33251001542461E-02 
2092	 7.28950085293537E-02 
2093	 7.36615022659342E-02 
2094	 7.33991124303774E-02 
2095	 7.14258788507385E-02 
2096	 7.09614896553038E-02 
2097	 7.15089878118634E-02 
2098	 7.14824268602076E-02 
2099	 7.10139649443762E-02 
2100	 7.21738273863023E-02 
2101	 7.25455333453829E-02 
2102	 7.31182148577587E-02 
2103	 7.52596676930074E-02 
2104	 7.33929693840187E-02 
2105	 7.36291016211395E-02 
2106	 7.68143327384234E-02 
2107	 7.59846808921975E-02 
2108	 7.64741127620983E-02 
2109	 7.59721843201183E-02 
2110	 7.34105472459071E-02 
2111	 7.38918293137798E-02 
2112	 7.44796398207408E-02 
2113	 7.49925936529835E-02 
2114	 7.53429212305813E-02 
2115	 7.67024648634147E-02 
2116	 7.94627926008237E-02 
2117	 8.03026197158664E-02 
2118	 8.01608273496812E-02 
2119	 8.09073706732407E-02 
2120	 8.08761108499206E-02 
2121	 8.16449305250163E-02 
2122	 8.14965558987926E-02 
2123	 0.081374590723285 
2124	 0.081622013452749 
2125	 8.08691737108987E-02 
2126	 8.12022391982176E-02 
2127	 8.21637221126075E-02 
2128	 8.04412434897724E-02 
2129	 7.91265906709083E-02 
2130	 0.080221866603378 
2131	 8.17525631327117E-02 
2132	 8.31252144023008E-02 
2133	 8.40955719384686E-02 
2134	 8.41961708583412E-02 
2135	 8.29574198229152E-02 
2136	 8.18078050230073E-02 
2137	 0.078998078578168 
2138	 0.078565864376258 
2139	 7.99499281780204E-02 
2140	 8.00485778687708E-02 
2141	 0.081294725945963 
2142	 8.21232065125718E-02 
2143	 8.18958063709596E-02 
2144	 8.06639320962814E-02 
2145	 8.23264549911774E-02 
2146	 8.25654078622359E-02 
2147	 0.082469482412043 
2148	 8.28474722640725E-02 
2149	 0.083033103314291 
2150	 8.25136754142564E-02 
2151	 8.15254449930324E-02 
2152	 8.13938772393023E-02 
2153	 8.06951551089235E-02 
2154	 8.28697486892993E-02 
2155	 8.64394355259784E-02 
2156	 8.64944397879527E-02 
2157	 8.66078735897407E-02 
2158	 8.50764251390477E-02 
2159	 8.49618279605637E-02 
2160	 8.50934130610143E-02 
2161	 8.58433541039965E-02 
2162	 8.77548033376362E-02 
2163	 8.85244283878955E-02 
2164	 8.94265453033567E-02 
2165	 8.82096283182148E-02 
2166	 8.48557109275929E-02 
2167	 8.37273567838589E-02 
2168	 8.10406330585911E-02 
2169	 8.05844578599268E-02 
2170	 8.33249140139258E-02 
2171	 8.50084841156596E-02 
2172	 8.48829308474855E-02 
2173	 8.58100624384026E-02 
2174	 8.66584464245165E-02 
2175	 8.63263684896386E-02 
2176	 8.53366982124031E-02 
2177	 0.084820954178777 
2178	 8.30767259762457E-02 
2179	 8.18008842963007E-02 
2180	 8.54391879733702E-02 
2181	 8.83605739245063E-02 
2182	 8.92224422372443E-02 
2183	 9.28411310870627E-02 
2184	 9.09916571695054E-02 
2185	 8.82552047189654E-02 
2186	 8.85514287721906E-02 
2187	 9.01369487127952E-02 
2188	 9.00318974914911E-02 
2189	 9.24871856155538E-02 
2190	 0.092329010409457 
2191	 8.87479406503226E-02 
2192	 8.87780881333529E-02 
2193	 9.03726819615044E-02 
2194	 8.99062013755353E-02 
2195	 8.84494930363428E-02 
2196	 8.95465077668079E-02 
2197	 9.26411090132731E-02 
2198	 9.32972516562952E-02 
2199	 9.64325114945111E-02 
2200	 9.55353930536958E-02 
2201	 0.088075056838445 
2202	 8.50128588377286E-02 
2203	 8.25567901311108E-02 
2204	 0.081179255869738 
2205	 8.55694345958767E-02 
2206	 8.27973421833763E-02 
2207	 8.10713512212841E-02 
2208	 8.25843355230868E-02 
2209	 8.07367855525267E-02 
2210	 8.35936504393174E-02 
2211	 8.85775968452127E-02 
2212	 0.089287077973749 
2213	 8.76334730237038E-02 
2214	 8.77332797299784E-02 
2215	 8.50514919198834E-02 
2216	 8.15029580001559E-02 
2217	 8.11760163193384E-02 
2218	 8.49104842755867E-02 
2219	 8.38189693564884E-02 
2220	 8.11540857931803E-02 
2221	 8.16312771448557E-02 
2222	 8.06886641868725E-02 
2223	 8.13298970083632E-02 
2224	 8.63864016592631E-02 
2225	 8.84363726427108E-02 
2226	 8.97005256244962E-02 
2227	 8.91731469252114E-02 
2228	 8.52381146304065E-02 
2229	 8.46965626942282E-02 
2230	 0.085072988311431 
2231	 8.53599682289251E-02 
2232	 8.91014863078298E-02 
2233	 8.99457904684873E-02 
2234	 8.92452450475882E-02 
2235	 8.49939599229005E-02 
2236	 8.34874699501226E-02 
2237	 0.083772124516178 
2238	 8.23188284092544E-02 
2239	 8.45788420751201E-02 
2240	 8.47909197788554E-02 
2241	 8.13840448679989E-02 
2242	 8.22016612135906E-02 
2243	 0.080364842288309 
2244	 7.67417654669592E-02 
2245	 7.42846827794519E-02 
2246	 7.13452039264378E-02 
2247	 6.93527416936067E-02 
2248	 6.56235744204157E-02 
2249	 6.90246881333458E-02 
2250	 7.18544426444886E-02 
2251	 7.08838643773689E-02 
2252	 7.55661271214046E-02 
2253	 7.53480602197689E-02 
2254	 7.55818125167279E-02 
2255	 7.80695380692757E-02 
2256	 8.15320787818806E-02 
2257	 8.69825581060446E-02 
2258	 8.59649769580994E-02 
2259	 8.33879401500697E-02 
2260	 8.33212324993457E-02 
2261	 8.25340461824287E-02 
2262	 7.98872231001301E-02 
2263	 8.00164704105809E-02 
2264	 7.83426401135777E-02 
2265	 6.99387913854992E-02 
2266	 6.85601889055846E-02 
2267	 7.07784490477709E-02 
2268	 7.24071976242631E-02 
2269	 7.90523940330597E-02 
2270	 8.03817313307391E-02 
2271	 8.06785182796286E-02 
2272	 7.94699059984362E-02 
2273	 7.31050729120401E-02 
2274	 6.99614456425855E-02 
2275	 6.55845929213847E-02 
2276	 6.56912706125699E-02 
2277	 7.07889772780605E-02 
2278	 7.15149594166841E-02 
2279	 7.31938411034255E-02 
2280	 7.43203967371169E-02 
2281	 7.26903192962871E-02 
2282	 7.02704639986271E-02 
2283	 7.54138387272675E-02 
2284	 8.12056906147214E-02 
2285	 8.17967762693352E-02 
2286	 8.09259943310268E-02 
2287	 7.66005483866574E-02 
2288	 7.43586221296218E-02 
2289	 6.98294322077908E-02 
2290	 0.071445081040224 
2291	 8.05967403271066E-02 
2292	 7.83480000484522E-02 
2293	 7.43740066525481E-02 
2294	 7.57327991904939E-02 
2295	 7.42237124084103E-02 
2296	 6.79794871178842E-02 
2297	 6.92282872995993E-02 
2298	 7.39216297116176E-02 
2299	 6.93614837161367E-02 
2300	 6.59088049760219E-02 
2301	 0.064979745627581 
2302	 6.64622094753442E-02 
2303	 7.01784084494247E-02 
2304	 7.33752193558084E-02 
2305	 7.95269090712326E-02 
2306	 7.92331384572009E-02 
2307	 7.09262505569892E-02 
2308	 6.96984053447534E-02 
2309	 7.27573980211928E-02 
2310	 6.98129140194548E-02 
2311	 6.73403658897173E-02 
2312	 7.07983018437254E-02 
2313	 7.38761691275229E-02 
2314	 7.23842601431975E-02 
2315	 7.31281257791222E-02 
2316	 7.32794837681691E-02 
2317	 0.058167774263368 
2318	 4.71999952989632E-02 
2319	 5.46989572684484E-02 
2320	 5.93954522358712E-02 
2321	 6.24233452178961E-02 
2322	 6.82132339480015E-02 
2323	 7.08542967105895E-02 
2324	 6.71520768023142E-02 
2325	 5.26013525823486E-02 
2326	 4.78499744194278E-02 
2327	 4.81609284814223E-02 
2328	 4.65340233574307E-02 
2329	 0.062815716830215 
2330	 6.85858512630906E-02 
2331	 5.53520236526002E-02 
2332	 0.051246043237119 
2333	 4.55832835917259E-02 
2334	 4.48093541148905E-02 
2335	 5.32135834902622E-02 
2336	 5.06101874971406E-02 
2337	 5.78577971921325E-02 
2338	 7.38863167164185E-02 
2339	 8.69379288458313E-02 
2340	 0.100436384492303 
2341	 9.22721871927447E-02 
2342	 7.75450195320869E-02 
2343	 6.96909763438875E-02 
2344	 6.58189431462851E-02 
2345	 7.70442020302593E-02 
2346	 7.80097734080911E-02 
2347	 6.23323844001188E-02 
2348	 5.69810047090813E-02 
2349	 5.19993124551225E-02 
2350	 4.86921463879742E-02 
2351	 6.41561891061675E-02 
2352	 6.64067287221991E-02 
2353	 5.36264254588667E-02 
2354	 5.65816328802341E-02 
2355	 3.94685232798572E-02 
2356	 0.020624242469282 
2357	 1.65991972643078E-02 
2358	-7.89906900483777E-04 
2359	 0.026416594658547 
2360	 6.33727401787472E-02 
2361	 7.44332050451261E-02 
2362	 0.104415222771416 
2363	 9.72487817998776E-02 
2364	 5.25596298977573E-02 
2365	 0.041980011753012 
2366	 1.78423069522187E-02 
2367	 3.28885364291761E-03 
2368	 3.17309659569348E-02 
2369	 3.10930926735798E-02 
2370	 5.08728147477903E-02 
2371	 7.95476909127342E-02 
2372	 4.77014161817164E-02 
2373	 5.47478010796831E-02 
2374	 6.79446008336035E-02 
2375	 3.84073599990847E-02 
2376	 6.03160508026849E-02 
2377	 4.91569657357909E-02 
2378	 5.1164341945828E-03 
2379	 3.00801965411503E-04 
2380	-3.42762816601748E-02 
2381	-0.063641825439746 
2382	-3.92710399544245E-02 
2383	-2.11758494586178E-02 
2384	-3.61519055836466E-02 
2385	-6.31373921007461E-02 
2386	-5.53668063031859E-02 
2387	-0.040659364999822 
2388	-2.89578373777713E-03 
2389	 4.35340964889838E-02 
2390	-3.31475353341548E-02 
2391	-9.12063571000007E-02 
2392	-7.84873710927724E-02 
2393	-6.34304365070036E-02 
2394	 1.61275267108387E-02 
2395	 8.47747559327459E-02 
2396	 0.102000527804886 
2397	 0.103029099656908 
2398	 0.129577261649384 
2399	 9.12349611734552E-02 
2400	 1.73900122949527E-02 
2401	 7.32287585543581E-02 
2402	 0.108714323284825 
2403	 7.39599603368638E-02 
2404	 0.03372561841802 
2405	-4.61452739950986E-02 
2406	-0.180346424438909 
2407	-0.213491034779531 
2408	-0.132517362773984 
2409	-0.201961225070782 
2410	-0.325303850620691 
2411	-0.306707672207572 
2412	-0.126646541404149 
2413	 0.128621241147069 
2414	 0.347713781428228 
2415	 0.194531189423877 
2416	-0.328713219919135 
2417	-0.542563181621733 
2418	-0.507647151796257 
2419	-0.178460400185482 
2420	 7.90259498604466E-02 
2421	 0.141940729487027 
2422	-1.91335948059452E-02 
2423	-0.199117794687613 
2424	-0.230469428528294 
2425	-0.273425668595825 
2426	-0.272594163639228 
2427	-0.126486924275492 
2428	-0.181179024163817 
2429	-0.20190821276183 
2430	-0.12921006816262 
2431	 1.93511914139666E-03 
2432	 5.68324118223284E-02 
2433	-3.77486760920179E-02 
2434	-0.123619475243152 
2435	-0.288879618740521 
2436	-0.261501965563707 
2437	 2.75644382926173E-02 
2438	 0.224183368187102 
2439	 0.442319953273908 
2440	 0.209209733986031 
2441	-0.286285507465098 
2442	-0.402211219929954 
2443	-0.553406389717966 
2444	-0.585004259249632 
2445	-0.270658499628579 
2446	 4.07495961349588E-03 
2447	 8.88046012912729E-02 
2448	-5.14816687521695E-02 
2449	-1.13514016135332 
2450	-1.76143001587625 
2451	-8.56235656669287 
2452	 63.1427305405973 
2453	-1.92677879766461 
2454	-1.04531243319423 
2455	-1.92266967045883 
2456	-2.79524200666791 
2457	 6.44808832550551 
2458	 4.09288912364313 
2459	 1.22758266213397 
2460	-9.66039699364379 
2461	 10.1792238517756 
2462	 9.38722647114224 
2463	 2.59778554273514 
2464	 0.914652430471993 
2465	 0.336029511901951 
2466	-0.465706006796643 
2467	-6.25798843030297 
2468	-14.9232491380961 
2469	-3.08029323282723 
2470	-4.68623273442209 
2471	-2.65243999461416 
2472	-2.40734439884352 
2473	 0.760575552400033 
2474	 0.787408121771321 
2475	 1.40084006391776 
2476	 0.504359097502026 
2477	 0.706396620991898 
2478	-1.38069472247591 
2479	-0.200565244415447 
2480	-0.244627557267533 
2481	-3.83729994506943E-02 
2482	 0.599024947206209 
2483	 1.09834346857956 
2484	 2.4655892851108 
2485	 4.93704466356407 
2486	 2.30413007665931 
2487	 1.25410259302239 
2488	 0.612151512900875 
2489	 1.06141821740515 
2490	 4.16459231079669 
2491	-0.978240592929331 
2492	-1.93828514004653 
2493	-1.61230473748603 
2494	-1.31146900560535 
2495	-2.81256733085194 
2496	-1.65637620544276 
2497	-0.721759430318225 
2498	 1.00915218546143 
2499	-0.19056529866101 
2500	 0.455369547641754 
