Wavelength	rt0714yellow200000.asd
350	 6.60818938836996E-02 
351	 6.42577409548543E-02 
352	 6.30603886590139E-02 
353	 6.33915198674577E-02 
354	 6.47034125219233E-02 
355	 6.47816781538726E-02 
356	 6.41178122633341E-02 
357	 6.36959411274439E-02 
358	 6.41744856544009E-02 
359	 6.40411616669478E-02 
360	 0.064019851235218 
361	 0.064138227918284 
362	 6.39714744477272E-02 
363	 6.40723117349833E-02 
364	 6.42985597931999E-02 
365	 6.43673403216102E-02 
366	 6.39034239885778E-02 
367	 6.39978775502201E-02 
368	 6.44766577500181E-02 
369	 6.48216664458904E-02 
370	 6.46392255695939E-02 
371	 6.45045485423219E-02 
372	 6.46944101758408E-02 
373	 6.51793721417517E-02 
374	 6.51004839085298E-02 
375	 6.54367880355066E-02 
376	 6.61869058085714E-02 
377	 6.58092111122593E-02 
378	 6.56349072503695E-02 
379	 6.56947400671242E-02 
380	 6.59054122571929E-02 
381	 6.68779645984319E-02 
382	 6.76603572644697E-02 
383	 6.80590705509911E-02 
384	 6.83060732005795E-02 
385	 6.85866516483377E-02 
386	 6.86205745206389E-02 
387	 6.86349584215023E-02 
388	 6.93985805565958E-02 
389	 7.01487164713566E-02 
390	 7.05230315572409E-02 
391	 7.06607029250101E-02 
392	 7.17283232840299E-02 
393	 7.20512944960597E-02 
394	 7.21413312352176E-02 
395	 7.29693677005141E-02 
396	 7.33316989191331E-02 
397	 7.31365103714171E-02 
398	 0.072879987375469 
399	 7.34013074693881E-02 
400	 7.39497402351866E-02 
401	 7.43001722158096E-02 
402	 7.45345859079772E-02 
403	 7.52261346174297E-02 
404	 7.56476462490984E-02 
405	 7.57291586438663E-02 
406	 7.57668565692032E-02 
407	 7.65722688935885E-02 
408	 0.077157838440148 
409	 7.73415275860513E-02 
410	 7.78036679912505E-02 
411	 0.078038040859939 
412	 7.83295218256962E-02 
413	 7.88974626011455E-02 
414	 7.95075478145514E-02 
415	 8.00518252194053E-02 
416	 8.04383981853762E-02 
417	 8.06697818386333E-02 
418	 8.11406683594734E-02 
419	 8.17657181837851E-02 
420	 8.24381119844542E-02 
421	 8.30751050616359E-02 
422	 8.35878042256054E-02 
423	 8.41643500276972E-02 
424	 8.49218710221725E-02 
425	 8.56471821979502E-02 
426	 8.61145021385632E-02 
427	 8.67337170365145E-02 
428	 8.80112786597688E-02 
429	 8.87937497528663E-02 
430	 8.95011558148932E-02 
431	 9.03947654074732E-02 
432	 9.13715329782231E-02 
433	 9.21850697651597E-02 
434	 9.29012191532633E-02 
435	 9.36596424493248E-02 
436	 9.45969262104494E-02 
437	 9.54239230011028E-02 
438	 9.62372737894767E-02 
439	 9.72788569743952E-02 
440	 9.80885305599435E-02 
441	 9.88530253467117E-02 
442	 9.96433037105527E-02 
443	 0.100248758749104 
444	 0.101022786272739 
445	 0.101734619192492 
446	 0.102181701907851 
447	 0.102930828619753 
448	 0.103597180050581 
449	 0.104089166013849 
450	 0.104551722725959 
451	 0.104988276798904 
452	 0.105477677355761 
453	 0.105998286557339 
454	 0.106311451758102 
455	 0.106511584007256 
456	 0.106760835450786 
457	 0.107168185490412 
458	 0.107402197489691 
459	 0.107666539280885 
460	 0.108006918595361 
461	 0.108285215335943 
462	 0.108540871121964 
463	 0.108781088757173 
464	 0.109001030875672 
465	 0.109158566380938 
466	 0.109422294530131 
467	 0.10972121933112 
468	 0.109920768957648 
469	 0.110423552482127 
470	 0.110679638067449 
471	 0.110619892561181 
472	 0.110916085366816 
473	 0.111313890729518 
474	 0.111719993170656 
475	 0.112095832764119 
476	 0.112494312722923 
477	 0.112773328367979 
478	 0.113080994005211 
479	 0.113700797559678 
480	 0.114049890178994 
481	 0.114342321757143 
482	 0.11481596896036 
483	 0.115568845379827 
484	 0.115957920377981 
485	 0.116283176335376 
486	 0.11703392855792 
487	 0.117602450534408 
488	 0.118156961647016 
489	 0.118779158016396 
490	 0.119431823428286 
491	 0.120220406320597 
492	 0.120963459242343 
493	 0.121555070712296 
494	 0.122252281890164 
495	 0.122952000612536 
496	 0.123695597406316 
497	 0.124560838587052 
498	 0.125298903238393 
499	 0.126015616948365 
500	 0.126795141835539 
501	 0.127631842993691 
502	 0.128408438584503 
503	 0.129276288650248 
504	 0.130324035877427 
505	 0.131050895592953 
506	 0.131877709197834 
507	 0.132861720106665 
508	 0.133761593657532 
509	 0.134698482943106 
510	 0.135636167829482 
511	 0.136526128924755 
512	 0.13732890345047 
513	 0.138283936594362 
514	 0.139276961785818 
515	 0.140091850061507 
516	 0.141067397195509 
517	 0.142222573052022 
518	 0.143404478746671 
519	 0.144307049037996 
520	 0.145180251744259 
521	 0.146105173480804 
522	 0.147093427968526 
523	 0.148057252291823 
524	 0.14897278694036 
525	 0.149929422371518 
526	 0.151072106436224 
527	 0.15216103604004 
528	 0.153171905246183 
529	 0.15412321403856 
530	 0.155042445637236 
531	 0.15597414320795 
532	 0.156934955067059 
533	 0.157926623309955 
534	 0.158985597080644 
535	 0.159912208888829 
536	 0.160731960216908 
537	 0.161725560181469 
538	 0.162628468959624 
539	 0.163495454089938 
540	 0.164414628201595 
541	 0.165326340289113 
542	 0.166228781874327 
543	 0.16712643180163 
544	 0.16802252541293 
545	 0.168797061607613 
546	 0.169604456976576 
547	 0.170496471255309 
548	 0.171262814591375 
549	 0.172024083672213 
550	 0.172818344049793 
551	 0.173641805942213 
552	 0.174412235102979 
553	 0.175126875356639 
554	 0.175818110826777 
555	 0.176544175571179 
556	 0.177142030823867 
557	 0.1778237294998 
558	 0.178677881723886 
559	 0.17911687746785 
560	 0.179580840655446 
561	 0.18012701283109 
562	 0.180586863154961 
563	 0.181107606382344 
564	 0.181577261770587 
565	 0.181946985663791 
566	 0.182349338059999 
567	 0.182813646359157 
568	 0.183210654116819 
569	 0.183435185717536 
570	 0.1839147764019 
571	 0.184277750303865 
572	 0.18446249763341 
573	 0.184785200329019 
574	 0.185121846775952 
575	 0.18542105409702 
576	 0.18568178881955 
577	 0.186044986739379 
578	 0.186313049108812 
579	 0.186424088597049 
580	 0.186443858036945 
581	 0.186747600092139 
582	 0.186930156034031 
583	 0.186838034399633 
584	 0.186967785698496 
585	 0.186859678791548 
586	 0.18659996024953 
587	 0.186419894013236 
588	 0.186159680585421 
589	 0.18609780030042 
590	 0.18622649477043 
591	 0.186219755542668 
592	 0.186104634489978 
593	 0.186021383122581 
594	 0.186040628464682 
595	 0.185939590771379 
596	 0.18575181830283 
597	 0.185484418393357 
598	 0.185164552101364 
599	 0.185100279082079 
600	 0.184995200062447 
601	 0.184737524275235 
602	 0.184669654209938 
603	 0.184522990303312 
604	 0.184382930115972 
605	 0.184366691608554 
606	 0.184134219365995 
607	 0.184035004741818 
608	 0.184117013591543 
609	 0.18408724264929 
610	 0.183968020499587 
611	 0.183873389391091 
612	 0.183856253975383 
613	 0.183704982680137 
614	 0.183650471487267 
615	 0.183685391236456 
616	 0.183660440060723 
617	 0.183485833070734 
618	 0.183362407188373 
619	 0.183359305743316 
620	 0.183288510563068 
621	 0.183214392933027 
622	 0.183226757417702 
623	 0.183327166493746 
624	 0.18303693622847 
625	 0.18285929971602 
626	 0.182864088258198 
627	 0.182690332327434 
628	 0.182606550038188 
629	 0.182600162033418 
630	 0.182626498182101 
631	 0.182738478770644 
632	 0.182599547559691 
633	 0.18239275446192 
634	 0.182483937564886 
635	 0.182504905566471 
636	 0.182423225546571 
637	 0.182311319330508 
638	 0.182345319122228 
639	 0.182189414248253 
640	 0.182003395130158 
641	 0.181994097374665 
642	 0.181954015965601 
643	 0.181651491816638 
644	 0.181203930742795 
645	 0.180999024743146 
646	 0.180801474837614 
647	 0.180720264953733 
648	 0.18076329928683 
649	 0.180572671887953 
650	 0.18042207657063 
651	 0.180295145647754 
652	 0.180077459805476 
653	 0.179731713681262 
654	 0.179472545156584 
655	 0.17928394464518 
656	 0.178842245142313 
657	 0.178605486512028 
658	 0.178414018789128 
659	 0.178093443046462 
660	 0.177842740574169 
661	 0.177588801798818 
662	 0.177374651264097 
663	 0.177282837641126 
664	 0.176980936783939 
665	 0.176680308831873 
666	 0.176537340952324 
667	 0.176502780614667 
668	 0.176377944859767 
669	 0.176152147350791 
670	 0.175941111318887 
671	 0.176114155975959 
672	 0.176093965058578 
673	 0.175856489665645 
674	 0.175905561953516 
675	 0.175783605589915 
676	 0.175786546933919 
677	 0.176053644965076 
678	 0.175957409814338 
679	 0.176076757407897 
680	 0.176301151290099 
681	 0.176279158231116 
682	 0.176338554927462 
683	 0.176452846227304 
684	 0.176564567736996 
685	 0.176621635061361 
686	 0.176481546304077 
687	 0.176426664670127 
688	 0.176716354707923 
689	 0.1770805282425 
690	 0.177247692348895 
691	 0.177302972470219 
692	 0.17751532928345 
693	 0.17754792664963 
694	 0.177759756811923 
695	 0.178191641109647 
696	 0.178286435817123 
697	 0.178389153684427 
698	 0.17836266293632 
699	 0.178061681147241 
700	 0.178014331897762 
701	 0.178036771822266 
702	 0.178075652102449 
703	 0.17818337224523 
704	 0.177966724410811 
705	 0.177648298051973 
706	 0.177381029763422 
707	 0.176924107799283 
708	 0.176472139995791 
709	 0.176141675653206 
710	 0.175910757064631 
711	 0.175201605194453 
712	 0.174409481313904 
713	 0.173676857706532 
714	 0.172796427987018 
715	 0.171694239481393 
716	 0.170564433343797 
717	 0.169645856024237 
718	 0.16843524558556 
719	 0.167574005065684 
720	 0.166959708544379 
721	 0.166119122495986 
722	 0.165139397081131 
723	 0.164027842668228 
724	 0.162907974016868 
725	 0.161733354139439 
726	 0.160576706114404 
727	 0.159476860118813 
728	 0.158376658858905 
729	 0.156890718827683 
730	 0.155461278521 
731	 0.15427661968809 
732	 0.153287401031153 
733	 0.152465694735421 
734	 0.151563538601759 
735	 0.150602883990319 
736	 0.149962621083049 
737	 0.149595579073497 
738	 0.149396164884446 
739	 0.149252459527648 
740	 0.149085322001381 
741	 0.148973700285711 
742	 0.148917228846213 
743	 0.148865418454592 
744	 0.148754518700699 
745	 0.148683894149739 
746	 0.148651143440954 
747	 0.148495634849167 
748	 0.148513379199809 
749	 0.148511321728303 
750	 0.14830624524658 
751	 0.148150507575742 
752	 0.148144340418498 
753	 0.148243473817035 
754	 0.148312440359101 
755	 0.148257981496883 
756	 0.148219863253609 
757	 0.14822126343713 
758	 0.148043257548596 
759	 0.147184135930345 
760	 0.146207396405662 
761	 0.146488299729137 
762	 0.146341665694582 
763	 0.146364432483398 
764	 0.146587085026439 
765	 0.146866254635674 
766	 0.14724711195574 
767	 0.14767192967536 
768	 0.147976460807849 
769	 0.147873666796892 
770	 0.147930015506732 
771	 0.148063036912581 
772	 0.148137499215365 
773	 0.148270344031243 
774	 0.148281521506466 
775	 0.148319085766876 
776	 0.148596819507071 
777	 0.148808845893675 
778	 0.148857183670867 
779	 0.148882907291982 
780	 0.149213001170013 
781	 0.149321703379913 
782	 0.149249125150353 
783	 0.149204120498187 
784	 0.1495457966509 
785	 0.149749144274949 
786	 0.149751822580019 
787	 0.149719597675506 
788	 0.149990832961701 
789	 0.150322685421755 
790	 0.150603496539073 
791	 0.150858206328959 
792	 0.151037160187349 
793	 0.151178401164124 
794	 0.15134472713287 
795	 0.151620316558456 
796	 0.151609402593869 
797	 0.151580452986347 
798	 0.151852299400339 
799	 0.152266778043463 
800	 0.152506735275474 
801	 0.152590948463787 
802	 0.152703076730234 
803	 0.152524812763984 
804	 0.152663031338674 
805	 0.153073278899034 
806	 0.152961255251253 
807	 0.152757355407555 
808	 0.152475608307296 
809	 0.15217694897461 
810	 0.152265335360144 
811	 0.152007846405113 
812	 0.151457372939946 
813	 0.150990272925636 
814	 0.150580285772363 
815	 0.150463971318896 
816	 0.150264142456389 
817	 0.149371722681715 
818	 0.1493560875374 
819	 0.149429711089029 
820	 0.148928913748784 
821	 0.147590850908758 
822	 0.146776700343163 
823	 0.146386153735998 
824	 0.14589590539426 
825	 0.144941777129937 
826	 0.143762876821582 
827	 0.142494536514153 
828	 0.141302493236665 
829	 0.140098624771932 
830	 0.139254561104229 
831	 0.138744213086234 
832	 0.138235914140245 
833	 0.137382244129818 
834	 0.136920005039326 
835	 0.136878607781647 
836	 0.136258246100279 
837	 0.136217640312781 
838	 0.136160266631936 
839	 0.135664898697262 
840	 0.13580215865636 
841	 0.135419352252074 
842	 0.134848739815084 
843	 0.134825063670602 
844	 0.135225812365981 
845	 0.134958642187267 
846	 0.134342732396964 
847	 0.13450255946456 
848	 0.134116843556099 
849	 0.133858731300527 
850	 0.133890771367687 
851	 0.133478424015405 
852	 0.132915803088547 
853	 0.132811500784877 
854	 0.133166407186017 
855	 0.132590492436795 
856	 0.132384448946829 
857	 0.132431257312945 
858	 0.132294248612122 
859	 0.131875311427267 
860	 0.13168613281875 
861	 0.13178227410326 
862	 0.131918681522222 
863	 0.131791831334344 
864	 0.131203584502202 
865	 0.130645891384639 
866	 0.131011322083921 
867	 0.13077634400529 
868	 0.130612285432076 
869	 0.130816968846688 
870	 0.130813552150921 
871	 0.130029984045745 
872	 0.129330892646399 
873	 0.129367514417698 
874	 0.12961081601761 
875	 0.129234153077847 
876	 0.128854906940289 
877	 0.129052646234182 
878	 0.128438751265334 
879	 0.127939629097406 
880	 0.127846076900507 
881	 0.128028911184373 
882	 0.128141561229989 
883	 0.127605496491339 
884	 0.126965471204122 
885	 0.127329659540828 
886	 0.126998856534068 
887	 0.126611070005771 
888	 0.126446355341379 
889	 0.126135337440821 
890	 0.126463770298146 
891	 0.126773427499268 
892	 0.126493902385992 
893	 0.125725373853293 
894	 0.125067751465472 
895	 0.124906527665821 
896	 0.125112906432103 
897	 0.124337057978299 
898	 0.123748991976768 
899	 0.123796797211042 
900	 0.124164875932507 
901	 0.123167890045877 
902	 0.123449723324879 
903	 0.123965228193281 
904	 0.122993489838154 
905	 0.123036537569804 
906	 0.122560237936968 
907	 0.122017635365117 
908	 0.123000569227695 
909	 0.123588664290427 
910	 0.12275555183252 
911	 0.121016256322258 
912	 0.12011976035024 
913	 0.12073356957293 
914	 0.121119203377056 
915	 0.120693766894559 
916	 0.120477969861157 
917	 0.118901344072112 
918	 0.118560745215649 
919	 0.119481023438465 
920	 0.117890513026784 
921	 0.1185254470598 
922	 0.119749288687519 
923	 0.119704790492518 
924	 0.118688416211104 
925	 0.117928854372624 
926	 0.117941553136854 
927	 0.118347793960594 
928	 0.116372744741385 
929	 0.117144640818607 
930	 0.119353041855953 
931	 0.117982582507 
932	 0.113871655548788 
933	 0.113153747816853 
934	 0.115270706055896 
935	 0.115248758426185 
936	 0.112038130676202 
937	 0.114662442849557 
938	 0.116882165460089 
939	 0.112265851563489 
940	 0.111547780656415 
941	 0.112679053963079 
942	 0.113080923856075 
943	 0.111512325354203 
944	 0.116958028508516 
945	 0.114117543850131 
946	 0.109833932581727 
947	 0.118128021973958 
948	 0.108691229274589 
949	 0.103435970469928 
950	 0.107796640562567 
951	 0.113237586983112 
952	 0.112098085088135 
953	 0.112795540565185 
954	 0.114676229378162 
955	 0.111727262989334 
956	 0.112248443574063 
957	 0.113440160993803 
958	 0.113913034369109 
959	 0.113869325941999 
960	 0.112008122561109 
961	 0.110361957837027 
962	 0.109918525046831 
963	 0.110339149018064 
964	 0.110251203479084 
965	 0.110173122259639 
966	 0.109933301817651 
967	 0.109107436752118 
968	 0.110401328231096 
969	 0.110679613602832 
970	 0.109456870060241 
971	 0.108934561127105 
972	 0.10973995523567 
973	 0.110794569514502 
974	 0.110714266813272 
975	 0.108960165939654 
976	 0.112330475168905 
977	 0.112468928489239 
978	 0.109408273145201 
979	 0.110715666831225 
980	 0.111125707643705 
981	 0.112529959774183 
982	 0.113381868545564 
983	 0.11031358519507 
984	 0.111362025146915 
985	 0.111065337660726 
986	 0.109238790007606 
987	 0.110514389744884 
988	 0.114980936858039 
989	 0.116054190224596 
990	 0.112582246012483 
991	 0.108571657224902 
992	 0.108515021843125 
993	 0.110869872672706 
994	 0.112647954855095 
995	 0.111376845243912 
996	 0.110458713366833 
997	 0.109671311255261 
998	 0.111199906868311 
999	 0.116192569088212 
1000	 0.112943954620211 
1001	 0.121246556167713 
1002	 0.121468983154403 
1003	 0.121594232936816 
1004	 0.121870084759103 
1005	 0.121882393741661 
1006	 0.121857751929044 
1007	 0.12140911779103 
1008	 0.121070631891262 
1009	 0.121058877964548 
1010	 0.121256831203929 
1011	 0.121627181700085 
1012	 0.122234258643129 
1013	 0.122338382886646 
1014	 0.122476453674529 
1015	 0.122686494575361 
1016	 0.122762632615102 
1017	 0.122577589184772 
1018	 0.122481307144432 
1019	 0.122416283755786 
1020	 0.122317003402195 
1021	 0.122288306065616 
1022	 0.121895637979882 
1023	 0.121764760813221 
1024	 0.121705416043425 
1025	 0.12165905477677 
1026	 0.121664669845198 
1027	 0.121545898654999 
1028	 0.121399916878191 
1029	 0.121186164894579 
1030	 0.120579476964798 
1031	 0.120832579095987 
1032	 0.121871046732488 
1033	 0.121967940269933 
1034	 0.122074842633881 
1035	 0.122017932069908 
1036	 0.12106064492622 
1037	 0.120681057248928 
1038	 0.120409782629559 
1039	 0.120816295255708 
1040	 0.121000712985623 
1041	 0.121019412240559 
1042	 0.121172192250397 
1043	 0.121474924586434 
1044	 0.121611298948741 
1045	 0.121782525145163 
1046	 0.121677123056317 
1047	 0.121341827379467 
1048	 0.121186538983183 
1049	 0.120766716838688 
1050	 0.120734845655031 
1051	 0.121300304615702 
1052	 0.121281762050146 
1053	 0.120786237947038 
1054	 0.12077993768523 
1055	 0.120787495694339 
1056	 0.120782561942194 
1057	 0.120924539841108 
1058	 0.121705160024611 
1059	 0.121679176684448 
1060	 0.121217547996173 
1061	 0.12089653714096 
1062	 0.120230504169659 
1063	 0.119987028433786 
1064	 0.119800122656464 
1065	 0.119832614221522 
1066	 0.120135194849993 
1067	 0.120467128630708 
1068	 0.121302737239318 
1069	 0.121541001584085 
1070	 0.121519348532321 
1071	 0.121541601694293 
1072	 0.121409795581349 
1073	 0.120771161029549 
1074	 0.120702987766795 
1075	 0.120947011475889 
1076	 0.121023007877066 
1077	 0.121197378756225 
1078	 0.121245332517925 
1079	 0.121139667516843 
1080	 0.121140057112548 
1081	 0.121322942203584 
1082	 0.121230386386707 
1083	 0.121190951773818 
1084	 0.120852561654042 
1085	 0.119771107462954 
1086	 0.119322238498249 
1087	 0.118920489284523 
1088	 0.11880707182918 
1089	 0.119191063256204 
1090	 0.119870703493128 
1091	 0.11999150125877 
1092	 0.120108309110681 
1093	 0.11950340770554 
1094	 0.117882307074934 
1095	 0.117381225800959 
1096	 0.117058277843411 
1097	 0.116887888248955 
1098	 0.117563566717181 
1099	 0.117575893453104 
1100	 0.116914153918594 
1101	 0.116580469128184 
1102	 0.116404410479456 
1103	 0.116374384661404 
1104	 0.116536409602202 
1105	 0.116573000013809 
1106	 0.116796825364288 
1107	 0.117011660789779 
1108	 0.117758294134516 
1109	 0.118150700049275 
1110	 0.117789636897591 
1111	 0.116447549139725 
1112	 0.116092622212823 
1113	 0.115386364328901 
1114	 0.115113443047483 
1115	 0.116774948933499 
1116	 0.116272310070531 
1117	 0.112439270794158 
1118	 0.110903024180995 
1119	 0.110116588791712 
1120	 0.109563283074469 
1121	 0.112184144407065 
1122	 0.113667550791668 
1123	 0.1173734810708 
1124	 0.119697199845587 
1125	 0.117324051918864 
1126	 0.115878091176187 
1127	 0.114159056120012 
1128	 0.111451237671891 
1129	 0.111271984275277 
1130	 0.117458262654005 
1131	 0.11686134456909 
1132	 0.111293590593129 
1133	 0.111902922374727 
1134	 0.116292692486222 
1135	 0.115323804048466 
1136	 0.112164581480356 
1137	 0.112337548094147 
1138	 0.112609584205981 
1139	 0.110560864051079 
1140	 0.109562163610612 
1141	 0.110720359349392 
1142	 0.107690503836614 
1143	 0.105722556329766 
1144	 0.111015346881907 
1145	 0.115209780281512 
1146	 0.112872179897923 
1147	 0.109027480803435 
1148	 0.107236700932645 
1149	 0.105537139853965 
1150	 0.105517448782694 
1151	 0.111373655906975 
1152	 0.112269706991142 
1153	 0.109785579505339 
1154	 0.109021795679335 
1155	 0.108367749627344 
1156	 0.107803573187951 
1157	 0.107694883798965 
1158	 0.10907538714589 
1159	 0.109956817610996 
1160	 0.109518250364867 
1161	 0.110221647360625 
1162	 0.11142452531551 
1163	 0.111495754338153 
1164	 0.111341388618564 
1165	 0.111458014823425 
1166	 0.11121264485397 
1167	 0.110639822867261 
1168	 0.110924118349575 
1169	 0.111543495063262 
1170	 0.111517920891578 
1171	 0.111351249405991 
1172	 0.111274314052018 
1173	 0.111187222913865 
1174	 0.110663358439105 
1175	 0.110626135437805 
1176	 0.110685470477176 
1177	 0.110816643169376 
1178	 0.110910603446979 
1179	 0.110451393952403 
1180	 0.110648966861771 
1181	 0.111251815294398 
1182	 0.111291142382096 
1183	 0.111349088346257 
1184	 0.110746676293017 
1185	 0.110045279113138 
1186	 0.110426026962015 
1187	 0.110408305575665 
1188	 0.109984561078986 
1189	 0.110152283590318 
1190	 0.110028665813629 
1191	 0.109691050595245 
1192	 0.109709817098164 
1193	 0.110198280043275 
1194	 0.110528609817097 
1195	 0.110357690386911 
1196	 0.110244939491573 
1197	 0.110388906103462 
1198	 0.110011880758627 
1199	 0.109337603630535 
1200	 0.109219580213775 
1201	 0.10946468370447 
1202	 0.109742452750879 
1203	 0.110049315964523 
1204	 0.11023375654358 
1205	 0.109988436982654 
1206	 0.109859126559004 
1207	 0.109970448486955 
1208	 0.109920485713632 
1209	 0.109916237567878 
1210	 0.109794611700171 
1211	 0.109601476994881 
1212	 0.109556490739666 
1213	 0.1094993316908 
1214	 0.109486374254912 
1215	 0.109343034113913 
1216	 0.109326693066776 
1217	 0.109569106795709 
1218	 0.109781027160411 
1219	 0.109710790345966 
1220	 0.109764712212187 
1221	 0.10956786886259 
1222	 0.108928006372433 
1223	 0.109017273006796 
1224	 0.109595157544422 
1225	 0.109577439375746 
1226	 0.109322800630268 
1227	 0.109227268130288 
1228	 0.108848683053923 
1229	 0.108542810804003 
1230	 0.108693942511481 
1231	 0.10866164170598 
1232	 0.108616803979806 
1233	 0.108672159907889 
1234	 0.108542698692093 
1235	 0.10868096241237 
1236	 0.109077983026589 
1237	 0.109070974568348 
1238	 0.108883503498601 
1239	 0.10906253262382 
1240	 0.109042430838562 
1241	 0.108645379237644 
1242	 0.108319550605213 
1243	 0.108169076973963 
1244	 0.108272638525702 
1245	 0.108189808752539 
1246	 0.107916264417442 
1247	 0.10792489775234 
1248	 0.108165835854338 
1249	 0.108271964339342 
1250	 0.108101842763047 
1251	 0.108143512416358 
1252	 0.108125091438119 
1253	 0.10783769023469 
1254	 0.108085853213758 
1255	 0.108527425174512 
1256	 0.108545882246798 
1257	 0.107989918519409 
1258	 0.107949086677293 
1259	 0.108092477901876 
1260	 0.107961863459257 
1261	 0.107883167733185 
1262	 0.107753788674525 
1263	 0.10728957611043 
1264	 0.10716254638767 
1265	 0.107392901952365 
1266	 0.107188733731243 
1267	 0.106788004703969 
1268	 0.106820969834556 
1269	 0.107126378992824 
1270	 0.107528845691728 
1271	 0.107621688748 
1272	 0.10745038355009 
1273	 0.107385431575786 
1274	 0.107387073194649 
1275	 0.107739982448433 
1276	 0.107969692054035 
1277	 0.107295770122953 
1278	 0.106760833604016 
1279	 0.107111270446626 
1280	 0.107339192954645 
1281	 0.107257644938135 
1282	 0.1073011456346 
1283	 0.107329811206538 
1284	 0.106772512942331 
1285	 0.106603822491143 
1286	 0.107037438592923 
1287	 0.106995504410147 
1288	 0.106658355114315 
1289	 0.106498567197274 
1290	 0.106401789521717 
1291	 0.106035077966292 
1292	 0.105657175778062 
1293	 0.105812650407977 
1294	 0.106040787247846 
1295	 0.10593945753905 
1296	 0.106179691937794 
1297	 0.1059573951213 
1298	 0.105373517457054 
1299	 0.105431440517144 
1300	 0.105645643074093 
1301	 0.105472163117347 
1302	 0.105456750125818 
1303	 0.105867876416467 
1304	 0.105758088165943 
1305	 0.105272325339119 
1306	 0.104952291777193 
1307	 0.104381153789691 
1308	 0.104121880492914 
1309	 0.104152429121351 
1310	 0.104028399893054 
1311	 0.1039835177987 
1312	 0.10389444497524 
1313	 0.103722881569352 
1314	 0.103385513398951 
1315	 0.102962501570086 
1316	 0.102864174179187 
1317	 0.102902269754981 
1318	 0.102506261502855 
1319	 0.101893451593934 
1320	 0.101783358685783 
1321	 0.101516409231903 
1322	 0.101236329248998 
1323	 0.101817280432919 
1324	 0.102754109607709 
1325	 0.102085396346688 
1326	 0.102032047343798 
1327	 0.103459651930639 
1328	 0.102790032139639 
1329	 0.102760891912435 
1330	 0.104050922912762 
1331	 0.103234001928375 
1332	 0.102903289069305 
1333	 0.10302922800549 
1334	 0.102647994319905 
1335	 0.102230705856096 
1336	 0.101713220335911 
1337	 0.101143321281386 
1338	 0.100543636319663 
1339	 0.100403387767393 
1340	 0.100814385384801 
1341	 0.100438912958332 
1342	 9.90179676701904E-02 
1343	 9.86718617052403E-02 
1344	 9.90850740580643E-02 
1345	 9.93145089052067E-02 
1346	 0.100667232484522 
1347	 0.101379197447708 
1348	 0.100096943311335 
1349	 9.96623840102792E-02 
1350	 0.100941371419491 
1351	 0.104268626929893 
1352	 0.111046395156984 
1353	 0.116799893497736 
1354	 0.119218845147524 
1355	 0.153335510146155 
1356	 0.179064169235371 
1357	 0.155943542179592 
1358	 0.146501042892678 
1359	 0.178959151731239 
1360	 0.220009373063795 
1361	 0.124785424613939 
1362	 0.216650970691982 
1363	 0.463692189325577 
1364	 0.37559433166136 
1365	 0.332494244830572 
1366	 0.471334743957033 
1367	 0.358783767909645 
1368	 0.297193441041064 
1369	 0.465192350888799 
1370	 0.548946354331144 
1371	 0.441820458120119 
1372	 0.368685917475285 
1373	 0.332202332087533 
1374	 0.314434058797273 
1375	 0.106459531518256 
1376	 0.189423974949245 
1377	 0.608110763826423 
1378	 0.563139190461191 
1379	 0.362337811520236 
1380	 0.234611415217882 
1381	-0.427628171949416 
1382	-0.659073262216104 
1383	-0.416940779929202 
1384	-0.241379733194882 
1385	 0.424456566208897 
1386	 0.777799802426543 
1387	 0.305503713961607 
1388	 0.178258457690426 
1389	 0.25781330414923 
1390	 0.216862339038364 
1391	-0.174415720849964 
1392	-0.348936365772383 
1393	-8.09322643688838E-02 
1394	-2.72261809352779E-02 
1395	-0.20287490522952 
1396	-7.93286539300044E-02 
1397	-8.12368111911923E-02 
1398	 0.195921093821969 
1399	 1.77565857336474 
1400	 2.37981120986882 
1401	 2.10372253267413 
1402	 9.62426611420828 
1403	 0.287295712852228 
1404	 0.113208552583971 
1405	 2.99522172162925E-02 
1406	-3.69920043946351E-02 
1407	-7.61095330526406E-02 
1408	-0.17613088980544 
1409	-0.171571163892898 
1410	-5.78895151172392E-02 
1411	-9.49830137331461E-03 
1412	 2.80261272444291E-02 
1413	 2.28440761396965E-02 
1414	 8.15991795930521E-03 
1415	 0.022751340810296 
1416	-1.88215867470415E-02 
1417	 1.07970695958735E-02 
1418	 0.128460789316828 
1419	 0.104865840974463 
1420	 3.45329299066575E-02 
1421	 2.53056529758764E-02 
1422	-9.60662741596281E-03 
1423	-9.10235076308779E-03 
1424	 2.09996134534467E-02 
1425	 3.68716122621678E-02 
1426	 6.45584309930115E-02 
1427	 6.29572631288938E-02 
1428	 4.67074939595448E-02 
1429	 4.16559899127324E-02 
1430	 1.60474447022749E-02 
1431	 1.53735322257644E-02 
1432	 0.05141298585425 
1433	 5.70668094395728E-02 
1434	 4.51932391579811E-02 
1435	 5.04425301663857E-02 
1436	 5.10921661307226E-02 
1437	 5.02668138173832E-02 
1438	 4.83387280708772E-02 
1439	 5.68552346999869E-02 
1440	 5.80429338777977E-02 
1441	 4.77895607026608E-02 
1442	 5.72021434599944E-02 
1443	 6.52526913086821E-02 
1444	 6.07281737509907E-02 
1445	 5.67707491570482E-02 
1446	 5.88691214285492E-02 
1447	 6.25400122325515E-02 
1448	 6.44584509462785E-02 
1449	 6.49406746319386E-02 
1450	 6.05732699303422E-02 
1451	 0.058473248302497 
1452	 0.06096552843479 
1453	 6.33691845871562E-02 
1454	 6.23686831107626E-02 
1455	 6.04814743387313E-02 
1456	 6.09817834959635E-02 
1457	 0.060475973826631 
1458	 5.98242898306154E-02 
1459	 6.10440426761847E-02 
1460	 6.16642538804896E-02 
1461	 6.04085673798608E-02 
1462	 0.060346561391012 
1463	 6.22226037512668E-02 
1464	 6.32043654047233E-02 
1465	 6.36352163672561E-02 
1466	 0.063763355841942 
1467	 6.30884333363037E-02 
1468	 6.42911198537987E-02 
1469	 6.67229774575548E-02 
1470	 6.71406742600254E-02 
1471	 6.98481990910104E-02 
1472	 6.80736060806299E-02 
1473	 6.01628732158269E-02 
1474	 5.83317985904443E-02 
1475	 5.83690777030993E-02 
1476	 5.72804813793796E-02 
1477	 5.79692709386354E-02 
1478	 5.77799065389887E-02 
1479	 5.60200174040585E-02 
1480	 5.54365091370964E-02 
1481	 5.54393041040164E-02 
1482	 5.60901957447483E-02 
1483	 5.77251012234523E-02 
1484	 5.78579064781838E-02 
1485	 5.70183267479717E-02 
1486	 5.81399122949638E-02 
1487	 5.95289885601299E-02 
1488	 5.98884584646168E-02 
1489	 6.09402668452575E-02 
1490	 0.061902870933173 
1491	 6.19345525601332E-02 
1492	 6.21941440822096E-02 
1493	 6.34781459571757E-02 
1494	 6.38152669610229E-02 
1495	 6.31699892681082E-02 
1496	 0.062888474702668 
1497	 6.24358702269291E-02 
1498	 6.22747432259892E-02 
1499	 6.24811965937728E-02 
1500	 6.26694643329496E-02 
1501	 6.29619385181857E-02 
1502	 6.31826767223212E-02 
1503	 6.30457965593707E-02 
1504	 6.32954908964654E-02 
1505	 6.35469653713239E-02 
1506	 6.43265304318815E-02 
1507	 6.52828672984216E-02 
1508	 6.61257562049756E-02 
1509	 6.69404002911716E-02 
1510	 6.71921167418022E-02 
1511	 6.69448907387503E-02 
1512	 6.69028479647824E-02 
1513	 6.74622913105137E-02 
1514	 6.81170263562774E-02 
1515	 6.80486749754006E-02 
1516	 6.79815853836751E-02 
1517	 6.81875350847225E-02 
1518	 6.83632136930473E-02 
1519	 0.068459070503706 
1520	 0.068782626417656 
1521	 6.93706297976448E-02 
1522	 6.95028488542809E-02 
1523	 7.00210496546484E-02 
1524	 0.071091283459927 
1525	 7.13551918382058E-02 
1526	 7.11595717603281E-02 
1527	 7.14790624217335E-02 
1528	 7.19649037268078E-02 
1529	 7.17887096462317E-02 
1530	 7.13465677391835E-02 
1531	 7.13885667818706E-02 
1532	 7.19287987571591E-02 
1533	 7.25771525464935E-02 
1534	 7.30042703572342E-02 
1535	 7.32619670672319E-02 
1536	 7.33429191810361E-02 
1537	 7.31575084467461E-02 
1538	 7.31552552838171E-02 
1539	 7.35115352645759E-02 
1540	 7.36116179852546E-02 
1541	 7.36525649452231E-02 
1542	 7.41996599531781E-02 
1543	 7.45231982579471E-02 
1544	 0.074240818375283 
1545	 7.42478671098771E-02 
1546	 7.44740779758628E-02 
1547	 7.48614717072842E-02 
1548	 0.075353861650955 
1549	 0.075213166000541 
1550	 7.52939200760189E-02 
1551	 7.55865770351925E-02 
1552	 7.54442752150054E-02 
1553	 7.59685782127436E-02 
1554	 7.66836967408276E-02 
1555	 7.65894488592197E-02 
1556	 7.65548583503451E-02 
1557	 7.70510505057298E-02 
1558	 7.75031660688697E-02 
1559	 7.73472391778646E-02 
1560	 7.71672582310833E-02 
1561	 7.72592875426783E-02 
1562	 7.69826963397523E-02 
1563	 7.69493128645953E-02 
1564	 7.76213609230952E-02 
1565	 7.83899077481051E-02 
1566	 7.88217850613001E-02 
1567	 7.89061791644603E-02 
1568	 7.88576142838879E-02 
1569	 0.078401513285978 
1570	 7.79106883721915E-02 
1571	 7.82787912506076E-02 
1572	 0.078946271089993 
1573	 7.88188148037006E-02 
1574	 7.84291085043254E-02 
1575	 7.91941348774903E-02 
1576	 7.97939076748882E-02 
1577	 0.079440686499483 
1578	 7.99426571033591E-02 
1579	 8.04300058305733E-02 
1580	 0.080204958140128 
1581	 8.04526717841929E-02 
1582	 8.08752369038788E-02 
1583	 8.08972132970658E-02 
1584	 0.080730195502626 
1585	 8.08933053739928E-02 
1586	 8.10433869322438E-02 
1587	 0.080852861679109 
1588	 8.09960831538047E-02 
1589	 8.11151929015456E-02 
1590	 8.12695156075473E-02 
1591	 8.16336924509031E-02 
1592	 0.081637704553076 
1593	 8.20791658296245E-02 
1594	 8.25353524805298E-02 
1595	 8.20005215063256E-02 
1596	 8.17629093926759E-02 
1597	 8.23895798033565E-02 
1598	 8.27446211682622E-02 
1599	 8.28109940563543E-02 
1600	 8.29848607548253E-02 
1601	 8.30223356185594E-02 
1602	 8.30394381910868E-02 
1603	 8.33130224433464E-02 
1604	 8.37491761798002E-02 
1605	 8.38102325910121E-02 
1606	 8.35135881502587E-02 
1607	 8.34058203502996E-02 
1608	 8.34323053761875E-02 
1609	 8.33930369213753E-02 
1610	 8.32202875330019E-02 
1611	 8.27865533132054E-02 
1612	 8.26576590924238E-02 
1613	 8.25323854579569E-02 
1614	 8.24118048216976E-02 
1615	 8.27776451966082E-02 
1616	 0.082930648438668 
1617	 8.32991735224167E-02 
1618	 8.34276533940294E-02 
1619	 8.32689464971793E-02 
1620	 0.083554080436188 
1621	 8.33603433377761E-02 
1622	 8.29960201891362E-02 
1623	 8.29893454414012E-02 
1624	 8.30736634549013E-02 
1625	 8.35681573966732E-02 
1626	 8.41251841590192E-02 
1627	 8.41517474757482E-02 
1628	 0.084050460288975 
1629	 8.39178250591563E-02 
1630	 8.39759492286201E-02 
1631	 8.46815769942156E-02 
1632	 8.51827294773242E-02 
1633	 8.47404832048809E-02 
1634	 8.43324201340233E-02 
1635	 8.43237383631752E-02 
1636	 8.46581491910259E-02 
1637	 8.55216794435057E-02 
1638	 8.54122078988753E-02 
1639	 8.46749221283868E-02 
1640	 8.49283928954103E-02 
1641	 8.53244400341862E-02 
1642	 8.53690942235071E-02 
1643	 8.52349806319371E-02 
1644	 8.48234751309512E-02 
1645	 8.45119616240325E-02 
1646	 8.45231977745991E-02 
1647	 8.49141450095505E-02 
1648	 8.47270741955743E-02 
1649	 8.39960691473155E-02 
1650	 8.40118727308848E-02 
1651	 8.43918463614597E-02 
1652	 8.45141322700778E-02 
1653	 8.48292869335406E-02 
1654	 8.52192465407809E-02 
1655	 8.56721181146054E-02 
1656	 8.57995074847785E-02 
1657	 8.56597395477704E-02 
1658	 8.56471602811481E-02 
1659	 8.55339857995308E-02 
1660	 8.56301360204929E-02 
1661	 8.61427771210685E-02 
1662	 0.085855554118925 
1663	 8.48380736997691E-02 
1664	 8.50220183781198E-02 
1665	 8.54948482152346E-02 
1666	 8.58531941335707E-02 
1667	 8.70949952343952E-02 
1668	 8.63407112956358E-02 
1669	 0.086375387469446 
1670	 8.64560273546983E-02 
1671	 0.085892539406361 
1672	 8.65131058289359E-02 
1673	 0.08683919073831 
1674	 8.62794074160577E-02 
1675	 8.63555002301988E-02 
1676	 0.085866736231534 
1677	 8.52636698188423E-02 
1678	 8.56633263358672E-02 
1679	 8.55208312464818E-02 
1680	 8.48023665354386E-02 
1681	 8.47719900155087E-02 
1682	 8.53639264763173E-02 
1683	 8.56005963511098E-02 
1684	 8.56833004225889E-02 
1685	 8.59739375876591E-02 
1686	 8.56934137705334E-02 
1687	 8.61215784627762E-02 
1688	 8.70846758851408E-02 
1689	 8.64523387955271E-02 
1690	 0.085702827142118 
1691	 8.54605692163165E-02 
1692	 8.48546137131288E-02 
1693	 8.55954110011625E-02 
1694	 8.66727038650202E-02 
1695	 8.58400586471197E-02 
1696	 8.51335440478476E-02 
1697	 8.51066765960857E-02 
1698	 8.48344917364551E-02 
1699	 8.52754053239106E-02 
1700	 8.60329781998955E-02 
1701	 8.60048155050542E-02 
1702	 8.59214817938761E-02 
1703	 8.60893737015419E-02 
1704	 8.57356746527372E-02 
1705	 8.56962549781499E-02 
1706	 8.61954551023136E-02 
1707	 8.64401115040666E-02 
1708	 8.66797573961877E-02 
1709	 8.65104760950097E-02 
1710	 8.53317247925594E-02 
1711	 0.084410903567722 
1712	 0.084955366900683 
1713	 0.085842186769288 
1714	 8.57763483775544E-02 
1715	 8.48481510900653E-02 
1716	 8.47918602973588E-02 
1717	 8.46349092433969E-02 
1718	 8.39571974253235E-02 
1719	 0.084053870506059 
1720	 8.48211526722681E-02 
1721	 8.45779328981641E-02 
1722	 8.47372954377481E-02 
1723	 8.58884878814614E-02 
1724	 8.53186917774698E-02 
1725	 8.47376984282927E-02 
1726	 8.53194677511823E-02 
1727	 8.48957576194418E-02 
1728	 8.43528211749096E-02 
1729	 8.43129316375663E-02 
1730	 8.38057740408096E-02 
1731	 8.40008176718391E-02 
1732	 8.46570656464331E-02 
1733	 8.49785018305796E-02 
1734	 8.58540789828867E-02 
1735	 8.52751574911506E-02 
1736	 8.45189219434409E-02 
1737	 0.084891348515848 
1738	 8.38440670346402E-02 
1739	 8.37308942195444E-02 
1740	 8.40667790072107E-02 
1741	 8.28299146886423E-02 
1742	 8.30449917178134E-02 
1743	 8.35326057457919E-02 
1744	 8.28173372892496E-02 
1745	 8.30780510154706E-02 
1746	 8.26158661073323E-02 
1747	 8.23829320066787E-02 
1748	 8.20606577895583E-02 
1749	 0.081241014079026 
1750	 8.02489628374801E-02 
1751	 7.98560751469101E-02 
1752	 7.92153661619623E-02 
1753	 7.94234740580149E-02 
1754	 8.11865302148031E-02 
1755	 8.17895249062558E-02 
1756	 8.23365592051666E-02 
1757	 8.12818412693736E-02 
1758	 7.95276623915543E-02 
1759	 8.05401759147514E-02 
1760	 8.08082424625092E-02 
1761	 8.01572254822721E-02 
1762	 8.14262523495232E-02 
1763	 7.97799169245192E-02 
1764	 7.76097628628542E-02 
1765	 7.97156969318075E-02 
1766	 7.97784852822152E-02 
1767	 7.90216883909639E-02 
1768	 8.03708243067779E-02 
1769	 8.04472671284835E-02 
1770	 8.02679322090483E-02 
1771	 7.99689943032555E-02 
1772	 7.90561660152748E-02 
1773	 7.81279420071497E-02 
1774	 7.83539307480138E-02 
1775	 8.23342879673025E-02 
1776	 8.32134653548566E-02 
1777	 8.16494390636475E-02 
1778	 8.19346912962375E-02 
1779	 8.14382414083821E-02 
1780	 8.06880321925246E-02 
1781	 8.07969950646532E-02 
1782	 8.17956675887334E-02 
1783	 8.42951797346364E-02 
1784	 8.37181532401547E-02 
1785	 8.16756146454206E-02 
1786	 0.080091724797452 
1787	 7.40394927025799E-02 
1788	 7.33733604438712E-02 
1789	 7.94126851721098E-02 
1790	 8.45790943487153E-02 
1791	 8.19658314958077E-02 
1792	 7.37932059183369E-02 
1793	 7.17332117239831E-02 
1794	 7.24355865930475E-02 
1795	 7.02898290160158E-02 
1796	 7.99459173602388E-02 
1797	 8.68494689215274E-02 
1798	 7.49270569953629E-02 
1799	 7.80638046623918E-02 
1800	 7.31819691755596E-02 
1801	 6.82514536468111E-02 
1802	 7.46035266268725E-02 
1803	 7.70117586966026E-02 
1804	 7.64501723446467E-02 
1805	 7.96585048130816E-02 
1806	 8.93964627808649E-02 
1807	 9.31241821224635E-02 
1808	 8.21424447947311E-02 
1809	 6.49249847504353E-02 
1810	 0.04608108238902 
1811	 1.06152848963831E-02 
1812	-4.64739143894983E-02 
1813	-4.92388735197507E-02 
1814	 1.29522507261574E-02 
1815	-6.96710579428015E-02 
1816	-0.465750534764693 
1817	-0.743116880440137 
1818	-0.348146271382566 
1819	 0.647533955469953 
1820	 0.558710599994472 
1821	-1.14425814409979 
1822	-1.98497918498786 
1823	-3.7873433060181 
1824	-3.27699295192108 
1825	-0.51844935478405 
1826	-2.00094604279514E-02 
1827	 0.65834535756637 
1828	 0.83003848228391 
1829	-7.06458046303233E-02 
1830	-0.450020827930793 
1831	 0.40989663760467 
1832	 0.509390741871104 
1833	 3.28615746600492 
1834	 13.6898393886806 
1835	 1.66023108401669 
1836	 4.36701054002016 
1837	-4.26479743373226 
1838	-3.43464087160163 
1839	-7.20988121674312 
1840	-4.95697056133892 
1841	-6.87493474342396 
1842	 10.5526471911019 
1843	 0.741102495032054 
1844	 0.160557194661878 
1845	-0.175467660724236 
1846	-0.857469602724943 
1847	-1.13235749574031 
1848	-3.32561439557984 
1849	 3.50506814523025 
1850	 3.83202886014335 
1851	 2.97901498136247 
1852	-10.3066123003598 
1853	-2.98283422665762 
1854	 0.411940985265364 
1855	 0.56529343995672 
1856	 0.474992791554232 
1857	 0.762635345058384 
1858	 1.03792990479524 
1859	-0.341668191001811 
1860	 0.960885713515277 
1861	-1.58149752311001 
1862	-2.47541585662004 
1863	-2.75832075250202 
1864	-1.74250749062415 
1865	-1.66521035495192 
1866	 0.6244498628474 
1867	 0.405501189775288 
1868	 4.81876064485418 
1869	 2.85623779342436 
1870	 1.82841245548748 
1871	 1.6326114472729 
1872	 1.08470185074698 
1873	 0.658098641771239 
1874	 0.671432310576395 
1875	 1.07076581273697 
1876	 1.2083695493883 
1877	 1.32427473541209 
1878	 1.36822120710192 
1879	 0.574645149353232 
1880	 0.945213100754236 
1881	 0.651965752642768 
1882	 0.243989602630983 
1883	-0.343689605770365 
1884	-2.12985771138018 
1885	 0.608153613487114 
1886	 0.258487742338257 
1887	 0.920142785730938 
1888	 4.01633601205104 
1889	 5.56485656479214 
1890	 4.43187547360343 
1891	 5.94247058174587 
1892	 1.22444116919451 
1893	-7.37405207311469 
1894	 2.85648275111866 
1895	 0.415122932640412 
1896	-35.0083000129799 
1897	 3.54855529024496 
1898	 2.03648401233894 
1899	 2.37053980254083 
1900	 1.84409874989491 
1901	 0.458662446034204 
1902	 0.39336805055106 
1903	 0.474505878769994 
1904	 1.03389333579196 
1905	-3.51462082727575 
1906	-1.55301537655882 
1907	-2.57334686324382 
1908	-4.25898680381925 
1909	 1.77296576054811 
1910	 0.710353969917169 
1911	 0.650300696101553 
1912	 0.87078336283771 
1913	 1.11842874177492 
1914	 1.53267826308167 
1915	 2.44838444648358 
1916	-21.3727475640869 
1917	-0.519364274445775 
1918	 0.24420991460532 
1919	 0.34728947313778 
1920	 0.26097974817477 
1921	 0.481419486105972 
1922	 2.37610590407693 
1923	 16.5131963634859 
1924	 1.58445993867196 
1925	 0.739980610928363 
1926	 0.386094034479715 
1927	-0.182969038198784 
1928	-0.744302527366561 
1929	-0.252991175261387 
1930	-1.40100853518151E-02 
1931	-0.42724043347375 
1932	-0.322777533250995 
1933	-0.356943380833452 
1934	-0.322853087094361 
1935	 0.231758896114602 
1936	 0.62906101139941 
1937	 0.311295506283387 
1938	-9.27828888408879E-02 
1939	-0.217969087562639 
1940	-0.363645186803168 
1941	-0.582184342323459 
1942	-0.491991633393526 
1943	-0.266464844683054 
1944	-0.307450405136154 
1945	-0.315642111942264 
1946	-0.255188638605456 
1947	-0.22835102205798 
1948	-0.191239365491508 
1949	-0.164667086649735 
1950	-0.126110234077131 
1951	-0.102284382122939 
1952	-8.45926797746683E-02 
1953	-7.25012160682454E-02 
1954	 6.24667198842405E-03 
1955	 2.00895570934296E-02 
1956	-6.57604759714457E-03 
1957	 0.022849915137183 
1958	 6.31207251516986E-03 
1959	-1.26272905463701E-02 
1960	-9.40738745381461E-03 
1961	-3.35163611355476E-02 
1962	-3.22157072371429E-02 
1963	 4.50330087408578E-03 
1964	 1.95540393906024E-02 
1965	 2.87870166207194E-02 
1966	 3.57531606883276E-02 
1967	 4.03594951576305E-02 
1968	 2.85051660019196E-02 
1969	 2.63013318706974E-02 
1970	 0.03039562977037 
1971	 2.96221552362431E-02 
1972	 3.00228797384824E-02 
1973	 3.07161570754169E-02 
1974	 3.24632688092379E-02 
1975	 3.24858445316503E-02 
1976	 3.35310989306055E-02 
1977	 3.71793707885483E-02 
1978	 3.61707063794178E-02 
1979	 0.036059025714625 
1980	 3.70398870413682E-02 
1981	 3.67094483911328E-02 
1982	 0.031744450747485 
1983	 3.18215976184793E-02 
1984	 3.38723473946606E-02 
1985	 0.034442232078494 
1986	 3.85314234786082E-02 
1987	 4.10998679591208E-02 
1988	 0.039929295142268 
1989	 4.01608874633512E-02 
1990	 3.89001469367071E-02 
1991	 0.0357320894813 
1992	 3.44822468459098E-02 
1993	 3.17264978984969E-02 
1994	 3.07929291797319E-02 
1995	 3.02364595144824E-02 
1996	 3.45891687599382E-02 
1997	 3.86399259703712E-02 
1998	 4.17445716854475E-02 
1999	 4.04061826716527E-02 
2000	 3.50476167175037E-02 
2001	 2.94337261537128E-02 
2002	 2.52689278690598E-02 
2003	 2.75101448127177E-02 
2004	 2.49068260631725E-02 
2005	 1.51554343279557E-02 
2006	 0.01054767487466 
2007	 1.48924547487858E-02 
2008	 2.54590560432668E-02 
2009	 2.84442150135386E-02 
2010	 0.032139385537611 
2011	 0.033105889489425 
2012	 2.89476980873001E-02 
2013	 2.11756199502695E-02 
2014	 1.81824933813644E-02 
2015	 2.43221423065196E-02 
2016	 2.84165622672993E-02 
2017	 0.037836923885508 
2018	 4.97117865629262E-02 
2019	 5.52952660306472E-02 
2020	 5.69060999457897E-02 
2021	 5.06001636365293E-02 
2022	 4.13751785067278E-02 
2023	 0.036395432067294 
2024	 3.39504359945015E-02 
2025	 3.30807580143801E-02 
2026	 3.34957261781333E-02 
2027	 3.63832443294522E-02 
2028	 3.71030486767682E-02 
2029	 3.81662713259537E-02 
2030	 3.78862939955434E-02 
2031	 3.91391172117322E-02 
2032	 3.89162481238135E-02 
2033	 3.81888228373701E-02 
2034	 3.85674657641251E-02 
2035	 3.72277609045391E-02 
2036	 3.85348067343456E-02 
2037	 4.16035261011415E-02 
2038	 4.37276527212558E-02 
2039	 4.39953131425007E-02 
2040	 4.28555533015087E-02 
2041	 4.23826069875801E-02 
2042	 4.03231945026709E-02 
2043	 3.90157952315525E-02 
2044	 3.84369335064488E-02 
2045	 0.03822237632864 
2046	 3.75512998704692E-02 
2047	 3.79575080927759E-02 
2048	 0.040410389715495 
2049	 4.25038295566226E-02 
2050	 4.41381686496965E-02 
2051	 4.44897514745121E-02 
2052	 0.044986094456711 
2053	 4.53529024759025E-02 
2054	 4.34622923728085E-02 
2055	 4.16433038345869E-02 
2056	 4.11277638988817E-02 
2057	 3.97709008420273E-02 
2058	 0.040463642505396 
2059	 4.46353792527817E-02 
2060	 4.63213746080472E-02 
2061	 4.75870959850398E-02 
2062	 4.80431362748696E-02 
2063	 4.64837532507182E-02 
2064	 4.41736507728016E-02 
2065	 4.45028670604802E-02 
2066	 0.043023617474572 
2067	 4.35390463035717E-02 
2068	 4.62168815842814E-02 
2069	 4.37103171996422E-02 
2070	 4.28015131271111E-02 
2071	 4.49075882728069E-02 
2072	 4.49111992566477E-02 
2073	 0.045509846791288 
2074	 4.79224715748259E-02 
2075	 4.88201518962697E-02 
2076	 4.89602060030932E-02 
2077	 4.87691618392292E-02 
2078	 4.88332724515204E-02 
2079	 4.80192036390851E-02 
2080	 4.58479869044763E-02 
2081	 4.35536700446416E-02 
2082	 4.26006399789421E-02 
2083	 4.27360219203763E-02 
2084	 4.53804835370165E-02 
2085	 4.81974889677165E-02 
2086	 4.72698689454567E-02 
2087	 4.48773548117055E-02 
2088	 4.40365353852395E-02 
2089	 4.27041352143038E-02 
2090	 4.39659223484634E-02 
2091	 4.77350529489329E-02 
2092	 4.93412649532164E-02 
2093	 4.94381053803923E-02 
2094	 4.98137864802236E-02 
2095	 0.049584603637795 
2096	 5.09036057272813E-02 
2097	 5.29498115688183E-02 
2098	 5.37807147836682E-02 
2099	 5.52752018377005E-02 
2100	 5.60810545980559E-02 
2101	 0.054320973356132 
2102	 5.46545052910971E-02 
2103	 5.63929894931692E-02 
2104	 5.49598748111523E-02 
2105	 5.33928103804276E-02 
2106	 5.39608746032686E-02 
2107	 5.44495944176857E-02 
2108	 5.60805766411218E-02 
2109	 5.94543087423795E-02 
2110	 6.03403196365425E-02 
2111	 5.84901205200073E-02 
2112	 5.68082948047696E-02 
2113	 0.055935332360317 
2114	 5.41481285600729E-02 
2115	 5.38417794075299E-02 
2116	 5.48758557548788E-02 
2117	 5.61610084520705E-02 
2118	 5.91230854058983E-02 
2119	 6.02089275025925E-02 
2120	 6.12376185544777E-02 
2121	 6.16667095318981E-02 
2122	 6.04265638607017E-02 
2123	 5.74736031618914E-02 
2124	 5.71706905945098E-02 
2125	 5.75181628953583E-02 
2126	 5.76535443793759E-02 
2127	 5.95828092519729E-02 
2128	 5.90332501691822E-02 
2129	 5.88629575705209E-02 
2130	 6.09250694620708E-02 
2131	 5.96932846063766E-02 
2132	 5.90566940861076E-02 
2133	 6.06609362155952E-02 
2134	 0.060677179720266 
2135	 5.95473956926311E-02 
2136	 5.90341081595886E-02 
2137	 5.83211447649686E-02 
2138	 5.75944003710483E-02 
2139	 5.70015520809228E-02 
2140	 5.68651179926594E-02 
2141	 0.056539599701133 
2142	 5.69366558960945E-02 
2143	 5.86894222936271E-02 
2144	 5.82562070374116E-02 
2145	 5.76047079579934E-02 
2146	 5.85726729607187E-02 
2147	 5.87222435661696E-02 
2148	 5.97151834734263E-02 
2149	 6.31350807894083E-02 
2150	 0.064759855634446 
2151	 6.41556432180826E-02 
2152	 6.32265633507178E-02 
2153	 0.060931789143933 
2154	 5.98780892511451E-02 
2155	 6.07571757503223E-02 
2156	 6.19413091058012E-02 
2157	 6.22317284943301E-02 
2158	 6.25258050077108E-02 
2159	 6.20382793022321E-02 
2160	 0.060485220194578 
2161	 5.97462497924429E-02 
2162	 0.05913829187287 
2163	 5.86069142434329E-02 
2164	 5.78156862886716E-02 
2165	 5.77990633946403E-02 
2166	 5.77736978761406E-02 
2167	 5.84845110890605E-02 
2168	 6.12611981064004E-02 
2169	 6.26396717190296E-02 
2170	 6.36220360487228E-02 
2171	 6.48522798579938E-02 
2172	 6.46398226724546E-02 
2173	 6.13579414883802E-02 
2174	 5.76121148662146E-02 
2175	 5.67471195744976E-02 
2176	 5.80641812191882E-02 
2177	 5.88584422491388E-02 
2178	 5.81627684418883E-02 
2179	 5.64170517954592E-02 
2180	 5.40413036436496E-02 
2181	 5.08381801565703E-02 
2182	 5.28673727885536E-02 
2183	 5.84262823113674E-02 
2184	 5.94864460800737E-02 
2185	 6.04825480704388E-02 
2186	 6.19611455318562E-02 
2187	 6.08714254566985E-02 
2188	 6.04894974323536E-02 
2189	 6.28378215013823E-02 
2190	 6.26614499968919E-02 
2191	 5.94204656967498E-02 
2192	 5.82435521727439E-02 
2193	 5.80076991002732E-02 
2194	 5.77387021173108E-02 
2195	 5.80338954926461E-02 
2196	 5.83303486951066E-02 
2197	 5.69657015299736E-02 
2198	 5.71035019186591E-02 
2199	 5.94079969374052E-02 
2200	 6.01288883738701E-02 
2201	 5.86365576571088E-02 
2202	 6.15009230263092E-02 
2203	 6.32848564022862E-02 
2204	 6.21511921885237E-02 
2205	 6.00209848152219E-02 
2206	 5.78621148726784E-02 
2207	 5.60322947348011E-02 
2208	 5.60688151415117E-02 
2209	 5.99375536754779E-02 
2210	 6.30972160301178E-02 
2211	 6.32624235462597E-02 
2212	 0.061460813634039 
2213	 6.03609965344193E-02 
2214	 0.061241823928994 
2215	 6.09773347883271E-02 
2216	 5.99232998286058E-02 
2217	 6.00270268754963E-02 
2218	 5.99781064736865E-02 
2219	 6.15950406750465E-02 
2220	 6.42797253072719E-02 
2221	 6.69387363444858E-02 
2222	 0.071424932172095 
2223	 7.33753232791892E-02 
2224	 7.66190567054226E-02 
2225	 7.62680486065258E-02 
2226	 7.07509678644641E-02 
2227	 6.81133623525286E-02 
2228	 6.38942716401767E-02 
2229	 6.07957631755501E-02 
2230	 6.15935993286457E-02 
2231	 6.01736267972264E-02 
2232	 5.66790555942612E-02 
2233	 5.43659940064342E-02 
2234	 5.15184203400977E-02 
2235	 4.92875238858881E-02 
2236	 4.97684724184671E-02 
2237	 4.99488894536739E-02 
2238	 5.39638234186369E-02 
2239	 5.61346441244646E-02 
2240	 5.57120348920347E-02 
2241	 0.056448686481503 
2242	 0.057154993755772 
2243	 5.52111825118171E-02 
2244	 5.64042840342207E-02 
2245	 5.89494599614845E-02 
2246	 0.054414723335055 
2247	 5.21678478102397E-02 
2248	 5.22158294149802E-02 
2249	 5.22821517056738E-02 
2250	 5.61420289951283E-02 
2251	 6.17779341402881E-02 
2252	 6.28106953997806E-02 
2253	 6.17887932179622E-02 
2254	 6.30858176311509E-02 
2255	 6.25682039129937E-02 
2256	 6.41963805736912E-02 
2257	 6.50552336252252E-02 
2258	 6.19223442719985E-02 
2259	 6.28384264425618E-02 
2260	 6.11657127333722E-02 
2261	 5.58248512401349E-02 
2262	 5.40782122637738E-02 
2263	 5.29867016041522E-02 
2264	 5.35813786420428E-02 
2265	 5.80701541453413E-02 
2266	 6.19087800014023E-02 
2267	 7.07615638644935E-02 
2268	 6.88341364479708E-02 
2269	 5.68630724022924E-02 
2270	 5.46868004345276E-02 
2271	 5.13815548618141E-02 
2272	 4.84903355888709E-02 
2273	 5.25205314378345E-02 
2274	 5.48847528141978E-02 
2275	 0.054493083678723 
2276	 5.34526177969525E-02 
2277	 5.41948380845512E-02 
2278	 0.056058773852998 
2279	 0.053526800310789 
2280	 0.052352399491975 
2281	 5.56144787196253E-02 
2282	 5.84168712645181E-02 
2283	 5.28828933895547E-02 
2284	 0.0528371738 
2285	 0.046237710973912 
2286	 4.05683378630702E-02 
2287	 0.042880469173453 
2288	 4.40418971804726E-02 
2289	 5.39482959428727E-02 
2290	 6.30892778523852E-02 
2291	 5.23411586355307E-02 
2292	 4.64087109781155E-02 
2293	 4.90873067407523E-02 
2294	 4.65585535436477E-02 
2295	 0.049404614915984 
2296	 5.07563942180595E-02 
2297	 4.45005306204828E-02 
2298	 3.77122432564975E-02 
2299	 4.15846239253233E-02 
2300	 4.86011263127348E-02 
2301	 4.82730403013384E-02 
2302	 4.91499624292125E-02 
2303	 0.046378654916699 
2304	 4.01742408256358E-02 
2305	 4.52138560732752E-02 
2306	 4.38503173390284E-02 
2307	 3.14385097357322E-02 
2308	 3.58630007023616E-02 
2309	 4.22125150206435E-02 
2310	 4.29879941106092E-02 
2311	 5.10009591171563E-02 
2312	 5.21000011969419E-02 
2313	 4.27383255426888E-02 
2314	 3.43290950387376E-02 
2315	 2.90924170599446E-02 
2316	 3.04273644394171E-02 
2317	 3.06248605992659E-02 
2318	 2.17535696147784E-02 
2319	 2.66700467089639E-02 
2320	 0.033795832755837 
2321	 3.60053966618425E-02 
2322	 4.49861264249475E-02 
2323	 3.90751111275379E-02 
2324	 2.49759696814187E-02 
2325	 1.92914790265403E-02 
2326	 1.80700390300157E-02 
2327	 0.018055091168972 
2328	 2.22847237131817E-02 
2329	 2.87517995018201E-02 
2330	 2.89715175730309E-02 
2331	 0.028736840661088 
2332	 2.66484755805524E-02 
2333	 0.012841856974571 
2334	 8.80357334426513E-04 
2335	-5.69577709943256E-04 
2336	-1.31176516456851E-03 
2337	 4.41725926838731E-03 
2338	 1.84845305372931E-02 
2339	 1.99947712492343E-02 
2340	 2.25936833360787E-02 
2341	 2.60314475207097E-02 
2342	 1.50572764496226E-02 
2343	 1.08385215439042E-02 
2344	 8.64509352484382E-03 
2345	 1.05183430025869E-02 
2346	 2.11366641453046E-02 
2347	 2.75727582443778E-02 
2348	 1.88174098391366E-02 
2349	 1.48555837082579E-02 
2350	-2.94683009777432E-03 
2351	-2.94494801111794E-02 
2352	-1.10750167830224E-02 
2353	-1.13762651389022E-02 
2354	-1.74076203233404E-02 
2355	 6.16962516387296E-03 
2356	-2.32992661667907E-03 
2357	-7.5138252700894E-03 
2358	 1.21170807475872E-02 
2359	 1.72061869811137E-02 
2360	 3.46360864029988E-02 
2361	 3.98746129075847E-02 
2362	 5.93422720383984E-03 
2363	-1.60740692122358E-02 
2364	-2.06739477790695E-02 
2365	-1.31453365974006E-02 
2366	-4.36428508958429E-03 
2367	 2.46666424235598E-02 
2368	 4.11001116435967E-02 
2369	 8.65981733562291E-03 
2370	 3.04576097134037E-02 
2371	 2.94288504735286E-02 
2372	-1.08746769876903E-02 
2373	 2.68909951452014E-03 
2374	-3.66821850733763E-02 
2375	-8.52937368489329E-02 
2376	-9.86653942098784E-02 
2377	-0.075688412432798 
2378	-2.51340874733775E-02 
2379	 0.034168811688057 
2380	 5.02734179219321E-02 
2381	-5.58314380299616E-02 
2382	-0.143106343895674 
2383	-0.183755795594538 
2384	-0.189905969370531 
2385	-9.16648423646896E-02 
2386	-0.11161230002421 
2387	-0.186741327131156 
2388	-0.163773019675144 
2389	-0.177815021220751 
2390	-0.127745962069939 
2391	-4.66805989763643E-02 
2392	-6.88908009262028E-02 
2393	-0.11718027254413 
2394	-0.110233553846371 
2395	-7.81478214462096E-02 
2396	-9.41450256974661E-02 
2397	-0.079665229664301 
2398	-8.72130963546988E-02 
2399	-9.38303521486995E-02 
2400	-1.50321764205806E-02 
2401	-1.39940904854626E-03 
2402	 2.40798225242728E-02 
2403	 6.56092880311653E-02 
2404	 5.33388200141011E-02 
2405	 5.94833876490365E-02 
2406	 7.27868048202481E-02 
2407	 8.62466284490302E-02 
2408	 5.90986710763267E-02 
2409	-0.030366624083244 
2410	-3.36113893974529E-02 
2411	-8.16231664960105E-02 
2412	-0.297861514058003 
2413	-0.177969506613927 
2414	 9.97182591784975E-02 
2415	-6.43377138294757E-02 
2416	-5.95294282538352E-02 
2417	 0.126982278643227 
2418	 0.11430286175267 
2419	 0.121577779420938 
2420	 3.20556025570401E-02 
2421	-0.119899346619795 
2422	-0.318154825561929 
2423	-0.485387354723481 
2424	-0.363101677295004 
2425	-0.431507929546722 
2426	-0.781392216624978 
2427	-0.752069030667606 
2428	-0.613773262851168 
2429	-0.311982466773116 
2430	-0.239571552337409 
2431	-0.24194270583803 
2432	-0.287569779366581 
2433	-0.591500304383527 
2434	-0.645623882772413 
2435	-0.457138757765285 
2436	-0.446596920699449 
2437	-0.390675817388668 
2438	-0.323659651939381 
2439	-0.474240673371651 
2440	-0.227203941563719 
2441	-9.08599265870524E-03 
2442	-7.19819727854916E-02 
2443	-0.169620497427798 
2444	-0.449622188649658 
2445	-0.660816526103904 
2446	-0.587252439374849 
2447	 2.77795210944229E-02 
2448	 0.295308186102774 
2449	 0.214985750679973 
2450	 0.354459956625974 
2451	 1.46825068819021 
2452	-4.07240078955788 
2453	 1.11901230355689 
2454	 0.133461025134723 
2455	-0.914864393686241 
2456	-0.97596898891611 
2457	 11.2814262806694 
2458	 14.5236653383884 
2459	 8.59692165679269 
2460	 51.0450323122453 
2461	-54.8767998810008 
2462	-22.1730389247836 
2463	-2.55707461588352 
2464	 0.315302862641203 
2465	 0.62625095366655 
2466	-0.14947758954082 
2467	-3.93569019330125 
2468	-32.6825791532922 
2469	-3.65547282076912 
2470	-3.91136850326525 
2471	-3.01423785987193 
2472	-3.0986390880796 
2473	 1.7853404689562 
2474	 0.970094402059942 
2475	 1.63410925943761 
2476	 1.22788700558644 
2477	 0.173450242034672 
2478	-1.10947741680751 
2479	-1.41092541166171 
2480	-1.37297198424565 
2481	-0.721830216877027 
2482	-1.05058835597795 
2483	 1.90445882782524 
2484	 3.00451781221483 
2485	 10.1987040150119 
2486	 5.55335127918958 
2487	 4.33888757512098 
2488	 16.4175188876484 
2489	 7.18441566779071 
2490	 33.1842350699817 
2491	-1.8162617181092 
2492	-0.811115027710963 
2493	-5.42778301108278E-02 
2494	-0.247074685005373 
2495	-1.07554427237166 
2496	-0.966432873017761 
2497	-0.83017082651203 
2498	-0.788084058685747 
2499	-1.06962559423879 
2500	-1.07777575827873 
