Wavelength	rt0714yellow00005.asd
350	 6.39335791440303E-02 
351	 6.33665518739932E-02 
352	 6.29032475189968E-02 
353	 6.31968129780223E-02 
354	 6.40255452662247E-02 
355	 6.36529158962625E-02 
356	 6.33158184920241E-02 
357	 6.33098387342709E-02 
358	 6.36001651334015E-02 
359	 6.41670955364522E-02 
360	 0.064217880990115 
361	 6.37626020337329E-02 
362	 6.34379200024429E-02 
363	 6.41421282080448E-02 
364	 6.46291605605862E-02 
365	 6.43651581319094E-02 
366	 6.42637714770897E-02 
367	 6.45402797968361E-02 
368	 6.47381612611685E-02 
369	 6.45304343623119E-02 
370	 6.47776880479344E-02 
371	 6.48868015146412E-02 
372	 6.50212088055686E-02 
373	 6.56661219192342E-02 
374	 6.59121006657512E-02 
375	 0.066477031087273 
376	 0.067269732336906 
377	 6.69293553117913E-02 
378	 6.71876152348522E-02 
379	 6.77615258649429E-02 
380	 6.81019841109973E-02 
381	 6.83820282140804E-02 
382	 0.069236886761241 
383	 7.02553969073265E-02 
384	 7.06425505402765E-02 
385	 7.09422941708887E-02 
386	 7.08726477166863E-02 
387	 7.08219774882669E-02 
388	 7.18944052597344E-02 
389	 7.32428122868301E-02 
390	 7.38251828411438E-02 
391	 0.07356895014423 
392	 7.47711506191185E-02 
393	 0.075064348979818 
394	 7.50519417637809E-02 
395	 7.60066205951236E-02 
396	 7.64689281494536E-02 
397	 7.68412398638243E-02 
398	 7.72900622354487E-02 
399	 7.76847769322919E-02 
400	 7.80808351239811E-02 
401	 7.83840208235827E-02 
402	 7.86781047962152E-02 
403	 7.95655258117701E-02 
404	 7.99206491224762E-02 
405	 7.99857676538217E-02 
406	 8.04299664619303E-02 
407	 0.081124362630269 
408	 0.081702090880858 
409	 8.21320314987885E-02 
410	 8.27068396751727E-02 
411	 0.083186980884311 
412	 8.35296362374002E-02 
413	 0.08387438836181 
414	 8.47353539722168E-02 
415	 8.55132494928537E-02 
416	 8.61170182008767E-02 
417	 8.66649088726741E-02 
418	 8.70891585034131E-02 
419	 8.78408120052176E-02 
420	 8.88027557851247E-02 
421	 0.089259783396958 
422	 9.00883615690441E-02 
423	 0.090877084276168 
424	 0.091367732384065 
425	 9.25325842329364E-02 
426	 9.33371534536717E-02 
427	 9.39777114719584E-02 
428	 9.51259392871841E-02 
429	 9.62240094270027E-02 
430	 9.72271253369369E-02 
431	 9.82421671603748E-02 
432	 9.94963877607223E-02 
433	 0.100391995434477 
434	 0.101226966557487 
435	 0.102289208877881 
436	 0.103210657490286 
437	 0.104192411503235 
438	 0.105292630419779 
439	 0.106458322649599 
440	 0.107481954711477 
441	 0.108401123964938 
442	 0.109282678597024 
443	 0.110188766128404 
444	 0.11113531444695 
445	 0.111902462504936 
446	 0.112401946911602 
447	 0.113301315202636 
448	 0.114135548658125 
449	 0.11477862701004 
450	 0.115376450593801 
451	 0.115895884878714 
452	 0.116354226001013 
453	 0.116793834165064 
454	 0.117298420766308 
455	 0.117765725448712 
456	 0.11822175673071 
457	 0.118690083472018 
458	 0.118914300806337 
459	 0.119232081572182 
460	 0.119725424859081 
461	 0.120180227889172 
462	 0.120355504174375 
463	 0.120510419635891 
464	 0.120893694052318 
465	 0.121454094893404 
466	 0.121882565514278 
467	 0.122172682402298 
468	 0.122480038080222 
469	 0.122824637854812 
470	 0.123152376090944 
471	 0.123488562080938 
472	 0.123972892134325 
473	 0.124365454533417 
474	 0.124766544334088 
475	 0.125285132306453 
476	 0.125722595051951 
477	 0.12616461049295 
478	 0.126637717275288 
479	 0.127136175288038 
480	 0.127786139726773 
481	 0.128348991214901 
482	 0.128762446044921 
483	 0.12941284276721 
484	 0.13009646103898 
485	 0.130741950864123 
486	 0.131368288321826 
487	 0.132239896627469 
488	 0.132966996953654 
489	 0.133559145967724 
490	 0.134425185180006 
491	 0.135321078092192 
492	 0.136222552267421 
493	 0.137110622593322 
494	 0.137867865272052 
495	 0.138706773429302 
496	 0.139652938811568 
497	 0.140635688447484 
498	 0.141660666108311 
499	 0.142627237536762 
500	 0.143545807413009 
501	 0.144610716459321 
502	 0.145631126300671 
503	 0.146633464145205 
504	 0.147693858573222 
505	 0.148838075513855 
506	 0.149774564429576 
507	 0.150626970467331 
508	 0.151816006955517 
509	 0.152960951559313 
510	 0.154041651152406 
511	 0.155087614149141 
512	 0.156094968143453 
513	 0.157176331301311 
514	 0.158319985371931 
515	 0.159449648118495 
516	 0.160542234234105 
517	 0.161784363437671 
518	 0.163125957277798 
519	 0.16422117708587 
520	 0.16525877525061 
521	 0.166357948388123 
522	 0.167558213665483 
523	 0.168657543830115 
524	 0.169841149554683 
525	 0.171072316740034 
526	 0.172184882840828 
527	 0.173422398689978 
528	 0.174682823664397 
529	 0.175871557933616 
530	 0.177002571804681 
531	 0.178180728729171 
532	 0.179353798547914 
533	 0.180451451690675 
534	 0.181724402277461 
535	 0.182846572426045 
536	 0.18382983674763 
537	 0.185090101394045 
538	 0.186288284073725 
539	 0.187399241204089 
540	 0.188486833041492 
541	 0.189651920471753 
542	 0.190776324171663 
543	 0.19186141049233 
544	 0.192978984155574 
545	 0.194028667969847 
546	 0.195034132500031 
547	 0.196011783815193 
548	 0.196922291132695 
549	 0.19794980549689 
550	 0.198987638473852 
551	 0.199876317792092 
552	 0.200792238766144 
553	 0.201787622356347 
554	 0.202778580042662 
555	 0.203539212315072 
556	 0.204334226915968 
557	 0.205209993885762 
558	 0.206115465063002 
559	 0.206926349273637 
560	 0.207558310041446 
561	 0.208152899353189 
562	 0.20896120246316 
563	 0.209737124255043 
564	 0.210365195194509 
565	 0.210884736076277 
566	 0.211612413399459 
567	 0.212198324877875 
568	 0.212678061481768 
569	 0.213200220687786 
570	 0.213690454753053 
571	 0.214197479567754 
572	 0.214633473597666 
573	 0.214773029042232 
574	 0.215161545634581 
575	 0.215668310412305 
576	 0.216066600484196 
577	 0.216394501768866 
578	 0.216609437171129 
579	 0.216770444219399 
580	 0.216987707781483 
581	 0.21720852299807 
582	 0.217330368559774 
583	 0.217373867565479 
584	 0.217608555038596 
585	 0.217678648465732 
586	 0.217600778168189 
587	 0.217514748584401 
588	 0.217406728968891 
589	 0.217446577441594 
590	 0.217543135082245 
591	 0.217351976877108 
592	 0.217174397200926 
593	 0.217020493090399 
594	 0.21685407720248 
595	 0.216694401186132 
596	 0.216371925067214 
597	 0.215894183828496 
598	 0.215386693734418 
599	 0.214943362618577 
600	 0.214669015460568 
601	 0.214549632888635 
602	 0.214380605216176 
603	 0.214192602408528 
604	 0.213995494066047 
605	 0.213821231174503 
606	 0.213805872950505 
607	 0.213765008190359 
608	 0.213671162008772 
609	 0.213667970695492 
610	 0.2135774515041 
611	 0.213494913919648 
612	 0.213512035099207 
613	 0.213559002699421 
614	 0.213460452874784 
615	 0.21331615674073 
616	 0.213343276325281 
617	 0.213218835306381 
618	 0.213102531213849 
619	 0.213077192182747 
620	 0.213015125558115 
621	 0.213120339667403 
622	 0.213297206416072 
623	 0.213323961401211 
624	 0.212867305971045 
625	 0.212714314143161 
626	 0.212902902707553 
627	 0.212745380088553 
628	 0.212612563116503 
629	 0.212578334965178 
630	 0.212631122732399 
631	 0.212705153127754 
632	 0.212661622868734 
633	 0.212494643568846 
634	 0.212294129730503 
635	 0.212261147910607 
636	 0.212289966053163 
637	 0.212294905525603 
638	 0.212270747577056 
639	 0.212076422687763 
640	 0.211910946217957 
641	 0.21194849989992 
642	 0.211828994353023 
643	 0.211684239193675 
644	 0.21156042790897 
645	 0.211422810517901 
646	 0.211180546492147 
647	 0.210966659649117 
648	 0.210864359081449 
649	 0.210755471568257 
650	 0.210511573342371 
651	 0.210199156421506 
652	 0.209941319439703 
653	 0.20957231209753 
654	 0.209227474980207 
655	 0.208819392438062 
656	 0.208008762544325 
657	 0.207748073047113 
658	 0.207538815407984 
659	 0.206932692008218 
660	 0.206564128774551 
661	 0.206345719750136 
662	 0.206112596917522 
663	 0.205690306121869 
664	 0.20537420583737 
665	 0.205163126360602 
666	 0.204990378393773 
667	 0.204746746774514 
668	 0.204612283277358 
669	 0.20448763891624 
670	 0.204266009616463 
671	 0.20427626317461 
672	 0.204400788996023 
673	 0.204455256939223 
674	 0.204244693634618 
675	 0.204177708073862 
676	 0.204251751956992 
677	 0.204373238109842 
678	 0.204429244922972 
679	 0.20460350976417 
680	 0.204834200168141 
681	 0.204963429000445 
682	 0.205007754135247 
683	 0.205211772650464 
684	 0.205577846149505 
685	 0.205788593455245 
686	 0.205833811982903 
687	 0.205999181406017 
688	 0.206451643071675 
689	 0.206709010639199 
690	 0.20665581505301 
691	 0.206605955413481 
692	 0.20703557785558 
693	 0.207006215898761 
694	 0.206944202011293 
695	 0.207055457731321 
696	 0.206872938673038 
697	 0.206776969290877 
698	 0.206602616369368 
699	 0.206149321863341 
700	 0.205856776420586 
701	 0.205462085364993 
702	 0.2050229400516 
703	 0.204814961928558 
704	 0.204307931825076 
705	 0.203741911657137 
706	 0.203235082254897 
707	 0.202312958657807 
708	 0.201497029257552 
709	 0.200816548266145 
710	 0.200092245840299 
711	 0.199136512973892 
712	 0.19800382804651 
713	 0.196857689186757 
714	 0.195916059562362 
715	 0.194826563257476 
716	 0.193622866216551 
717	 0.192455055581453 
718	 0.191075277509984 
719	 0.189712363649371 
720	 0.188549244182079 
721	 0.187438049493437 
722	 0.186349501450832 
723	 0.185123668115485 
724	 0.18382189762423 
725	 0.182457586841738 
726	 0.181186362603173 
727	 0.179883861344155 
728	 0.178400222850318 
729	 0.176588724162151 
730	 0.175000178490651 
731	 0.173781511795782 
732	 0.172734224201803 
733	 0.171559431984491 
734	 0.170488155219915 
735	 0.169624815149491 
736	 0.168851360341761 
737	 0.168446358744821 
738	 0.168181856580911 
739	 0.167832256791014 
740	 0.167527804578396 
741	 0.16737365968596 
742	 0.167297644242595 
743	 0.167162686497304 
744	 0.167198107994791 
745	 0.167179180374482 
746	 0.166983930836577 
747	 0.166685985271235 
748	 0.166684212881454 
749	 0.166757977073121 
750	 0.166640540474289 
751	 0.166486880325487 
752	 0.166407547224107 
753	 0.166391544373194 
754	 0.166367154100058 
755	 0.166423913730304 
756	 0.166447744707403 
757	 0.166390964337442 
758	 0.166302825883165 
759	 0.165996985138521 
760	 0.165715740772852 
761	 0.165919006915796 
762	 0.165960057915311 
763	 0.166022991864872 
764	 0.166035081841238 
765	 0.165930844961527 
766	 0.165914893822946 
767	 0.166060666088326 
768	 0.166230105895372 
769	 0.166092422181815 
770	 0.166050914283686 
771	 0.166162016630965 
772	 0.166332280658071 
773	 0.166266115309387 
774	 0.166229870760292 
775	 0.166320067776242 
776	 0.166529525802345 
777	 0.16675367360646 
778	 0.166806890598577 
779	 0.166796973321343 
780	 0.167092829751968 
781	 0.167189794573439 
782	 0.167152912946528 
783	 0.167148406862615 
784	 0.167320472079377 
785	 0.167566173264629 
786	 0.16784818688989 
787	 0.168113034771741 
788	 0.168126355212511 
789	 0.168253860615735 
790	 0.168487057140581 
791	 0.168545036177805 
792	 0.16896272695644 
793	 0.169277539449099 
794	 0.169336674538783 
795	 0.169705672996123 
796	 0.169977623102847 
797	 0.170069782037626 
798	 0.170053370024356 
799	 0.170124350805402 
800	 0.170533693669036 
801	 0.170939618949284 
802	 0.170770749664526 
803	 0.170387876084445 
804	 0.170507625477015 
805	 0.17100109639184 
806	 0.170854608395246 
807	 0.170850028893165 
808	 0.170717553936935 
809	 0.170342298041077 
810	 0.170557286578068 
811	 0.1704378592707 
812	 0.17004059854944 
813	 0.169746934908295 
814	 0.169140108471745 
815	 0.16898879271999 
816	 0.168847598739713 
817	 0.167626884321693 
818	 0.167749688727317 
819	 0.167861842419112 
820	 0.167158645547852 
821	 0.165923807178165 
822	 0.165082017290516 
823	 0.164596163834804 
824	 0.164030463312426 
825	 0.162794511918567 
826	 0.161567708845099 
827	 0.160475028829391 
828	 0.159481532229656 
829	 0.158465016685283 
830	 0.157610900817865 
831	 0.157055016723417 
832	 0.156786880511185 
833	 0.15570801054762 
834	 0.155082367995442 
835	 0.155099863988674 
836	 0.154261852498012 
837	 0.154129378529699 
838	 0.154182362203797 
839	 0.153875807681876 
840	 0.153829146759174 
841	 0.153361617337195 
842	 0.152863140724225 
843	 0.15291780368109 
844	 0.153080392011871 
845	 0.152700648550324 
846	 0.152121330373451 
847	 0.152236791659964 
848	 0.15225808079056 
849	 0.151913489452284 
850	 0.151395012239633 
851	 0.15134839866116 
852	 0.151043959547111 
853	 0.150924358943184 
854	 0.15110497707439 
855	 0.150486686962389 
856	 0.150600247038992 
857	 0.150848157891683 
858	 0.15041401334066 
859	 0.149881251370026 
860	 0.14966293856194 
861	 0.149755540898865 
862	 0.149860070626278 
863	 0.149507739026339 
864	 0.149326492320839 
865	 0.149359800116993 
866	 0.149088136388101 
867	 0.14875443668003 
868	 0.148739314447995 
869	 0.148960504857621 
870	 0.14875379132795 
871	 0.148254697306038 
872	 0.147779087831425 
873	 0.147593342108066 
874	 0.147771993363957 
875	 0.147420711160732 
876	 0.146919380235958 
877	 0.146781645701824 
878	 0.146363680693142 
879	 0.146233576803328 
880	 0.14632887093907 
881	 0.14630593584574 
882	 0.146229641137314 
883	 0.145728212878948 
884	 0.145259245662844 
885	 0.145708877261808 
886	 0.146090814801044 
887	 0.145627894814457 
888	 0.144639459986908 
889	 0.14455094872116 
890	 0.14500875970055 
891	 0.145225978753532 
892	 0.144819602064646 
893	 0.144353625250261 
894	 0.144079960627018 
895	 0.144059743964086 
896	 0.144145254422812 
897	 0.14390150383313 
898	 0.143223113670092 
899	 0.142764710303909 
900	 0.142975638842855 
901	 0.142746252391159 
902	 0.142875274558681 
903	 0.142978566586079 
904	 0.142453081373268 
905	 0.141963550198768 
906	 0.141192383258901 
907	 0.141139430057837 
908	 0.143062301274742 
909	 0.143003903919926 
910	 0.141548235726378 
911	 0.140524436145402 
912	 0.141722815208966 
913	 0.140719162083985 
914	 0.139757101655285 
915	 0.140061864573201 
916	 0.140570668240296 
917	 0.140129465768255 
918	 0.138844261522648 
919	 0.137606372244801 
920	 0.137882366353545 
921	 0.138848339193066 
922	 0.139238835780867 
923	 0.138854350800379 
924	 0.139854331288724 
925	 0.140048614530769 
926	 0.139325865467328 
927	 0.138396632555518 
928	 0.138541125922869 
929	 0.138554524467644 
930	 0.138531423046796 
931	 0.138664971350344 
932	 0.134871985006272 
933	 0.138734907768217 
934	 0.141730352200693 
935	 0.132885940790624 
936	 0.134741543401747 
937	 0.139921448612923 
938	 0.139669620922405 
939	 0.131543624994027 
940	 0.134666789880335 
941	 0.134761830476442 
942	 0.131860116278275 
943	 0.13288155677496 
944	 0.137031722241577 
945	 0.136869892592389 
946	 0.133908057066835 
947	 0.133345364534259 
948	 0.124056878823774 
949	 0.124675817680177 
950	 0.132304988840928 
951	 0.131982130322087 
952	 0.131055552212817 
953	 0.132333270030629 
954	 0.134310024875053 
955	 0.133521534880378 
956	 0.13346124458144 
957	 0.133312577429195 
958	 0.13275412682533 
959	 0.132178449130703 
960	 0.132415178861167 
961	 0.133697890018533 
962	 0.133230725457563 
963	 0.128478752648815 
964	 0.131679640303476 
965	 0.131472174018822 
966	 0.128161082680773 
967	 0.130251367957732 
968	 0.130031293859397 
969	 0.128531090460068 
970	 0.127731040013559 
971	 0.129251387550613 
972	 0.13139502443792 
973	 0.130950721718633 
974	 0.127935962485904 
975	 0.126094104327233 
976	 0.130216529800024 
977	 0.13378381886708 
978	 0.133661439269802 
979	 0.131487670465627 
980	 0.129113330870043 
981	 0.130829968588665 
982	 0.133393780823268 
983	 0.129512081055232 
984	 0.128583837343409 
985	 0.1294405936472 
986	 0.130026291635248 
987	 0.129287505500115 
988	 0.132156243344692 
989	 0.133843095993515 
990	 0.13200581625095 
991	 0.127925562248375 
992	 0.127709713752524 
993	 0.129090483143773 
994	 0.130342450218672 
995	 0.13072608407217 
996	 0.129198035059631 
997	 0.128808754916114 
998	 0.130667225593055 
999	 0.133230060016897 
1000	 0.130439860739562 
1001	 0.129362980102894 
1002	 0.129204375710645 
1003	 0.129082282392104 
1004	 0.128707324723595 
1005	 0.1285813543089 
1006	 0.128591078233799 
1007	 0.128334549929069 
1008	 0.127994508972232 
1009	 0.127908387986651 
1010	 0.127922824734591 
1011	 0.12788372304656 
1012	 0.127981912500456 
1013	 0.128049740930484 
1014	 0.128293236334513 
1015	 0.128791539464092 
1016	 0.128777293364915 
1017	 0.128668886789194 
1018	 0.128611487796132 
1019	 0.127765496018846 
1020	 0.127743448660474 
1021	 0.12832799401885 
1022	 0.12892369970745 
1023	 0.129370828678393 
1024	 0.129617853030011 
1025	 0.12960536067116 
1026	 0.12929923137815 
1027	 0.129045241741763 
1028	 0.128884010620111 
1029	 0.128508838778075 
1030	 0.127540271979145 
1031	 0.127541099138658 
1032	 0.128187759361969 
1033	 0.128160506131144 
1034	 0.128532359165806 
1035	 0.128374596712727 
1036	 0.126951607987977 
1037	 0.126630920165938 
1038	 0.127120339421026 
1039	 0.126991863779358 
1040	 0.12717645283382 
1041	 0.127863776852176 
1042	 0.128131677926362 
1043	 0.128152554171148 
1044	 0.128343199908519 
1045	 0.128613064599905 
1046	 0.128734302696338 
1047	 0.128779006770216 
1048	 0.128747040911292 
1049	 0.128595082522201 
1050	 0.128573230268237 
1051	 0.128450234387398 
1052	 0.128486429557151 
1053	 0.128938682654834 
1054	 0.128975392772781 
1055	 0.128533493163887 
1056	 0.128529875897771 
1057	 0.128621854869428 
1058	 0.128837951383755 
1059	 0.128530041710641 
1060	 0.128257501069808 
1061	 0.127987920462124 
1062	 0.126871731638622 
1063	 0.126770703472961 
1064	 0.127718747989415 
1065	 0.127849771973366 
1066	 0.127963071345786 
1067	 0.127917608173421 
1068	 0.12711209762266 
1069	 0.127002988755988 
1070	 0.127555671490454 
1071	 0.127608462327589 
1072	 0.127835853076064 
1073	 0.127794232886354 
1074	 0.127538218817302 
1075	 0.126661603650832 
1076	 0.126420400080317 
1077	 0.126198442593278 
1078	 0.126300864681393 
1079	 0.12700221041366 
1080	 0.12707102788565 
1081	 0.127094946462909 
1082	 0.127055749780897 
1083	 0.126405634975355 
1084	 0.126209343152536 
1085	 0.126346701386981 
1086	 0.126400945554643 
1087	 0.12703515359515 
1088	 0.126915418287066 
1089	 0.126198499017597 
1090	 0.125405086236912 
1091	 0.125171329323161 
1092	 0.124582508783093 
1093	 0.124817628050628 
1094	 0.126426355607184 
1095	 0.126545119557508 
1096	 0.125978066383531 
1097	 0.125803734366194 
1098	 0.125196082418039 
1099	 0.124780056354773 
1100	 0.124809339617981 
1101	 0.124697907527875 
1102	 0.123957380118883 
1103	 0.123908992966605 
1104	 0.124731694693451 
1105	 0.12491516936359 
1106	 0.125516197335079 
1107	 0.125850167838801 
1108	 0.125390205186745 
1109	 0.124546915770045 
1110	 0.124433047681815 
1111	 0.124568947408249 
1112	 0.124623417891824 
1113	 0.12568116673604 
1114	 0.12558122567328 
1115	 0.12345954646354 
1116	 0.122645920229747 
1117	 0.121724083064285 
1118	 0.122435611876356 
1119	 0.127882785518197 
1120	 0.129920868359379 
1121	 0.132613373149739 
1122	 0.129890179201964 
1123	 0.125063571799192 
1124	 0.123089446603272 
1125	 0.11585815599979 
1126	 0.115253953118368 
1127	 0.121417967956032 
1128	 0.119113011677795 
1129	 0.119297851186584 
1130	 0.124857203459697 
1131	 0.124896774993889 
1132	 0.119397267368658 
1133	 0.119991520027866 
1134	 0.123456990894807 
1135	 0.123991050837361 
1136	 0.124695039739 
1137	 0.123885892575228 
1138	 0.120815902586176 
1139	 0.120317412028671 
1140	 0.118640096031664 
1141	 0.119147467071158 
1142	 0.120862281212551 
1143	 0.12031170942336 
1144	 0.120814333105843 
1145	 0.12104220064527 
1146	 0.120698460271496 
1147	 0.120362515104181 
1148	 0.118225443691503 
1149	 0.116983368409429 
1150	 0.116807985894345 
1151	 0.117330163374086 
1152	 0.117422015904407 
1153	 0.11786307325733 
1154	 0.118134183292224 
1155	 0.118488799395621 
1156	 0.118141101410606 
1157	 0.117263857188353 
1158	 0.117254416372551 
1159	 0.116679361839911 
1160	 0.116492629408444 
1161	 0.117484222150071 
1162	 0.118546221004684 
1163	 0.119494258474921 
1164	 0.119362089173631 
1165	 0.118355098583898 
1166	 0.117726440633566 
1167	 0.117265488846265 
1168	 0.117344993918226 
1169	 0.117684542519453 
1170	 0.117313538854544 
1171	 0.117373945597048 
1172	 0.117544690773572 
1173	 0.117669325465766 
1174	 0.11798509127832 
1175	 0.11822824695708 
1176	 0.117747177848059 
1177	 0.117127357123965 
1178	 0.116840189446787 
1179	 0.116646847185519 
1180	 0.117087864711483 
1181	 0.117418436819646 
1182	 0.11669994453668 
1183	 0.116409876052981 
1184	 0.11651345528924 
1185	 0.11614271255855 
1186	 0.116415130363454 
1187	 0.116821157459856 
1188	 0.116336550599703 
1189	 0.115764498695661 
1190	 0.115597652088385 
1191	 0.115797135796451 
1192	 0.115819306400711 
1193	 0.116167768115276 
1194	 0.116247905209732 
1195	 0.115957498237003 
1196	 0.115786032789085 
1197	 0.115811942723065 
1198	 0.11583253156281 
1199	 0.116054564355569 
1200	 0.115987876938311 
1201	 0.115447415084027 
1202	 0.115311493579214 
1203	 0.11529860437184 
1204	 0.115126413228191 
1205	 0.115295439085669 
1206	 0.115428351609943 
1207	 0.115588118718106 
1208	 0.115634814197281 
1209	 0.115257893567623 
1210	 0.115458761107611 
1211	 0.115834284805705 
1212	 0.115561062169867 
1213	 0.115229602917601 
1214	 0.11513137865961 
1215	 0.114869079091168 
1216	 0.114743235039691 
1217	 0.115263998669605 
1218	 0.115718006164709 
1219	 0.115635087683499 
1220	 0.115396944525128 
1221	 0.114973127450424 
1222	 0.114867737277549 
1223	 0.115322002506536 
1224	 0.115285250743317 
1225	 0.115217504854916 
1226	 0.115662197650008 
1227	 0.115674190105391 
1228	 0.11548040296948 
1229	 0.115322562925826 
1230	 0.115082737558508 
1231	 0.11528531488045 
1232	 0.115658157758575 
1233	 0.115488752705521 
1234	 0.114899967725823 
1235	 0.114799597369939 
1236	 0.114670757044148 
1237	 0.114448688339416 
1238	 0.114458047276222 
1239	 0.114816277411133 
1240	 0.114675190731019 
1241	 0.114243643633188 
1242	 0.114565570607249 
1243	 0.114925645371376 
1244	 0.114755695939206 
1245	 0.114680343207743 
1246	 0.114730846797147 
1247	 0.114625814465846 
1248	 0.114369234982484 
1249	 0.114320134976051 
1250	 0.114560259629526 
1251	 0.114390211725666 
1252	 0.114441794363582 
1253	 0.114872924020366 
1254	 0.11461946824759 
1255	 0.114432071048535 
1256	 0.114437684624984 
1257	 0.114491034619179 
1258	 0.114417389403064 
1259	 0.114556878872565 
1260	 0.114515391402987 
1261	 0.11413502614659 
1262	 0.114007372225462 
1263	 0.113841652826229 
1264	 0.114116852820209 
1265	 0.114423635089127 
1266	 0.114544412550142 
1267	 0.114527975898721 
1268	 0.114347186583899 
1269	 0.114397331578526 
1270	 0.114724690225926 
1271	 0.114869326833636 
1272	 0.114349933386653 
1273	 0.113620074706938 
1274	 0.113344014140895 
1275	 0.113398351094692 
1276	 0.113456588302716 
1277	 0.113383459253203 
1278	 0.113454810214565 
1279	 0.113407084532961 
1280	 0.11346723891226 
1281	 0.113485175478062 
1282	 0.113572868329072 
1283	 0.113318812861632 
1284	 0.112661979143221 
1285	 0.112554041606782 
1286	 0.112646626782243 
1287	 0.112715570091696 
1288	 0.113286123148041 
1289	 0.113420527913215 
1290	 0.113304422510087 
1291	 0.112968116363026 
1292	 0.112859392628656 
1293	 0.112683402616781 
1294	 0.112460483698961 
1295	 0.112145690101642 
1296	 0.112323468024457 
1297	 0.112646542105756 
1298	 0.112290902328818 
1299	 0.112054837818242 
1300	 0.112269503012214 
1301	 0.112034647682207 
1302	 0.111593652651733 
1303	 0.111821262757971 
1304	 0.112163408257573 
1305	 0.111832512125878 
1306	 0.111445545335896 
1307	 0.11149217762616 
1308	 0.111661964161941 
1309	 0.111176788786514 
1310	 0.110996784864296 
1311	 0.111653375265143 
1312	 0.111915832893543 
1313	 0.112027974569966 
1314	 0.111705637719966 
1315	 0.111176479492219 
1316	 0.110623121179617 
1317	 0.108756968911163 
1318	 0.108223216984033 
1319	 0.109197403673735 
1320	 0.109521995258185 
1321	 0.110481798332064 
1322	 0.110249623115575 
1323	 0.109890146990264 
1324	 0.110016514344796 
1325	 0.10955520380946 
1326	 0.109537979157689 
1327	 0.110140432349655 
1328	 0.109784963070769 
1329	 0.108681664333588 
1330	 0.107752375166583 
1331	 0.107394025092927 
1332	 0.107645881764432 
1333	 0.107528317094404 
1334	 0.107804109472114 
1335	 0.108403659475895 
1336	 0.108206518274073 
1337	 0.107409201366944 
1338	 0.107334516286922 
1339	 0.107529124812032 
1340	 0.105824775648635 
1341	 0.10532732796708 
1342	 0.108088309426397 
1343	 0.108090427114495 
1344	 0.104892848112665 
1345	 0.103175423323083 
1346	 0.100930920970423 
1347	 9.86048929919475E-02 
1348	 9.61713328593075E-02 
1349	 9.33531705633138E-02 
1350	 9.30036088982453E-02 
1351	 8.87835854126399E-02 
1352	 0.07697644300641 
1353	 6.64088301577468E-02 
1354	 5.24747720072924E-02 
1355	 0.032537721551029 
1356	 1.42324696430015E-02 
1357	 6.28142173236471E-02 
1358	 0.060688597854634 
1359	-0.144887301074076 
1360	-0.323549729803922 
1361	-0.237339531693 
1362	-0.119678406291378 
1363	 3.17456859733014E-02 
1364	 2.29972962966841E-02 
1365	-2.91217212048051E-02 
1366	 0.209048358343882 
1367	 0.424316529089427 
1368	 0.351396920655747 
1369	 0.112515097999997 
1370	 0.160700790525372 
1371	 8.71564261437887E-02 
1372	 6.59855173949901E-02 
1373	 0.228894408693451 
1374	 0.311531783397842 
1375	 0.323317286103627 
1376	 0.118502919718997 
1377	-0.292773071902356 
1378	-0.262414568837623 
1379	-5.49343338121471E-02 
1380	-3.75309978150792E-02 
1381	 0.240056587714527 
1382	 0.433064014861222 
1383	 0.68737431330021 
1384	 0.512079135418278 
1385	 0.143543227440857 
1386	 0.129883397370821 
1387	-0.106304021884284 
1388	-0.11485786476689 
1389	 0.28923799397421 
1390	 0.341709644258578 
1391	-0.288235554377249 
1392	-0.104460438464464 
1393	 0.434343025376885 
1394	 0.494748826781457 
1395	 0.455273794933462 
1396	 0.805708294102292 
1397	 1.07432741924797 
1398	 0.182220822295762 
1399	 0.800147716173843 
1400	 3.22314560244288 
1401	 5.09175321748124 
1402	 27.3911448398369 
1403	 1.32340845826993 
1404	 0.34443845406566 
1405	 0.343160557654386 
1406	 0.393393517346118 
1407	 0.281493277180722 
1408	 0.395774684586221 
1409	 0.430859416792239 
1410	 0.220138620275596 
1411	 8.70030404247035E-02 
1412	 9.38157986962647E-02 
1413	 0.150106013786074 
1414	 0.179874540439856 
1415	 0.140903192089423 
1416	 0.139368290590093 
1417	 0.164877639790895 
1418	 0.153400544034123 
1419	 0.10500768935024 
1420	 6.80075783366885E-02 
1421	 8.60959947533547E-02 
1422	 0.113041918317381 
1423	 8.48051843039658E-02 
1424	 5.14351060729513E-02 
1425	 6.14864712533265E-02 
1426	 6.31126500759343E-02 
1427	 5.19601087441493E-02 
1428	 5.86148269380698E-02 
1429	 7.62902371167831E-02 
1430	 8.55763468419661E-02 
1431	 7.96085508807841E-02 
1432	 8.58034682484997E-02 
1433	 9.87816338689511E-02 
1434	 9.80602036707846E-02 
1435	 8.91108276083066E-02 
1436	 8.68348183695064E-02 
1437	 9.00494120843766E-02 
1438	 8.54874509189252E-02 
1439	 0.072160679135013 
1440	 7.37563297853629E-02 
1441	 9.16073600950574E-02 
1442	 9.97949077023758E-02 
1443	 9.21327071008436E-02 
1444	 0.079106897265032 
1445	 6.98823638294011E-02 
1446	 6.86028851485169E-02 
1447	 6.70622078570697E-02 
1448	 6.57146860175372E-02 
1449	 7.09334957052257E-02 
1450	 7.30221960463649E-02 
1451	 7.02216857835448E-02 
1452	 7.02698709529743E-02 
1453	 7.15053676864531E-02 
1454	 7.14037357174639E-02 
1455	 6.85210867748024E-02 
1456	 6.79068911481493E-02 
1457	 6.92603479902406E-02 
1458	 6.92738475944008E-02 
1459	 6.77944565343935E-02 
1460	 6.79640961674653E-02 
1461	 6.99586140634638E-02 
1462	 0.069497969334208 
1463	 6.68373683195533E-02 
1464	 0.067497127607201 
1465	 6.95194598647706E-02 
1466	 6.99706120452062E-02 
1467	 7.28778458167934E-02 
1468	 7.33915022918443E-02 
1469	 6.88825701582771E-02 
1470	 6.91209094989612E-02 
1471	 7.43054763489664E-02 
1472	 7.31577047472037E-02 
1473	 6.90636729342875E-02 
1474	 6.77592125537035E-02 
1475	 6.34170420590068E-02 
1476	 6.33157961743598E-02 
1477	 6.87469375047198E-02 
1478	 6.99519106468542E-02 
1479	 6.87438879971022E-02 
1480	 0.069484740252406 
1481	 7.04190045034343E-02 
1482	 7.10698592918666E-02 
1483	 7.35265824761934E-02 
1484	 0.073911073531108 
1485	 0.071871705711108 
1486	 7.15226388369622E-02 
1487	 7.19190468078699E-02 
1488	 0.071624811113991 
1489	 7.13896692168587E-02 
1490	 7.15999663864703E-02 
1491	 7.15184583730728E-02 
1492	 7.12605310384811E-02 
1493	 7.11899564204746E-02 
1494	 7.14728196978106E-02 
1495	 7.19765036334893E-02 
1496	 7.19920621353657E-02 
1497	 7.17758764872579E-02 
1498	 7.20268196009253E-02 
1499	 7.20722765843234E-02 
1500	 0.072329292013634 
1501	 7.35331460496827E-02 
1502	 7.38359208192057E-02 
1503	 7.31871830860265E-02 
1504	 7.33755253480827E-02 
1505	 7.38694913683716E-02 
1506	 7.38624301739168E-02 
1507	 7.45097787260924E-02 
1508	 7.53481365104858E-02 
1509	 0.075434828188294 
1510	 7.57493154463137E-02 
1511	 7.63809519327287E-02 
1512	 7.64771374563945E-02 
1513	 7.60500296571175E-02 
1514	 7.62941080857853E-02 
1515	 7.71336152151771E-02 
1516	 7.71025750092163E-02 
1517	 7.67838434434646E-02 
1518	 7.70712341229461E-02 
1519	 0.076971203679204 
1520	 7.66593001817653E-02 
1521	 7.74560601328076E-02 
1522	 7.82424241850229E-02 
1523	 7.80742019038948E-02 
1524	 7.84710669606567E-02 
1525	 7.94702329770008E-02 
1526	 7.92459609764451E-02 
1527	 7.81370290913835E-02 
1528	 7.83744494535189E-02 
1529	 7.91457407635775E-02 
1530	 0.079063216854113 
1531	 0.079219760968923 
1532	 7.96734593238268E-02 
1533	 7.99361527394604E-02 
1534	 8.00987670943328E-02 
1535	 8.02489789050598E-02 
1536	 8.03704570638177E-02 
1537	 8.00814010924793E-02 
1538	 0.079894004015936 
1539	 8.06903901256312E-02 
1540	 8.15844405036068E-02 
1541	 8.14876625367105E-02 
1542	 8.12811240835113E-02 
1543	 8.17157944102393E-02 
1544	 8.19883457795628E-02 
1545	 8.18625591252639E-02 
1546	 8.19345179101142E-02 
1547	 8.22141498512614E-02 
1548	 8.24104719462984E-02 
1549	 8.26323105132982E-02 
1550	 8.30850029219208E-02 
1551	 8.31342250707836E-02 
1552	 8.26958419499898E-02 
1553	 8.24877663184485E-02 
1554	 8.26334523336899E-02 
1555	 8.32180002518443E-02 
1556	 8.38066357257697E-02 
1557	 8.40562684408566E-02 
1558	 8.42741004210818E-02 
1559	 8.41787688880405E-02 
1560	 8.39702574216617E-02 
1561	 8.42022153509928E-02 
1562	 8.46043361479895E-02 
1563	 0.084870115136934 
1564	 0.084517537180322 
1565	 8.40902353554396E-02 
1566	 8.43785667136935E-02 
1567	 8.45654982744124E-02 
1568	 8.46942856054241E-02 
1569	 8.49832646743028E-02 
1570	 8.50345418821905E-02 
1571	 8.51912482965368E-02 
1572	 8.57370920695962E-02 
1573	 8.62507050338863E-02 
1574	 8.59069142009526E-02 
1575	 8.52299862852685E-02 
1576	 0.085232074219057 
1577	 8.55310937852168E-02 
1578	 8.57717634507611E-02 
1579	 8.63627473228308E-02 
1580	 8.67948069768082E-02 
1581	 8.65866927364627E-02 
1582	 0.086930629922806 
1583	 0.087495032033319 
1584	 8.71914269067907E-02 
1585	 8.69712907163815E-02 
1586	 8.73519360330669E-02 
1587	 0.087342441035112 
1588	 8.68224427949592E-02 
1589	 8.70767374294974E-02 
1590	 8.76304322493815E-02 
1591	 8.74345553475179E-02 
1592	 8.75885202207591E-02 
1593	 0.087834283429577 
1594	 8.72101110927639E-02 
1595	 8.71239632743698E-02 
1596	 8.76458581597123E-02 
1597	 8.74414395033336E-02 
1598	 8.70797674252583E-02 
1599	 8.72753053514616E-02 
1600	 8.76022913080755E-02 
1601	 8.77499688622811E-02 
1602	 8.82131612825783E-02 
1603	 8.85035646669899E-02 
1604	 8.80883706639999E-02 
1605	 8.82716103349935E-02 
1606	 8.88023077292428E-02 
1607	 8.82391571302646E-02 
1608	 8.76429812133868E-02 
1609	 8.82726911805407E-02 
1610	 8.87842506286302E-02 
1611	 8.87408272895976E-02 
1612	 8.91514973627256E-02 
1613	 0.088951563797708 
1614	 0.087918332689251 
1615	 8.81833853478999E-02 
1616	 8.89571473551119E-02 
1617	 8.85934011974749E-02 
1618	 8.82489389869055E-02 
1619	 0.08856395539984 
1620	 0.088844117372528 
1621	 8.83832005854065E-02 
1622	 8.82728212226625E-02 
1623	 8.91690473213679E-02 
1624	 0.089260605145816 
1625	 8.90464230342957E-02 
1626	 8.93409931779153E-02 
1627	 8.87624399959986E-02 
1628	 8.83888216080755E-02 
1629	 8.92926686467284E-02 
1630	 8.98118073950206E-02 
1631	 8.91014935610256E-02 
1632	 8.83790701218924E-02 
1633	 8.87389561784198E-02 
1634	 8.95211904565095E-02 
1635	 9.01094206563584E-02 
1636	 9.01179515462723E-02 
1637	 8.94876839342482E-02 
1638	 8.91794986293254E-02 
1639	 8.91222041224069E-02 
1640	 8.89238533413572E-02 
1641	 0.0889953260661 
1642	 0.088975183312209 
1643	 0.089008567531984 
1644	 0.089513371597095 
1645	 8.95062564136189E-02 
1646	 8.89835979963614E-02 
1647	 8.85271902544174E-02 
1648	 8.84032115479608E-02 
1649	 8.88507538491314E-02 
1650	 8.91117116536276E-02 
1651	 8.92247819815854E-02 
1652	 8.95569262308729E-02 
1653	 0.089185818584622 
1654	 8.90903449067831E-02 
1655	 8.93021285517109E-02 
1656	 8.93578761840687E-02 
1657	 0.089403746348048 
1658	 8.94360330752843E-02 
1659	 8.91509539454905E-02 
1660	 8.94505736724872E-02 
1661	 9.05218795929026E-02 
1662	 9.03733943155953E-02 
1663	 8.95563731555519E-02 
1664	 8.98054515726409E-02 
1665	 9.01000163247425E-02 
1666	 8.97607141018103E-02 
1667	 8.97519323810688E-02 
1668	 9.03362690994645E-02 
1669	 9.01569776576392E-02 
1670	 8.98645208229859E-02 
1671	 0.090202413388176 
1672	 8.95966317108701E-02 
1673	 8.87636275814539E-02 
1674	 8.90951661722081E-02 
1675	 8.90579117693959E-02 
1676	 8.91184111146343E-02 
1677	 8.96554057497793E-02 
1678	 8.93715320315133E-02 
1679	 8.89389135629471E-02 
1680	 8.89296506765403E-02 
1681	 0.088969340016012 
1682	 8.90927585963679E-02 
1683	 8.92166278900693E-02 
1684	 8.99611088253024E-02 
1685	 9.02355848129642E-02 
1686	 8.90721127266789E-02 
1687	 8.85236128238876E-02 
1688	 8.87016412589525E-02 
1689	 8.86445289091906E-02 
1690	 8.88913280406149E-02 
1691	 8.97950393881429E-02 
1692	 9.00781162041273E-02 
1693	 8.95336844902632E-02 
1694	 8.96695205293973E-02 
1695	 8.99570130841688E-02 
1696	 8.96454830323774E-02 
1697	 8.91504134844745E-02 
1698	 8.95249044048588E-02 
1699	 9.03816198431839E-02 
1700	 8.98118583502758E-02 
1701	 8.90412577486851E-02 
1702	 8.93864388565612E-02 
1703	 8.93122269702965E-02 
1704	 8.92889473599588E-02 
1705	 8.98157121778057E-02 
1706	 8.89116790332208E-02 
1707	 8.78961487079497E-02 
1708	 8.84591632115492E-02 
1709	 8.88244890953793E-02 
1710	 8.88621456821073E-02 
1711	 8.86014064225942E-02 
1712	 8.77036140101037E-02 
1713	 8.87761129215693E-02 
1714	 8.85310352154397E-02 
1715	 0.087630866897616 
1716	 8.79960674427763E-02 
1717	 8.74072505326396E-02 
1718	 0.087547123408431 
1719	 8.86581106083755E-02 
1720	 8.86883884791644E-02 
1721	 8.79399014226962E-02 
1722	 8.82117768978355E-02 
1723	 0.088533553340641 
1724	 8.74306786905946E-02 
1725	 8.73905008423721E-02 
1726	 8.74674236518264E-02 
1727	 8.62449095147961E-02 
1728	 8.64163977846009E-02 
1729	 8.65995508627585E-02 
1730	 0.085750582134784 
1731	 8.64915426429629E-02 
1732	 8.74589223284697E-02 
1733	 8.68592744434847E-02 
1734	 8.68959628753223E-02 
1735	 8.71282364575431E-02 
1736	 8.65346003298665E-02 
1737	 8.67299029059769E-02 
1738	 8.65437506769539E-02 
1739	 8.56124174061925E-02 
1740	 0.085698300790748 
1741	 8.60891474513405E-02 
1742	 8.62892281181933E-02 
1743	 8.67737048283528E-02 
1744	 8.67488390545901E-02 
1745	 8.59680228224534E-02 
1746	 8.65134821618296E-02 
1747	 8.66691036111468E-02 
1748	 8.68506616413727E-02 
1749	 8.61587816602493E-02 
1750	 8.40699107577135E-02 
1751	 8.37492669689782E-02 
1752	 8.40584472651252E-02 
1753	 8.43200227960081E-02 
1754	 8.59812505332475E-02 
1755	 8.62947796269319E-02 
1756	 8.50637843265212E-02 
1757	 8.46574186738743E-02 
1758	 8.51933071468821E-02 
1759	 8.50683243494626E-02 
1760	 8.43882092943021E-02 
1761	 8.39939710785775E-02 
1762	 8.44954315427964E-02 
1763	 8.45935175731553E-02 
1764	 8.36298467007914E-02 
1765	 8.35680205256149E-02 
1766	 8.31282383787517E-02 
1767	 8.24673549849419E-02 
1768	 0.084372991112224 
1769	 8.64491689712587E-02 
1770	 8.63120662755113E-02 
1771	 8.43620547643224E-02 
1772	 8.30394766119503E-02 
1773	 8.28337622107717E-02 
1774	 8.15403697348046E-02 
1775	 8.43997814977658E-02 
1776	 8.57054072724422E-02 
1777	 8.49785853048763E-02 
1778	 0.085128647013154 
1779	 8.53869274310958E-02 
1780	 8.51527771195698E-02 
1781	 8.53805887625008E-02 
1782	 8.38182624790803E-02 
1783	 8.00343103236093E-02 
1784	 8.06455378302296E-02 
1785	 8.21476344592113E-02 
1786	 8.29008435583009E-02 
1787	 0.088121376971415 
1788	 8.87609270408118E-02 
1789	 8.46533199711335E-02 
1790	 8.55918054167729E-02 
1791	 8.41304078568411E-02 
1792	 8.47271681345563E-02 
1793	 8.15792342589891E-02 
1794	 7.77325140173386E-02 
1795	 7.86857344685872E-02 
1796	 8.54226634293088E-02 
1797	 9.17430431060526E-02 
1798	 8.51322517651077E-02 
1799	 8.03392731075502E-02 
1800	 7.53529280966352E-02 
1801	 7.20784869235327E-02 
1802	 9.76629614602017E-02 
1803	 0.106160291995073 
1804	 0.082267273394336 
1805	 8.08441558256038E-02 
1806	 9.15396988118441E-02 
1807	 0.105343248270295 
1808	 0.162848911077238 
1809	 0.182497516004066 
1810	 0.127668226287461 
1811	 0.134959245678224 
1812	 0.160158904064535 
1813	 0.156532938156383 
1814	 0.243676378614366 
1815	 0.193461071755594 
1816	-0.471144422586147 
1817	-0.325628374918897 
1818	-1.25540819208502 
1819	-0.504395573303475 
1820	-1.71797331196178E-02 
1821	-0.787777549606646 
1822	-0.86317291885242 
1823	-0.53671646762304 
1824	-0.213403770469238 
1825	 0.381829322531918 
1826	 0.529725091428813 
1827	 0.332284938653635 
1828	 0.285669151809739 
1829	-9.87623510747412E-02 
1830	 1.05685396181271 
1831	-0.911218087361129 
1832	-1.0381158180364 
1833	-3.93828360064402 
1834	-16.5245376156167 
1835	-1.38646808505485 
1836	-1.59802475924587 
1837	 1.66278175953594 
1838	 0.861508692115604 
1839	-6.07554047193633E-02 
1840	-0.295670699027507 
1841	-1.74707448963907 
1842	 8.40712675020484E-02 
1843	-0.233187575999277 
1844	-0.480530007423866 
1845	-0.490775386120487 
1846	-7.63958996854863E-02 
1847	-0.163360828187035 
1848	-1.26443003986766 
1849	 3.73190028823512 
1850	 7.46566166564258 
1851	 21.0224605898239 
1852	 85.6679562009135 
1853	 30.4586357474676 
1854	 7.01930838466965 
1855	 1.66284849027553 
1856	 1.66973730675712 
1857	 3.25321078004788 
1858	 4.25216198557583 
1859	 9.28284123704672 
1860	-7.2647792710988 
1861	-3.17292332293386 
1862	-3.40440248673222 
1863	-5.28378281057846 
1864	-3.21535890182771 
1865	-2.65442358654712 
1866	-0.8919901998514 
1867	-2.17660559392091 
1868	-3.43749263958859 
1869	-1.5985478695237 
1870	 0.139986949958084 
1871	 1.02880296823753 
1872	 1.22233421702051 
1873	 1.38345034144025 
1874	 1.13100730218728 
1875	 0.953534373917317 
1876	 0.987977618255804 
1877	 0.792879368427071 
1878	 0.91394679121491 
1879	 9.32533032150566 
1880	-4.92648078470494 
1881	-1.60047283311808 
1882	-0.60024685366422 
1883	-0.491044050462869 
1884	-1.51786516720402 
1885	 1.57008070596341 
1886	 1.1106378485441 
1887	 3.07383505015553 
1888	 9.78703809367594 
1889	 11.8270968682061 
1890	 5.05840102621268 
1891	 7.16293388405009 
1892	 3.80591923299123 
1893	 18.8334254471153 
1894	-10.6116611380416 
1895	-8.13710358945626 
1896	-64.2682607045226 
1897	 3.95356881484649 
1898	 2.21251854281416 
1899	 2.61379991379797 
1900	 2.36419322785474 
1901	 1.37271348993789 
1902	 1.39840914505987 
1903	 1.65579214464176 
1904	 2.65021834792368 
1905	-10.6801060934635 
1906	-3.67934947330856 
1907	-5.49195208255444 
1908	-17.1835995032323 
1909	 4.86329338694815 
1910	 0.165241785665126 
1911	-0.519963860090931 
1912	-0.273720025877536 
1913	-0.353173545624036 
1914	-0.469267455962792 
1915	-0.69781232126517 
1916	-2.28599872076433 
1917	 0.27992886657714 
1918	 8.02960775509482E-02 
1919	 1.06806284592155E-02 
1920	 7.50803660033666E-02 
1921	-0.251706560885765 
1922	-2.09661781617134 
1923	-12.3948169180303 
1924	-1.84632102584379 
1925	-1.9797615551613 
1926	-1.72278310183406 
1927	-1.26979993102703 
1928	-1.49863075545493 
1929	-2.02799798693323 
1930	-1.1324026162088 
1931	-0.662759861822438 
1932	-0.556601370192433 
1933	-0.100797094146371 
1934	 0.220216548898903 
1935	-0.32830478340621 
1936	-0.784419765666085 
1937	-0.669950077472794 
1938	-0.607251033359507 
1939	-0.580453728162687 
1940	-0.382448411748312 
1941	-0.109900767180311 
1942	-0.102104079418839 
1943	-0.1063206342125 
1944	 2.49707782448285E-02 
1945	-0.004767420344228 
1946	-1.55023588414307E-02 
1947	 6.70284839749263E-02 
1948	 6.04638090901732E-02 
1949	 0.094894227909152 
1950	 0.149859878429234 
1951	 9.03078717794634E-02 
1952	 8.17475648809344E-02 
1953	 0.100253152367364 
1954	 0.120202802147384 
1955	 9.33220964358244E-02 
1956	 6.77280697829408E-02 
1957	 2.22956111088389E-02 
1958	 4.35065524794347E-02 
1959	 4.40964633452793E-02 
1960	 3.39281626524652E-02 
1961	 4.79876729448683E-02 
1962	 2.38001110790361E-02 
1963	 1.43015506258125E-02 
1964	 3.02430741381818E-02 
1965	 2.61573428551751E-02 
1966	 2.41468833306996E-02 
1967	 2.33910439757821E-02 
1968	 2.72156777356143E-02 
1969	 2.55230123637486E-02 
1970	 2.56658466509048E-02 
1971	 3.33700437140704E-02 
1972	 3.98249059900512E-02 
1973	 3.79731260181549E-02 
1974	 4.07611577199382E-02 
1975	 4.40958275282738E-02 
1976	 3.92883898319837E-02 
1977	 3.57639271546504E-02 
1978	 3.50932555459804E-02 
1979	 0.034379134741971 
1980	 3.25114881851367E-02 
1981	 3.20368789117468E-02 
1982	 3.40855602228575E-02 
1983	 3.64382129377314E-02 
1984	 3.61644248523948E-02 
1985	 3.73384752139851E-02 
1986	 3.86952190169001E-02 
1987	 3.70555897656942E-02 
1988	 3.79079807768576E-02 
1989	 3.77571840874202E-02 
1990	 3.59647895066209E-02 
1991	 0.036807048029825 
1992	 3.57637219199825E-02 
1993	 3.58771108288316E-02 
1994	 3.74392547729603E-02 
1995	 4.22986521814649E-02 
1996	 4.48061981329449E-02 
1997	 4.67780319910655E-02 
1998	 4.56228862769534E-02 
1999	 4.06907122292495E-02 
2000	 3.69442067520039E-02 
2001	 3.43780738237044E-02 
2002	 3.26542024287705E-02 
2003	 2.97629036594124E-02 
2004	 2.67569652237451E-02 
2005	 2.27976585292318E-02 
2006	 1.25833583171805E-02 
2007	 9.71097220083469E-03 
2008	 0.020256380454925 
2009	 2.43975911239711E-02 
2010	 3.02944468218925E-02 
2011	 0.034626204557007 
2012	 4.12750980306322E-02 
2013	 3.20936223513364E-02 
2014	 3.02810920020701E-02 
2015	 3.77111318268586E-02 
2016	 0.040179710945883 
2017	 0.043385649048352 
2018	 4.93987403046607E-02 
2019	 4.99599355090056E-02 
2020	 0.046603771614626 
2021	 4.34197305608543E-02 
2022	 4.05228773368383E-02 
2023	 3.88593212812823E-02 
2024	 3.73698904020328E-02 
2025	 3.72976249927782E-02 
2026	 3.93404838280874E-02 
2027	 4.24790214435707E-02 
2028	 4.25265830770355E-02 
2029	 4.48318615383872E-02 
2030	 4.57279347314391E-02 
2031	 4.37338037489405E-02 
2032	 4.14024281859782E-02 
2033	 4.07238391881248E-02 
2034	 4.15713590752546E-02 
2035	 0.041177512283654 
2036	 4.14240260958086E-02 
2037	 4.31631718066144E-02 
2038	 0.042163409681796 
2039	 4.21310620433845E-02 
2040	 4.31067854969646E-02 
2041	 4.39925520862719E-02 
2042	 4.51675952692942E-02 
2043	 4.58378319731343E-02 
2044	 0.046763927487103 
2045	 4.62001929370154E-02 
2046	 4.63044229318117E-02 
2047	 4.61417715887701E-02 
2048	 4.70785445352783E-02 
2049	 4.75406437049753E-02 
2050	 4.56207328061884E-02 
2051	 4.38732830804779E-02 
2052	 4.29272921519934E-02 
2053	 4.27794661824782E-02 
2054	 4.51537496186859E-02 
2055	 4.78626740651777E-02 
2056	 4.86733476308019E-02 
2057	 4.79840468063481E-02 
2058	 4.76725988100472E-02 
2059	 4.57139937990998E-02 
2060	 4.54828656420193E-02 
2061	 4.59693273992432E-02 
2062	 4.70937515241633E-02 
2063	 4.78135841019741E-02 
2064	 0.048603144976956 
2065	 4.91852224239771E-02 
2066	 5.10597343680898E-02 
2067	 5.14886651082317E-02 
2068	 5.00096687184274E-02 
2069	 4.79621539848287E-02 
2070	 4.48234333862437E-02 
2071	 4.48478923374686E-02 
2072	 4.59432525589107E-02 
2073	 0.046642450166064 
2074	 4.85721356305646E-02 
2075	 4.94499065771056E-02 
2076	 4.92757485558107E-02 
2077	 5.01574739920783E-02 
2078	 5.07196002822969E-02 
2079	 5.21810675713053E-02 
2080	 5.46026252639428E-02 
2081	 5.77032455264205E-02 
2082	 5.78075307714919E-02 
2083	 5.64962326020646E-02 
2084	 5.76009052919825E-02 
2085	 5.68598764953658E-02 
2086	 5.52483739068451E-02 
2087	 5.72808689363409E-02 
2088	 5.71847818631023E-02 
2089	 0.055773877843049 
2090	 5.65530830475837E-02 
2091	 5.68859167570619E-02 
2092	 5.67993336541028E-02 
2093	 5.56717969725508E-02 
2094	 5.51731368186285E-02 
2095	 5.53616880190542E-02 
2096	 5.49448955586687E-02 
2097	 5.36696997126956E-02 
2098	 0.053286299390292 
2099	 5.34663271678908E-02 
2100	 5.22499034981873E-02 
2101	 0.052509998585595 
2102	 5.46005623379122E-02 
2103	 5.70296634762659E-02 
2104	 5.85067620978419E-02 
2105	 5.91390586439428E-02 
2106	 0.059155546168987 
2107	 0.057317814441492 
2108	 5.82254204078322E-02 
2109	 5.97219054588255E-02 
2110	 5.98618798403666E-02 
2111	 6.10526594283244E-02 
2112	 6.11964454485913E-02 
2113	 6.08455820738405E-02 
2114	 5.95522784798008E-02 
2115	 5.93197390058004E-02 
2116	 5.98507272366331E-02 
2117	 5.83120806236254E-02 
2118	 5.57569934559252E-02 
2119	 5.48435959050499E-02 
2120	 5.27319333230025E-02 
2121	 0.051146780132071 
2122	 5.53031795775785E-02 
2123	 5.75692190003763E-02 
2124	 0.058851951093373 
2125	 6.12711826283685E-02 
2126	 5.85666431232603E-02 
2127	 5.51031798474122E-02 
2128	 5.44888145385218E-02 
2129	 5.29583849650902E-02 
2130	 5.46083449680422E-02 
2131	 5.69807170215337E-02 
2132	 5.67897563741286E-02 
2133	 5.85753483752267E-02 
2134	 5.95406515607047E-02 
2135	 6.03211324364345E-02 
2136	 6.00921956560405E-02 
2137	 5.91801292720936E-02 
2138	 5.86608185341267E-02 
2139	 5.72282685913798E-02 
2140	 5.69301273737542E-02 
2141	 0.057968429740696 
2142	 5.76281869956943E-02 
2143	 5.61484014873382E-02 
2144	 5.61745509138591E-02 
2145	 5.66135790080853E-02 
2146	 5.63665347882639E-02 
2147	 0.055552256335633 
2148	 5.41120730604282E-02 
2149	 5.26429851610409E-02 
2150	 0.052613764505886 
2151	 5.38214153016347E-02 
2152	 5.50595912234271E-02 
2153	 5.59348834379364E-02 
2154	 5.71117590585746E-02 
2155	 6.05054258830283E-02 
2156	 6.27902447275408E-02 
2157	 6.32984274214472E-02 
2158	 0.062541986406087 
2159	 6.19981370465547E-02 
2160	 5.99042724835593E-02 
2161	 5.87256017356833E-02 
2162	 5.77172086710195E-02 
2163	 5.76880873819326E-02 
2164	 5.80323240133559E-02 
2165	 5.73879874484717E-02 
2166	 0.056433131426008 
2167	 5.65609895190439E-02 
2168	 5.72236641784271E-02 
2169	 5.76329273776485E-02 
2170	 5.87692297290859E-02 
2171	 6.02132303061901E-02 
2172	 0.06096452626376 
2173	 6.15827763208427E-02 
2174	 6.38208535475825E-02 
2175	 6.70553705308808E-02 
2176	 6.76211779129964E-02 
2177	 6.41661260690175E-02 
2178	 6.12805700078007E-02 
2179	 5.88622063962263E-02 
2180	 5.76301086343865E-02 
2181	 5.71976886061103E-02 
2182	 5.74349919825276E-02 
2183	 5.84976064057386E-02 
2184	 6.00071886339787E-02 
2185	 6.27975480183575E-02 
2186	 6.32582146757828E-02 
2187	 6.15974202053698E-02 
2188	 6.12376978995541E-02 
2189	 5.94081476813769E-02 
2190	 5.84821958485622E-02 
2191	 5.88335894487772E-02 
2192	 5.98059858421189E-02 
2193	 6.21170979033666E-02 
2194	 6.29775184306352E-02 
2195	 6.42458576153781E-02 
2196	 6.39154939304131E-02 
2197	 5.95578356784963E-02 
2198	 5.94638479326221E-02 
2199	 6.23198151303217E-02 
2200	 6.35190876421261E-02 
2201	 6.40008531349692E-02 
2202	 6.29862775680782E-02 
2203	 6.02132929571256E-02 
2204	 5.97157431226113E-02 
2205	 6.26972671416107E-02 
2206	 6.40077995993196E-02 
2207	 6.46556111304718E-02 
2208	 6.34367701302783E-02 
2209	 5.89551741006776E-02 
2210	 5.79158351293975E-02 
2211	 5.68618425766171E-02 
2212	 5.54891011043939E-02 
2213	 5.58523039490354E-02 
2214	 5.36043267297957E-02 
2215	 5.35377689499249E-02 
2216	 5.66059826960271E-02 
2217	 5.91049451717027E-02 
2218	 6.53674714721579E-02 
2219	 6.64772189361449E-02 
2220	 0.064526045526136 
2221	 6.34580945935928E-02 
2222	 5.91607125518227E-02 
2223	 5.91739779142367E-02 
2224	 6.38856251861717E-02 
2225	 6.26062980904616E-02 
2226	 5.91232780733251E-02 
2227	 5.70203580314567E-02 
2228	 5.04750350020766E-02 
2229	 4.79633412349355E-02 
2230	 4.94970743586067E-02 
2231	 5.12646437838424E-02 
2232	 5.42563281319576E-02 
2233	 5.73771799892818E-02 
2234	 6.35269813571221E-02 
2235	 6.52475820543938E-02 
2236	 6.67845968073268E-02 
2237	 6.81289662883952E-02 
2238	 6.64770376300368E-02 
2239	 6.57340579560174E-02 
2240	 6.31756379375185E-02 
2241	 5.82786150132278E-02 
2242	 5.76473081342181E-02 
2243	 5.82498415890199E-02 
2244	 5.65898655454292E-02 
2245	 5.83337710160679E-02 
2246	 6.12014862693417E-02 
2247	 5.74264604561335E-02 
2248	 5.56296574755881E-02 
2249	 5.72837750474345E-02 
2250	 0.052363835928277 
2251	 4.97126760422358E-02 
2252	 0.050151535178887 
2253	 4.50970079854786E-02 
2254	 4.46261486028543E-02 
2255	 4.78627111310398E-02 
2256	 4.36416941755525E-02 
2257	 4.07441407867955E-02 
2258	 4.07117672867978E-02 
2259	 3.79870579074987E-02 
2260	 3.76843779592321E-02 
2261	 4.27419842064555E-02 
2262	 4.32178854034179E-02 
2263	 4.06292576281822E-02 
2264	 4.15812097173484E-02 
2265	 4.37295544302928E-02 
2266	 4.50113013713146E-02 
2267	 4.54081009879959E-02 
2268	 4.78525816595541E-02 
2269	 5.31218188981437E-02 
2270	 5.31945652743233E-02 
2271	 5.42860430907589E-02 
2272	 5.48161659162346E-02 
2273	 4.84508190823274E-02 
2274	 4.62384035722691E-02 
2275	 4.65412608109309E-02 
2276	 4.57941634098676E-02 
2277	 4.67342424813133E-02 
2278	 4.48695811308193E-02 
2279	 4.06024759281325E-02 
2280	 4.01450597698386E-02 
2281	 3.83535457373629E-02 
2282	 4.01714881027192E-02 
2283	 4.37755351071506E-02 
2284	 4.53205881060819E-02 
2285	 4.84882059969901E-02 
2286	 4.74134067113977E-02 
2287	 4.91069103699169E-02 
2288	 5.44292204313045E-02 
2289	 5.21695036703198E-02 
2290	 5.24499105398027E-02 
2291	 5.69188056865404E-02 
2292	 5.99551443987896E-02 
2293	 6.58068043961623E-02 
2294	 6.90583725139016E-02 
2295	 6.64791975911487E-02 
2296	 0.062703448603359 
2297	 5.44968597314622E-02 
2298	 4.75365790172684E-02 
2299	 4.65105563853759E-02 
2300	 4.72886170864421E-02 
2301	 5.19472380486367E-02 
2302	 5.83789282739854E-02 
2303	 6.31357370377467E-02 
2304	 5.90640361243917E-02 
2305	 5.66250771585465E-02 
2306	 5.73100353439889E-02 
2307	 4.40758065355907E-02 
2308	 4.09392257468864E-02 
2309	 4.76635569861135E-02 
2310	 0.040032795229572 
2311	 3.89439127897442E-02 
2312	 0.04651005296905 
2313	 4.29796804004949E-02 
2314	 3.93737406806603E-02 
2315	 0.038499632419769 
2316	 3.75325142144787E-02 
2317	 4.31324798017671E-02 
2318	 5.15346239108602E-02 
2319	 6.38514550291178E-02 
2320	 0.060617467254415 
2321	 4.16561615345185E-02 
2322	 3.36451689104449E-02 
2323	 0.030038251795653 
2324	 3.02570607341774E-02 
2325	 4.09520667394656E-02 
2326	 4.27029020605613E-02 
2327	 4.34911805735606E-02 
2328	 5.00816660951336E-02 
2329	 4.86470544792974E-02 
2330	 5.21097750053914E-02 
2331	 4.12801131750541E-02 
2332	 2.27146635956953E-02 
2333	 1.28370096406007E-02 
2334	 2.87008816442936E-03 
2335	 7.20008345637523E-03 
2336	 2.16521075590608E-02 
2337	 3.43965035426331E-02 
2338	 3.55512430244724E-02 
2339	 3.03466029228009E-02 
2340	 1.68525710949843E-02 
2341	 2.27222952960858E-04 
2342	 7.07356798613548E-03 
2343	 9.95053172152471E-03 
2344	-5.80946113129487E-03 
2345	-1.30000541276733E-02 
2346	-2.95695899089931E-02 
2347	-0.044161140056808 
2348	-3.40100125544887E-02 
2349	-3.22945853822896E-02 
2350	-3.28800127603552E-02 
2351	-1.66178286357175E-02 
2352	-9.54691691590582E-03 
2353	-1.05734815861373E-02 
2354	-1.71305336832052E-03 
2355	 9.80948442724471E-03 
2356	 7.26177696725231E-03 
2357	 1.40062229773242E-02 
2358	 4.41333682349917E-02 
2359	 4.51207825353889E-02 
2360	 3.06572691530976E-02 
2361	 2.11409691536747E-02 
2362	 1.45439798136722E-02 
2363	 8.75707364542257E-03 
2364	 1.00582830551476E-02 
2365	 0.025428204662198 
2366	 1.21893411224142E-02 
2367	 3.18422948132329E-02 
2368	 7.39465319177045E-02 
2369	 8.69306859849455E-02 
2370	 0.100276860898554 
2371	 7.80058922161921E-02 
2372	 2.63299883119098E-02 
2373	-0.001994974094387 
2374	-6.10819011485201E-03 
2375	-9.31744074816921E-03 
2376	-9.65031717782054E-03 
2377	-7.14109071656953E-03 
2378	-1.47499594769275E-02 
2379	-5.90098587335632E-02 
2380	-8.09075217553723E-02 
2381	-4.28765032553323E-02 
2382	-4.85806199519154E-02 
2383	-4.73731262392445E-02 
2384	-9.56362514029939E-02 
2385	-0.18039845050231 
2386	-0.179466468227124 
2387	-0.159407366476279 
2388	-9.88788419012295E-02 
2389	-8.99874028959293E-02 
2390	-0.126701531436625 
2391	-8.12604752149347E-02 
2392	-1.76258469406875E-02 
2393	 2.23852690587913E-03 
2394	 3.33145122488302E-02 
2395	 2.00824736283991E-02 
2396	-4.71494434835839E-02 
2397	-4.54066067106328E-02 
2398	-4.26798724933602E-02 
2399	-7.77709056005099E-02 
2400	-4.27151293382521E-02 
2401	-4.49614041507864E-02 
2402	-8.41649996359341E-02 
2403	-0.10510897402469 
2404	-0.219692787280474 
2405	-0.309584930966137 
2406	-0.287106521920541 
2407	-0.292097246235602 
2408	-0.324168153885003 
2409	-0.398530801969261 
2410	-0.51589914436642 
2411	-0.589270817756153 
2412	-0.5256322546695 
2413	-0.400318186672395 
2414	-0.452235577001961 
2415	-0.663704138072606 
2416	-0.759990043594281 
2417	-0.705628552689252 
2418	-0.604630221760772 
2419	-0.304884740914214 
2420	-0.196311037807201 
2421	-0.168192483583197 
2422	-8.95478877612922E-02 
2423	-0.134033956666726 
2424	-0.229213503542901 
2425	-0.459123654298911 
2426	-0.743010338003463 
2427	-0.804203377635159 
2428	-0.738278271569375 
2429	-0.428591210147204 
2430	-0.415508155205576 
2431	-0.380143782892439 
2432	-0.33566717362052 
2433	-0.64475386453628 
2434	-0.729235386711516 
2435	-0.759409859865479 
2436	-0.805445960316137 
2437	-0.534151918434572 
2438	-0.362152663084973 
2439	-0.457735436764397 
2440	-0.266657132760956 
2441	-0.150146648596381 
2442	-0.281099568287702 
2443	-0.323146692646993 
2444	-0.376127439876644 
2445	-0.755118246030541 
2446	-1.09439347677894 
2447	-0.75035984295988 
2448	-0.756990567911025 
2449	-0.610065585328842 
2450	-0.718524361130149 
2451	-2.9613054323185 
2452	 40.4741792078729 
2453	-2.25401201786278 
2454	-1.32036129746997 
2455	-1.62161369828317 
2456	-2.87588780541883 
2457	 15.6290162347797 
2458	 14.5822189093669 
2459	 9.107755915227 
2460	 29.3720083517605 
2461	-36.4242471302009 
2462	-22.5605376791509 
2463	-4.49052773135062 
2464	-2.2256988240269 
2465	-1.10756055673445 
2466	-1.32007158383551 
2467	-9.01929271961481 
2468	-36.2957565237232 
2469	-2.11603350488392 
2470	-1.70579194295749 
2471	-1.6438862509018 
2472	-0.343559354888655 
2473	 7.30451347457323E-02 
2474	-0.462925323355752 
2475	-2.16097294951848 
2476	-1.39633097283437 
2477	-1.16420462275239 
2478	 0.696328491437138 
2479	-0.327628433919285 
2480	-0.749880978038453 
2481	-1.0816367689582 
2482	-2.0140937255225 
2483	 4.11828502211301 
2484	 3.19433180891407 
2485	 5.35495738847929 
2486	 3.71664503777916 
2487	 4.32646089033566 
2488	 23.4835165091467 
2489	 14.916566914335 
2490	 60.7082671116891 
2491	-3.21187652149005 
2492	-2.88922572214317 
2493	-2.67018637741846 
2494	-1.02677259336332 
2495	-1.35011457312922 
2496	-4.25036862550538E-02 
2497	 1.37436008935781 
2498	-3.11896291611216 
2499	-0.604513344437361 
2500	 0.818735704136619 
