Wavelength	rt0714yellow200005.asd
350	 0.071175369984362 
351	 6.96004309256575E-02 
352	 6.91118086323766E-02 
353	 6.93521216101851E-02 
354	 0.069637895727038 
355	 6.98368371994193E-02 
356	 6.97228653914325E-02 
357	 6.97646881935362E-02 
358	 7.02153999745732E-02 
359	 0.069430114409365 
360	 0.068987943620744 
361	 6.90821841049637E-02 
362	 6.89165051010303E-02 
363	 6.85982622809151E-02 
364	 6.88570254916398E-02 
365	 6.93982925515186E-02 
366	 0.068275062909621 
367	 6.82817541744533E-02 
368	 6.88948297573109E-02 
369	 6.90122730154304E-02 
370	 6.88708899536103E-02 
371	 6.85473023088652E-02 
372	 6.83883463056456E-02 
373	 6.87454560889267E-02 
374	 0.068667832352455 
375	 6.87848076592009E-02 
376	 0.069181107256236 
377	 6.90024265114717E-02 
378	 6.91667951991461E-02 
379	 6.91738925762911E-02 
380	 6.87824303338427E-02 
381	 0.069613912629799 
382	 7.02534771423142E-02 
383	 7.04535523597241E-02 
384	 7.05235622979576E-02 
385	 0.070168822691967 
386	 7.01123778004603E-02 
387	 7.06135392327273E-02 
388	 7.13044075650374E-02 
389	 7.14320653681177E-02 
390	 7.12792445837994E-02 
391	 7.13811572032559E-02 
392	 7.24537613323355E-02 
393	 7.24015628450297E-02 
394	 7.20064641755501E-02 
395	 7.26600549022017E-02 
396	 7.27748837474555E-02 
397	 7.26511821187275E-02 
398	 7.25233466974524E-02 
399	 7.24615163325213E-02 
400	 7.25510762908974E-02 
401	 7.29687950513061E-02 
402	 0.073595300731111 
403	 7.36309292349195E-02 
404	 7.36844569667355E-02 
405	 0.073799662547133 
406	 7.38923572089843E-02 
407	 7.44324258557037E-02 
408	 7.47197777146858E-02 
409	 7.46794992220183E-02 
410	 7.48853320548968E-02 
411	 7.49986125328342E-02 
412	 7.50166119654115E-02 
413	 7.50751258036383E-02 
414	 7.55158014225527E-02 
415	 0.075988701854588 
416	 7.62679013565282E-02 
417	 0.076283647076092 
418	 7.65001821526521E-02 
419	 7.68764485673715E-02 
420	 7.72441851156193E-02 
421	 7.73633938708789E-02 
422	 7.76582938445645E-02 
423	 0.078128624753917 
424	 7.86368690105391E-02 
425	 7.89461510256181E-02 
426	 7.91525975464287E-02 
427	 0.07949730671222 
428	 8.01914194735072E-02 
429	 8.07524275562525E-02 
430	 0.081151148402058 
431	 8.15115140001318E-02 
432	 8.20738275468733E-02 
433	 8.24683682710773E-02 
434	 8.28136773630281E-02 
435	 8.32580523352197E-02 
436	 8.36997901948381E-02 
437	 0.084163140536799 
438	 8.46885392734457E-02 
439	 8.53018866035517E-02 
440	 8.58804480896844E-02 
441	 8.62584176526914E-02 
442	 8.64801601844746E-02 
443	 8.68902390668056E-02 
444	 8.73740805969735E-02 
445	 8.77823145528342E-02 
446	 8.80512419144047E-02 
447	 8.85115577057145E-02 
448	 8.88716943087664E-02 
449	 8.91094586012048E-02 
450	 8.94067126029416E-02 
451	 8.97255714599719E-02 
452	 8.99765572582001E-02 
453	 9.01794446244953E-02 
454	 0.090614825839326 
455	 9.08141573780972E-02 
456	 0.090904233769863 
457	 9.11580951351913E-02 
458	 9.13567359697751E-02 
459	 9.15252446877738E-02 
460	 9.17070397572179E-02 
461	 9.19414095851897E-02 
462	 9.19905132886347E-02 
463	 9.20510620228616E-02 
464	 9.22971423882598E-02 
465	 9.26156611300622E-02 
466	 9.28345055414588E-02 
467	 9.29109052705772E-02 
468	 9.29341761895031E-02 
469	 9.33464092516754E-02 
470	 0.093591557029593 
471	 9.35414131455038E-02 
472	 9.37539388630895E-02 
473	 9.39601414239306E-02 
474	 9.42358457444065E-02 
475	 9.46304041235679E-02 
476	 9.48100427523607E-02 
477	 9.49715599305696E-02 
478	 9.52211129097288E-02 
479	 9.55690590644035E-02 
480	 9.57238213957093E-02 
481	 9.59847257582359E-02 
482	 9.64739339066681E-02 
483	 0.096790915737603 
484	 9.71743167678806E-02 
485	 9.75331421811101E-02 
486	 9.77407763728712E-02 
487	 9.81010287310247E-02 
488	 9.85238582326102E-02 
489	 9.89394925833281E-02 
490	 9.93301570656625E-02 
491	 9.98933202609593E-02 
492	 0.100417899131583 
493	 0.100758382384448 
494	 0.101167552819884 
495	 0.101599905755239 
496	 0.102076216915283 
497	 0.10264035489597 
498	 0.103292607521552 
499	 0.103771485726093 
500	 0.104117811997218 
501	 0.104875101875389 
502	 0.105337615218857 
503	 0.105779970258576 
504	 0.106535600857027 
505	 0.106979917492355 
506	 0.107388324674999 
507	 0.107914663787923 
508	 0.108584891316851 
509	 0.109298259491196 
510	 0.110019090953777 
511	 0.110700757796164 
512	 0.11122358622378 
513	 0.111823747171573 
514	 0.112503385066964 
515	 0.113176871449305 
516	 0.114003057180253 
517	 0.11470754799465 
518	 0.115268926151537 
519	 0.116017375283963 
520	 0.116631989836403 
521	 0.117170625750417 
522	 0.117772613892496 
523	 0.118544135656582 
524	 0.119255799417075 
525	 0.119900086557018 
526	 0.120623820352457 
527	 0.121317987891701 
528	 0.122056018487657 
529	 0.122830927281161 
530	 0.123419773322666 
531	 0.124065159025186 
532	 0.124799277245224 
533	 0.125554981866563 
534	 0.126208124570952 
535	 0.126810366125863 
536	 0.127426245592382 
537	 0.12811379584733 
538	 0.128900400518375 
539	 0.129620705921779 
540	 0.13016007808274 
541	 0.130692355806602 
542	 0.131407405099392 
543	 0.132188845980842 
544	 0.132763116272245 
545	 0.133357935010417 
546	 0.134005876603223 
547	 0.13467073497612 
548	 0.135237733944465 
549	 0.135749218134629 
550	 0.136358173759758 
551	 0.137152751256267 
552	 0.137620388592034 
553	 0.138054439803206 
554	 0.138597862043215 
555	 0.13916591207529 
556	 0.139757845095326 
557	 0.14033803071311 
558	 0.140858599835073 
559	 0.141278365182296 
560	 0.141624126112136 
561	 0.141994059657291 
562	 0.142505865642266 
563	 0.14298986177277 
564	 0.143350573995018 
565	 0.143589071077232 
566	 0.143861473892618 
567	 0.144198223442199 
568	 0.144517342890174 
569	 0.144730276543041 
570	 0.1450197995529 
571	 0.145281588753152 
572	 0.145420402381897 
573	 0.145381039066995 
574	 0.145677002927361 
575	 0.146031565649129 
576	 0.146149288259588 
577	 0.146323802533545 
578	 0.146463846708682 
579	 0.146579617418613 
580	 0.146726983923283 
581	 0.146782320540082 
582	 0.14682503537584 
583	 0.146904555937435 
584	 0.146981953849598 
585	 0.146901130328523 
586	 0.146663666918589 
587	 0.14636392431386 
588	 0.146227748901178 
589	 0.14611066335652 
590	 0.145955783035295 
591	 0.1458198685292 
592	 0.145650365517123 
593	 0.14548001928142 
594	 0.145314936611442 
595	 0.145025097531503 
596	 0.144614308627407 
597	 0.14417983346762 
598	 0.143855695717324 
599	 0.143501945971023 
600	 0.143270434117687 
601	 0.143179633628128 
602	 0.142962917073603 
603	 0.142721214749607 
604	 0.142552935975422 
605	 0.142518939848781 
606	 0.142470280012784 
607	 0.142384516903145 
608	 0.142263644910646 
609	 0.142132433236524 
610	 0.142055626693927 
611	 0.142095958334574 
612	 0.142231627323624 
613	 0.142231294726691 
614	 0.142052868545906 
615	 0.141907965045078 
616	 0.142068254155853 
617	 0.141887836723611 
618	 0.141684861614484 
619	 0.141665096162435 
620	 0.14169079998753 
621	 0.141728033977585 
622	 0.141759853506598 
623	 0.141755233074604 
624	 0.141563552408522 
625	 0.141373155301353 
626	 0.141260225329412 
627	 0.14118119829981 
628	 0.141185564436655 
629	 0.141159495999214 
630	 0.141100208924942 
631	 0.141422645955179 
632	 0.141439327718195 
633	 0.141189116086487 
634	 0.141056973009377 
635	 0.141095085722031 
636	 0.140981441761296 
637	 0.140742858904729 
638	 0.140961065457038 
639	 0.140862968612781 
640	 0.140685020423925 
641	 0.140771269762419 
642	 0.140661870471518 
643	 0.140205083821996 
644	 0.13967021869803 
645	 0.139624496351873 
646	 0.139499635331504 
647	 0.139299536466327 
648	 0.139144711118815 
649	 0.139218384099767 
650	 0.138986741255141 
651	 0.138573012185562 
652	 0.138308092810318 
653	 0.137905546116778 
654	 0.13764913402242 
655	 0.13745935873509 
656	 0.136757423689134 
657	 0.136546896481941 
658	 0.136381890149074 
659	 0.135815674193429 
660	 0.13530793046008 
661	 0.134999673559087 
662	 0.134819675876018 
663	 0.134567966911037 
664	 0.134264369554881 
665	 0.134002204163684 
666	 0.133800001287321 
667	 0.133520469981466 
668	 0.133405134991967 
669	 0.133321754489927 
670	 0.133115812985932 
671	 0.133202824851418 
672	 0.133133144522063 
673	 0.132929602784834 
674	 0.133057655919629 
675	 0.133004966511632 
676	 0.133057447750788 
677	 0.133337730272198 
678	 0.133133477866202 
679	 0.133252116979728 
680	 0.1336075316088 
681	 0.13375225248866 
682	 0.13383457900812 
683	 0.134100431887147 
684	 0.134480386062243 
685	 0.134488052097395 
686	 0.134231930703555 
687	 0.134194219244424 
688	 0.134699229910143 
689	 0.135240197292829 
690	 0.135260128694345 
691	 0.135027931141177 
692	 0.135244608891592 
693	 0.135346266756154 
694	 0.135555483080545 
695	 0.13582530595806 
696	 0.135547178028933 
697	 0.135404531555544 
698	 0.135250788906057 
699	 0.134817486164768 
700	 0.134491030935445 
701	 0.134235041776346 
702	 0.134028987938426 
703	 0.133846367376935 
704	 0.133289785741134 
705	 0.132744165974077 
706	 0.132371221130155 
707	 0.131525065199203 
708	 0.130772207796687 
709	 0.130122428235112 
710	 0.12938295217076 
711	 0.128502181522127 
712	 0.127352626883143 
713	 0.12603186839506 
714	 0.124823518660482 
715	 0.123237608933856 
716	 0.121523951335906 
717	 0.120151644103123 
718	 0.118820073571817 
719	 0.117480091772819 
720	 0.116222954067652 
721	 0.114931905097528 
722	 0.11356730991586 
723	 0.11200172707196 
724	 0.110414124694064 
725	 0.108930779701446 
726	 0.107200849067391 
727	 0.105399384785509 
728	 0.103685754407024 
729	 0.101715691669764 
730	 9.97340355762201E-02 
731	 9.80494612201111E-02 
732	 9.67376544303108E-02 
733	 9.51137478072079E-02 
734	 9.36917061608424E-02 
735	 9.26697951657586E-02 
736	 9.17173255609757E-02 
737	 9.10669362601561E-02 
738	 9.06737813464815E-02 
739	 9.04222772954759E-02 
740	 9.01621696527433E-02 
741	 0.089963242582469 
742	 8.98762142486271E-02 
743	 8.99027834708055E-02 
744	 8.97918805617332E-02 
745	 8.96664361891057E-02 
746	 8.95728162857959E-02 
747	 8.93989836046239E-02 
748	 8.95106336105196E-02 
749	 8.95584751191152E-02 
750	 8.92763932827618E-02 
751	 8.92894687982267E-02 
752	 0.089309889841581 
753	 0.089241697979498 
754	 0.089129639124865 
755	 8.92376914253707E-02 
756	 8.92635336519893E-02 
757	 0.089035102824127 
758	 8.85159929518358E-02 
759	 8.80389983699867E-02 
760	 8.79280483807736E-02 
761	 8.81696268857752E-02 
762	 8.82116964662788E-02 
763	 8.83202045033671E-02 
764	 8.85893428117267E-02 
765	 8.89521829840035E-02 
766	 8.89425123552052E-02 
767	 8.91689486105591E-02 
768	 0.089632967457057 
769	 8.97690369132614E-02 
770	 0.089862129147565 
771	 8.99315672314032E-02 
772	 8.99998788912082E-02 
773	 9.02354171707623E-02 
774	 0.090424747694764 
775	 9.05947341211362E-02 
776	 9.08483070543555E-02 
777	 9.10384512600313E-02 
778	 9.12582483591385E-02 
779	 9.15260988134263E-02 
780	 9.17743772499691E-02 
781	 9.20964298713933E-02 
782	 9.22473844148343E-02 
783	 9.22181950223237E-02 
784	 0.092678630891798 
785	 9.29765302855965E-02 
786	 9.31708279294811E-02 
787	 9.35010148704272E-02 
788	 9.37126265837358E-02 
789	 9.40830327717228E-02 
790	 9.45881807430058E-02 
791	 9.49564660397439E-02 
792	 9.51982704450193E-02 
793	 9.55113428953037E-02 
794	 9.59169368212381E-02 
795	 9.60941278143749E-02 
796	 9.64450931677739E-02 
797	 9.67952303206994E-02 
798	 9.69821513245027E-02 
799	 9.74262426133467E-02 
800	 9.77761373256736E-02 
801	 9.80182708813492E-02 
802	 0.098291087032007 
803	 9.82323299453362E-02 
804	 9.83684284900137E-02 
805	 9.87474519362112E-02 
806	 9.88364752058674E-02 
807	 9.88957464386064E-02 
808	 9.85417055890042E-02 
809	 9.77758293308975E-02 
810	 9.79175008877975E-02 
811	 9.76219733543077E-02 
812	 9.69575427922601E-02 
813	 9.65354561800184E-02 
814	 9.62882505939571E-02 
815	 9.60716407463839E-02 
816	 9.57380735973579E-02 
817	 9.52258727776875E-02 
818	 9.49133933722244E-02 
819	 9.44713251302255E-02 
820	 9.36651561934857E-02 
821	 9.24621037119741E-02 
822	 0.091691317887493 
823	 9.09167611012823E-02 
824	 8.96873219304299E-02 
825	 8.82289547632193E-02 
826	 0.086950709559321 
827	 8.55000788667091E-02 
828	 8.35412288185543E-02 
829	 8.21319863895206E-02 
830	 8.09572206205308E-02 
831	 7.99202579861132E-02 
832	 0.079140650322592 
833	 7.83492663655054E-02 
834	 7.77589297412736E-02 
835	 0.077308767122521 
836	 7.65426948699358E-02 
837	 7.63490995219356E-02 
838	 7.62797836822534E-02 
839	 7.59130305683906E-02 
840	 7.56729952526771E-02 
841	 7.54658513286797E-02 
842	 7.50510899240846E-02 
843	 7.43918444327161E-02 
844	 7.46606929476796E-02 
845	 7.45877073834687E-02 
846	 7.41540310948005E-02 
847	 7.41686958282575E-02 
848	 7.39992459029906E-02 
849	 7.36205471674045E-02 
850	 7.31472357596555E-02 
851	 7.27728658956589E-02 
852	 7.25239108760993E-02 
853	 7.25533980755262E-02 
854	 7.26463666249532E-02 
855	 7.17678604776359E-02 
856	 7.21293165656166E-02 
857	 7.24597410258868E-02 
858	 7.14730185075787E-02 
859	 7.14507328531478E-02 
860	 7.12387433718082E-02 
861	 7.09250798979421E-02 
862	 0.071057417189365 
863	 0.070862267243919 
864	 7.05758645455724E-02 
865	 7.03507899494075E-02 
866	 7.01686451827994E-02 
867	 6.96717508741064E-02 
868	 6.94794847843819E-02 
869	 6.96574068598434E-02 
870	 6.94239676197818E-02 
871	 6.89232651098498E-02 
872	 6.86798650308251E-02 
873	 6.87628734673805E-02 
874	 6.80146327426999E-02 
875	 6.76694239968693E-02 
876	 6.75404866319694E-02 
877	 6.71947339270878E-02 
878	 6.70555250156395E-02 
879	 6.67197287561561E-02 
880	 6.64041506608112E-02 
881	 6.64248169467495E-02 
882	 6.58983460257025E-02 
883	 6.53390413332854E-02 
884	 6.51501304207446E-02 
885	 6.54473153046148E-02 
886	 6.54103805920778E-02 
887	 6.47933136250716E-02 
888	 6.39591102037923E-02 
889	 6.38044600989402E-02 
890	 6.42585402637298E-02 
891	 6.41376209303944E-02 
892	 6.31275322221787E-02 
893	 6.29287798749335E-02 
894	 6.27108807840744E-02 
895	 6.28362146576295E-02 
896	 6.32970603824123E-02 
897	 0.062014131149631 
898	 6.14084299491808E-02 
899	 6.15670625910794E-02 
900	 6.15904982904095E-02 
901	 6.06505947288291E-02 
902	 6.07187297928996E-02 
903	 6.09314061189742E-02 
904	 5.99651149515649E-02 
905	 6.00323225331085E-02 
906	 5.98750719859017E-02 
907	 5.97756650019401E-02 
908	 6.07467278608896E-02 
909	 6.01152234166154E-02 
910	 0.058665784259119 
911	 5.76451340247461E-02 
912	 5.80393405798188E-02 
913	 0.05821771484666 
914	 5.78988985915116E-02 
915	 5.73248640610254E-02 
916	 0.057032329785347 
917	 5.63688305602027E-02 
918	 5.60063816387054E-02 
919	 5.58249189337996E-02 
920	 5.45644693860428E-02 
921	 5.51098650233501E-02 
922	 5.61751794238591E-02 
923	 5.60953228055321E-02 
924	 5.41512912340404E-02 
925	 5.34673801443032E-02 
926	 0.054246577792371 
927	 5.52655936623224E-02 
928	 5.37947984500814E-02 
929	 0.053408550513415 
930	 5.35975688149851E-02 
931	 5.18858765294222E-02 
932	 5.04096261864551E-02 
933	 5.10599966154146E-02 
934	 5.32389154489529E-02 
935	 5.43615758368783E-02 
936	 5.30832201183502E-02 
937	 0.048601986794675 
938	 4.64122194653412E-02 
939	 4.99090417474931E-02 
940	 4.88055954799266E-02 
941	 4.85955673924404E-02 
942	 4.89120418062937E-02 
943	 4.73987154015621E-02 
944	 4.93375300520128E-02 
945	 4.92439805204332E-02 
946	 4.74185935979077E-02 
947	 4.67976762991584E-02 
948	 4.01898369555223E-02 
949	 3.96882782796315E-02 
950	 4.49753221318416E-02 
951	 4.74854248799831E-02 
952	 4.55163820753041E-02 
953	 4.65539362928342E-02 
954	 4.92003938301016E-02 
955	 4.72048466696882E-02 
956	 4.90175806049052E-02 
957	 0.050325315587982 
958	 0.050403668111145 
959	 5.11735474315095E-02 
960	 4.88797955066584E-02 
961	 4.52963362111947E-02 
962	 4.37723609722042E-02 
963	 4.66130717056914E-02 
964	 4.66543706254389E-02 
965	 4.61173568348925E-02 
966	 4.71322186017286E-02 
967	 5.01734175158635E-02 
968	 0.04965296337681 
969	 4.80225208075395E-02 
970	 4.72157436521687E-02 
971	 4.77196083184891E-02 
972	 4.85185140456945E-02 
973	 4.71109104802336E-02 
974	 4.49925145374781E-02 
975	 4.66639655763858E-02 
976	 0.046226098045793 
977	 0.047447210154893 
978	 4.93170573707324E-02 
979	 4.70954304476193E-02 
980	 4.68998624588952E-02 
981	 4.89937511272146E-02 
982	 0.050675387955589 
983	 4.84767691206695E-02 
984	 4.64628560834072E-02 
985	 4.59776087222055E-02 
986	 4.67225482309169E-02 
987	 4.76092736482734E-02 
988	 5.05073172665957E-02 
989	 5.17759861131213E-02 
990	 5.07895320572164E-02 
991	 4.94132229175134E-02 
992	 4.69457878948539E-02 
993	 4.52623766561361E-02 
994	 4.55620631617921E-02 
995	 4.76817387818173E-02 
996	 0.048554438958011 
997	 4.75445679401112E-02 
998	 4.71317374119737E-02 
999	 5.00468188898606E-02 
1000	 0.050856423672355 
1001	 4.37895897761822E-02 
1002	 4.43664870692858E-02 
1003	 4.44631616331844E-02 
1004	 4.47212063490095E-02 
1005	 4.46862206809028E-02 
1006	 4.41265570722805E-02 
1007	 4.38414361905427E-02 
1008	 4.40595898823064E-02 
1009	 4.40059317455505E-02 
1010	 4.42579616732736E-02 
1011	 4.45816127515913E-02 
1012	 4.45271989054469E-02 
1013	 4.43230194269341E-02 
1014	 4.42766822476012E-02 
1015	 4.43392195827157E-02 
1016	 4.42327496020593E-02 
1017	 4.39870123873821E-02 
1018	 4.39673756394665E-02 
1019	 4.38732789133916E-02 
1020	 4.37848612967358E-02 
1021	 4.37754202966252E-02 
1022	 4.40155690468099E-02 
1023	 4.42135465693047E-02 
1024	 0.044326085829417 
1025	 4.42798530999737E-02 
1026	 4.46274863638643E-02 
1027	 4.46452649209002E-02 
1028	 4.43093010938102E-02 
1029	 4.43467731011788E-02 
1030	 4.45048209148813E-02 
1031	 0.044643261701481 
1032	 4.49089413481645E-02 
1033	 4.51513989808264E-02 
1034	 4.57381792908106E-02 
1035	 4.55931274253426E-02 
1036	 4.52074245823775E-02 
1037	 0.044688296449253 
1038	 4.30901791433096E-02 
1039	 4.21878148870029E-02 
1040	 4.31378990936724E-02 
1041	 4.33456417691747E-02 
1042	 4.40326989542341E-02 
1043	 4.60827676971265E-02 
1044	 4.65111811920502E-02 
1045	 4.59929924667701E-02 
1046	 4.59969659157773E-02 
1047	 4.54693312912248E-02 
1048	 4.55998554017146E-02 
1049	 4.64438314869835E-02 
1050	 4.65682561154705E-02 
1051	 4.69522865480521E-02 
1052	 4.66734505071432E-02 
1053	 4.48341102694029E-02 
1054	 4.43865379563864E-02 
1055	 0.044368690961912 
1056	 4.44473597713939E-02 
1057	 4.49249045668245E-02 
1058	 4.67355257450166E-02 
1059	 4.69009250693941E-02 
1060	 4.61954705026697E-02 
1061	 4.62333996993758E-02 
1062	 4.61799370864762E-02 
1063	 4.59243666791651E-02 
1064	 4.58547115233899E-02 
1065	 4.57984467782618E-02 
1066	 4.52648978033228E-02 
1067	 4.50540347237048E-02 
1068	 4.54064150966898E-02 
1069	 4.54544986258649E-02 
1070	 4.49683624565039E-02 
1071	 4.50376855203535E-02 
1072	 4.55744831729869E-02 
1073	 0.04605712842482 
1074	 4.60243435045546E-02 
1075	 4.60165081220928E-02 
1076	 4.58843222969252E-02 
1077	 4.50003711077757E-02 
1078	 4.48741057281002E-02 
1079	 4.52362379256351E-02 
1080	 4.53998766051408E-02 
1081	 4.59493799884499E-02 
1082	 4.58930382614051E-02 
1083	 4.53409001805242E-02 
1084	 4.51593966290985E-02 
1085	 4.46361468848695E-02 
1086	 0.044456002473623 
1087	 4.50162681928238E-02 
1088	 4.51355986395875E-02 
1089	 0.045236777061568 
1090	 4.48171309311675E-02 
1091	 4.47997712482257E-02 
1092	 4.46191556515824E-02 
1093	 0.044666837588823 
1094	 4.54186518088404E-02 
1095	 4.51332347329936E-02 
1096	 4.39280206780316E-02 
1097	 4.37081068975466E-02 
1098	 4.34507032186726E-02 
1099	 4.31593587989854E-02 
1100	 4.36142101519288E-02 
1101	 4.38342416081189E-02 
1102	 4.35962707762241E-02 
1103	 0.043440646221973 
1104	 0.043655042600336 
1105	 4.36733982829046E-02 
1106	 4.30962775348664E-02 
1107	 4.24297284841404E-02 
1108	 4.23183021330004E-02 
1109	 4.32257260599635E-02 
1110	 0.043395182407201 
1111	 4.35805735402617E-02 
1112	 4.39174478203773E-02 
1113	 4.44978394385476E-02 
1114	 4.41148589190629E-02 
1115	 0.042672128088442 
1116	 4.25134937094765E-02 
1117	 4.06477547552252E-02 
1118	 4.10824789322427E-02 
1119	 4.94391845057539E-02 
1120	 5.25044069807169E-02 
1121	 5.47244122557806E-02 
1122	 5.15438391740407E-02 
1123	 4.26032527543717E-02 
1124	 3.51301657045055E-02 
1125	 3.80342497016294E-02 
1126	 4.21679257000604E-02 
1127	 4.39311559531587E-02 
1128	 4.67422399485873E-02 
1129	 0.046921413848419 
1130	 0.041927841431487 
1131	 4.20309000107599E-02 
1132	 4.44664177371936E-02 
1133	 4.50110844912463E-02 
1134	 4.71728054648486E-02 
1135	 4.64775707775788E-02 
1136	 4.24595702718587E-02 
1137	 4.14530208082479E-02 
1138	 0.04041545136312 
1139	 4.10506034881123E-02 
1140	 3.96430470904439E-02 
1141	 4.07300218452266E-02 
1142	 4.32693867427649E-02 
1143	 4.22358048898123E-02 
1144	 4.15715099443395E-02 
1145	 4.09596639204014E-02 
1146	 3.92280007683887E-02 
1147	 3.99686183702824E-02 
1148	 4.38896100032161E-02 
1149	 4.52238058333858E-02 
1150	 4.45523593123984E-02 
1151	 0.040522034324703 
1152	 4.01740037222495E-02 
1153	 4.09876849274025E-02 
1154	 0.040653954185818 
1155	 4.12853064950912E-02 
1156	 0.040791312437456 
1157	 3.99051030167327E-02 
1158	 3.90878650878964E-02 
1159	 3.95841404412178E-02 
1160	 4.08920717997202E-02 
1161	 4.06348762153072E-02 
1162	 3.97928841822575E-02 
1163	 3.96016112398776E-02 
1164	 3.97062489146729E-02 
1165	 4.03094699858846E-02 
1166	 4.07172432730422E-02 
1167	 0.040462232317725 
1168	 4.00926728275941E-02 
1169	 3.98844399461715E-02 
1170	 4.05593588984413E-02 
1171	 4.08836924407262E-02 
1172	 4.14945205663868E-02 
1173	 4.14342782865223E-02 
1174	 4.09014555366328E-02 
1175	 4.08464205526957E-02 
1176	 4.04525101819929E-02 
1177	 4.05813081209083E-02 
1178	 4.12238020764781E-02 
1179	 0.041076560966941 
1180	 4.03654026037583E-02 
1181	 4.03999825641448E-02 
1182	 4.06514963138919E-02 
1183	 4.04459455167054E-02 
1184	 0.040785879539138 
1185	 4.11751490971545E-02 
1186	 4.11064619718852E-02 
1187	 0.041506677620744 
1188	 4.17024475375668E-02 
1189	 4.14782424185493E-02 
1190	 4.17206131191455E-02 
1191	 4.15039494008574E-02 
1192	 4.12538372037774E-02 
1193	 4.08127770969876E-02 
1194	 0.041143024365497 
1195	 4.08454345857147E-02 
1196	 4.03507630896232E-02 
1197	 4.06140870513047E-02 
1198	 4.07295691035374E-02 
1199	 4.07686049884095E-02 
1200	 4.06638262177107E-02 
1201	 4.03188074485361E-02 
1202	 4.01352078147242E-02 
1203	 3.98466706287813E-02 
1204	 4.00496239619086E-02 
1205	 4.07333121528619E-02 
1206	 4.08190678428258E-02 
1207	 4.05778474589544E-02 
1208	 4.07408610750503E-02 
1209	 4.06527102562523E-02 
1210	 0.040434837363621 
1211	 4.08589720313933E-02 
1212	 4.10848585506451E-02 
1213	 4.09501119839624E-02 
1214	 4.09797947327627E-02 
1215	 4.10539657313173E-02 
1216	 4.10483858328417E-02 
1217	 4.08291830560455E-02 
1218	 4.06614202783998E-02 
1219	 4.07505302240002E-02 
1220	 4.07210382655495E-02 
1221	 4.06817273194645E-02 
1222	 4.09373191483634E-02 
1223	 4.11669690903305E-02 
1224	 4.11518661290681E-02 
1225	 4.10273575463649E-02 
1226	 4.08995760213484E-02 
1227	 4.05650813866517E-02 
1228	 0.040227038082625 
1229	 0.040475152262087 
1230	 4.08998556432084E-02 
1231	 4.08734606597313E-02 
1232	 4.07006530864736E-02 
1233	 4.06772841952338E-02 
1234	 4.06460664403936E-02 
1235	 4.06596387847927E-02 
1236	 4.10711883368964E-02 
1237	 4.12311326816531E-02 
1238	 4.12515801015417E-02 
1239	 4.10576210306653E-02 
1240	 4.11568629056743E-02 
1241	 4.11171130297967E-02 
1242	 4.08430118616036E-02 
1243	 4.09290526155494E-02 
1244	 4.07473226309052E-02 
1245	 4.03875527075592E-02 
1246	 4.07402117246918E-02 
1247	 4.10033590031624E-02 
1248	 4.12639040988741E-02 
1249	 4.16095676486797E-02 
1250	 4.15870344693656E-02 
1251	 4.15116987437798E-02 
1252	 0.04122677768146 
1253	 4.11452853254364E-02 
1254	 4.12859610292042E-02 
1255	 4.10470730035532E-02 
1256	 4.07635806550265E-02 
1257	 4.03021030524122E-02 
1258	 4.01884686750817E-02 
1259	 4.01607299639874E-02 
1260	 4.01669599343992E-02 
1261	 4.04641049708497E-02 
1262	 4.06469512050604E-02 
1263	 4.07600294735165E-02 
1264	 0.040752578434758 
1265	 4.06638717920281E-02 
1266	 4.07156370064714E-02 
1267	 4.07415435459256E-02 
1268	 4.02262007151786E-02 
1269	 4.00021691525092E-02 
1270	 4.02889472955999E-02 
1271	 4.03823955167811E-02 
1272	 4.05417497244452E-02 
1273	 4.03613313412384E-02 
1274	 3.99945895531176E-02 
1275	 4.02808369058711E-02 
1276	 4.04860688541663E-02 
1277	 4.01764729001289E-02 
1278	 4.04518904539218E-02 
1279	 4.09862177285203E-02 
1280	 0.040782210320485 
1281	 4.05186746741092E-02 
1282	 4.03416464178373E-02 
1283	 0.040496306639739 
1284	 4.03587086588826E-02 
1285	 4.02228989811955E-02 
1286	 4.06821286483515E-02 
1287	 4.09640585162972E-02 
1288	 4.09216072802089E-02 
1289	 4.06820104611177E-02 
1290	 4.05024611999696E-02 
1291	 4.03931803500666E-02 
1292	 4.02746312921568E-02 
1293	 4.02383322112759E-02 
1294	 4.04067173710685E-02 
1295	 4.03616343587556E-02 
1296	 4.00900828330357E-02 
1297	 3.97565880285501E-02 
1298	 3.95796692243258E-02 
1299	 3.98258659638867E-02 
1300	 3.97091816802216E-02 
1301	 3.90628725015829E-02 
1302	 0.038970269650444 
1303	 3.92658644215693E-02 
1304	 3.93804051710187E-02 
1305	 3.94563977844529E-02 
1306	 3.95588235163214E-02 
1307	 4.00439463885748E-02 
1308	 3.98177977776087E-02 
1309	 3.87246633140818E-02 
1310	 3.87490427034258E-02 
1311	 3.91501694509368E-02 
1312	 3.90623909778035E-02 
1313	 3.96123114704838E-02 
1314	 3.97447259432968E-02 
1315	 3.88180801452678E-02 
1316	 0.038596355621927 
1317	 3.92534651509757E-02 
1318	 3.91737599233963E-02 
1319	 0.038476632544832 
1320	 3.82713509880533E-02 
1321	 3.80946714973025E-02 
1322	 3.78366896611757E-02 
1323	 3.75379061073614E-02 
1324	 3.80969560466061E-02 
1325	 3.84001270745143E-02 
1326	 3.78442744724143E-02 
1327	 3.85971075315771E-02 
1328	 3.98556870572866E-02 
1329	 0.040754228714962 
1330	 4.07655948040254E-02 
1331	 3.97450619776143E-02 
1332	 3.98970085692041E-02 
1333	 3.99249101322209E-02 
1334	 4.00802487986882E-02 
1335	 0.04057659667069 
1336	 4.18138571473747E-02 
1337	 4.16728492315606E-02 
1338	 4.09072553015072E-02 
1339	 4.09898712145552E-02 
1340	 4.05393674581042E-02 
1341	 4.06561933510089E-02 
1342	 4.23517947181075E-02 
1343	 4.22612598371147E-02 
1344	 3.96728069693194E-02 
1345	 4.06803439320626E-02 
1346	 4.57591302826932E-02 
1347	 4.72387902546301E-02 
1348	 4.91890119241516E-02 
1349	 5.25549287450676E-02 
1350	 4.70860028475412E-02 
1351	 4.38890443052199E-02 
1352	 5.05152158570913E-02 
1353	 6.23957443846382E-02 
1354	 7.93323435991887E-02 
1355	 0.107386305947429 
1356	 0.143619033172945 
1357	 0.259358296939006 
1358	 0.355521620745767 
1359	 0.458289992256688 
1360	 0.686315149892154 
1361	 0.663921114451031 
1362	 0.511206707273605 
1363	 0.491391042053909 
1364	 0.614487091642565 
1365	 0.617231922041738 
1366	 0.408368791561773 
1367	 7.40388060378764E-02 
1368	 0.157236877446832 
1369	 0.36021032847768 
1370	 0.3410927962479 
1371	 0.730017910610346 
1372	 0.807294549343342 
1373	 0.475178570568601 
1374	 0.466086056241537 
1375	 0.979786309527006 
1376	 0.839067394655456 
1377	 0.609091724174926 
1378	 0.366297589950206 
1379	 0.140432890950325 
1380	 0.106024782499118 
1381	-8.35687197814941E-02 
1382	-0.128738245007629 
1383	 0.592546663746749 
1384	 0.918613883263604 
1385	 0.370734594895484 
1386	 0.571270421828634 
1387	 0.789305959605394 
1388	 0.637871294524418 
1389	 0.233463706092244 
1390	 0.343517268051066 
1391	 0.943999992182723 
1392	 0.491319833604171 
1393	 0.643363322455548 
1394	 0.70915688180032 
1395	 0.627998145899409 
1396	 1.08897243135529 
1397	 1.31906010593869 
1398	 0.566050994564885 
1399	 1.29201738003724 
1400	 2.88578172052714 
1401	 3.13519591073037 
1402	 17.044462273764 
1403	 1.5128339227053 
1404	 0.676409231967983 
1405	 0.499807831953738 
1406	 0.715899339859427 
1407	 0.666794917369177 
1408	 0.277491219872448 
1409	 0.108639232918892 
1410	 0.130808006255535 
1411	 8.31666581973733E-02 
1412	-6.19610625991849E-03 
1413	-4.11112732308718E-02 
1414	-4.25175217923578E-02 
1415	-2.66938796294308E-03 
1416	 8.27610631902546E-02 
1417	 7.21597073745682E-02 
1418	 0.039045031820143 
1419	 6.72498410994381E-02 
1420	 9.45255771751252E-02 
1421	 7.03019596966567E-02 
1422	 6.34006673769611E-02 
1423	 5.76894687658195E-02 
1424	-2.8064170737255E-03 
1425	-6.51110469918558E-03 
1426	 4.55081982655351E-02 
1427	 5.07692325376666E-02 
1428	 3.54729466475927E-02 
1429	 3.79114069123163E-02 
1430	 3.66392021810572E-02 
1431	 0.036202984751967 
1432	 4.92625072298805E-02 
1433	 5.50999086454376E-02 
1434	 5.31163949238962E-02 
1435	 5.23704775001388E-02 
1436	 0.051886043833827 
1437	 5.06597511813376E-02 
1438	 4.33663248760405E-02 
1439	 2.83334593338898E-02 
1440	 2.34773159107005E-02 
1441	 2.26347310723131E-02 
1442	 2.62592748816124E-02 
1443	 3.46795682715461E-02 
1444	 3.75189434382759E-02 
1445	 4.23972788843166E-02 
1446	 4.23413148059831E-02 
1447	 3.61326770569682E-02 
1448	 0.030821704132594 
1449	 2.81907339065617E-02 
1450	 3.13389288998378E-02 
1451	 3.46807939434376E-02 
1452	 3.70797757576776E-02 
1453	 3.55432690040505E-02 
1454	 3.33988133649625E-02 
1455	 2.87886028045191E-02 
1456	 2.82385149018875E-02 
1457	 2.74302141840257E-02 
1458	 2.87185277733385E-02 
1459	 3.38214017592586E-02 
1460	 3.43206504118983E-02 
1461	 3.25104296164569E-02 
1462	 3.28561070044352E-02 
1463	 0.033078870338942 
1464	 3.21677861710553E-02 
1465	 3.25686621160878E-02 
1466	 0.032271180507712 
1467	 2.85528248445708E-02 
1468	 2.67017643340573E-02 
1469	 2.54060566693843E-02 
1470	 2.74886168507758E-02 
1471	 3.26384006810194E-02 
1472	 3.42122986427289E-02 
1473	 3.80987342214629E-02 
1474	 3.86749687705001E-02 
1475	 3.38458078084834E-02 
1476	 3.31119855229392E-02 
1477	 0.035831066038264 
1478	 3.43619398636039E-02 
1479	 2.92823086622957E-02 
1480	 2.87347181887221E-02 
1481	 2.95586604581294E-02 
1482	 2.93063018230296E-02 
1483	 3.13502036076307E-02 
1484	 3.15530770775152E-02 
1485	 2.85959847301503E-02 
1486	 2.81633334400203E-02 
1487	 2.93707720466161E-02 
1488	 3.00236735439483E-02 
1489	 3.15171959204245E-02 
1490	 3.16529278810049E-02 
1491	 3.03809650762431E-02 
1492	 3.01563601167062E-02 
1493	 3.00514132001307E-02 
1494	 3.02557979540091E-02 
1495	 3.15139727034669E-02 
1496	 3.16313896702809E-02 
1497	 0.03068003495127 
1498	 3.06454140742297E-02 
1499	 3.09101080985379E-02 
1500	 3.07482859795125E-02 
1501	 3.07764673181139E-02 
1502	 3.09610043545532E-02 
1503	 3.06645881660384E-02 
1504	 3.07475334055905E-02 
1505	 3.17876653961207E-02 
1506	 3.18417397461272E-02 
1507	 3.15138110680868E-02 
1508	 3.17717576550723E-02 
1509	 3.19616615130086E-02 
1510	 0.032079905158826 
1511	 3.22923965070668E-02 
1512	 3.19857604040186E-02 
1513	 3.14468816413472E-02 
1514	 3.16461005817281E-02 
1515	 3.22470875355618E-02 
1516	 3.23698269849298E-02 
1517	 3.18685353941384E-02 
1518	 3.15379921267334E-02 
1519	 0.031853363239118 
1520	 3.18237915341699E-02 
1521	 3.14074915856707E-02 
1522	 3.16485039875429E-02 
1523	 3.23568278350277E-02 
1524	 3.24843624548865E-02 
1525	 3.23916644934812E-02 
1526	 3.29317782766026E-02 
1527	 3.30985844378282E-02 
1528	 3.24576432835363E-02 
1529	 3.22114484319055E-02 
1530	 3.27164105790852E-02 
1531	 0.032928401302036 
1532	 0.03285369628024 
1533	 3.30040870254401E-02 
1534	 3.30028881615734E-02 
1535	 3.29112604776931E-02 
1536	 3.27061687457956E-02 
1537	 3.28019850933818E-02 
1538	 3.27695174951965E-02 
1539	 0.032214880782969 
1540	 3.23801460448172E-02 
1541	 3.25557422526443E-02 
1542	 3.23902116578476E-02 
1543	 3.25348171115147E-02 
1544	 0.032636168150507 
1545	 3.28745052396797E-02 
1546	 3.30352561296135E-02 
1547	 3.32071149197677E-02 
1548	 3.35065841081254E-02 
1549	 3.32668438821322E-02 
1550	 0.033083678392493 
1551	 3.32749606390523E-02 
1552	 3.32380465379632E-02 
1553	 3.33842826947698E-02 
1554	 3.37442811256113E-02 
1555	 3.40361535573487E-02 
1556	 0.03432009533898 
1557	 3.40882407798654E-02 
1558	 3.39788097686711E-02 
1559	 3.42682692609512E-02 
1560	 3.41223418897921E-02 
1561	 3.39828855263979E-02 
1562	 3.39413837409717E-02 
1563	 3.38311706501983E-02 
1564	 3.37428198269055E-02 
1565	 3.38886890865803E-02 
1566	 3.43195721064739E-02 
1567	 3.40884563011169E-02 
1568	 3.38937139935446E-02 
1569	 3.43637867868178E-02 
1570	 3.44704068399692E-02 
1571	 3.46820687934272E-02 
1572	 0.034922316983905 
1573	 0.034442885571945 
1574	 3.44259545852158E-02 
1575	 3.49997779759213E-02 
1576	 3.46636615495965E-02 
1577	 3.38515257005105E-02 
1578	 3.39144279467525E-02 
1579	 3.42720543881581E-02 
1580	 3.44455817573499E-02 
1581	 3.46646887264034E-02 
1582	 3.46862400127964E-02 
1583	 3.45320572439617E-02 
1584	 3.41956630842145E-02 
1585	 3.40131878296917E-02 
1586	 3.42124612582218E-02 
1587	 3.46410028275058E-02 
1588	 3.50627920590644E-02 
1589	 3.50353395243434E-02 
1590	 3.49389639939741E-02 
1591	 3.50177631475193E-02 
1592	 3.46987830810777E-02 
1593	 3.42619037523548E-02 
1594	 3.42764923893409E-02 
1595	 3.44945119094447E-02 
1596	 3.49766395963957E-02 
1597	 3.56126322172505E-02 
1598	 3.55086893929399E-02 
1599	 3.48045395650234E-02 
1600	 3.43565994207746E-02 
1601	 3.40859465041762E-02 
1602	 3.44304424565811E-02 
1603	 3.52636517459955E-02 
1604	 3.51895298909085E-02 
1605	 3.47409614555321E-02 
1606	 0.034719515981512 
1607	 3.43441004920036E-02 
1608	 0.033873696739552 
1609	 3.43108182505294E-02 
1610	 3.48965957539709E-02 
1611	 3.48537766606769E-02 
1612	 3.46833233832529E-02 
1613	 3.44967473331336E-02 
1614	 3.44605629908289E-02 
1615	 3.47793151031632E-02 
1616	 3.48571164264168E-02 
1617	 3.48713519520744E-02 
1618	 3.54062537922259E-02 
1619	 0.035594025090703 
1620	 0.035264578566849 
1621	 0.035314709252793 
1622	 3.49152076988024E-02 
1623	 3.42783978682744E-02 
1624	 3.48848553150382E-02 
1625	 3.54127763386219E-02 
1626	 3.55615564429488E-02 
1627	 3.61921457241192E-02 
1628	 3.60426859660884E-02 
1629	 3.53920067167013E-02 
1630	 3.51599849906396E-02 
1631	 3.51027526936237E-02 
1632	 0.035353789395894 
1633	 3.55755495572706E-02 
1634	 3.55085984790339E-02 
1635	 3.53436450054486E-02 
1636	 3.50972401367322E-02 
1637	 3.50172853999288E-02 
1638	 3.49835618667778E-02 
1639	 3.48606940091822E-02 
1640	 3.51455890383318E-02 
1641	 3.57679031754889E-02 
1642	 3.59947638084146E-02 
1643	 3.57865842242954E-02 
1644	 3.57333008699859E-02 
1645	 3.55705557488558E-02 
1646	 3.54287890041315E-02 
1647	 3.55158832080373E-02 
1648	 3.53240565970883E-02 
1649	 3.54739207505365E-02 
1650	 3.57478678895611E-02 
1651	 3.58432411840234E-02 
1652	 3.61887390702016E-02 
1653	 3.57006836357718E-02 
1654	 3.55274481936988E-02 
1655	 3.58442864578614E-02 
1656	 3.56644150043949E-02 
1657	 3.50350420622628E-02 
1658	 3.52897425187082E-02 
1659	 3.59913908810683E-02 
1660	 3.60889719918289E-02 
1661	 3.61289806418103E-02 
1662	 3.62177067630234E-02 
1663	 3.61622755826542E-02 
1664	 3.59528045909427E-02 
1665	 3.58737828791952E-02 
1666	 3.57425158697798E-02 
1667	 3.51608883460776E-02 
1668	 3.47951885451394E-02 
1669	 3.49250625864051E-02 
1670	 3.54922520181024E-02 
1671	 3.53243472407838E-02 
1672	 3.54832129141266E-02 
1673	 3.59291163223282E-02 
1674	 3.57261116751193E-02 
1675	 3.58599438135529E-02 
1676	 3.57755568787784E-02 
1677	 3.50153841901066E-02 
1678	 0.034916017778204 
1679	 0.035495323145344 
1680	 3.55681301732348E-02 
1681	 3.56831077637958E-02 
1682	 3.62834814211746E-02 
1683	 3.60515099270503E-02 
1684	 3.50194151065096E-02 
1685	 3.50262791984031E-02 
1686	 3.55887007813131E-02 
1687	 0.035416880850245 
1688	 3.57318097544704E-02 
1689	 3.58341227650121E-02 
1690	 3.47516154377111E-02 
1691	 3.44433750676489E-02 
1692	 3.51805513896793E-02 
1693	 3.53420183917175E-02 
1694	 3.57476178578173E-02 
1695	 3.61028946048701E-02 
1696	 0.035511306565107 
1697	 3.61043597218193E-02 
1698	 3.69365981085462E-02 
1699	 3.58765118807181E-02 
1700	 3.53106681794092E-02 
1701	 3.58111553312441E-02 
1702	 3.53025691715397E-02 
1703	 3.56929758676658E-02 
1704	 3.69345836963306E-02 
1705	 3.64938240433485E-02 
1706	 3.59797608658722E-02 
1707	 3.63223899736892E-02 
1708	 3.60693518376612E-02 
1709	 3.56149593510898E-02 
1710	 0.035811561428796 
1711	 3.57244260628104E-02 
1712	 3.54716803717093E-02 
1713	 3.58369507722594E-02 
1714	 3.57963048007118E-02 
1715	 0.035688796092229 
1716	 3.63193808729769E-02 
1717	 3.62322641924168E-02 
1718	 3.58294316405739E-02 
1719	 3.59460748846912E-02 
1720	 3.57239595818225E-02 
1721	 3.57595774855612E-02 
1722	 3.62212886816412E-02 
1723	 0.036427017695335 
1724	 3.66337762596758E-02 
1725	 3.68150896115206E-02 
1726	 3.70715860271349E-02 
1727	 3.66651051763761E-02 
1728	 3.56714845474664E-02 
1729	 3.53584597008115E-02 
1730	 3.60456517697751E-02 
1731	 3.72415731932665E-02 
1732	 3.72944625383078E-02 
1733	 3.69563563831177E-02 
1734	 3.68276097597895E-02 
1735	 3.56822698560887E-02 
1736	 3.54932671431887E-02 
1737	 0.036297923338222 
1738	 0.036085826814873 
1739	 3.57981428811983E-02 
1740	 3.63266211847873E-02 
1741	 3.65962799979924E-02 
1742	 3.60025534561485E-02 
1743	 3.64677592223334E-02 
1744	 3.70711695184854E-02 
1745	 3.63212397371107E-02 
1746	 3.57696787169322E-02 
1747	 3.54122106921384E-02 
1748	 3.56641370615148E-02 
1749	 0.035444414565063 
1750	 3.47069026158484E-02 
1751	 0.034591086884745 
1752	 0.033752352611353 
1753	 3.40318742105232E-02 
1754	 3.62398403265391E-02 
1755	 0.036134819659235 
1756	 3.51279022777151E-02 
1757	 3.56770543856097E-02 
1758	 0.035513992025029 
1759	 3.55385773440815E-02 
1760	 3.60912278191111E-02 
1761	 3.56343420682563E-02 
1762	 3.42913348460802E-02 
1763	 3.46931597973802E-02 
1764	 3.44496369104977E-02 
1765	 3.36777547973612E-02 
1766	 3.60176713928921E-02 
1767	 3.79303188006341E-02 
1768	 3.82090733826833E-02 
1769	 3.77903613741551E-02 
1770	 0.035121215486851 
1771	 3.34199745080555E-02 
1772	 3.34624746438908E-02 
1773	 3.40156400245668E-02 
1774	 3.53783155729428E-02 
1775	 3.51984530877789E-02 
1776	 3.54433261190395E-02 
1777	 3.54774430169808E-02 
1778	 3.53739184915665E-02 
1779	 3.60954767313402E-02 
1780	 3.58723758913749E-02 
1781	 3.43855064667792E-02 
1782	 3.43297648272637E-02 
1783	 3.39827710934885E-02 
1784	 3.48057472878934E-02 
1785	 3.81857029946852E-02 
1786	 3.82487983406635E-02 
1787	 3.80341797428017E-02 
1788	 3.63043210600278E-02 
1789	 2.92290734030558E-02 
1790	 3.33009611227016E-02 
1791	 0.032188391760953 
1792	 3.22200000369925E-02 
1793	 0.043016576090993 
1794	 4.38256508098446E-02 
1795	 4.57872252369008E-02 
1796	 5.50303713401636E-02 
1797	 4.83133517741469E-02 
1798	 3.74018937273786E-02 
1799	 3.29448121720544E-02 
1800	 2.74421505179828E-02 
1801	 2.67400215654834E-02 
1802	 5.08914427190334E-02 
1803	 5.85244062610534E-02 
1804	 5.08320022694508E-02 
1805	 0.050580506751743 
1806	 1.97540514095467E-02 
1807	 2.71896981687923E-02 
1808	 0.117812431671574 
1809	 0.152578825317464 
1810	 0.199207652104789 
1811	 0.20146256141667 
1812	-2.67088839809394E-02 
1813	-3.42370643127544E-02 
1814	 0.133279861855088 
1815	 0.272259340629461 
1816	 1.06595867964964 
1817	 1.18438163291335 
1818	 2.98895806395978 
1819	 1.76398647097643 
1820	 1.15415787138821 
1821	 0.66519109124572 
1822	 0.236002358376732 
1823	 4.37595515050692E-02 
1824	 0.257447171574449 
1825	 0.78359702299293 
1826	 0.86950277563768 
1827	 1.04923358767579 
1828	 0.976068046539609 
1829	-0.243366832124984 
1830	-2.50853825639388 
1831	 0.87040973375046 
1832	 0.800971765300386 
1833	-0.265381941371467 
1834	-0.785079624671904 
1835	 2.30777096499044 
1836	 5.15004216531858 
1837	-3.70766806330728 
1838	-2.94920467979892 
1839	-3.92496548386864 
1840	-1.46094114413982 
1841	-1.31128756180881 
1842	 2.04538510099184 
1843	 0.597027202943442 
1844	 0.673818922716632 
1845	 0.687027246397974 
1846	 0.785024265910674 
1847	 1.01795101295981 
1848	 3.1513235191472 
1849	-3.73201673461298 
1850	-4.52322934195092 
1851	-15.3252442608911 
1852	-90.5001813696385 
1853	-47.3066040211754 
1854	-10.1613092748013 
1855	-1.74013250644266 
1856	-1.42758235484576 
1857	-1.39733013863298 
1858	-1.26426304517626 
1859	-0.990161934562511 
1860	 2.63134516639601 
1861	 3.41735474148145 
1862	 3.49457361792547 
1863	 2.6548404734541 
1864	 1.97150010513971 
1865	 2.14991475299881 
1866	 3.71306426127432 
1867	-1.78206752832977 
1868	-3.18170175590614 
1869	-1.54871727592856 
1870	-0.228376462406797 
1871	-0.449772648457902 
1872	-0.38757475762925 
1873	 2.77167089353148E-02 
1874	 0.291540420796144 
1875	 0.322635135178068 
1876	 0.385768664174262 
1877	 0.489347834453793 
1878	 0.407994478298043 
1879	-2.98302590594886 
1880	 1.29790569149807 
1881	-0.528545059586159 
1882	-0.232189264684114 
1883	-0.309452356425202 
1884	-1.66698147465773 
1885	 0.165278058519949 
1886	-0.620151998160666 
1887	-1.33833902759987 
1888	-1.13399056923477 
1889	-0.666404353520695 
1890	-0.504419688825491 
1891	-0.312299216046836 
1892	 1.32623348288407 
1893	-1.71070760611818 
1894	 7.39927673851101 
1895	 0.919499583350881 
1896	-3.51874943179989 
1897	-1.58266189037524 
1898	-0.421305628675936 
1899	-0.60162398845073 
1900	-0.626973728829409 
1901	-0.440865256261646 
1902	-9.13811716362999E-02 
1903	 0.531470558145541 
1904	 1.48906349010016 
1905	-5.99524622381314 
1906	-1.83850521666737 
1907	-2.37816784027181 
1908	-7.02645799469846 
1909	 2.26186392443797 
1910	 0.738008821468786 
1911	 0.602764370459033 
1912	 0.338564303859694 
1913	 0.333272720353476 
1914	 0.344092958445946 
1915	 0.868426649177915 
1916	-24.432504438076 
1917	-1.15485964699461 
1918	-0.331861848207449 
1919	-0.494834791588099 
1920	-0.344846430945665 
1921	-0.807190007159731 
1922	-5.31343414764024 
1923	-19.940868353876 
1924	-0.185758281194958 
1925	 0.132055756062778 
1926	 0.341359850507201 
1927	 0.901562507939228 
1928	 1.29934456461858 
1929	 6.50152972505493E-02 
1930	 0.14875954553838 
1931	 0.873731793888709 
1932	 0.465744060491075 
1933	 0.27154694291023 
1934	 0.317120170483399 
1935	 0.247680356793435 
1936	 0.307446905927358 
1937	 4.03275640611154E-02 
1938	-0.335632711411116 
1939	-0.413591825145439 
1940	-0.514811145266679 
1941	-0.45914127844303 
1942	-0.169188064453763 
1943	 0.109755345316852 
1944	 0.227365336965938 
1945	 0.258239133323036 
1946	 0.252821356250078 
1947	 0.187351706856587 
1948	 9.14164064762813E-02 
1949	 3.09015534729683E-02 
1950	-5.75026173822157E-03 
1951	-3.36746126143589E-02 
1952	-3.32454799918792E-02 
1953	 1.08292360274959E-02 
1954	-5.88217072772898E-03 
1955	-3.23315962127588E-02 
1956	-6.21008741192425E-03 
1957	-4.54955112003615E-02 
1958	-8.88526566159494E-02 
1959	-9.13284470417581E-02 
1960	-6.39145213270041E-02 
1961	-2.50584199112738E-02 
1962	 0.023169681932132 
1963	 5.00404719127599E-02 
1964	 3.57957289944854E-02 
1965	 2.80199230325488E-02 
1966	 2.33539111217162E-02 
1967	 0.015640754239785 
1968	 9.85628330793798E-03 
1969	 6.46578423753029E-03 
1970	 3.10409164913389E-03 
1971	 7.21785475521539E-03 
1972	 1.56000181185124E-02 
1973	 2.45705852121839E-02 
1974	 2.82456152104241E-02 
1975	 2.81917764659909E-02 
1976	 1.97445192014972E-02 
1977	 1.69094390504213E-02 
1978	 2.26423819690566E-02 
1979	 2.33916949559566E-02 
1980	 2.19268751448424E-02 
1981	 2.60635628801033E-02 
1982	 2.91189248950922E-02 
1983	 0.024373336376985 
1984	 2.39580063264227E-02 
1985	 2.62795164892683E-02 
1986	 2.63151256290766E-02 
1987	 2.82081146760767E-02 
1988	 2.93332353201201E-02 
1989	 2.85653243241192E-02 
1990	 2.82830574532992E-02 
1991	 2.44169811084053E-02 
1992	 2.21614033412724E-02 
1993	 2.11145261963338E-02 
1994	 0.020212985053915 
1995	 0.01673511314738 
1996	 2.21018869996164E-02 
1997	 2.79526852866296E-02 
1998	 2.42805320413833E-02 
1999	 2.57734557089919E-02 
2000	 2.45414861431092E-02 
2001	 0.015610974970774 
2002	 2.40556569980946E-02 
2003	 0.028808434922886 
2004	 2.45530243961528E-02 
2005	 3.24826610771862E-02 
2006	 3.66765217343707E-02 
2007	 3.29163457925813E-02 
2008	 3.11537310024674E-02 
2009	 3.06515675058203E-02 
2010	 2.59608172545797E-02 
2011	 2.29804772592662E-02 
2012	 2.26652605589774E-02 
2013	 0.026254919270495 
2014	 2.35292025196774E-02 
2015	 2.30639314398133E-02 
2016	 2.01616667705897E-02 
2017	 1.78684871757922E-02 
2018	 1.81208221969985E-02 
2019	 1.65161120763194E-02 
2020	 1.94145060047232E-02 
2021	 2.26020245169298E-02 
2022	 2.29524591768524E-02 
2023	 2.69825491992178E-02 
2024	 0.028781387699868 
2025	 3.01146540844209E-02 
2026	 3.03723831531523E-02 
2027	 3.04528292948587E-02 
2028	 2.86504052212214E-02 
2029	 2.80117352711288E-02 
2030	 2.77418699459772E-02 
2031	 2.86684270934161E-02 
2032	 2.88040560804179E-02 
2033	 2.76933290104418E-02 
2034	 2.84076388681285E-02 
2035	 2.68699289685574E-02 
2036	 2.56044004584374E-02 
2037	 2.67639273683263E-02 
2038	 2.61316642312757E-02 
2039	 2.61127489464646E-02 
2040	 2.71974632165707E-02 
2041	 2.79191460138338E-02 
2042	 2.76966233379545E-02 
2043	 2.89824030862206E-02 
2044	 3.24819367635059E-02 
2045	 3.27007667343838E-02 
2046	 3.12789823811344E-02 
2047	 3.09780203015682E-02 
2048	 2.77338349931345E-02 
2049	 2.47261299791599E-02 
2050	 2.46351974865076E-02 
2051	 2.42946234032514E-02 
2052	 2.45940563060686E-02 
2053	 2.46856589653461E-02 
2054	 2.33165167942783E-02 
2055	 0.020556236025902 
2056	 1.93057895696196E-02 
2057	 1.57917439052721E-02 
2058	 1.73643871553575E-02 
2059	 0.025491724265999 
2060	 0.028317794071968 
2061	 3.12684789793418E-02 
2062	 3.15286483708635E-02 
2063	 3.09406435075005E-02 
2064	 2.82560345427137E-02 
2065	 2.59578116832041E-02 
2066	 2.77827811299806E-02 
2067	 3.20083183243736E-02 
2068	 3.34727969291398E-02 
2069	 3.26493160884952E-02 
2070	 3.39030930579963E-02 
2071	 3.16484747548023E-02 
2072	 2.89801472954107E-02 
2073	 2.88354156402069E-02 
2074	 3.29978693414192E-02 
2075	 3.17503384775292E-02 
2076	 2.81847248758718E-02 
2077	 2.63525358480463E-02 
2078	 0.021874009891918 
2079	 2.07115494880796E-02 
2080	 2.23160091153518E-02 
2081	 2.30385146435313E-02 
2082	 2.29547450603526E-02 
2083	 2.51093773898023E-02 
2084	 2.58729648686089E-02 
2085	 2.77062451262846E-02 
2086	 3.00497504083802E-02 
2087	 3.09854285490645E-02 
2088	 3.07850234401012E-02 
2089	 2.94152233284515E-02 
2090	 2.95403316623354E-02 
2091	 2.92050253998952E-02 
2092	 2.81329080715034E-02 
2093	 2.60677864361744E-02 
2094	 2.65641118212881E-02 
2095	 2.86933854550923E-02 
2096	 2.77314853943459E-02 
2097	 2.60180579298668E-02 
2098	 2.58238976061362E-02 
2099	 2.36820325910632E-02 
2100	 2.31134936376553E-02 
2101	 2.57279788587884E-02 
2102	 2.83192433769159E-02 
2103	 3.05113478225599E-02 
2104	 0.031840500141204 
2105	 3.19256951379605E-02 
2106	 3.18139759536522E-02 
2107	 3.10873776877877E-02 
2108	 2.98216272823198E-02 
2109	 2.96730814979018E-02 
2110	 2.95074921627229E-02 
2111	 2.79957589174077E-02 
2112	 2.74803528276182E-02 
2113	 2.74342555173523E-02 
2114	 2.81091141740034E-02 
2115	 2.84791878678749E-02 
2116	 2.97419335393845E-02 
2117	 2.98053487046878E-02 
2118	 2.84649167093276E-02 
2119	 2.80258873964665E-02 
2120	 2.75264455642441E-02 
2121	 2.78809220908032E-02 
2122	 2.83169597338781E-02 
2123	 2.94628930126394E-02 
2124	 2.96669736169723E-02 
2125	 2.90655242716674E-02 
2126	 2.87555482328031E-02 
2127	 2.84229675163897E-02 
2128	 3.01761142188334E-02 
2129	 3.11826386695491E-02 
2130	 2.89411713519898E-02 
2131	 2.81236772531234E-02 
2132	 2.84530718763467E-02 
2133	 2.76405383612087E-02 
2134	 2.83389626495474E-02 
2135	 3.23853432745593E-02 
2136	 0.033780983985246 
2137	 3.35728599974075E-02 
2138	 3.37769138648516E-02 
2139	 3.34558435289183E-02 
2140	 3.32469511231573E-02 
2141	 3.36072867542949E-02 
2142	 3.36517811300003E-02 
2143	 3.38989851519667E-02 
2144	 3.26401888993868E-02 
2145	 3.18482175231697E-02 
2146	 3.17002805506571E-02 
2147	 3.17031631968544E-02 
2148	 3.35670376455416E-02 
2149	 3.54581873531371E-02 
2150	 3.39771232936335E-02 
2151	 3.30210516916131E-02 
2152	 3.20831708929138E-02 
2153	 3.01294423569555E-02 
2154	 0.029732548652878 
2155	 2.89730616820573E-02 
2156	 2.72270898901154E-02 
2157	 0.027552913234538 
2158	 2.99426214212981E-02 
2159	 3.04084737198517E-02 
2160	 3.13910564629048E-02 
2161	 3.14154414878201E-02 
2162	 2.82549122879393E-02 
2163	 2.80987695951193E-02 
2164	 3.03234431023114E-02 
2165	 3.10980628217528E-02 
2166	 3.29130164674832E-02 
2167	 3.33950540691386E-02 
2168	 0.032154910856119 
2169	 3.17919571312013E-02 
2170	 3.13781370149129E-02 
2171	 3.07773684219957E-02 
2172	 3.18152569736346E-02 
2173	 3.18893832483031E-02 
2174	 3.31759574968332E-02 
2175	 3.21234898828582E-02 
2176	 2.90731963103657E-02 
2177	 3.13607777732494E-02 
2178	 3.08515524843381E-02 
2179	 2.90945689021307E-02 
2180	 3.10775893534793E-02 
2181	 2.97865006004338E-02 
2182	 2.98432635467548E-02 
2183	 3.41673052375471E-02 
2184	 3.63635169821256E-02 
2185	 3.75454751943707E-02 
2186	 3.72918154182979E-02 
2187	 3.42439690321977E-02 
2188	 3.33387234247723E-02 
2189	 3.20007848278997E-02 
2190	 3.13646183046415E-02 
2191	 3.23641921476653E-02 
2192	 3.36299633008433E-02 
2193	 3.56631305969873E-02 
2194	 0.035967384262857 
2195	 3.68375203590825E-02 
2196	 3.65417858243086E-02 
2197	 3.31687815906957E-02 
2198	 3.15802195591403E-02 
2199	 0.030653559696746 
2200	 2.90158672830415E-02 
2201	 2.89434582419105E-02 
2202	 3.08185596768987E-02 
2203	 0.033260100398579 
2204	 3.31769775417805E-02 
2205	 3.31693984501706E-02 
2206	 3.33999415318063E-02 
2207	 3.27749720206867E-02 
2208	 3.40531953337622E-02 
2209	 3.48788880084056E-02 
2210	 3.17361920972665E-02 
2211	 2.94344981663831E-02 
2212	 2.82007664747668E-02 
2213	 2.58833701989126E-02 
2214	 2.58250034933293E-02 
2215	 2.47178446307848E-02 
2216	 2.27468869047036E-02 
2217	 2.31109204970435E-02 
2218	 0.026442063536918 
2219	 2.67840987986123E-02 
2220	 2.61237974828004E-02 
2221	 2.67044994679587E-02 
2222	 2.58580489895464E-02 
2223	 2.53210974151223E-02 
2224	 2.76054519174734E-02 
2225	 2.88473518824149E-02 
2226	 2.74299836663133E-02 
2227	 2.73256312579878E-02 
2228	 2.93854103319031E-02 
2229	 2.90947499668094E-02 
2230	 2.76752999309567E-02 
2231	 2.73093162252157E-02 
2232	 2.36429142730988E-02 
2233	 0.024574323989208 
2234	 2.87190604389682E-02 
2235	 3.34058262499725E-02 
2236	 3.74975857734248E-02 
2237	 0.041351707352959 
2238	 4.07697194874558E-02 
2239	 0.039995253177065 
2240	 3.76468088735349E-02 
2241	 3.33265130185508E-02 
2242	 3.11164968125044E-02 
2243	 2.82438327062663E-02 
2244	 2.73364268015382E-02 
2245	 2.98575271211949E-02 
2246	 0.032653814490036 
2247	 0.033903263764455 
2248	 3.39667372589672E-02 
2249	 3.41754076490144E-02 
2250	 3.29328425414167E-02 
2251	 2.90044452378224E-02 
2252	 2.38800461523564E-02 
2253	 2.18870528636472E-02 
2254	 2.13490328445546E-02 
2255	 1.97936393175019E-02 
2256	 1.95017232177994E-02 
2257	 1.91958723251939E-02 
2258	 2.18487401962092E-02 
2259	 2.73732677702573E-02 
2260	 2.95165742439376E-02 
2261	 3.50614934300872E-02 
2262	 3.45929051967787E-02 
2263	 2.72633639011394E-02 
2264	 2.42277023801352E-02 
2265	 1.87045737873888E-02 
2266	 1.84697453626979E-02 
2267	 2.14750916836668E-02 
2268	 2.26240340683971E-02 
2269	 3.07363954108322E-02 
2270	 0.032197188296932 
2271	 2.73246753603808E-02 
2272	 2.70077549416355E-02 
2273	 2.41386695668134E-02 
2274	 2.31175948187916E-02 
2275	 2.55248679874051E-02 
2276	 2.70659792255911E-02 
2277	 2.87801878442759E-02 
2278	 2.96773618194632E-02 
2279	 3.33225248664661E-02 
2280	 3.31200236332678E-02 
2281	 2.70318777140263E-02 
2282	 2.70353776678482E-02 
2283	 3.09733561851102E-02 
2284	 3.06338552692563E-02 
2285	 3.85873172856784E-02 
2286	 4.94939884309678E-02 
2287	 5.11160302222046E-02 
2288	 5.07083809150754E-02 
2289	 5.01432788092038E-02 
2290	 4.44490442195769E-02 
2291	 3.68521251894908E-02 
2292	 3.66203412587631E-02 
2293	 3.56213818628867E-02 
2294	 2.45679336733861E-02 
2295	 2.46248104396739E-02 
2296	 3.03600021945253E-02 
2297	 2.71055920030909E-02 
2298	 2.81719085329647E-02 
2299	 0.027615838133568 
2300	 2.26177219552229E-02 
2301	 1.80767076020302E-02 
2302	 1.76039366483215E-02 
2303	 2.28265315526785E-02 
2304	 0.022766816507648 
2305	 3.08846367989353E-02 
2306	 4.26752704057849E-02 
2307	 3.55271888484254E-02 
2308	 3.22680092558933E-02 
2309	 3.33948265540052E-02 
2310	 0.027768225123652 
2311	 4.01435676034772E-02 
2312	 5.57180350729594E-02 
2313	 4.73470556237345E-02 
2314	 4.11371239483746E-02 
2315	 4.50297889832995E-02 
2316	 3.76365574156443E-02 
2317	 2.94724634919332E-02 
2318	 2.51966150205745E-02 
2319	 1.37666402324169E-02 
2320	 9.75077224530478E-03 
2321	 1.73983048001202E-02 
2322	 1.82520278279154E-02 
2323	 1.03777958435031E-02 
2324	 1.74195585466032E-03 
2325	-3.16622167299077E-03 
2326	 7.63803790890759E-03 
2327	 0.021742137662428 
2328	 1.27058578490803E-02 
2329	 7.38787164390111E-03 
2330	 1.66232550954579E-02 
2331	 1.73202010959924E-02 
2332	 0.025254709404954 
2333	 3.00092388650837E-02 
2334	 1.29786311164054E-02 
2335	 1.43995951503288E-02 
2336	 3.17089678997402E-02 
2337	 3.62149791972886E-02 
2338	 4.67973517130076E-02 
2339	 4.76532494399608E-02 
2340	 2.36560072595948E-02 
2341	 1.66804323201561E-02 
2342	 2.89884044758195E-02 
2343	 3.77850845389686E-02 
2344	 3.81344411878187E-02 
2345	 3.09421545817002E-02 
2346	 1.98697260976861E-02 
2347	-6.63603336173286E-04 
2348	 4.04188604038418E-04 
2349	 1.55775215433653E-02 
2350	 7.6155142977789E-03 
2351	 1.77721849632627E-02 
2352	 1.84667886881262E-02 
2353	 3.24175351945733E-03 
2354	 2.95545331271567E-03 
2355	 1.70684132280083E-03 
2356	-5.19355202528838E-03 
2357	-1.10418626522158E-02 
2358	 4.9970424709465E-04 
2359	 9.86363977775046E-03 
2360	 1.03714559487241E-02 
2361	 1.85183018387463E-02 
2362	 2.31040380711266E-02 
2363	 1.74165478117621E-02 
2364	 3.54432055696476E-02 
2365	 5.29908267185187E-02 
2366	 3.57470858624121E-02 
2367	 3.43090921792239E-02 
2368	 2.88867352037287E-02 
2369	 2.91850910349237E-02 
2370	 5.01746653325137E-02 
2371	 4.55802375043234E-02 
2372	 2.92775686883876E-02 
2373	 2.82985277525887E-02 
2374	 4.41343245726114E-02 
2375	 0.055027745781028 
2376	 3.16935884082462E-02 
2377	-8.73644428350837E-03 
2378	-2.65959364845784E-02 
2379	-4.45742830942864E-02 
2380	-0.04666629269061 
2381	-4.23505837488852E-02 
2382	-7.23374162007798E-02 
2383	-8.90770996438358E-02 
2384	-3.81376678773743E-03 
2385	 0.119178973338594 
2386	 0.137616836375233 
2387	 0.156283491749844 
2388	 8.04723816749451E-02 
2389	-5.17093359126751E-02 
2390	-3.13063789693756E-02 
2391	-0.040459606962243 
2392	-6.73367609100691E-02 
2393	-2.01934673818271E-03 
2394	-2.70933474956684E-02 
2395	-7.33467234492406E-02 
2396	-0.034441165472492 
2397	-2.78072708193929E-02 
2398	-7.68297876923823E-02 
2399	-0.110175825332345 
2400	-0.086356812396306 
2401	-0.130193260508113 
2402	-0.189613285176016 
2403	-0.148316099391462 
2404	-0.11274315839167 
2405	-2.40838892831928E-02 
2406	 5.53920195523552E-02 
2407	 3.61579153392465E-02 
2408	-4.70025056765285E-02 
2409	-0.170570364749421 
2410	-0.235084283319839 
2411	-0.36329052429587 
2412	-0.327138371666735 
2413	-0.238233955730069 
2414	-9.81841298717057E-02 
2415	 0.252044416682144 
2416	 0.196939752604964 
2417	-2.10760534869896E-02 
2418	-9.63466543011959E-02 
2419	-0.143384675090024 
2420	-6.12920109051225E-02 
2421	 9.20806541281574E-02 
2422	 5.38526251099143E-02 
2423	 6.63368158370765E-02 
2424	 0.290332441829128 
2425	 0.33659655048097 
2426	 0.057989476897953 
2427	-7.24218841241885E-02 
2428	-0.282605755953079 
2429	-0.282358514295817 
2430	 1.27906969094435E-02 
2431	 9.81598780163624E-02 
2432	 0.124947314569727 
2433	 0.170352080915542 
2434	-6.07876612683309E-03 
2435	-1.31227274805212E-02 
2436	 0.129823690989823 
2437	 0.197173530177598 
2438	 0.337613434436987 
2439	 0.430705716218297 
2440	 0.128674408042206 
2441	-0.304973914426851 
2442	-0.337321924203838 
2443	-0.365495077561556 
2444	-0.286221384266996 
2445	 0.275601760190599 
2446	 0.298379325385088 
2447	 0.374689492973124 
2448	 0.357149618815501 
2449	-0.308294297114218 
2450	-0.625086895641903 
2451	-3.9214067960955 
2452	 57.4871381247733 
2453	-4.07857331667992 
2454	-3.20799361825799 
2455	-2.89559561882086 
2456	-3.33117124041588 
2457	 12.3208938634873 
2458	 10.098097904608 
2459	 7.48973697196979 
2460	 24.7054236095823 
2461	-12.2124593045758 
2462	-2.49217680874094 
2463	 0.227390460681161 
2464	-8.47438736623489E-02 
2465	-0.732009098946992 
2466	-1.73638405044702 
2467	-15.9986653211689 
2468	-78.4654467249847 
2469	-7.86440584036092 
2470	-11.9121654642031 
2471	-10.9241749634575 
2472	-3.24987604323374 
2473	-8.37053887640132E-02 
2474	 0.416111281863677 
2475	 1.98480012222957 
2476	 2.18030646681633 
2477	 2.6158381809192 
2478	-3.61117164556545 
2479	-0.567985124927065 
2480	 5.24024731747897E-02 
2481	-3.24102124005101E-02 
2482	-0.110108112336299 
2483	 0.376613276226831 
2484	 1.47494793107614 
2485	 2.43396517383972 
2486	 0.231623558811121 
2487	 0.803232687707985 
2488	 7.73103970159618 
2489	 5.14158768273963 
2490	 12.7801041132154 
2491	-0.698093582115542 
2492	-0.894034537429118 
2493	-0.799572496452556 
2494	-0.280972022527529 
2495	 1.02332261014159 
2496	 0.440800931385116 
2497	-1.89143161981509E-02 
2498	-0.647638174611733 
2499	 0.177877945567473 
2500	 0.395626173341471 
