Wavelength	rt0714far00002.asd
350	 2.27096276393271E-02 
351	 2.15094204058944E-02 
352	 2.14714143605878E-02 
353	 2.20251957402726E-02 
354	 2.24185065412059E-02 
355	 2.27816527294036E-02 
356	 2.27609014413981E-02 
357	 2.26524895932863E-02 
358	 2.28709656237048E-02 
359	 2.34717534326619E-02 
360	 2.34392286188787E-02 
361	 2.29910756424225E-02 
362	 2.30951969131757E-02 
363	 2.29728251399332E-02 
364	 2.29700385890592E-02 
365	 2.33027918405309E-02 
366	 2.38159011815593E-02 
367	 2.39355327270563E-02 
368	 2.39082786334134E-02 
369	 2.40685257276782E-02 
370	 2.41700537452474E-02 
371	 2.43324384764346E-02 
372	 2.46862256099441E-02 
373	 2.52550154914144E-02 
374	 2.51350764870428E-02 
375	 2.53595988182238E-02 
376	 2.59737352577394E-02 
377	 2.54566898002416E-02 
378	 2.56715101373069E-02 
379	 2.61007335559669E-02 
380	 2.61270669386725E-02 
381	 0.026664672396025 
382	 0.027345248929704 
383	 2.78116108776605E-02 
384	 2.78560211968768E-02 
385	 2.82584659239598E-02 
386	 2.82232796299602E-02 
387	 2.79074536016358E-02 
388	 2.85893637012673E-02 
389	 2.97068492015269E-02 
390	 3.00420909212414E-02 
391	 2.94218328063138E-02 
392	 3.04488883567495E-02 
393	 3.07646922527899E-02 
394	 3.06384953531747E-02 
395	 3.10800034324733E-02 
396	 3.13773786485116E-02 
397	 3.16591024766704E-02 
398	 3.18105870120445E-02 
399	 3.15257336828879E-02 
400	 3.17629557668488E-02 
401	 3.20656461806967E-02 
402	 3.21435905713591E-02 
403	 3.26077430303687E-02 
404	 3.29172134758439E-02 
405	 3.30085060848238E-02 
406	 3.30434338837587E-02 
407	 3.33402622620449E-02 
408	 3.36037520904832E-02 
409	 3.38663183848705E-02 
410	 3.44724750403171E-02 
411	 3.45156154835591E-02 
412	 3.44646821312576E-02 
413	 0.03477755063919 
414	 3.53151247755291E-02 
415	 0.035659480240755 
416	 3.58685536926638E-02 
417	 3.61650126143544E-02 
418	 3.63490577185415E-02 
419	 3.67416078580303E-02 
420	 3.73047696547413E-02 
421	 3.76015534540181E-02 
422	 3.78975313475711E-02 
423	 3.81539353213355E-02 
424	 3.83959524679694E-02 
425	 3.90456279698468E-02 
426	 3.93040600281131E-02 
427	 3.95112359817257E-02 
428	 0.040366147854416 
429	 4.08262629332402E-02 
430	 4.12263158132677E-02 
431	 4.17456845252161E-02 
432	 4.22314373731522E-02 
433	 4.26664194344526E-02 
434	 4.30680575967482E-02 
435	 4.34768506671463E-02 
436	 0.043968477877189 
437	 4.44657185411928E-02 
438	 4.49756775735673E-02 
439	 4.55457504487708E-02 
440	 4.61819681067864E-02 
441	 4.66828216027737E-02 
442	 0.046996441672911 
443	 4.73082515218194E-02 
444	 4.78036062003726E-02 
445	 0.048291441752522 
446	 4.85903130937101E-02 
447	 4.90083192561513E-02 
448	 4.94242086852777E-02 
449	 0.049833389142237 
450	 0.050306269198902 
451	 5.06304301111527E-02 
452	 5.09627219765446E-02 
453	 5.13761256140297E-02 
454	 5.16554503630513E-02 
455	 5.19549131152111E-02 
456	 5.23393295840972E-02 
457	 5.27861853905865E-02 
458	 0.05301151099579 
459	 5.32045813984903E-02 
460	 5.35083986474681E-02 
461	 5.39714065569731E-02 
462	 0.054179445905599 
463	 0.054311463204748 
464	 5.46057489316656E-02 
465	 0.055142643249218 
466	 5.54991582239882E-02 
467	 5.56890878972531E-02 
468	 0.05594882426727 
469	 5.63141481236446E-02 
470	 5.65498783027801E-02 
471	 5.66680622884578E-02 
472	 5.70368443319874E-02 
473	 5.74482193466317E-02 
474	 5.78842136639768E-02 
475	 5.83275047624969E-02 
476	 5.85948896539126E-02 
477	 5.88336875015426E-02 
478	 5.91529795214166E-02 
479	 5.96017902271486E-02 
480	 5.99172683464801E-02 
481	 0.060194859618936 
482	 6.05722775163941E-02 
483	 6.11949217924143E-02 
484	 6.15839497629404E-02 
485	 6.18275578262777E-02 
486	 6.22162264160303E-02 
487	 6.28252150581364E-02 
488	 6.32799079486244E-02 
489	 6.35517975667529E-02 
490	 6.39665260552779E-02 
491	 6.46331717489438E-02 
492	 6.52667367699623E-02 
493	 6.56563489598803E-02 
494	 6.59905306395775E-02 
495	 6.65470567316446E-02 
496	 6.72146546772834E-02 
497	 6.77112353392565E-02 
498	 6.82325705456555E-02 
499	 6.87959649610678E-02 
500	 6.93710744420924E-02 
501	 6.98792430828739E-02 
502	 7.05363246168684E-02 
503	 7.11834486228122E-02 
504	 7.16528687990949E-02 
505	 7.21920819165971E-02 
506	 7.26961326457071E-02 
507	 7.32184656826938E-02 
508	 7.39186814492484E-02 
509	 7.44966827939818E-02 
510	 0.075104918948172 
511	 7.57956374545616E-02 
512	 7.61928660540669E-02 
513	 7.66717492466317E-02 
514	 7.73532721524663E-02 
515	 0.078183061021935 
516	 7.87610729109915E-02 
517	 7.94454112025919E-02 
518	 8.02679994025365E-02 
519	 8.07868036116949E-02 
520	 0.081432078520825 
521	 8.21294625638474E-02 
522	 8.27574941351275E-02 
523	 8.34418093802729E-02 
524	 8.41141157502844E-02 
525	 8.47793509174962E-02 
526	 8.54914626926928E-02 
527	 8.61664331267998E-02 
528	 8.69604275926522E-02 
529	 8.78582014233892E-02 
530	 8.84337839601985E-02 
531	 8.90725422844961E-02 
532	 8.98021003662929E-02 
533	 9.05337392793155E-02 
534	 9.13606573855084E-02 
535	 9.19595939393364E-02 
536	 9.24405825977135E-02 
537	 9.34078797722313E-02 
538	 9.42035273778591E-02 
539	 9.49079154890417E-02 
540	 9.56849516016627E-02 
541	 9.63457187694507E-02 
542	 9.71196672619098E-02 
543	 9.79442823180328E-02 
544	 9.86044386462454E-02 
545	 9.93030472964844E-02 
546	 0.100070018339862 
547	 0.100857738232291 
548	 0.101516640428648 
549	 0.102148181960381 
550	 0.102848055731249 
551	 0.103666625178268 
552	 0.104419275732017 
553	 0.105024140227014 
554	 0.1055812486368 
555	 0.106372570656459 
556	 0.107031604760661 
557	 0.107747529172508 
558	 0.108648191278292 
559	 0.109270223940942 
560	 0.109704895073849 
561	 0.110137862465451 
562	 0.11078383480328 
563	 0.111432385132158 
564	 0.112034946881883 
565	 0.112577502824371 
566	 0.113067906635754 
567	 0.113573770153835 
568	 0.114063283196931 
569	 0.114493468774643 
570	 0.115005489307866 
571	 0.115485617137697 
572	 0.115842865972618 
573	 0.116035894687298 
574	 0.116409610117658 
575	 0.116851158859128 
576	 0.11719276034114 
577	 0.11748881597129 
578	 0.117684283758912 
579	 0.117851128616847 
580	 0.118118369735187 
581	 0.118351814018038 
582	 0.118522486190401 
583	 0.11865883188462 
584	 0.118880500456225 
585	 0.118923506691614 
586	 0.118863155197034 
587	 0.118890801323796 
588	 0.119070329043687 
589	 0.11918734202028 
590	 0.119142047059594 
591	 0.118996790528631 
592	 0.118893579262253 
593	 0.118799485380598 
594	 0.118634117827676 
595	 0.118301651022484 
596	 0.117872862196178 
597	 0.117357628232464 
598	 0.116767968655809 
599	 0.116449174138715 
600	 0.116096845532924 
601	 0.115647540643778 
602	 0.115605032254764 
603	 0.115481217079549 
604	 0.115315999752824 
605	 0.115287048274223 
606	 0.11533589600897 
607	 0.11545637986945 
608	 0.115580743731416 
609	 0.1155857274364 
610	 0.115609169432433 
611	 0.115790230333043 
612	 0.116098296564345 
613	 0.116011327766634 
614	 0.115925336847972 
615	 0.116010457080454 
616	 0.116253087223428 
617	 0.11625312647224 
618	 0.116214950427243 
619	 0.116284797672345 
620	 0.116403922028323 
621	 0.116580482626674 
622	 0.11677249593309 
623	 0.116885073360686 
624	 0.116609046162235 
625	 0.116728588722085 
626	 0.117172709780989 
627	 0.117070550213985 
628	 0.117184534332032 
629	 0.117278478264386 
630	 0.117179613561334 
631	 0.117398723978315 
632	 0.117480322045564 
633	 0.11742755961661 
634	 0.117450360075224 
635	 0.117515640597139 
636	 0.11756637324978 
637	 0.117593598542201 
638	 0.117665955304521 
639	 0.117587340942687 
640	 0.117546689996639 
641	 0.117710539069806 
642	 0.11769061389049 
643	 0.117543081672427 
644	 0.117389038777884 
645	 0.117386549882167 
646	 0.117429144027408 
647	 0.117410119633763 
648	 0.117304850514794 
649	 0.117299638188947 
650	 0.117089750275349 
651	 0.116741180126911 
652	 0.116442529977524 
653	 0.116071168408248 
654	 0.115722192696258 
655	 0.115358811141955 
656	 0.114800604985937 
657	 0.114351093149963 
658	 0.113928016547043 
659	 0.113428035157077 
660	 0.112962238451137 
661	 0.112734661477566 
662	 0.112590646192758 
663	 0.112202385574064 
664	 0.111969545123513 
665	 0.111847561933119 
666	 0.111719871205374 
667	 0.111433486726558 
668	 0.111394497366727 
669	 0.111423183885237 
670	 0.111255131915703 
671	 0.111255861716142 
672	 0.111341781578266 
673	 0.111440003126217 
674	 0.111507545526886 
675	 0.1114757315641 
676	 0.111574811498386 
677	 0.111915253976192 
678	 0.112195078455684 
679	 0.112313492157873 
680	 0.112428524621195 
681	 0.112763443736097 
682	 0.112989440554287 
683	 0.113267567659752 
684	 0.113573054047297 
685	 0.113591070635399 
686	 0.113788376196878 
687	 0.114044377957912 
688	 0.114121407598691 
689	 0.1141812063962 
690	 0.114084606960884 
691	 0.113968155557084 
692	 0.114077869484162 
693	 0.11391889007737 
694	 0.113665760535474 
695	 0.113426685653372 
696	 0.112997282505125 
697	 0.112760317589245 
698	 0.112465362332216 
699	 0.111794787030372 
700	 0.111057440553778 
701	 0.110397945458954 
702	 0.109898212412929 
703	 0.109518666647406 
704	 0.108578984324882 
705	 0.107554615569612 
706	 0.106783440845376 
707	 0.105853792028471 
708	 0.104787419101436 
709	 0.103654349223704 
710	 0.102518208576545 
711	 0.101244521440226 
712	 0.099727680919909 
713	 9.81156138688774E-02 
714	 9.67609728155439E-02 
715	 9.51775053394775E-02 
716	 0.093486825692089 
717	 0.091960980767453 
718	 9.01469205536152E-02 
719	 8.81276970933985E-02 
720	 8.62740804532428E-02 
721	 8.45720931993913E-02 
722	 8.30613474143473E-02 
723	 8.13324015975573E-02 
724	 7.93520104459763E-02 
725	 7.71657059809644E-02 
726	 7.49878886735716E-02 
727	 0.072830147488455 
728	 7.05999844217078E-02 
729	 0.067926854535418 
730	 6.53137034917731E-02 
731	 0.063058749011605 
732	 6.11127431535723E-02 
733	 5.90138211116159E-02 
734	 5.73546633923013E-02 
735	 5.62352929795342E-02 
736	 5.49954544629937E-02 
737	 5.41251100239482E-02 
738	 0.053628643248665 
739	 5.33201227488423E-02 
740	 5.27357866160377E-02 
741	 5.24343405228334E-02 
742	 5.24272262119937E-02 
743	 5.24108720832935E-02 
744	 5.22019823456669E-02 
745	 5.21201525296668E-02 
746	 5.21984078027354E-02 
747	 5.20175843015805E-02 
748	 5.19793989428156E-02 
749	 5.19852290323517E-02 
750	 5.19032040838262E-02 
751	 5.19279703463074E-02 
752	 5.19074440192524E-02 
753	 5.18836685047111E-02 
754	 5.19784394315258E-02 
755	 5.20305422851235E-02 
756	 5.20141990038548E-02 
757	 5.19936274453543E-02 
758	 0.052192428276957 
759	 5.21863016318712E-02 
760	 5.22813930963082E-02 
761	 5.28642269069159E-02 
762	 5.30253841113284E-02 
763	 5.29886970638535E-02 
764	 5.28381659702498E-02 
765	 5.26500884514734E-02 
766	 5.25936036319872E-02 
767	 0.052856612141619 
768	 5.32515954640211E-02 
769	 5.32411042594223E-02 
770	 5.34017234973499E-02 
771	 5.36189224852999E-02 
772	 5.37570001367438E-02 
773	 5.40120223943018E-02 
774	 5.42363131706592E-02 
775	 5.45472673208961E-02 
776	 5.50746720712832E-02 
777	 5.53055596754133E-02 
778	 5.54799686120694E-02 
779	 5.57701361098534E-02 
780	 5.62113141872358E-02 
781	 5.66941137412675E-02 
782	 5.70088636567129E-02 
783	 5.71735028893679E-02 
784	 5.77667730030673E-02 
785	 5.81273049834553E-02 
786	 5.84097249838356E-02 
787	 5.89591324190894E-02 
788	 5.94768091534057E-02 
789	 5.99389313362767E-02 
790	 6.03723167425012E-02 
791	 6.08423008034871E-02 
792	 0.061354641908087 
793	 6.19105064768162E-02 
794	 6.24419237381606E-02 
795	 6.27559040934147E-02 
796	 6.32219718897748E-02 
797	 6.36976077562167E-02 
798	 6.40365440582472E-02 
799	 6.45343832487955E-02 
800	 6.51332308373769E-02 
801	 6.55991438621835E-02 
802	 6.56855658257617E-02 
803	 6.57269272887093E-02 
804	 6.58600701528874E-02 
805	 6.60919546614775E-02 
806	 6.63101267245234E-02 
807	 0.066418564268912 
808	 6.63096465684202E-02 
809	 6.60660921395529E-02 
810	 6.62826160561668E-02 
811	 6.60613333840603E-02 
812	 6.55223830808024E-02 
813	 6.51755932996519E-02 
814	 6.49309473310212E-02 
815	 6.45325997860482E-02 
816	 6.39959550647034E-02 
817	 0.063541411563172 
818	 6.29727510944048E-02 
819	 6.23306370316691E-02 
820	 6.14689020530611E-02 
821	 5.99989852757981E-02 
822	 5.89204451413576E-02 
823	 5.79146838747715E-02 
824	 5.65351610876097E-02 
825	 5.48310133611585E-02 
826	 5.28942825126237E-02 
827	 5.09524638245969E-02 
828	 4.93046394143869E-02 
829	 4.74915428403348E-02 
830	 4.60938437648974E-02 
831	 4.50452496130716E-02 
832	 4.38386926346733E-02 
833	 4.25787653711432E-02 
834	 4.17106664380562E-02 
835	 4.11143118826377E-02 
836	 3.99487796196407E-02 
837	 3.96880841676196E-02 
838	 3.98256236737366E-02 
839	 3.96410736878652E-02 
840	 0.03900163875364 
841	 3.86263251666034E-02 
842	 3.84277075554836E-02 
843	 0.038086322600957 
844	 3.78049646131233E-02 
845	 3.75431564900344E-02 
846	 3.72618885460491E-02 
847	 3.69725122582077E-02 
848	 0.037111531740855 
849	 3.70068390818946E-02 
850	 3.64559051145597E-02 
851	 3.60060022479496E-02 
852	 3.56640917965039E-02 
853	 3.55759548868374E-02 
854	 3.55575462469331E-02 
855	 3.46952027183803E-02 
856	 3.48323041803747E-02 
857	 3.52380970120539E-02 
858	 0.034892032734653 
859	 3.44434956826501E-02 
860	 3.41791623400453E-02 
861	 3.40711651086831E-02 
862	 3.38863145836174E-02 
863	 3.33534903102409E-02 
864	 3.30851475109942E-02 
865	 0.033162868149315 
866	 3.30853650558989E-02 
867	 3.23049314639585E-02 
868	 3.21463534045972E-02 
869	 3.27412373742283E-02 
870	 3.24249893499774E-02 
871	 3.14850504934111E-02 
872	 3.09972694552209E-02 
873	 3.13330155563096E-02 
874	 3.08956341228289E-02 
875	 3.03889126896971E-02 
876	 3.01682186253875E-02 
877	 3.01926346574712E-02 
878	 2.93742514520478E-02 
879	 0.028748160939945 
880	 2.86164344295364E-02 
881	 2.87970384864336E-02 
882	 2.88999504209061E-02 
883	 2.83158906513397E-02 
884	 2.76144178220209E-02 
885	 2.79578557835446E-02 
886	 2.75532298815465E-02 
887	 2.72848572125872E-02 
888	 2.73718056168903E-02 
889	 2.70051969453959E-02 
890	 2.66868378353429E-02 
891	 2.63953069365439E-02 
892	 2.61384552738293E-02 
893	 2.61386917312839E-02 
894	 2.56843796747584E-02 
895	 2.59057400777823E-02 
896	 2.71328677797572E-02 
897	 2.55455804745258E-02 
898	 2.48741349654204E-02 
899	 2.51002940735375E-02 
900	 2.49297056374199E-02 
901	 2.39706289546957E-02 
902	 0.024236586212358 
903	 2.47491299328331E-02 
904	 2.39318676413358E-02 
905	 2.33209111410239E-02 
906	 2.30659022538577E-02 
907	 2.33606669784315E-02 
908	 2.41276629425245E-02 
909	 2.35212489955951E-02 
910	 2.23577301595053E-02 
911	 2.14721741843453E-02 
912	 2.12919603446709E-02 
913	 2.13137723649182E-02 
914	 2.08056874631249E-02 
915	 1.99124170583221E-02 
916	 1.96527336436258E-02 
917	 1.91435278435077E-02 
918	 1.93899538097506E-02 
919	 1.98274552579325E-02 
920	 1.77647174298999E-02 
921	 1.74706972142166E-02 
922	 1.77295516878511E-02 
923	 1.72631939122501E-02 
924	 1.69716586490703E-02 
925	 1.65966151935464E-02 
926	 1.69608098362819E-02 
927	 1.81916316863957E-02 
928	 0.016460824392975 
929	 1.79001157212077E-02 
930	 1.93227243534671E-02 
931	 1.37946576457954E-02 
932	 1.18775235474887E-02 
933	 1.12680580990545E-02 
934	 0.013123558572509 
935	 0.016704236089671 
936	 1.08223197901872E-02 
937	 1.17192943147689E-02 
938	 1.53329929153022E-02 
939	 1.40076979707314E-02 
940	 0.01304847467889 
941	 1.00321572566059E-02 
942	 8.25005286007634E-03 
943	 0.012282269500879 
944	 1.55561509654227E-02 
945	 1.57856717287305E-02 
946	 1.41255401127348E-02 
947	 1.23339181158358E-02 
948	 1.68869915712747E-03 
949	-3.44437656988276E-04 
950	 6.25510458934023E-03 
951	 9.78307532785121E-03 
952	 7.8705696794639E-03 
953	 1.05237701558669E-02 
954	 1.34300200752614E-02 
955	 6.0085161874341E-03 
956	 7.75489110881029E-03 
957	 1.04565753805817E-02 
958	 1.13590207925325E-02 
959	 1.26323095239929E-02 
960	 9.52097284265695E-03 
961	 7.08966159076399E-03 
962	 7.61982063292701E-03 
963	 9.70342283482622E-03 
964	 7.78411896217041E-03 
965	 7.6201771734513E-03 
966	 9.62268490493038E-03 
967	 9.97210093855182E-03 
968	 9.52694153006001E-03 
969	 8.53332426848847E-03 
970	 7.7267682818328E-03 
971	 8.0762958544832E-03 
972	 9.29409821186361E-03 
973	 8.82540078330218E-03 
974	 6.40002892494412E-03 
975	 4.62212954556387E-03 
976	 7.32513559949723E-03 
977	 1.09053406342169E-02 
978	 0.011507319500177 
979	 7.5597242455183E-03 
980	 6.70710154504382E-03 
981	 8.70338602563943E-03 
982	 1.04384817889742E-02 
983	 0.008451706307816 
984	 7.74862455133952E-03 
985	 6.42933767242951E-03 
986	 5.08941547152813E-03 
987	 6.56498059537509E-03 
988	 1.17476658885637E-02 
989	 1.26306349265512E-02 
990	 9.59162400590681E-03 
991	 8.87449164017686E-03 
992	 6.21631088126016E-03 
993	 6.07292800468636E-03 
994	 7.54293809537932E-03 
995	 6.61658240924433E-03 
996	 7.99252166285779E-03 
997	 6.51041921050899E-03 
998	 6.06679586828033E-03 
999	 1.24342249384901E-02 
1000	 8.33271535531834E-03 
1001	 8.2146685112491E-03 
1002	 7.71937844751483E-03 
1003	 7.81912628196769E-03 
1004	 8.49663992508749E-03 
1005	 8.60833417678312E-03 
1006	 8.45579497147905E-03 
1007	 8.42112620139347E-03 
1008	 8.39333955873839E-03 
1009	 7.72057137785971E-03 
1010	 7.1547295763937E-03 
1011	 6.74846288837323E-03 
1012	 5.89873821372573E-03 
1013	 5.91465965287042E-03 
1014	 6.05976756528564E-03 
1015	 6.59687425709638E-03 
1016	 6.90996098136097E-03 
1017	 7.51103004296756E-03 
1018	 7.92895660813783E-03 
1019	 8.2854214050399E-03 
1020	 8.7092537197961E-03 
1021	 9.61152101111895E-03 
1022	 9.48713954327321E-03 
1023	 9.3921897859794E-03 
1024	 8.86637114254356E-03 
1025	 7.81908582781886E-03 
1026	 7.5248152452639E-03 
1027	 7.41356795632274E-03 
1028	 7.46583326903531E-03 
1029	 7.92392625074652E-03 
1030	 9.0467417336342E-03 
1031	 9.53881000934987E-03 
1032	 1.00997988333253E-02 
1033	 1.05502978556226E-02 
1034	 1.09621689366676E-02 
1035	 1.09005783492572E-02 
1036	 1.04053359649776E-02 
1037	 1.02249756466954E-02 
1038	 9.66809664075749E-03 
1039	 9.27078244097618E-03 
1040	 9.40483695421073E-03 
1041	 9.99894199725604E-03 
1042	 1.00550036902298E-02 
1043	 9.80705786561152E-03 
1044	 9.95977374381538E-03 
1045	 1.00041448626971E-02 
1046	 1.03262255385307E-02 
1047	 1.13269032856243E-02 
1048	 1.16789774890705E-02 
1049	 1.18457753568142E-02 
1050	 1.19282461965069E-02 
1051	 1.15095079385057E-02 
1052	 1.13896187996638E-02 
1053	 1.13121657346574E-02 
1054	 1.13967314658673E-02 
1055	 1.18178710695036E-02 
1056	 0.011976618551378 
1057	 1.20780714384598E-02 
1058	 0.012172738628194 
1059	 1.22879983132592E-02 
1060	 1.21960114188709E-02 
1061	 1.23594978083811E-02 
1062	 1.30534433628766E-02 
1063	 1.29004751325098E-02 
1064	 1.19903681657599E-02 
1065	 1.19374481169364E-02 
1066	 1.18953071632265E-02 
1067	 1.18544008184271E-02 
1068	 1.27721004160698E-02 
1069	 1.29039883937502E-02 
1070	 1.19085414101609E-02 
1071	 1.16967896340151E-02 
1072	 0.011750788375332 
1073	 1.18394280337746E-02 
1074	 1.18762104158769E-02 
1075	 1.22797447146592E-02 
1076	 1.24568561900711E-02 
1077	 1.23090424060161E-02 
1078	 1.24087636643827E-02 
1079	 1.29477475237944E-02 
1080	 1.29406766177456E-02 
1081	 1.24573413947979E-02 
1082	 1.24107082932484E-02 
1083	 1.24735771591537E-02 
1084	 1.23421812708562E-02 
1085	 1.22501518580301E-02 
1086	 1.22525096498865E-02 
1087	 0.012330621367549 
1088	 1.20079767734298E-02 
1089	 1.13449828022551E-02 
1090	 1.11756425241673E-02 
1091	 1.08971816348935E-02 
1092	 9.92770774288169E-03 
1093	 1.01742862216247E-02 
1094	 1.16784082283716E-02 
1095	 1.19163009621817E-02 
1096	 1.24661008878217E-02 
1097	 1.21975270954587E-02 
1098	 0.010169913843437 
1099	 9.62815231933774E-03 
1100	 9.38293551516452E-03 
1101	 9.27068755734683E-03 
1102	 1.05111340994272E-02 
1103	 1.08980009007467E-02 
1104	 1.09005268477214E-02 
1105	 1.06931032856925E-02 
1106	 0.010523737376935 
1107	 9.51147610212776E-03 
1108	 9.87032704540496E-03 
1109	 1.08550959718532E-02 
1110	 0.010344211374169 
1111	 9.4031986913193E-03 
1112	 8.2615536688014E-03 
1113	 3.97150268515625E-03 
1114	 3.15895907408262E-03 
1115	 6.44814643598107E-03 
1116	 6.5734787734704E-03 
1117	 7.02647550636128E-03 
1118	 6.88311206055449E-03 
1119	 1.11404733118769E-03 
1120	-5.22397625835138E-04 
1121	 2.5674158271113E-03 
1122	 6.48029359928726E-03 
1123	 9.20360146211907E-03 
1124	 8.30222179956046E-03 
1125	 6.68102284716374E-03 
1126	 5.40496027330782E-03 
1127	 3.77687350155158E-03 
1128	 3.46372863750164E-03 
1129	 3.16166035046077E-03 
1130	 2.13649429423839E-03 
1131	 2.77297051289893E-03 
1132	 5.56376443422971E-03 
1133	 5.89201515142732E-03 
1134	 4.3426015561278E-03 
1135	 4.1009322815932E-03 
1136	 4.49102867818457E-03 
1137	 4.10185170861705E-03 
1138	 3.7854650243681E-03 
1139	 3.89575493051407E-03 
1140	 4.07892838123349E-03 
1141	 2.63655916642692E-03 
1142	 8.49627440180335E-04 
1143	 1.76046469574156E-03 
1144	 1.40297147149323E-03 
1145	 6.403348130092E-04 
1146	 3.52706739138313E-03 
1147	 5.55286522267143E-03 
1148	 3.85073644384524E-03 
1149	 3.41119787724352E-03 
1150	 3.7973904572539E-03 
1151	 2.97313027366895E-03 
1152	 2.83563811136228E-03 
1153	 4.41204412611009E-03 
1154	 5.0841437703927E-03 
1155	 4.86981615870131E-03 
1156	 5.38717415031225E-03 
1157	 5.93030387194319E-03 
1158	 5.97905014291533E-03 
1159	 4.9665234000166E-03 
1160	 3.87551367377254E-03 
1161	 4.77191056352287E-03 
1162	 5.88452309944577E-03 
1163	 5.68673905109468E-03 
1164	 5.61459731744057E-03 
1165	 5.63321562820459E-03 
1166	 5.17298288720055E-03 
1167	 5.57057079349703E-03 
1168	 6.04817200552456E-03 
1169	 5.33045689173019E-03 
1170	 4.86925440553619E-03 
1171	 4.89696682731563E-03 
1172	 5.40102587588099E-03 
1173	 5.63263991565414E-03 
1174	 6.28798977006596E-03 
1175	 6.32327365333647E-03 
1176	 5.87804736910997E-03 
1177	 5.76614682237525E-03 
1178	 5.47521677823401E-03 
1179	 5.22255702233468E-03 
1180	 5.54255585515673E-03 
1181	 5.81476251226067E-03 
1182	 5.90490675669391E-03 
1183	 5.84641752934438E-03 
1184	 5.70235231848216E-03 
1185	 5.45424571093267E-03 
1186	 5.15760526383431E-03 
1187	 5.60442083045721E-03 
1188	 5.93594600707756E-03 
1189	 5.68152649743055E-03 
1190	 5.84590519067306E-03 
1191	 6.01472875560316E-03 
1192	 6.06800100890262E-03 
1193	 5.9913803465455E-03 
1194	 6.06381519040043E-03 
1195	 6.17869406066884E-03 
1196	 6.39780378995275E-03 
1197	 6.24749220055958E-03 
1198	 6.09997584429042E-03 
1199	 6.34300751659473E-03 
1200	 6.27863864567127E-03 
1201	 5.82419345993432E-03 
1202	 5.79883203042314E-03 
1203	 5.93872978356468E-03 
1204	 5.47639512167206E-03 
1205	 5.49971126928594E-03 
1206	 6.13908612075305E-03 
1207	 6.12673738401562E-03 
1208	 6.05350717219347E-03 
1209	 6.30786326403633E-03 
1210	 6.00858046710692E-03 
1211	 5.52947700957314E-03 
1212	 5.63481536775168E-03 
1213	 5.72820775458747E-03 
1214	 5.59978053343695E-03 
1215	 5.38915261149801E-03 
1216	 5.53131940948873E-03 
1217	 5.54041004443455E-03 
1218	 5.16936106752818E-03 
1219	 5.03923566643874E-03 
1220	 5.23363967951505E-03 
1221	 5.17534725406093E-03 
1222	 5.00780522637233E-03 
1223	 5.27439053637592E-03 
1224	 5.31208871984173E-03 
1225	 5.12885816088004E-03 
1226	 5.25425436778869E-03 
1227	 5.41891590089408E-03 
1228	 5.51634926083982E-03 
1229	 5.54422646880083E-03 
1230	 5.77909769563203E-03 
1231	 6.0671356209893E-03 
1232	 5.66472729252623E-03 
1233	 5.0993843620461E-03 
1234	 5.36022763430761E-03 
1235	 5.55633612031744E-03 
1236	 6.04941755973689E-03 
1237	 6.10345762369687E-03 
1238	 6.28988704024568E-03 
1239	 5.8771841238118E-03 
1240	 5.65776656506564E-03 
1241	 5.80966905607385E-03 
1242	 5.95081602890953E-03 
1243	 5.94761074729045E-03 
1244	 5.67482993347858E-03 
1245	 5.37959893601273E-03 
1246	 5.39167996200805E-03 
1247	 5.6614578165819E-03 
1248	 5.47169346978337E-03 
1249	 5.32485916376582E-03 
1250	 5.81556282077963E-03 
1251	 6.04823689021665E-03 
1252	 5.94666362895582E-03 
1253	 0.006014717117514 
1254	 6.21500616650159E-03 
1255	 5.90907317408157E-03 
1256	 5.72242753817164E-03 
1257	 5.86665088395986E-03 
1258	 5.91798664923532E-03 
1259	 5.61033616853131E-03 
1260	 5.63716853014777E-03 
1261	 6.06190260894939E-03 
1262	 6.08832143280713E-03 
1263	 5.91459658410363E-03 
1264	 5.67671805906152E-03 
1265	 5.83616686382914E-03 
1266	 6.19117321123311E-03 
1267	 5.94225890411877E-03 
1268	 5.68032451970415E-03 
1269	 5.70366100043935E-03 
1270	 5.67333189314477E-03 
1271	 5.78966339266459E-03 
1272	 6.04043809836527E-03 
1273	 6.02386122050238E-03 
1274	 5.62694387908075E-03 
1275	 5.24988572026228E-03 
1276	 5.45696444929466E-03 
1277	 5.92483397023134E-03 
1278	 6.01193053264833E-03 
1279	 5.9320614871415E-03 
1280	 5.95536848205371E-03 
1281	 6.00106442771558E-03 
1282	 5.83746343625717E-03 
1283	 5.85496918628175E-03 
1284	 6.22568702304651E-03 
1285	 6.16984255250013E-03 
1286	 5.79620444794676E-03 
1287	 5.70756609979926E-03 
1288	 5.65463062866155E-03 
1289	 5.55242459704943E-03 
1290	 5.50904683449818E-03 
1291	 5.47909336514639E-03 
1292	 5.77866865946421E-03 
1293	 5.68498773886304E-03 
1294	 5.66574441338393E-03 
1295	 5.83460896363123E-03 
1296	 5.53615926838239E-03 
1297	 5.37757266693408E-03 
1298	 5.73102690709438E-03 
1299	 6.09077195357655E-03 
1300	 6.32967885004369E-03 
1301	 6.34885568761774E-03 
1302	 5.95126329247626E-03 
1303	 5.61558144827664E-03 
1304	 5.49708574928216E-03 
1305	 5.46563297137257E-03 
1306	 5.4460308294078E-03 
1307	 5.8038561232152E-03 
1308	 5.85209817575525E-03 
1309	 5.57044244639963E-03 
1310	 5.54855670642534E-03 
1311	 5.83950015813454E-03 
1312	 5.76852735709793E-03 
1313	 5.28327454306092E-03 
1314	 5.35667023067676E-03 
1315	 5.8282694919493E-03 
1316	 5.84341342974896E-03 
1317	 5.95741583739722E-03 
1318	 5.83051356798181E-03 
1319	 4.86288789227954E-03 
1320	 4.61689137166409E-03 
1321	 4.85489830168065E-03 
1322	 5.05619991250666E-03 
1323	 5.1610477283848E-03 
1324	 5.6757507081425E-03 
1325	 5.60147779226418E-03 
1326	 5.68668961130222E-03 
1327	 6.68286540798894E-03 
1328	 6.18550013699618E-03 
1329	 5.54855593226386E-03 
1330	 6.28073270400982E-03 
1331	 6.30162932139494E-03 
1332	 6.22215641263043E-03 
1333	 6.4943799883587E-03 
1334	 6.1488285176899E-03 
1335	 5.75313171909725E-03 
1336	 4.76765075323019E-03 
1337	 4.92530627293715E-03 
1338	 6.3706014002158E-03 
1339	 5.81194184236495E-03 
1340	 4.0876437590442E-03 
1341	 3.96735182530309E-03 
1342	 2.39114739908575E-03 
1343	 2.27283943535158E-03 
1344	 7.3473503601001E-03 
1345	 9.02630319989258E-03 
1346	 7.22762103057811E-03 
1347	 6.60939137171027E-03 
1348	 4.38803444085445E-03 
1349	 2.43994576578653E-03 
1350	 1.64323274405168E-03 
1351	 3.09385451446095E-04 
1352	-3.81995627990311E-03 
1353	-8.96460489156944E-03 
1354	-9.32158062747332E-03 
1355	-1.24325739719822E-02 
1356	-5.30196838993768E-02 
1357	-0.13107042359128 
1358	-0.187657957596927 
1359	-0.173333013392208 
1360	-0.213629692739347 
1361	-0.230174293767383 
1362	-0.147419971221683 
1363	-0.273386832922632 
1364	-0.497994895637925 
1365	-0.271472812870102 
1366	 8.09142244367945E-02 
1367	 4.99494836271523E-02 
1368	-6.00334443919172E-02 
1369	-5.26745821234317E-02 
1370	 5.05242937250307E-02 
1371	-0.117657874748226 
1372	-0.270121009623627 
1373	-0.303463893590756 
1374	-0.206850065894088 
1375	-0.322043857275332 
1376	-0.301000614484055 
1377	 0.366216588507639 
1378	 0.391113978214384 
1379	-0.438819903826493 
1380	-0.407715280041841 
1381	 5.50584866320903E-02 
1382	 0.11611696755817 
1383	 4.49540471412061E-02 
1384	 0.35930524064125 
1385	 0.148419358587564 
1386	-0.246039438083288 
1387	-0.384583277285799 
1388	-0.281979927169013 
1389	-0.426315348546886 
1390	-0.690633423666179 
1391	-0.653232562262989 
1392	-0.197727509193777 
1393	-9.72578116180271E-02 
1394	-0.214346530947092 
1395	-0.475298188878054 
1396	-0.610866298362459 
1397	-0.338479467208284 
1398	-0.464214546552746 
1399	-0.660052919650622 
1400	-0.158998004510416 
1401	-2.25722463933043 
1402	-18.34789923136 
1403	-1.23647748764247 
1404	-0.72452589701063 
1405	-0.612137435818274 
1406	-0.625122613990532 
1407	-0.509942256808541 
1408	-0.281033206499879 
1409	-0.174930872288954 
1410	-0.116120743849821 
1411	-0.151313738173868 
1412	-0.274570006226068 
1413	-0.229880065499798 
1414	-0.126676318077229 
1415	-0.106431007297752 
1416	-9.63463178073566E-02 
1417	-6.09692210016827E-02 
1418	-5.75451798557865E-02 
1419	-3.69060538461358E-02 
1420	 3.47218204597627E-02 
1421	 2.73626019344464E-02 
1422	-3.67487438436503E-02 
1423	-3.98063968662256E-02 
1424	-2.42115353900269E-02 
1425	-2.97127086127865E-02 
1426	-2.72958944440444E-02 
1427	-2.58197032343487E-02 
1428	-5.04672212191871E-02 
1429	-5.00091794843784E-02 
1430	-2.08731062997781E-02 
1431	-9.2216370949729E-03 
1432	 6.57672472006681E-03 
1433	 1.00031801980062E-02 
1434	-1.00958697111434E-02 
1435	-7.95925867891324E-03 
1436	 8.0203463749412E-03 
1437	 7.77445643867543E-03 
1438	 4.32203726666346E-03 
1439	 1.03979926526932E-02 
1440	-5.95764297054578E-04 
1441	-1.32133952145518E-02 
1442	-1.07114725386955E-02 
1443	-1.75342660613269E-02 
1444	-2.13683938178629E-02 
1445	-1.36129567401218E-02 
1446	-6.96655982019595E-03 
1447	-2.86440065326484E-03 
1448	-4.02225302254074E-03 
1449	-5.44156361440193E-03 
1450	-6.68723819798238E-03 
1451	-6.65224606161947E-03 
1452	-4.14906052378171E-03 
1453	-2.98687321686237E-03 
1454	-3.45499625268831E-03 
1455	-5.23809346047668E-03 
1456	-3.82828716307736E-03 
1457	-1.68275503825425E-03 
1458	-1.01328686273796E-03 
1459	 1.91050986085119E-03 
1460	 1.94844364331932E-03 
1461	-2.8176404379067E-03 
1462	-2.01427155450038E-03 
1463	 2.9451980107102E-03 
1464	 2.98132653760383E-03 
1465	 2.79664472755902E-03 
1466	 3.45483451477794E-03 
1467	-2.29159286943221E-04 
1468	-4.94220420018616E-04 
1469	 4.6373225516922E-03 
1470	 5.31045101196721E-03 
1471	 2.81767034611519E-03 
1472	 2.98716200969095E-03 
1473	 5.76614487341676E-03 
1474	 3.27783181266717E-03 
1475	-3.61009866643206E-03 
1476	-3.6899939757245E-03 
1477	-3.18094361329777E-03 
1478	-3.36780723044369E-03 
1479	 7.7567195348637E-04 
1480	 2.60822379778113E-03 
1481	 1.5072035017212E-03 
1482	 1.11687185700767E-03 
1483	 1.49900081982664E-03 
1484	 1.93692105339792E-03 
1485	 1.70976075118443E-03 
1486	 1.70413285658122E-03 
1487	 2.56853795363438E-03 
1488	 2.70099045177353E-03 
1489	 1.55984360567486E-03 
1490	 1.75513282311169E-03 
1491	 3.20402729001983E-03 
1492	 3.63227371845337E-03 
1493	 3.52096096798739E-03 
1494	 3.8189295508474E-03 
1495	 4.30755884531057E-03 
1496	 4.2965235531291E-03 
1497	 4.1154009570073E-03 
1498	 4.37643765037815E-03 
1499	 4.81432750824161E-03 
1500	 4.49442254427848E-03 
1501	 3.58501163995592E-03 
1502	 3.67308478841356E-03 
1503	 4.24248366502095E-03 
1504	 3.95550231724622E-03 
1505	 3.34323894188317E-03 
1506	 3.93539083694956E-03 
1507	 3.79162960205626E-03 
1508	 3.20622942278854E-03 
1509	 4.02582546596208E-03 
1510	 4.65796489076841E-03 
1511	 4.38395669539185E-03 
1512	 4.32288154595869E-03 
1513	 4.25927059452701E-03 
1514	 3.82090965830694E-03 
1515	 3.94212884666489E-03 
1516	 4.30361965256239E-03 
1517	 3.75234696674767E-03 
1518	 3.67755353672966E-03 
1519	 4.20266797010207E-03 
1520	 4.00424016749687E-03 
1521	 3.78500142569777E-03 
1522	 4.16135852176462E-03 
1523	 4.30985194954537E-03 
1524	 3.94060077437955E-03 
1525	 4.23325853653094E-03 
1526	 4.76505291410492E-03 
1527	 4.32357355563341E-03 
1528	 0.003841817695279 
1529	 4.02935730275367E-03 
1530	 4.07166876622408E-03 
1531	 3.77730878278503E-03 
1532	 3.64982288038332E-03 
1533	 3.39966675336509E-03 
1534	 3.40039862582011E-03 
1535	 4.03999231715369E-03 
1536	 4.42641893926896E-03 
1537	 4.30868576767962E-03 
1538	 3.91932914488149E-03 
1539	 3.57787075911827E-03 
1540	 3.3002153167088E-03 
1541	 0.003297405002665 
1542	 3.79067765190572E-03 
1543	 4.06106794822638E-03 
1544	 4.07712053991596E-03 
1545	 4.2211670869764E-03 
1546	 4.05113326755926E-03 
1547	 3.64902371667083E-03 
1548	 3.9016040420132E-03 
1549	 4.37495611073457E-03 
1550	 4.08487702861651E-03 
1551	 3.47481386980073E-03 
1552	 3.54558578211946E-03 
1553	 3.78627579007868E-03 
1554	 3.64424637445179E-03 
1555	 3.89215147502445E-03 
1556	 4.34930039560023E-03 
1557	 4.26934234194483E-03 
1558	 3.95073770786064E-03 
1559	 3.8964960293106E-03 
1560	 3.71705518881434E-03 
1561	 3.37571212051965E-03 
1562	 3.6040416840434E-03 
1563	 3.99873456989241E-03 
1564	 4.09974926986352E-03 
1565	 4.60158058363655E-03 
1566	 5.10537440845951E-03 
1567	 5.10533829346493E-03 
1568	 5.07069600477002E-03 
1569	 4.69184310350406E-03 
1570	 4.07929235562259E-03 
1571	 3.61766308105858E-03 
1572	 3.33237625271673E-03 
1573	 3.33182579414189E-03 
1574	 3.58876120441204E-03 
1575	 4.13818675048168E-03 
1576	 4.27804631793277E-03 
1577	 3.86829304736433E-03 
1578	 3.76372865620247E-03 
1579	 4.07478147150823E-03 
1580	 0.004345292090711 
1581	 4.22136008231418E-03 
1582	 4.20194644088476E-03 
1583	 4.35806476654458E-03 
1584	 4.23627197450502E-03 
1585	 4.29367187065837E-03 
1586	 4.61812387944146E-03 
1587	 4.52779099130481E-03 
1588	 4.32056390942334E-03 
1589	 4.70056314162535E-03 
1590	 4.93656896944303E-03 
1591	 4.88821515482788E-03 
1592	 4.82986551562076E-03 
1593	 4.35787180029914E-03 
1594	 4.03491461255588E-03 
1595	 4.04121201052359E-03 
1596	 4.08382578950787E-03 
1597	 4.37106293266412E-03 
1598	 4.49322973728983E-03 
1599	 4.25252026122717E-03 
1600	 4.33262941762433E-03 
1601	 4.77551815355199E-03 
1602	 4.59044488549103E-03 
1603	 3.8624949704677E-03 
1604	 3.63721631399387E-03 
1605	 3.6795999941456E-03 
1606	 3.61473950415043E-03 
1607	 4.17400758199365E-03 
1608	 4.84342625492596E-03 
1609	 4.67293750304067E-03 
1610	 4.63498341589791E-03 
1611	 4.96326735297309E-03 
1612	 4.63984591746597E-03 
1613	 3.68105747272715E-03 
1614	 3.57063800242957E-03 
1615	 4.21606690412978E-03 
1616	 0.004165097190511 
1617	 4.13504038453079E-03 
1618	 4.24241898613722E-03 
1619	 4.06104127630343E-03 
1620	 4.18522233945959E-03 
1621	 4.51135207455252E-03 
1622	 4.79924207717351E-03 
1623	 4.51565486389694E-03 
1624	 3.96076419087704E-03 
1625	 4.1037639454347E-03 
1626	 4.48211047441552E-03 
1627	 4.49083061157976E-03 
1628	 4.23652119694754E-03 
1629	 4.15465941902394E-03 
1630	 4.27128432471896E-03 
1631	 4.02767574784283E-03 
1632	 0.003913498201969 
1633	 4.18490797841116E-03 
1634	 4.08657377649579E-03 
1635	 4.22745868983038E-03 
1636	 4.54144918461911E-03 
1637	 4.1590060635843E-03 
1638	 3.87346356156862E-03 
1639	 4.06514597124102E-03 
1640	 4.57335876021288E-03 
1641	 5.12467835025245E-03 
1642	 4.66041969239308E-03 
1643	 4.08948266675175E-03 
1644	 4.40474279008671E-03 
1645	 4.42964010565843E-03 
1646	 4.53962973182713E-03 
1647	 5.08351179829454E-03 
1648	 4.60731882725443E-03 
1649	 3.76817208855452E-03 
1650	 3.98001407433958E-03 
1651	 4.0324952616911E-03 
1652	 3.79915735663663E-03 
1653	 4.19833704522384E-03 
1654	 0.004445649413611 
1655	 4.67188932094922E-03 
1656	 4.47043627434022E-03 
1657	 4.05121750994899E-03 
1658	 4.22804749472992E-03 
1659	 4.10309205634964E-03 
1660	 4.16491538834073E-03 
1661	 5.0726354311171E-03 
1662	 5.13007229406512E-03 
1663	 4.83282301230853E-03 
1664	 4.50462864841979E-03 
1665	 3.59076629059305E-03 
1666	 3.42493783519551E-03 
1667	 3.39748009845303E-03 
1668	 2.83406451465106E-03 
1669	 3.27947877127292E-03 
1670	 4.13716969945475E-03 
1671	 4.56915079112747E-03 
1672	 4.5603802162482E-03 
1673	 4.56823910375856E-03 
1674	 4.21151539545991E-03 
1675	 3.51240218185474E-03 
1676	 3.7210860834153E-03 
1677	 4.27981741962099E-03 
1678	 3.77529119915506E-03 
1679	 3.4672405887733E-03 
1680	 4.03484615425155E-03 
1681	 3.89994926163503E-03 
1682	 3.70575119592386E-03 
1683	 4.16848859348123E-03 
1684	 4.00533085207335E-03 
1685	 3.97802707232801E-03 
1686	 4.36507996373138E-03 
1687	 4.39395755857437E-03 
1688	 4.38897245287548E-03 
1689	 3.89710590134817E-03 
1690	 3.39188952412786E-03 
1691	 3.48767421547002E-03 
1692	 3.29344501397181E-03 
1693	 3.1063588668546E-03 
1694	 3.85076954541758E-03 
1695	 3.86657016777312E-03 
1696	 2.92668570581897E-03 
1697	 2.93082160910618E-03 
1698	 3.03326974887665E-03 
1699	 3.08699549184685E-03 
1700	 3.83054529225461E-03 
1701	 4.35956619893763E-03 
1702	 4.46798426642124E-03 
1703	 4.38054773757047E-03 
1704	 4.13555547904832E-03 
1705	 3.88932717093646E-03 
1706	 3.64556041461844E-03 
1707	 3.26814204497245E-03 
1708	 3.43282792463471E-03 
1709	 3.89219892162282E-03 
1710	 3.84379809341048E-03 
1711	 4.16114500332193E-03 
1712	 4.37084292587806E-03 
1713	 3.85271229786331E-03 
1714	 3.88541478864557E-03 
1715	 3.15306283162472E-03 
1716	 2.80850703253965E-03 
1717	 3.04791013988185E-03 
1718	 2.65330323288093E-03 
1719	 3.26180895084644E-03 
1720	 3.81804752618692E-03 
1721	 3.90366996064457E-03 
1722	 4.19035029540176E-03 
1723	 4.2910578968378E-03 
1724	 4.28556048330966E-03 
1725	 4.62614291582919E-03 
1726	 4.28180164066618E-03 
1727	 3.42761673535564E-03 
1728	 3.21702049387917E-03 
1729	 3.41163981238303E-03 
1730	 3.44840929005216E-03 
1731	 3.39724330208988E-03 
1732	 4.43405312214254E-03 
1733	 3.96662341621674E-03 
1734	 2.32675041113836E-03 
1735	 3.38029969700109E-03 
1736	 4.20380850490655E-03 
1737	 3.58505912837441E-03 
1738	 4.70335846874097E-03 
1739	 5.08214639815266E-03 
1740	 3.27813961921664E-03 
1741	 3.34972628516947E-03 
1742	 4.52282881281811E-03 
1743	 3.53466516135751E-03 
1744	 2.95213278180004E-03 
1745	 4.33975032730273E-03 
1746	 3.80949600921505E-03 
1747	 3.3534625448917E-03 
1748	 1.99957401585444E-03 
1749	 1.83397370010239E-03 
1750	 2.86492651129934E-03 
1751	 3.7131607198864E-03 
1752	 5.62022654449739E-03 
1753	 5.5389010266042E-03 
1754	 3.44504384770229E-03 
1755	 3.15577271643418E-03 
1756	 3.62594975502996E-03 
1757	 3.61092531381585E-03 
1758	 3.92279558851797E-03 
1759	 2.92058028363992E-03 
1760	 1.22171007544651E-03 
1761	 2.23488700317226E-03 
1762	 2.2374171875202E-03 
1763	 1.35576342783967E-03 
1764	 2.44894951899292E-03 
1765	 4.14713406148405E-03 
1766	 5.23478363659252E-03 
1767	 4.8649173315364E-03 
1768	 4.77699170527364E-03 
1769	 4.08474059697305E-03 
1770	 2.24155544660487E-03 
1771	 3.13201049625314E-03 
1772	 3.45159496975939E-03 
1773	 1.56031226098717E-03 
1774	 2.37105026647321E-03 
1775	 6.36151992369377E-03 
1776	 6.81066038950282E-03 
1777	 4.74971253509082E-03 
1778	 4.21448879785815E-03 
1779	 1.1682007745886E-03 
1780	-1.92362005946677E-04 
1781	 2.3463855830445E-03 
1782	 2.63962000515999E-03 
1783	 1.52106654054353E-03 
1784	 9.68302782082491E-04 
1785	 5.0284740172296E-05 
1786	-8.73143999200502E-04 
1787	-2.26436780572157E-03 
1788	-2.35205964371339E-03 
1789	-1.04832444600681E-03 
1790	-3.72680774064402E-05 
1791	-9.17665091762375E-04 
1792	-2.68800231530721E-03 
1793	-4.64732064433218E-03 
1794	-6.28638039035663E-03 
1795	-4.70029311370125E-03 
1796	 3.37209705663598E-03 
1797	 0.012890049304928 
1798	 1.18827493159946E-02 
1799	 9.8268243294954E-03 
1800	-9.21040446295824E-03 
1801	-2.04188197955753E-02 
1802	-8.91269162469461E-03 
1803	-1.19353873547689E-02 
1804	-3.31755690089828E-02 
1805	-3.45450836220487E-02 
1806	-3.01089889299455E-02 
1807	-2.34505982443752E-02 
1808	 5.51687895159725E-02 
1809	 9.69050413149277E-02 
1810	 7.31675582390147E-02 
1811	 6.41714201281823E-02 
1812	-1.27135956518547E-02 
1813	-5.85822763137444E-02 
1814	-8.92595931332814E-02 
1815	-0.210063040943637 
1816	-0.690613627558245 
1817	-0.522464614746807 
1818	-0.674961046574584 
1819	-0.258942834688075 
1820	 0.250031073339828 
1821	-0.206066762108964 
1822	-0.541074033816022 
1823	-1.41548067671812 
1824	-1.56671079148385 
1825	-0.886659996660464 
1826	-0.746129668055843 
1827	-0.305657748235256 
1828	-9.09338384685864E-02 
1829	 0.488478941609055 
1830	 2.33808605179691 
1831	-0.842199393477457 
1832	-0.599409636780551 
1833	-1.15177653788027 
1834	-4.1350288429651 
1835	 0.987353174271891 
1836	 2.91569474296421 
1837	-3.21677561831686E-02 
1838	 0.363587470792177 
1839	 1.06178253502726 
1840	-0.06806432592348 
1841	 1.30041167895715 
1842	-2.86523726970071 
1843	 0.190416505158086 
1844	 0.65585320642138 
1845	 0.629822399510409 
1846	 0.847008821272252 
1847	 0.89676074634597 
1848	 0.512951307208187 
1849	 1.68919937168765 
1850	 2.03789781918313 
1851	 6.51253771218443 
1852	 21.5026206927809 
1853	-4.67103243119082 
1854	-2.62025940689423 
1855	-0.602559537298471 
1856	-0.77523846804782 
1857	-1.98972271457511 
1858	-2.66588077978472 
1859	-5.76876476658619 
1860	 4.89183033188864 
1861	 1.66738105131687 
1862	-0.211600051553317 
1863	-0.241519127056051 
1864	 0.123035635295332 
1865	 0.875165486812014 
1866	 15.604822593437 
1867	-14.3080002376354 
1868	-4.01691909227158 
1869	-2.05822268029324 
1870	-1.03431356648856 
1871	-0.519569670487699 
1872	-0.688008352740264 
1873	-0.678026758818261 
1874	-0.356486622928386 
1875	-0.305616434276914 
1876	-0.213878843899086 
1877	-0.20058807945265 
1878	-0.243139781859745 
1879	-0.316016344724953 
1880	 0.56435925996852 
1881	 1.20608673030867 
1882	 0.741487806893404 
1883	 1.38534866188593 
1884	 3.32536268069196 
1885	 0.358809935358234 
1886	 0.644408223360359 
1887	 1.75225423126301 
1888	 5.8574260147809 
1889	 5.64877086328816 
1890	-1.25140154190902 
1891	-3.56260342678228 
1892	-3.07885325189519 
1893	-14.7190555282913 
1894	 7.66588499111505 
1895	 6.5138773356128 
1896	 32.4157017344979 
1897	-1.36239687111361 
1898	-3.80767726010643E-02 
1899	 0.781435152390395 
1900	 0.803003085849481 
1901	 0.422852799685978 
1902	 0.152875089214132 
1903	-0.489009296051809 
1904	-2.21246621184826 
1905	 7.74493535856607 
1906	 2.28544252158068 
1907	 4.38370393758403 
1908	 10.2708244445982 
1909	-1.94682489179767 
1910	-0.634343078580296 
1911	-0.340744502945677 
1912	-0.280092806981544 
1913	-0.41730774577077 
1914	-1.1022649947103 
1915	-2.43846235850672 
1916	 32.4183049277476 
1917	 1.24725990752376 
1918	 0.692257396810211 
1919	 0.762889319255439 
1920	 0.54847145756709 
1921	 1.16227330446896 
1922	 3.8160089198584 
1923	 3.51858581142618 
1924	-0.154688977063492 
1925	-4.31499331146731E-02 
1926	-1.56532082508115E-02 
1927	 8.36793634463531E-02 
1928	 0.172167586149561 
1929	 3.95288336017985E-03 
1930	-0.262649281080085 
1931	-0.338287973915712 
1932	-0.308902679213914 
1933	 5.69296377047101E-02 
1934	 0.453072471776122 
1935	 0.213283878648078 
1936	 0.126034512602663 
1937	-1.00864677434125E-02 
1938	-0.326042730836492 
1939	-0.397599524384701 
1940	-0.343417254480633 
1941	-0.379687391842279 
1942	-0.298264151571864 
1943	-0.032105623736141 
1944	-3.34863032392834E-03 
1945	 4.72750782669011E-02 
1946	 0.181419499351992 
1947	 0.159692122945348 
1948	 0.17790997786799 
1949	 0.253254034522779 
1950	 0.172209522223584 
1951	 0.139662032331308 
1952	 0.14080433902623 
1953	 0.169292189904884 
1954	 0.135341473804243 
1955	 0.101749057081268 
1956	 8.00334519446686E-02 
1957	 2.48750889811802E-02 
1958	 2.74045649775718E-02 
1959	 6.34126688847652E-02 
1960	 6.64894020917444E-02 
1961	 5.28704522277726E-02 
1962	 2.22670164300662E-02 
1963	-3.75413224736896E-03 
1964	-2.47451424246833E-03 
1965	 8.67427361274393E-03 
1966	 9.90746331326102E-03 
1967	 1.25271352187003E-02 
1968	 2.04230579902988E-02 
1969	 2.09279104726569E-02 
1970	 1.19766150175218E-02 
1971	 1.58995972933985E-02 
1972	 0.015863985244981 
1973	 9.24665077666946E-03 
1974	 9.34695553770307E-03 
1975	 8.13743424804119E-03 
1976	 3.73709969722907E-03 
1977	 1.31673593568305E-03 
1978	 1.3927565667269E-03 
1979	 2.61544047942606E-03 
1980	 4.56016038147964E-03 
1981	 8.05121515898803E-03 
1982	 1.25048681158259E-02 
1983	 1.43240233798636E-02 
1984	 1.48822293383226E-02 
1985	 1.57838076936397E-02 
1986	 1.78864656267037E-02 
1987	 1.92085825643763E-02 
1988	 1.46415440462988E-02 
1989	 1.10155881570217E-02 
1990	 8.9226220951274E-03 
1991	 3.42514745068737E-03 
1992	 5.34085209683129E-03 
1993	 1.04813700238415E-02 
1994	 1.22007675923682E-02 
1995	 1.15345732151486E-02 
1996	 1.43040774916189E-02 
1997	 1.51758053981038E-02 
1998	 0.015988803465455 
1999	 1.97969550186888E-02 
2000	 2.31632027764123E-02 
2001	 2.20695960488091E-02 
2002	 2.12366430041251E-02 
2003	 2.38163326224262E-02 
2004	 2.47885502280147E-02 
2005	 3.23905540845464E-02 
2006	 3.81050337887338E-02 
2007	 3.82178087508842E-02 
2008	 3.30761335538568E-02 
2009	 2.65572741551303E-02 
2010	 1.38440005857944E-02 
2011	 6.61203306347768E-03 
2012	-4.25394130981061E-03 
2013	-2.01043064073748E-03 
2014	 5.18801234675288E-03 
2015	 5.34189835423363E-03 
2016	 3.3610877314563E-03 
2017	 4.68348411876562E-03 
2018	 4.90892742060841E-03 
2019	 3.1241025836628E-03 
2020	 3.97385263464291E-03 
2021	 2.35795199799087E-03 
2022	-8.04398730090407E-04 
2023	-2.88657224042753E-04 
2024	-2.6119233145009E-04 
2025	-2.93998184534633E-04 
2026	 1.36959155035467E-03 
2027	 3.75178343071588E-03 
2028	 6.44710485928287E-03 
2029	 6.54585282755283E-03 
2030	 6.53717496619435E-03 
2031	 7.10986617169478E-03 
2032	 6.11597672702601E-03 
2033	 6.67204292548059E-03 
2034	 6.91298067665685E-03 
2035	 6.70050523049391E-03 
2036	 6.77842008445152E-03 
2037	 5.09556134053146E-03 
2038	 5.05327106441617E-03 
2039	 4.03935966241856E-03 
2040	-4.2811037188201E-04 
2041	-1.83052231793078E-03 
2042	-8.59272773837146E-04 
2043	-1.73051997915823E-04 
2044	 1.93649609597439E-03 
2045	 2.46652987406568E-03 
2046	 3.54312736770485E-03 
2047	 3.47723038218563E-03 
2048	 3.56282594262184E-04 
2049	 1.54556552610317E-03 
2050	 4.31615577552856E-03 
2051	 6.35595218576116E-03 
2052	 9.62588427099928E-03 
2053	 1.11424443109516E-02 
2054	 1.22398338585702E-02 
2055	 1.05003744710488E-02 
2056	 9.76522881979717E-03 
2057	 1.07525520726734E-02 
2058	 1.01818957540401E-02 
2059	 7.26684871055507E-03 
2060	 6.94646363568937E-03 
2061	 7.90748690095997E-03 
2062	 5.17119960396537E-03 
2063	 8.78808494598238E-03 
2064	 1.30374827292123E-02 
2065	 0.014156727548643 
2066	 0.017098766785824 
2067	 1.49725310403334E-02 
2068	 1.02340628014329E-02 
2069	 8.54650685004126E-03 
2070	 8.55169477316939E-03 
2071	 8.09316668147677E-03 
2072	 9.23072943259306E-03 
2073	 9.91012134274594E-03 
2074	 9.69575003154339E-03 
2075	 8.78144911302115E-03 
2076	 8.57829172010738E-03 
2077	 7.72523333349493E-03 
2078	 5.58020199777442E-03 
2079	 5.36153434867898E-03 
2080	 6.03332508729248E-03 
2081	 5.83264713929783E-03 
2082	 7.38306420444987E-03 
2083	 7.52905795357895E-03 
2084	 7.5747371724739E-03 
2085	 7.40669440008491E-03 
2086	 9.21550284237409E-03 
2087	 1.12441517851797E-02 
2088	 8.83101901915628E-03 
2089	 9.58614007215287E-03 
2090	 9.54928365322187E-03 
2091	 5.21333426367362E-03 
2092	 4.12305300482023E-03 
2093	 6.25305673347412E-03 
2094	 5.9981190065498E-03 
2095	 5.05809940025726E-03 
2096	 4.98884578341312E-03 
2097	 4.36015011809929E-03 
2098	 3.70686722759434E-03 
2099	 3.38554052867747E-03 
2100	 3.60478452541043E-03 
2101	 4.94908821245917E-04 
2102	 9.63325669590069E-04 
2103	 2.23916898808121E-03 
2104	 9.64192549429149E-04 
2105	 3.13317988732361E-03 
2106	 5.48229859988994E-03 
2107	 5.54535674606765E-03 
2108	 6.25506003915407E-03 
2109	 0.005884814578427 
2110	 3.43986861872775E-03 
2111	 2.07415438046731E-03 
2112	 2.18831589265833E-03 
2113	 2.16676718829457E-03 
2114	 3.96060928235316E-03 
2115	 3.77253956577602E-03 
2116	 1.71419697614112E-03 
2117	 8.68124538254944E-04 
2118	-3.66227196972018E-04 
2119	-2.38918284172146E-04 
2120	 1.41709582531611E-03 
2121	 2.73966552206011E-03 
2122	 3.27841056080624E-03 
2123	 2.40219588730884E-03 
2124	 5.4955043580859E-04 
2125	-3.95208632585701E-04 
2126	 3.29708543603484E-05 
2127	 4.74831774519703E-04 
2128	 1.76059750843709E-03 
2129	 4.45002076624497E-03 
2130	 4.90747926820478E-03 
2131	 4.67686555503609E-03 
2132	 4.87348150706151E-03 
2133	 4.44949082560606E-03 
2134	 4.18641533342263E-03 
2135	 4.46637442302556E-03 
2136	 4.06408847876565E-03 
2137	 2.70235544490425E-03 
2138	 2.67724177945871E-03 
2139	 3.65638782671302E-03 
2140	 4.70430693132212E-03 
2141	 6.58925421824417E-03 
2142	 6.86208794295216E-03 
2143	 6.18997873443523E-03 
2144	 5.65176574757017E-03 
2145	 7.2638816894059E-03 
2146	 7.55202795693577E-03 
2147	 5.96383670360047E-03 
2148	 6.92109879270662E-03 
2149	 5.36610689917833E-03 
2150	 2.94954416796909E-03 
2151	 4.23417082436114E-03 
2152	 4.26496142039117E-03 
2153	 3.55558034555608E-03 
2154	 2.91768579332421E-03 
2155	 2.16995708114555E-03 
2156	 2.96830651198091E-03 
2157	 3.60328245330478E-03 
2158	 5.2385782966807E-03 
2159	 5.29084255999411E-03 
2160	 5.34013148277722E-03 
2161	 4.57693281807286E-03 
2162	 6.85149898150183E-04 
2163	 5.67464888011869E-04 
2164	 2.47909509027898E-03 
2165	 2.62938823216352E-03 
2166	 4.48257039173789E-03 
2167	 5.48335792955566E-03 
2168	 3.97138202860315E-03 
2169	 4.92940047111293E-03 
2170	 7.69214434674293E-03 
2171	 9.53468826553951E-03 
2172	 1.21103581452786E-02 
2173	 1.34260112859045E-02 
2174	 0.011156958780962 
2175	 1.00493850967635E-02 
2176	 7.60550529978037E-03 
2177	 6.12567419396359E-03 
2178	 7.12612423974103E-03 
2179	 5.81781643006321E-03 
2180	 6.30921959621986E-03 
2181	 8.07062867105215E-03 
2182	 9.45935688079714E-03 
2183	 8.74047470227848E-03 
2184	 9.15037888040025E-03 
2185	 1.06056395920716E-02 
2186	 0.010142352912304 
2187	 9.7457936806714E-03 
2188	 1.03188129030072E-02 
2189	 8.65279602263101E-03 
2190	 8.13745101281021E-03 
2191	 8.54044695260454E-03 
2192	 1.02420522754541E-02 
2193	 1.46605534675509E-02 
2194	 1.50617827156289E-02 
2195	 1.45963871755094E-02 
2196	 1.45431302833815E-02 
2197	 1.08782834964663E-02 
2198	 1.00254531001005E-02 
2199	 0.012581019309469 
2200	 1.25052234061972E-02 
2201	 1.32092296478643E-02 
2202	 1.35081431607978E-02 
2203	 1.15376226232752E-02 
2204	 1.19445592895929E-02 
2205	 1.04281284488011E-02 
2206	 6.75192616417885E-03 
2207	 6.62862445375707E-03 
2208	 6.40783058823864E-03 
2209	 5.27804923084837E-03 
2210	 4.09115967514375E-03 
2211	 9.01365576957623E-04 
2212	-8.23850934320428E-04 
2213	 3.97276077688315E-03 
2214	 7.7423337223433E-03 
2215	 1.12780623779604E-02 
2216	 1.66484858005514E-02 
2217	 1.59600303447098E-02 
2218	 7.55416076953765E-03 
2219	 6.17678867861428E-03 
2220	 3.30983744946585E-03 
2221	 3.62604051693078E-03 
2222	 1.16617961802795E-02 
2223	 1.24221656887783E-02 
2224	 1.01717960760161E-02 
2225	 9.5858769380676E-03 
2226	 0.005128232959564 
2227	 5.04184905102252E-03 
2228	 1.02801284880669E-02 
2229	 9.92114900198266E-03 
2230	 6.10303949109083E-03 
2231	 5.95276335469647E-03 
2232	 5.6339517328679E-03 
2233	 5.17872276836273E-03 
2234	 7.46875181853568E-03 
2235	 9.36602712214039E-03 
2236	 8.51918654547441E-03 
2237	 9.72173751879294E-03 
2238	 0.012502679637634 
2239	 1.36907728934435E-02 
2240	 1.34132426815936E-02 
2241	 1.24568232198401E-02 
2242	 1.14540469124708E-02 
2243	 1.21255452910285E-02 
2244	 1.48772347451278E-02 
2245	 1.42110798265851E-02 
2246	 1.21298089212244E-02 
2247	 1.20557332632144E-02 
2248	 1.12747603740091E-02 
2249	 1.09124294898651E-02 
2250	 1.09372596144364E-02 
2251	 1.11221530563031E-02 
2252	 8.15386059205111E-03 
2253	 5.38591171009539E-03 
2254	 6.07408366257723E-03 
2255	 6.53449940797609E-03 
2256	 1.23329417050767E-02 
2257	 1.49018639598139E-02 
2258	 1.04516971263892E-02 
2259	 1.29559890507549E-02 
2260	 1.27520243528867E-02 
2261	 7.27047518863199E-03 
2262	 6.4785234557638E-03 
2263	 9.36965027362464E-03 
2264	 1.00340533109307E-02 
2265	 1.39915124981554E-02 
2266	 0.014394945516832 
2267	 1.09543648014065E-02 
2268	 9.20630766084515E-03 
2269	 3.87748301515906E-03 
2270	 1.71938897922665E-03 
2271	 3.82313806719309E-03 
2272	 5.84953224495212E-03 
2273	 9.26990601283137E-03 
2274	 1.00176403678205E-02 
2275	 1.27007915131975E-02 
2276	 1.18318045341786E-02 
2277	 2.88686440603936E-03 
2278	 1.8629901359539E-03 
2279	 4.13288487700476E-03 
2280	 3.91508838719574E-03 
2281	 5.23171107013864E-03 
2282	 1.13120173687717E-02 
2283	 7.72305511334221E-03 
2284	 2.40057016700024E-03 
2285	 1.94565164680108E-03 
2286	 5.79191421840901E-04 
2287	-2.74855738193775E-03 
2288	 1.55992829215969E-03 
2289	 1.03256044115395E-02 
2290	 9.86299082140681E-03 
2291	 1.26908452305202E-02 
2292	 1.17465411758756E-02 
2293	 5.52959683905494E-03 
2294	 8.58453783938329E-03 
2295	 1.40639432525786E-02 
2296	 2.17722642071589E-02 
2297	 2.42659046927966E-02 
2298	 2.00802940512565E-02 
2299	 1.56727194352707E-02 
2300	 1.18381315461256E-02 
2301	 9.86471080159676E-03 
2302	 1.07085755147209E-02 
2303	 1.80390569306174E-02 
2304	 2.30654054868239E-02 
2305	 1.95543174881217E-02 
2306	 1.27195500328152E-02 
2307	 9.91210192607917E-04 
2308	-1.34384766307524E-02 
2309	-2.10566978196357E-02 
2310	-2.18900248523587E-02 
2311	-1.94530917947538E-02 
2312	-1.49123406916573E-02 
2313	-5.90592303184901E-03 
2314	 6.36456824238563E-03 
2315	 1.45547596561516E-02 
2316	 2.13314619813043E-02 
2317	 0.025380985701653 
2318	 1.45975808362444E-02 
2319	 8.01637934818081E-03 
2320	 1.02727523009354E-02 
2321	 7.27682623345201E-03 
2322	 5.12867580109942E-03 
2323	-6.38449495678871E-03 
2324	-1.21205918246201E-02 
2325	-7.88394751108066E-03 
2326	 2.69073643007792E-04 
2327	 1.48834140604892E-02 
2328	 1.30273771092279E-02 
2329	 7.09441817328476E-03 
2330	 4.93528610199237E-03 
2331	-5.11684058910696E-04 
2332	 1.55995989494511E-03 
2333	 4.05181614404003E-03 
2334	 2.05953302625187E-03 
2335	-3.12667826343378E-03 
2336	-6.12800933306275E-03 
2337	-2.63383834399462E-03 
2338	-4.37229287235312E-03 
2339	-8.33559234269702E-04 
2340	 0.01055425531726 
2341	 2.37593963634984E-02 
2342	 4.33568333916515E-02 
2343	 0.04300203266717 
2344	 4.32437478201641E-02 
2345	 5.10986478473089E-02 
2346	 3.32167626262789E-02 
2347	 2.24406937028786E-02 
2348	 1.47903949231462E-02 
2349	 3.85115399535161E-03 
2350	 4.42717872259018E-03 
2351	 0.01817014430958 
2352	 4.13975555923914E-02 
2353	 4.56170994812681E-02 
2354	 3.62377540820793E-02 
2355	 2.51431339508556E-02 
2356	 2.75464176822522E-02 
2357	 2.63955198672712E-02 
2358	 2.85442090431771E-02 
2359	 4.69319802626545E-02 
2360	 3.74138195702053E-02 
2361	 2.44457994091877E-02 
2362	 1.76990345428326E-02 
2363	 2.22073167191529E-02 
2364	 3.14659856958299E-02 
2365	 3.87535124310774E-02 
2366	 6.11822211729269E-02 
2367	 3.70231931066645E-02 
2368	 2.96055992032774E-02 
2369	 4.79699479043785E-02 
2370	 4.09056481666226E-02 
2371	 7.63033756035638E-02 
2372	 8.09355854952766E-02 
2373	 6.05732227368516E-02 
2374	 8.74324968551097E-02 
2375	 6.38212692828503E-02 
2376	 3.55926398284418E-02 
2377	 4.15589931801361E-03 
2378	-6.21722303711484E-02 
2379	-7.69982376781374E-02 
2380	-0.036337380950076 
2381	 4.85946106824298E-02 
2382	 0.145349161390861 
2383	 0.124659435496244 
2384	 0.05800238717354 
2385	-9.10090134788801E-03 
2386	-0.06613282293141 
2387	-3.25314524880185E-02 
2388	 1.21979396252642E-02 
2389	 6.93552902834599E-02 
2390	 6.80093464223816E-02 
2391	 1.72060391811171E-02 
2392	-1.74085046971273E-02 
2393	-0.104937518689645 
2394	-0.104130202159923 
2395	-5.20558311052044E-02 
2396	-2.83170866730386E-02 
2397	-7.04085555243443E-03 
2398	 1.88937420778912E-02 
2399	 5.84897919571083E-02 
2400	 0.054190990693777 
2401	 4.41369179356267E-02 
2402	-7.28456393968925E-03 
2403	-9.25220522221909E-02 
2404	-3.40624802478926E-02 
2405	 6.32073385598825E-02 
2406	 9.53406028760401E-02 
2407	 0.173944394616102 
2408	 0.137840611877275 
2409	-6.23799520709819E-02 
2410	-0.225431123108488 
2411	-0.487174452052409 
2412	-0.504640428234993 
2413	-0.422672398535354 
2414	-0.370061319977176 
2415	-0.075063238547367 
2416	-0.18101695529188 
2417	-0.37883923819306 
2418	-0.318992642112878 
2419	-0.410502432335982 
2420	-0.281302281125016 
2421	-6.35586071680755E-02 
2422	-5.21745326641659E-02 
2423	 4.78383241244723E-02 
2424	 4.51631124284543E-02 
2425	-3.04774773033575E-02 
2426	-2.68473069703676E-02 
2427	-0.225579101545218 
2428	-0.349379713464965 
2429	-0.317698496158041 
2430	-0.387983551509754 
2431	-0.408332278213956 
2432	-0.361468062192438 
2433	-0.461264188758037 
2434	-0.276448865979942 
2435	-0.29466346973476 
2436	-0.331133901899488 
2437	-0.207453685008552 
2438	-0.400393520121336 
2439	-0.22023472965283 
2440	-0.156286813359753 
2441	-0.329811741974774 
2442	-0.218556152131749 
2443	-0.233678278785934 
2444	-0.15096522770685 
2445	-8.60701429155224E-02 
2446	 1.76507430171677E-02 
2447	 0.198893197958709 
2448	 0.338226123706132 
2449	 0.602915015976836 
2450	 0.711497453779882 
2451	 2.22005643659365 
2452	-0.91558484850285 
2453	-0.54746228312342 
2454	-0.247649035496749 
2455	-0.324010085051868 
2456	-0.098004307500025 
2457	 1.13236515002318 
2458	 9.16329966447421 
2459	 9.83189917841336 
2460	 32.5853943422349 
2461	-15.7193185842348 
2462	 2.54912331279149 
2463	 2.89813111370638 
2464	 1.83774290297005 
2465	 0.961439320823591 
2466	 1.1379278300087 
2467	 7.39237241511085 
2468	 29.2542668376503 
2469	 2.27279764352008 
2470	 1.81865499292446 
2471	-1.09479201096903 
2472	-2.29835645965758 
2473	-1.91755389264985E-02 
2474	-0.732210196454168 
2475	-3.01493406252028 
2476	-3.10385980652719 
2477	-2.08941627975799 
2478	 1.53590796329443 
2479	 0.292786902733944 
2480	 0.03545985291926 
2481	 0.402610460712896 
2482	 1.16761810199985 
2483	-1.04163292109594 
2484	 3.09886606920669E-02 
2485	-8.71470031573849E-02 
2486	-0.351120156963533 
2487	-0.353258902944017 
2488	-3.30644324915721 
2489	-2.35835161936546 
2490	-19.2767374728521 
2491	 2.17886601954446 
2492	 3.67538281243122 
2493	 3.7701475502496 
2494	 2.30470295167127 
2495	 3.27817142327389 
2496	 2.801129676711 
2497	 4.79376509708009 
2498	-10.7383560018443 
2499	-4.56052077948632 
2500	-5.90174896967221 
