Wavelength	rt0714yellow200009.asd
350	 6.50335619264985E-02 
351	 6.27981781842949E-02 
352	 6.30850303629709E-02 
353	 6.39142532936643E-02 
354	 0.063756520884788 
355	 6.46160913439103E-02 
356	 0.064039452016205 
357	 6.32994762920523E-02 
358	 6.40026908833063E-02 
359	 6.40508500938339E-02 
360	 0.063631391687597 
361	 0.063276729978292 
362	 6.35641612908215E-02 
363	 6.35430398171939E-02 
364	 6.36037205126879E-02 
365	 6.38178421392289E-02 
366	 6.35283155654472E-02 
367	 6.33278101461943E-02 
368	 6.33238750765087E-02 
369	 6.34354544067731E-02 
370	 6.34248195306632E-02 
371	 6.34100707563908E-02 
372	 6.34738568172083E-02 
373	 6.36204113247703E-02 
374	 6.33421281510779E-02 
375	 6.36328429237179E-02 
376	 6.44484057186225E-02 
377	 6.41837329543242E-02 
378	 6.37268719776909E-02 
379	 6.37223660039679E-02 
380	 6.43594938511012E-02 
381	 6.46069381146697E-02 
382	 6.54275922439364E-02 
383	 6.59969774167481E-02 
384	 0.065155178111571 
385	 0.06576794671882 
386	 6.54491028966139E-02 
387	 6.44442548636208E-02 
388	 6.61468904005629E-02 
389	 6.68330113005814E-02 
390	 6.67005818198324E-02 
391	 6.66784341412855E-02 
392	 6.74562470941376E-02 
393	 6.80875226986027E-02 
394	 6.81616063559959E-02 
395	 6.77624262754224E-02 
396	 6.80930767359811E-02 
397	 6.86071928762673E-02 
398	 6.88368196543782E-02 
399	 6.85475021043195E-02 
400	 6.86504944448369E-02 
401	 6.87787781363458E-02 
402	 6.87586393101863E-02 
403	 0.069369541377352 
404	 6.97170474486711E-02 
405	 6.97123278621383E-02 
406	 6.96391312528249E-02 
407	 6.99540819174064E-02 
408	 7.03692224134795E-02 
409	 7.07362214181176E-02 
410	 7.10836873849746E-02 
411	 7.09686065423475E-02 
412	 7.09241207425767E-02 
413	 7.13170067458871E-02 
414	 7.17309728851735E-02 
415	 7.21077752742342E-02 
416	 7.23767052978138E-02 
417	 7.25163987673298E-02 
418	 7.26937243092881E-02 
419	 7.30366225065664E-02 
420	 0.073448227101659 
421	 7.36210792556787E-02 
422	 7.41246425695799E-02 
423	 7.46235785363754E-02 
424	 7.48397556487354E-02 
425	 0.075182395507514 
426	 7.55239840209103E-02 
427	 7.59940566928579E-02 
428	 7.67355546595114E-02 
429	 0.077158612535481 
430	 7.75394914838174E-02 
431	 7.80740523368813E-02 
432	 7.87607140082966E-02 
433	 7.91431149350022E-02 
434	 7.94275322652577E-02 
435	 7.98799782020781E-02 
436	 8.04747605767002E-02 
437	 8.10956008630339E-02 
438	 8.16383556814766E-02 
439	 8.20473283595126E-02 
440	 8.25949341820028E-02 
441	 8.31431125516409E-02 
442	 0.083595957772716 
443	 8.39863760505723E-02 
444	 8.43921277577615E-02 
445	 0.084740659264701 
446	 8.50075763890796E-02 
447	 8.55373774328561E-02 
448	 8.59812954395627E-02 
449	 8.63121650983204E-02 
450	 8.67303501121388E-02 
451	 8.69682759134927E-02 
452	 8.71774004889713E-02 
453	 8.74708327529078E-02 
454	 8.77558188392621E-02 
455	 8.81303300636208E-02 
456	 8.83989652615014E-02 
457	 8.83874019815487E-02 
458	 8.85990129918956E-02 
459	 8.88228823434316E-02 
460	 8.89796556127563E-02 
461	 8.91566516740666E-02 
462	 8.93415172365297E-02 
463	 8.94897855629948E-02 
464	 8.96142433216407E-02 
465	 8.99096053229145E-02 
466	 9.02046845734266E-02 
467	 9.03730417190183E-02 
468	 0.090384247643921 
469	 9.07106873264162E-02 
470	 9.09414974705484E-02 
471	 9.09852525637699E-02 
472	 9.12815670612071E-02 
473	 0.091431635483485 
474	 9.16432142612841E-02 
475	 9.21121555433603E-02 
476	 9.24572778728776E-02 
477	 9.25742566232812E-02 
478	 9.26795335199439E-02 
479	 9.31462567905402E-02 
480	 0.093466307511851 
481	 9.36811762007947E-02 
482	 9.39291678377629E-02 
483	 9.43966516747511E-02 
484	 9.48014894097381E-02 
485	 9.51986934307998E-02 
486	 9.56920570977889E-02 
487	 9.59342597264051E-02 
488	 9.61455091353324E-02 
489	 9.65408281257938E-02 
490	 9.72663282019608E-02 
491	 9.77570492895358E-02 
492	 9.81157200254548E-02 
493	 9.85365957114861E-02 
494	 9.90901292360252E-02 
495	 9.95656602141387E-02 
496	 9.99975882071362E-02 
497	 0.10053817622242 
498	 0.101139489822684 
499	 0.101783418509153 
500	 0.102353828321469 
501	 0.10257473636812 
502	 0.103107601117048 
503	 0.103840046103738 
504	 0.104473391767509 
505	 0.104961045530028 
506	 0.10552523505196 
507	 0.10620980456099 
508	 0.10690333895068 
509	 0.107521470113647 
510	 0.108133571062334 
511	 0.108767390792841 
512	 0.109268245676623 
513	 0.109939693238752 
514	 0.110654272637136 
515	 0.111171623167837 
516	 0.111970338572301 
517	 0.112791440464971 
518	 0.113489549354764 
519	 0.114148380736654 
520	 0.114764828630149 
521	 0.115419664434477 
522	 0.116154884787687 
523	 0.116815924007497 
524	 0.117465108265967 
525	 0.118175587365473 
526	 0.118999662341715 
527	 0.119621068392826 
528	 0.120276552672718 
529	 0.121095938301513 
530	 0.121858589842482 
531	 0.122549617028604 
532	 0.123197826442377 
533	 0.123856245043243 
534	 0.124561857994235 
535	 0.125219067245935 
536	 0.125832120684177 
537	 0.126520716999503 
538	 0.127257354601785 
539	 0.12796841830187 
540	 0.128603938402533 
541	 0.129225815776489 
542	 0.129870410194868 
543	 0.130546764943729 
544	 0.131240795186714 
545	 0.131874493901504 
546	 0.13248000203562 
547	 0.133080735250801 
548	 0.133649206120368 
549	 0.134261132383617 
550	 0.134926961455125 
551	 0.135611077780763 
552	 0.136184550622342 
553	 0.136674459376484 
554	 0.137177039832085 
555	 0.13784349171159 
556	 0.138364029366378 
557	 0.138878667200787 
558	 0.139509616500346 
559	 0.139982996700728 
560	 0.140332837261994 
561	 0.140664771494945 
562	 0.14111659442193 
563	 0.141614385200935 
564	 0.142051489372365 
565	 0.142375339364104 
566	 0.142635961313351 
567	 0.142967862378846 
568	 0.143286204064905 
569	 0.143474819110603 
570	 0.143766456696422 
571	 0.144105715414487 
572	 0.144387059490724 
573	 0.144480568581123 
574	 0.14469281080977 
575	 0.144947724528458 
576	 0.145127079004331 
577	 0.145292358588897 
578	 0.145431500634149 
579	 0.145570244070816 
580	 0.14574346749192 
581	 0.145851021487812 
582	 0.145904390886956 
583	 0.145930589869435 
584	 0.145965185077392 
585	 0.145871588704468 
586	 0.145640861804406 
587	 0.145340208350744 
588	 0.145157330150431 
589	 0.145067228012872 
590	 0.145025110578642 
591	 0.144979053419204 
592	 0.144822670382182 
593	 0.144605567730574 
594	 0.144373593357692 
595	 0.144021783098789 
596	 0.143763838495747 
597	 0.143484549930945 
598	 0.142942649314105 
599	 0.142633789939995 
600	 0.142353936312423 
601	 0.142051655698398 
602	 0.142110137909307 
603	 0.141964156785507 
604	 0.141682965033481 
605	 0.14150624192274 
606	 0.141361590488062 
607	 0.141328811865555 
608	 0.141382865298119 
609	 0.141385710442808 
610	 0.141283517590453 
611	 0.141233754684415 
612	 0.141324428352616 
613	 0.141318584062446 
614	 0.14115146947386 
615	 0.141041921975644 
616	 0.141267466784406 
617	 0.141015315212987 
618	 0.140842948049544 
619	 0.140975682273942 
620	 0.140866875110243 
621	 0.140860298421982 
622	 0.140929575257115 
623	 0.140920449736544 
624	 0.140633583789164 
625	 0.140477344804997 
626	 0.140528088801035 
627	 0.14052466061151 
628	 0.140454949269705 
629	 0.140368251838635 
630	 0.140346680314295 
631	 0.140553852776644 
632	 0.140471440011881 
633	 0.14025822280551 
634	 0.140331675305141 
635	 0.140290324295565 
636	 0.140276691291279 
637	 0.140318305117806 
638	 0.140208251350272 
639	 0.140069464960989 
640	 0.139984063312978 
641	 0.139950713331365 
642	 0.13966583849696 
643	 0.139469736520064 
644	 0.139365605914089 
645	 0.139079495326437 
646	 0.138640744983094 
647	 0.138431622437386 
648	 0.138594738489253 
649	 0.13861415404102 
650	 0.138321586179821 
651	 0.137884614668313 
652	 0.137591702647891 
653	 0.137331324835627 
654	 0.137055766953198 
655	 0.136719184395096 
656	 0.136321234356456 
657	 0.135955605181889 
658	 0.135592958956888 
659	 0.135194524085256 
660	 0.134810949793294 
661	 0.134497510020827 
662	 0.13420796002225 
663	 0.133865169888395 
664	 0.133757154528576 
665	 0.133548154182835 
666	 0.133134445281772 
667	 0.132963215473586 
668	 0.132902826560187 
669	 0.132800493634075 
670	 0.13258105153626 
671	 0.132650706735016 
672	 0.132604483411334 
673	 0.132432507107894 
674	 0.132506401235981 
675	 0.132537454301338 
676	 0.132563466949361 
677	 0.132627757070729 
678	 0.132606754277621 
679	 0.132813451213785 
680	 0.133097404976654 
681	 0.133151275752702 
682	 0.1332153469475 
683	 0.133392110506228 
684	 0.133617924036772 
685	 0.133632562378411 
686	 0.13368918173521 
687	 0.133826595394679 
688	 0.134029757998422 
689	 0.134471139882811 
690	 0.134469251566164 
691	 0.134293426724193 
692	 0.134670261174405 
693	 0.134519364181205 
694	 0.134541626701237 
695	 0.134932926342747 
696	 0.134734034382351 
697	 0.134467039928582 
698	 0.134230509900876 
699	 0.134003167761457 
700	 0.133655495456793 
701	 0.133309256231842 
702	 0.133080848739759 
703	 0.133008157269228 
704	 0.132455926195805 
705	 0.131748426826525 
706	 0.131167119898753 
707	 0.130517502737493 
708	 0.129910428163868 
709	 0.129238557487927 
710	 0.128353873349666 
711	 0.12735638615547 
712	 0.126282788925706 
713	 0.12515158032639 
714	 0.12392743631047 
715	 0.12235905613666 
716	 0.120841962861193 
717	 0.119798445566795 
718	 0.118159733731186 
719	 0.116765343961796 
720	 0.115634135558892 
721	 0.114274182855583 
722	 0.112981643785369 
723	 0.111552637761443 
724	 0.110051639576356 
725	 0.108516881494137 
726	 0.106774435443805 
727	 0.105070117082677 
728	 0.103496306073469 
729	 0.101301975184442 
730	 9.93241456222707E-02 
731	 9.77416480234137E-02 
732	 9.62750703529908E-02 
733	 0.094722186772459 
734	 9.34256603248677E-02 
735	 9.24509102286426E-02 
736	 9.14377583129501E-02 
737	 9.08766851217846E-02 
738	 9.05226811272011E-02 
739	 9.01116197148259E-02 
740	 8.98411013541022E-02 
741	 8.97265490667831E-02 
742	 8.96496753580787E-02 
743	 8.94597708931817E-02 
744	 8.93810987499669E-02 
745	 8.93854131933889E-02 
746	 8.93309439050994E-02 
747	 8.89627074359093E-02 
748	 8.90810697408966E-02 
749	 0.089262162147841 
750	 8.90450006675319E-02 
751	 8.89391542990306E-02 
752	 8.88895770709839E-02 
753	 8.89055780775859E-02 
754	 8.89858368570177E-02 
755	 8.88151973705357E-02 
756	 8.87127380706843E-02 
757	 8.87532803142915E-02 
758	 8.85291565316622E-02 
759	 8.81219285900678E-02 
760	 0.087819460521447 
761	 8.79994009484852E-02 
762	 8.80321008374244E-02 
763	 8.82639598426269E-02 
764	 8.85101767016793E-02 
765	 8.85611863299193E-02 
766	 8.86906789751017E-02 
767	 8.89679198117991E-02 
768	 8.92633960760368E-02 
769	 8.92642994206786E-02 
770	 0.089453269843711 
771	 8.95561609145596E-02 
772	 8.94282182337582E-02 
773	 8.96932875694407E-02 
774	 8.99577763096918E-02 
775	 9.01701361423518E-02 
776	 9.04082239095066E-02 
777	 9.05621842884826E-02 
778	 9.08683289727927E-02 
779	 9.12634788283588E-02 
780	 9.13861115312831E-02 
781	 9.14839793902231E-02 
782	 9.15872862974274E-02 
783	 9.17509178139393E-02 
784	 9.21996733513096E-02 
785	 9.24456268145565E-02 
786	 9.26191899114286E-02 
787	 9.29919655855913E-02 
788	 9.32880452113687E-02 
789	 9.35114795041224E-02 
790	 9.37921120924875E-02 
791	 9.43099894807239E-02 
792	 9.47546747982549E-02 
793	 0.095066450404439 
794	 9.52896954254185E-02 
795	 9.55558805820306E-02 
796	 9.60822598448291E-02 
797	 9.63698764108857E-02 
798	 9.61713807604782E-02 
799	 0.09674693647372 
800	 9.72450247402193E-02 
801	 9.74248408756248E-02 
802	 9.74549026171904E-02 
803	 9.75232877118414E-02 
804	 9.77992024660186E-02 
805	 9.81226193454524E-02 
806	 9.80296802797459E-02 
807	 9.81901547388397E-02 
808	 9.79800693364263E-02 
809	 9.71907847756696E-02 
810	 9.73502491687091E-02 
811	 9.73717566699899E-02 
812	 9.68911436771766E-02 
813	 9.60200379182349E-02 
814	 9.59282707328821E-02 
815	 9.57978109105893E-02 
816	 9.53507224017242E-02 
817	 9.48954112357902E-02 
818	 9.44917992065077E-02 
819	 9.40001497043789E-02 
820	 0.093292800941104 
821	 0.092298108565766 
822	 9.13241712735062E-02 
823	 9.05979999624516E-02 
824	 8.98957729883578E-02 
825	 8.79916485276483E-02 
826	 8.64548373039279E-02 
827	 8.50492046834411E-02 
828	 0.083177641855107 
829	 8.18813839535763E-02 
830	 8.07893535958474E-02 
831	 7.98980707641066E-02 
832	 7.94375754904408E-02 
833	 7.83317601868343E-02 
834	 7.75802895096484E-02 
835	 7.73413861194416E-02 
836	 7.64164322138018E-02 
837	 7.59649675626716E-02 
838	 7.59178120244446E-02 
839	 7.59177011377709E-02 
840	 7.56183774046297E-02 
841	 7.51405366790414E-02 
842	 7.47789392201019E-02 
843	 0.07477241874448 
844	 0.074795741265926 
845	 7.45100788440745E-02 
846	 7.40882554458027E-02 
847	 7.40041198193744E-02 
848	 7.40541117697882E-02 
849	 7.36552189041961E-02 
850	 7.29159093089212E-02 
851	 7.28001592475561E-02 
852	 7.24217877013339E-02 
853	 0.0722161676123 
854	 7.23412120833272E-02 
855	 0.071784911626283 
856	 7.18249493415822E-02 
857	 7.20235177265921E-02 
858	 0.071711101570625 
859	 7.11422709480383E-02 
860	 7.09203809631635E-02 
861	 7.09847987391811E-02 
862	 7.09427394798411E-02 
863	 7.08733702227821E-02 
864	 7.04625473432405E-02 
865	 6.99842632986154E-02 
866	 7.01251767851185E-02 
867	 0.069859428922283 
868	 0.069656550197401 
869	 6.96518619592896E-02 
870	 6.93022607424515E-02 
871	 6.86926871009772E-02 
872	 6.83019653053419E-02 
873	 6.83299906043951E-02 
874	 6.81807784111914E-02 
875	 6.78091601313658E-02 
876	 6.73505023995126E-02 
877	 6.69811933611672E-02 
878	 6.67284385060289E-02 
879	 6.64224789369896E-02 
880	 6.62202170804786E-02 
881	 6.62857056110136E-02 
882	 6.59624850242944E-02 
883	 6.53446958247571E-02 
884	 6.49945726593069E-02 
885	 0.065495410245781 
886	 6.49165229519471E-02 
887	 6.43758303202572E-02 
888	 6.43500368894875E-02 
889	 6.42252988693972E-02 
890	 6.44804637911654E-02 
891	 6.43257247864396E-02 
892	 6.35056672349317E-02 
893	 6.31700849250143E-02 
894	 6.31852377228833E-02 
895	 6.34156887371262E-02 
896	 6.35484346815546E-02 
897	 6.29017960062146E-02 
898	 6.30116991500508E-02 
899	 6.30547288764304E-02 
900	 6.20664243998089E-02 
901	 6.15965846972903E-02 
902	 6.12569518487589E-02 
903	 6.06713661378284E-02 
904	 5.97896734939005E-02 
905	 6.01362142433881E-02 
906	 6.03677559186023E-02 
907	 6.00568069161531E-02 
908	 5.95841282924267E-02 
909	 0.059335402248151 
910	 5.88767268736203E-02 
911	 0.058432188926538 
912	 0.05867303242714 
913	 5.81192043530612E-02 
914	 5.77559956855045E-02 
915	 0.057842595442514 
916	 5.74762428096562E-02 
917	 5.62024930543497E-02 
918	 5.58535523808254E-02 
919	 5.63848476530945E-02 
920	 5.51077860690008E-02 
921	 5.54270581204924E-02 
922	 5.57340935895497E-02 
923	 5.49767057264922E-02 
924	 5.53041808759257E-02 
925	 5.47796712012267E-02 
926	 5.37473016521874E-02 
927	 5.31685779629337E-02 
928	 5.36030419184806E-02 
929	 5.37722377645742E-02 
930	 5.32434792449273E-02 
931	 5.21692741352506E-02 
932	 5.06365562298812E-02 
933	 5.51366728398073E-02 
934	 0.057332068366542 
935	 4.91017438495528E-02 
936	 5.13696734286436E-02 
937	 0.053447622512696 
938	 5.30047848662117E-02 
939	 5.08674301788717E-02 
940	 0.046862516260367 
941	 4.26195533877373E-02 
942	 0.043326886333957 
943	 5.25405214614769E-02 
944	 5.46851813249709E-02 
945	 5.08827465730537E-02 
946	 4.68679785553567E-02 
947	 4.74621466570514E-02 
948	 4.10031968917317E-02 
949	 3.92586471976668E-02 
950	 4.31694804811331E-02 
951	 4.60061405397563E-02 
952	 4.64392872646356E-02 
953	 4.96970987429148E-02 
954	 5.13803379991715E-02 
955	 4.41012955413391E-02 
956	 0.046139678329193 
957	 4.80301165834304E-02 
958	 4.77932201583039E-02 
959	 4.96801892942599E-02 
960	 5.02355768697947E-02 
961	 0.048290780624011 
962	 4.63920228440794E-02 
963	 4.81043184428636E-02 
964	 4.77196943868895E-02 
965	 4.72444796650733E-02 
966	 4.76530526338109E-02 
967	 4.83148194814339E-02 
968	 0.046547819206516 
969	 4.48605607040626E-02 
970	 4.46103800274235E-02 
971	 4.58423598976783E-02 
972	 5.15130641132349E-02 
973	 5.15396071177707E-02 
974	 4.59688412681382E-02 
975	 4.52906077272054E-02 
976	 4.65579119004292E-02 
977	 4.84185014929155E-02 
978	 5.00799243275036E-02 
979	 5.09523750125467E-02 
980	 4.71138124257858E-02 
981	 4.70224069219103E-02 
982	 4.96895662148515E-02 
983	 4.71460943099782E-02 
984	 4.68174430811225E-02 
985	 4.64106209681884E-02 
986	 4.54585953759412E-02 
987	 4.59215278338783E-02 
988	 5.13759568907871E-02 
989	 5.14613960257186E-02 
990	 4.75302070674716E-02 
991	 4.87355194422638E-02 
992	 4.71404529464523E-02 
993	 4.66282017249133E-02 
994	 4.77291493352163E-02 
995	 4.79971880887893E-02 
996	 4.64840685988682E-02 
997	 4.69325357870498E-02 
998	 4.97410193957757E-02 
999	 5.20922961927857E-02 
1000	 4.87776097652688E-02 
1001	 4.46102460187068E-02 
1002	 4.43629858870994E-02 
1003	 4.44624337685448E-02 
1004	 4.45491123300137E-02 
1005	 0.044659396342024 
1006	 4.50302368974473E-02 
1007	 4.56348186253287E-02 
1008	 4.56922215199572E-02 
1009	 4.47932760962003E-02 
1010	 4.42682476071822E-02 
1011	 4.42746935954641E-02 
1012	 4.44358382447089E-02 
1013	 4.46974032382089E-02 
1014	 4.49051074296593E-02 
1015	 4.52323228126954E-02 
1016	 4.53624302977025E-02 
1017	 4.54746166626477E-02 
1018	 4.54816263606239E-02 
1019	 4.51475400147741E-02 
1020	 4.54762175173273E-02 
1021	 4.62624967639766E-02 
1022	 4.64836407279743E-02 
1023	 4.72784798369812E-02 
1024	 4.72376304319996E-02 
1025	 4.69871125062286E-02 
1026	 4.70884133763081E-02 
1027	 4.68608069608277E-02 
1028	 0.046597216644195 
1029	 4.65657611744272E-02 
1030	 4.63270180596535E-02 
1031	 4.63299534793492E-02 
1032	 4.68056421440013E-02 
1033	 4.69164080589323E-02 
1034	 4.70060461183016E-02 
1035	 4.67380995658266E-02 
1036	 4.59519945335439E-02 
1037	 4.56899615637534E-02 
1038	 4.54411455726109E-02 
1039	 4.50499470525889E-02 
1040	 4.56245574920993E-02 
1041	 4.66270783697869E-02 
1042	 4.70165302225008E-02 
1043	 4.75416105381923E-02 
1044	 4.76708771541651E-02 
1045	 4.72235576140532E-02 
1046	 4.71682627505751E-02 
1047	 4.71810242780359E-02 
1048	 0.047077078450806 
1049	 4.67817010258417E-02 
1050	 4.68628189627114E-02 
1051	 0.04748602941475 
1052	 0.047392770329977 
1053	 4.67877121387232E-02 
1054	 4.68201288809587E-02 
1055	 4.67640780875908E-02 
1056	 4.66283064896774E-02 
1057	 4.66629234396459E-02 
1058	 4.74878272174904E-02 
1059	 4.75024029382968E-02 
1060	 4.67693641675703E-02 
1061	 4.67594813820888E-02 
1062	 4.70717906252568E-02 
1063	 4.71559118341583E-02 
1064	 4.74813249646405E-02 
1065	 4.74684105317012E-02 
1066	 4.67885733747238E-02 
1067	 4.68951342743927E-02 
1068	 4.77033605044847E-02 
1069	 4.77879794475061E-02 
1070	 4.80530970161826E-02 
1071	 4.80186703062254E-02 
1072	 4.71094309402976E-02 
1073	 4.62020825849358E-02 
1074	 4.63388144886502E-02 
1075	 4.72149533933578E-02 
1076	 4.75804303959213E-02 
1077	 4.86110183054351E-02 
1078	 4.87443171817398E-02 
1079	 4.80860618533336E-02 
1080	 4.77613506828566E-02 
1081	 4.75954010985246E-02 
1082	 4.69706403094861E-02 
1083	 4.53887349339238E-02 
1084	 4.51684994867835E-02 
1085	 4.55244829626352E-02 
1086	 4.54899323465944E-02 
1087	 4.66059214347671E-02 
1088	 4.69410519963198E-02 
1089	 4.60141328074508E-02 
1090	 4.59294049816181E-02 
1091	 4.54365610532412E-02 
1092	 4.46421845991958E-02 
1093	 4.43926278664421E-02 
1094	 4.40860701393774E-02 
1095	 4.41837425677693E-02 
1096	 4.52125462587787E-02 
1097	 4.54835666801404E-02 
1098	 4.54461309172424E-02 
1099	 4.55624790881083E-02 
1100	 4.55868477345802E-02 
1101	 4.55548261131632E-02 
1102	 4.55943335971916E-02 
1103	 4.55342028914741E-02 
1104	 4.52004501060427E-02 
1105	 4.49729836263892E-02 
1106	 4.46774710286329E-02 
1107	 4.39719897651009E-02 
1108	 0.04349243326645 
1109	 4.34462084095055E-02 
1110	 4.34295375924334E-02 
1111	 4.40653550267008E-02 
1112	 4.41210525058712E-02 
1113	 4.32229595616556E-02 
1114	 4.35116528964751E-02 
1115	 4.54668241794123E-02 
1116	 4.61597787878857E-02 
1117	 4.79026187994833E-02 
1118	 4.80393132445812E-02 
1119	 4.16931277784032E-02 
1120	 3.98250771928164E-02 
1121	 3.97349711718715E-02 
1122	 4.37419449918519E-02 
1123	 5.08182149347587E-02 
1124	 5.39429412704721E-02 
1125	 4.83571644363931E-02 
1126	 4.57435831495023E-02 
1127	 4.86261372861135E-02 
1128	 4.92878878621435E-02 
1129	 4.77664000440587E-02 
1130	 4.69517383674484E-02 
1131	 4.62385850464085E-02 
1132	 4.32974404317742E-02 
1133	 4.24695153953982E-02 
1134	 4.44891063236407E-02 
1135	 4.46844550033176E-02 
1136	 4.21539578018915E-02 
1137	 0.04102052984867 
1138	 4.06123636532746E-02 
1139	 4.19217896621031E-02 
1140	 3.86754323230009E-02 
1141	 3.83273541614603E-02 
1142	 4.01180929834226E-02 
1143	 3.83378615565586E-02 
1144	 3.91864821971178E-02 
1145	 4.12886160362226E-02 
1146	 3.97059047096471E-02 
1147	 3.94214404276511E-02 
1148	 3.92588127735193E-02 
1149	 3.79467621036118E-02 
1150	 3.95381784135643E-02 
1151	 4.40345311030816E-02 
1152	 4.42785028469765E-02 
1153	 0.044807592749974 
1154	 4.44948100650501E-02 
1155	 4.20833076482857E-02 
1156	 3.99943956382838E-02 
1157	 4.17682271003239E-02 
1158	 4.24121943711409E-02 
1159	 4.13075606002939E-02 
1160	 4.18190570804529E-02 
1161	 4.11873718414773E-02 
1162	 3.95936058733777E-02 
1163	 4.11041871456819E-02 
1164	 4.23736718964589E-02 
1165	 4.17534514743217E-02 
1166	 4.20039385489255E-02 
1167	 4.18254547049905E-02 
1168	 4.12410889037549E-02 
1169	 4.18840021762074E-02 
1170	 4.28775023080694E-02 
1171	 4.30416593873706E-02 
1172	 4.24212561133323E-02 
1173	 4.21470520442694E-02 
1174	 4.15903686064597E-02 
1175	 4.14945158650558E-02 
1176	 4.13470363210715E-02 
1177	 4.17715285666078E-02 
1178	 4.21124166365116E-02 
1179	 4.17370774281916E-02 
1180	 4.14043329274372E-02 
1181	 4.17530149068341E-02 
1182	 0.042326480433742 
1183	 4.22488070132901E-02 
1184	 4.20086026136485E-02 
1185	 4.19852326437558E-02 
1186	 4.18579991030642E-02 
1187	 0.042152454381573 
1188	 4.26524601446493E-02 
1189	 4.24864082629256E-02 
1190	 4.21523672576122E-02 
1191	 4.19763340791291E-02 
1192	 4.17356332546125E-02 
1193	 4.14694108661186E-02 
1194	 4.16603606557396E-02 
1195	 4.16826181055175E-02 
1196	 4.12858257767412E-02 
1197	 0.041253726919257 
1198	 4.11907441788617E-02 
1199	 4.11158062825662E-02 
1200	 4.13764582024806E-02 
1201	 4.14149802512859E-02 
1202	 4.12916429140499E-02 
1203	 4.12603635866971E-02 
1204	 4.14536073386868E-02 
1205	 4.17003222268695E-02 
1206	 4.15617264576303E-02 
1207	 4.13763803170359E-02 
1208	 4.14089520470132E-02 
1209	 4.15550353830697E-02 
1210	 4.16231668386184E-02 
1211	 4.16502121868937E-02 
1212	 4.12975955751732E-02 
1213	 4.05455958707452E-02 
1214	 4.03838091299237E-02 
1215	 4.06128162613097E-02 
1216	 0.041271574459397 
1217	 4.15636205479392E-02 
1218	 4.15601836216613E-02 
1219	 4.12790972499357E-02 
1220	 4.07968236307687E-02 
1221	 4.07399372016045E-02 
1222	 4.12098282382404E-02 
1223	 0.041461176547083 
1224	 4.16009384527466E-02 
1225	 4.17551279261712E-02 
1226	 0.041420577011423 
1227	 4.12291865122738E-02 
1228	 4.13191964775637E-02 
1229	 4.12708266502769E-02 
1230	 4.14243826915045E-02 
1231	 4.14257524489313E-02 
1232	 0.041242613529002 
1233	 4.13957510461716E-02 
1234	 4.12076269675406E-02 
1235	 4.10030137318884E-02 
1236	 4.09273647651831E-02 
1237	 4.10031378794781E-02 
1238	 4.08867237588019E-02 
1239	 4.09508531393706E-02 
1240	 4.14916020220548E-02 
1241	 4.16194037371561E-02 
1242	 4.15062126653389E-02 
1243	 0.041413237318904 
1244	 4.12963364043886E-02 
1245	 4.11418176042796E-02 
1246	 4.09520296611316E-02 
1247	 4.10687694108876E-02 
1248	 4.10208041100054E-02 
1249	 4.07430383907149E-02 
1250	 4.09875197947464E-02 
1251	 4.09843806828114E-02 
1252	 4.09229756836711E-02 
1253	 4.13024489780626E-02 
1254	 4.13328499515755E-02 
1255	 0.041442782042905 
1256	 4.15836462801301E-02 
1257	 4.18234721021177E-02 
1258	 4.18367213919851E-02 
1259	 4.17712013611308E-02 
1260	 4.17246168042349E-02 
1261	 4.15151522117887E-02 
1262	 4.13923869132153E-02 
1263	 4.13211070041668E-02 
1264	 4.13588364018153E-02 
1265	 4.11763232426407E-02 
1266	 4.10479827401261E-02 
1267	 4.13354883500219E-02 
1268	 0.041088768305979 
1269	 4.05542128131778E-02 
1270	 4.07781139619563E-02 
1271	 4.13467729748708E-02 
1272	 4.14389133528135E-02 
1273	 0.041212622646559 
1274	 4.13460589559947E-02 
1275	 0.041123625124933 
1276	 0.04075518756839 
1277	 4.10966215147985E-02 
1278	 4.12814727107892E-02 
1279	 4.10939503501347E-02 
1280	 4.10159918129396E-02 
1281	 4.10576360909998E-02 
1282	 4.14243518550159E-02 
1283	 4.14193419355842E-02 
1284	 4.11339660424777E-02 
1285	 4.10505684372361E-02 
1286	 4.07835569172221E-02 
1287	 4.07703359028122E-02 
1288	 4.12641888637822E-02 
1289	 4.13788011183466E-02 
1290	 4.14405201168572E-02 
1291	 0.04131964092508 
1292	 4.11520368314812E-02 
1293	 4.08665451120915E-02 
1294	 4.03262212966135E-02 
1295	 0.04004978992249 
1296	 4.01277643474031E-02 
1297	 3.99867079092555E-02 
1298	 3.98735303306462E-02 
1299	 4.00790232665487E-02 
1300	 4.04272779983692E-02 
1301	 4.05809461037433E-02 
1302	 0.040545028765723 
1303	 4.05779143252994E-02 
1304	 4.07256263155887E-02 
1305	 4.09560074751176E-02 
1306	 4.09035568621009E-02 
1307	 4.14527001835868E-02 
1308	 4.13651900372282E-02 
1309	 4.00790628834373E-02 
1310	 3.98262745010916E-02 
1311	 0.040533827690593 
1312	 4.04431682481613E-02 
1313	 3.99362881221299E-02 
1314	 3.97066744423095E-02 
1315	 3.93346556821301E-02 
1316	 3.90625793861316E-02 
1317	 3.89498938204564E-02 
1318	 3.88759077964806E-02 
1319	 3.85173040129433E-02 
1320	 3.87334519252783E-02 
1321	 3.97637737506332E-02 
1322	 4.04715064887554E-02 
1323	 4.03667644972869E-02 
1324	 4.00003806089212E-02 
1325	 3.93404624793904E-02 
1326	 3.96480791970115E-02 
1327	 4.06717512047066E-02 
1328	 4.01600530317253E-02 
1329	 3.90658563136528E-02 
1330	 3.90472244428308E-02 
1331	 3.94017155402736E-02 
1332	 3.91995071068218E-02 
1333	 3.96645148208891E-02 
1334	 4.02392466718233E-02 
1335	 4.05341813462114E-02 
1336	 4.10323274856262E-02 
1337	 4.14278564571392E-02 
1338	 4.16923277463367E-02 
1339	 4.10353955550413E-02 
1340	 3.90652239679079E-02 
1341	 0.038738062564535 
1342	 3.86197427053659E-02 
1343	 3.91771586616632E-02 
1344	 4.17587925463494E-02 
1345	 4.34468452064833E-02 
1346	 4.64435590575811E-02 
1347	 4.74417514278822E-02 
1348	 0.04439227213447 
1349	 4.57512401016352E-02 
1350	 4.99713003893968E-02 
1351	 5.01939717694327E-02 
1352	 5.13003398708557E-02 
1353	 6.38005212641919E-02 
1354	 0.100139977570961 
1355	 9.30157977334056E-02 
1356	 9.64213512477359E-02 
1357	 6.54448216530225E-02 
1358	-1.88637398676301E-02 
1359	-2.12344017142821E-02 
1360	-0.027362740175608 
1361	 1.83765751551108E-02 
1362	 0.180346929065579 
1363	 0.255260084534016 
1364	 0.344351252358499 
1365	 0.354130100056215 
1366	 0.168637019567529 
1367	-0.1622975353319 
1368	-0.357729204331594 
1369	-0.321580590818135 
1370	-0.263044301306419 
1371	-3.50692989320979E-02 
1372	 0.023797140651424 
1373	 0.245894460626282 
1374	 0.463429545720773 
1375	 0.382154239060292 
1376	 0.358567230165549 
1377	 0.625894210935285 
1378	 0.700363535413174 
1379	 0.36284483292445 
1380	 0.291490661891008 
1381	 0.165935211885157 
1382	 0.235907620983345 
1383	 1.86213202971167 
1384	 1.93227932631945 
1385	 0.263125611363864 
1386	 0.327717574292662 
1387	 0.441524802065814 
1388	 0.264766480358048 
1389	 0.297877459333884 
1390	 0.372799192440256 
1391	-0.130850471701296 
1392	-0.491957654343599 
1393	-0.519163603199689 
1394	-8.68378055566111E-02 
1395	 0.241912625133418 
1396	 0.227203227129557 
1397	-0.28401439489153 
1398	-0.560979176217993 
1399	-1.04463253608173 
1400	-2.50028652749854 
1401	-2.31617044652457 
1402	 7.08624453334824 
1403	 0.920374941947508 
1404	 0.408177549097219 
1405	 0.191993044736812 
1406	-0.19818354846749 
1407	-0.204416450059427 
1408	-0.225860185583457 
1409	-0.194861542982187 
1410	 0.158232893315282 
1411	 0.250823360905101 
1412	 0.139521338998627 
1413	 0.122182191855098 
1414	 0.171347320097172 
1415	 0.135784553926066 
1416	-1.43946875917989E-02 
1417	 2.34924359463456E-03 
1418	 9.43967163596146E-02 
1419	 8.13138985372601E-02 
1420	 7.73692856338694E-02 
1421	 7.92748124964492E-02 
1422	 4.42700247320079E-02 
1423	 1.76258978268255E-02 
1424	 1.21676287595699E-02 
1425	 1.34339590097529E-02 
1426	-7.98407043278414E-04 
1427	 5.58530825384438E-04 
1428	 2.44246247763793E-02 
1429	 3.34061189324797E-02 
1430	 4.10931694504922E-02 
1431	 4.10699591917887E-02 
1432	 2.61605529918883E-02 
1433	 2.57393518764372E-02 
1434	 3.27537411151761E-02 
1435	 3.32036065190893E-02 
1436	 4.40754552237472E-02 
1437	 4.37803074990175E-02 
1438	 4.28733832707442E-02 
1439	 4.09068368609098E-02 
1440	 0.037131629601804 
1441	 4.02944981020147E-02 
1442	 4.37548133032229E-02 
1443	 3.96761503163082E-02 
1444	 2.76301894125335E-02 
1445	 2.37055265797997E-02 
1446	 3.00849510161632E-02 
1447	 2.71964215564356E-02 
1448	 2.49228253061787E-02 
1449	 0.031135125706566 
1450	 3.17335515095759E-02 
1451	 3.14895510936064E-02 
1452	 3.61475645759789E-02 
1453	 3.72207596001501E-02 
1454	 3.56212720386208E-02 
1455	 2.92207917156971E-02 
1456	 2.86915442713294E-02 
1457	 2.95407220315658E-02 
1458	 3.01558405461979E-02 
1459	 3.34526792921307E-02 
1460	 3.26913486925721E-02 
1461	 2.83414069529647E-02 
1462	 2.76735982783316E-02 
1463	 2.73771289694002E-02 
1464	 2.74100378841451E-02 
1465	 3.03565507098836E-02 
1466	 3.05465251116119E-02 
1467	 2.75898924998573E-02 
1468	 2.85036596594048E-02 
1469	 0.032000529263337 
1470	 3.12523085940075E-02 
1471	 2.96813443379128E-02 
1472	 3.07782321318648E-02 
1473	 2.97197596718744E-02 
1474	 3.04813106861156E-02 
1475	 3.68791035075324E-02 
1476	 3.64751481697891E-02 
1477	 3.06411509505259E-02 
1478	 2.93978866860693E-02 
1479	 2.82504128939305E-02 
1480	 2.76600932522867E-02 
1481	 2.90178861822189E-02 
1482	 2.97634891204024E-02 
1483	 3.06883652434115E-02 
1484	 3.02810451655911E-02 
1485	 0.028875733762346 
1486	 2.89954810473071E-02 
1487	 0.029482151329088 
1488	 2.92168438810082E-02 
1489	 2.89004368907743E-02 
1490	 2.93030675974156E-02 
1491	 2.95427126676602E-02 
1492	 2.96524096971212E-02 
1493	 3.06801064212795E-02 
1494	 3.08815450583322E-02 
1495	 3.00114030827675E-02 
1496	 2.98545928905054E-02 
1497	 3.02369664121045E-02 
1498	 3.02764268099359E-02 
1499	 3.01947515438024E-02 
1500	 3.00961616919046E-02 
1501	 2.97313491987361E-02 
1502	 2.95925140427741E-02 
1503	 2.97352061064255E-02 
1504	 2.97818884047376E-02 
1505	 3.00226205078993E-02 
1506	 2.97543288109503E-02 
1507	 2.92693711941674E-02 
1508	 2.94849623662638E-02 
1509	 3.04998813078408E-02 
1510	 3.08996281104575E-02 
1511	 3.03835782902857E-02 
1512	 3.02462158866892E-02 
1513	 3.06701000477808E-02 
1514	 3.07263970432085E-02 
1515	 3.06024730998777E-02 
1516	 3.10599126802216E-02 
1517	 3.10780570420255E-02 
1518	 3.05335730543665E-02 
1519	 3.09197840579278E-02 
1520	 3.12599748480842E-02 
1521	 3.13051971759116E-02 
1522	 3.16938929998145E-02 
1523	 3.15530177029721E-02 
1524	 3.16762112314248E-02 
1525	 3.21324953847695E-02 
1526	 0.03165155607761 
1527	 0.030885015142751 
1528	 3.08509503889725E-02 
1529	 3.10257826063475E-02 
1530	 3.10123483188079E-02 
1531	 3.13281806777705E-02 
1532	 3.17675915021798E-02 
1533	 3.18735596847997E-02 
1534	 3.15454132126043E-02 
1535	 3.12298823600003E-02 
1536	 3.13194953616922E-02 
1537	 3.15243984415022E-02 
1538	 3.15919090490996E-02 
1539	 0.031875915739248 
1540	 3.23841509861415E-02 
1541	 0.032071431902297 
1542	 3.15195691059552E-02 
1543	 3.17241097504202E-02 
1544	 3.19605305046348E-02 
1545	 3.18937287213995E-02 
1546	 3.19887236973862E-02 
1547	 3.21378258194228E-02 
1548	 0.031964331758442 
1549	 3.18725327747627E-02 
1550	 3.19915831353961E-02 
1551	 3.23455821184346E-02 
1552	 3.24754992043638E-02 
1553	 3.22026005154433E-02 
1554	 3.23736151988094E-02 
1555	 3.21814527384469E-02 
1556	 0.031810107088078 
1557	 3.23043807987661E-02 
1558	 3.25599752789314E-02 
1559	 3.20886591441744E-02 
1560	 3.19906817021717E-02 
1561	 3.24265365441369E-02 
1562	 3.21488424420264E-02 
1563	 0.031932600505504 
1564	 3.24615723416449E-02 
1565	 3.25128911522534E-02 
1566	 3.25746827343796E-02 
1567	 3.27065536797194E-02 
1568	 3.24676750298407E-02 
1569	 3.25652436893596E-02 
1570	 3.30476322776209E-02 
1571	 3.33871677166976E-02 
1572	 3.31797889685758E-02 
1573	 3.28711098405941E-02 
1574	 3.28422904888252E-02 
1575	 3.27914990828965E-02 
1576	 3.31235664179066E-02 
1577	 3.36092618430804E-02 
1578	 0.033301335174458 
1579	 3.31733769108664E-02 
1580	 3.36135632017521E-02 
1581	 3.34641098605859E-02 
1582	 3.32701261888607E-02 
1583	 3.38395062704312E-02 
1584	 3.42459422245504E-02 
1585	 3.39415562092793E-02 
1586	 3.36612923227961E-02 
1587	 3.37122756908862E-02 
1588	 3.40048663974708E-02 
1589	 3.42210170554903E-02 
1590	 3.41409425119156E-02 
1591	 3.40428607122773E-02 
1592	 3.36697125425512E-02 
1593	 0.033547491835854 
1594	 3.38445010887228E-02 
1595	 3.34564855566508E-02 
1596	 3.29918181658798E-02 
1597	 3.33963107809285E-02 
1598	 0.034055123981026 
1599	 3.40156089938944E-02 
1600	 3.35931827406491E-02 
1601	 3.37704803240971E-02 
1602	 3.39179788431254E-02 
1603	 3.38162548224052E-02 
1604	 3.42472929522944E-02 
1605	 3.43717703941103E-02 
1606	 3.40913419524061E-02 
1607	 3.41250297696058E-02 
1608	 3.41158411426646E-02 
1609	 3.40849275253878E-02 
1610	 3.40713214600273E-02 
1611	 3.41173514220374E-02 
1612	 3.45401651092515E-02 
1613	 3.49230816002366E-02 
1614	 3.46409734672993E-02 
1615	 3.44691930387919E-02 
1616	 3.47479132060899E-02 
1617	 3.46391941006203E-02 
1618	 3.43316216434672E-02 
1619	 3.39072466218999E-02 
1620	 3.39151179321554E-02 
1621	 3.42294123671771E-02 
1622	 3.38196989176871E-02 
1623	 3.39304111827312E-02 
1624	 3.43362728377089E-02 
1625	 3.39577966790527E-02 
1626	 3.44619152992092E-02 
1627	 0.035461947436886 
1628	 3.55013577111384E-02 
1629	 3.55439057212599E-02 
1630	 3.54275346104455E-02 
1631	 3.49190329292141E-02 
1632	 3.47862806864883E-02 
1633	 3.47872611456017E-02 
1634	 3.46557981069364E-02 
1635	 3.46530329415792E-02 
1636	 3.49053196678347E-02 
1637	 3.49514867306035E-02 
1638	 3.47057605979452E-02 
1639	 3.44544786144176E-02 
1640	 3.41262635934823E-02 
1641	 3.41395360655831E-02 
1642	 3.44635042320865E-02 
1643	 3.44608254896514E-02 
1644	 3.47328274157585E-02 
1645	 3.50282838002334E-02 
1646	 3.46538876022336E-02 
1647	 0.034519979078245 
1648	 3.38057224246288E-02 
1649	 3.28194265562294E-02 
1650	 3.33903667758495E-02 
1651	 3.38225864241979E-02 
1652	 3.43156623832441E-02 
1653	 3.52411071902865E-02 
1654	 3.52344609208819E-02 
1655	 3.51668941825782E-02 
1656	 3.50990201479549E-02 
1657	 3.40836451709653E-02 
1658	 3.39961672249502E-02 
1659	 3.47650124424204E-02 
1660	 3.48147500961984E-02 
1661	 0.034944282240635 
1662	 3.48490850162788E-02 
1663	 3.40803471799967E-02 
1664	 3.40136171518964E-02 
1665	 3.41358661403441E-02 
1666	 3.39123151562716E-02 
1667	 3.40773460896108E-02 
1668	 3.39750537941653E-02 
1669	 3.38267665609338E-02 
1670	 3.40459325951789E-02 
1671	 3.38547136560255E-02 
1672	 3.41533992201126E-02 
1673	 3.46533392312134E-02 
1674	 3.49660020958366E-02 
1675	 3.55709576803967E-02 
1676	 3.53611577474894E-02 
1677	 0.034669903839925 
1678	 3.50027545089954E-02 
1679	 3.47529414543921E-02 
1680	 3.37576451740068E-02 
1681	 3.35175480845284E-02 
1682	 3.33874154758724E-02 
1683	 3.35790169956461E-02 
1684	 3.42480290427356E-02 
1685	 3.47476043412204E-02 
1686	 3.49714254477578E-02 
1687	 0.034419777479263 
1688	 3.40978111573963E-02 
1689	 3.42182028484913E-02 
1690	 0.033871370975631 
1691	 3.41166103973323E-02 
1692	 3.44745185491593E-02 
1693	 3.45265636836824E-02 
1694	 3.48613442858351E-02 
1695	 3.45827371663986E-02 
1696	 3.38671203209678E-02 
1697	 3.42098910846267E-02 
1698	 3.49386056419122E-02 
1699	 3.49548325389234E-02 
1700	 3.50333147272332E-02 
1701	 3.45048834989568E-02 
1702	 3.37287828394577E-02 
1703	 0.033992837093636 
1704	 3.42706421619216E-02 
1705	 3.46122646383741E-02 
1706	 3.48067888869711E-02 
1707	 3.45823327652262E-02 
1708	 3.48410419343131E-02 
1709	 3.52511284029498E-02 
1710	 3.54913087613241E-02 
1711	 3.52963071373909E-02 
1712	 3.45584542986336E-02 
1713	 3.41168581574334E-02 
1714	 3.38916911035111E-02 
1715	 3.38462925897008E-02 
1716	 3.44957549035644E-02 
1717	 3.46937035471947E-02 
1718	 3.49764493613879E-02 
1719	 3.47835981510245E-02 
1720	 3.40947195487566E-02 
1721	 3.37834472423004E-02 
1722	 3.38810901367989E-02 
1723	 3.51856456658901E-02 
1724	 3.57656944446127E-02 
1725	 3.43623732246721E-02 
1726	 3.38124012957896E-02 
1727	 3.34762688264347E-02 
1728	 3.34337800978554E-02 
1729	 0.035233359106615 
1730	 3.49658636833796E-02 
1731	 3.32622378850314E-02 
1732	 3.41872185795826E-02 
1733	 0.034750103456891 
1734	 3.43230672408051E-02 
1735	 3.52805343801968E-02 
1736	 3.45092610586048E-02 
1737	 3.22803617029262E-02 
1738	 3.29261903488695E-02 
1739	 3.38522645672874E-02 
1740	 3.32812093524112E-02 
1741	 3.43261958770033E-02 
1742	 3.54846563504026E-02 
1743	 3.42616928826513E-02 
1744	 3.32640156882168E-02 
1745	 3.40091065496207E-02 
1746	 3.51211276724373E-02 
1747	 3.47553864352972E-02 
1748	 3.34466769511546E-02 
1749	 3.29602604514737E-02 
1750	 3.13378080189078E-02 
1751	 3.11146822408438E-02 
1752	 3.38544331919424E-02 
1753	 3.42602250080143E-02 
1754	 0.03263188491951 
1755	 3.26189508335821E-02 
1756	 3.27539186043676E-02 
1757	 3.33133782809626E-02 
1758	 3.49208486161447E-02 
1759	 3.45431788030805E-02 
1760	 3.35789479830274E-02 
1761	 3.26855902328773E-02 
1762	 3.06818746519584E-02 
1763	 3.13288991756727E-02 
1764	 3.33911288246515E-02 
1765	 3.50600095925991E-02 
1766	 3.63747922976336E-02 
1767	 3.39153762294501E-02 
1768	 3.12950375027338E-02 
1769	 3.02510441708512E-02 
1770	 2.87437626138023E-02 
1771	 0.029657319170016 
1772	 3.10930785631735E-02 
1773	 3.12871507385556E-02 
1774	 3.08036995002469E-02 
1775	 3.12421696254354E-02 
1776	 3.20069270959743E-02 
1777	 3.28438416455071E-02 
1778	 3.31794574332993E-02 
1779	 0.033960548711836 
1780	 3.31426467543526E-02 
1781	 2.92807037978481E-02 
1782	 2.93060703139377E-02 
1783	 3.09947743543811E-02 
1784	 3.24316983033388E-02 
1785	 3.76818588437514E-02 
1786	 3.80567310194969E-02 
1787	 3.53223886316253E-02 
1788	 3.42161768214377E-02 
1789	 2.96491952731162E-02 
1790	 3.20307574340612E-02 
1791	 3.25437306975996E-02 
1792	 2.67008153096783E-02 
1793	 2.88221282881776E-02 
1794	 3.73191460928399E-02 
1795	 4.07127808549028E-02 
1796	 4.29929090972289E-02 
1797	 4.59002268837465E-02 
1798	 4.40749263848648E-02 
1799	 4.42815767211975E-02 
1800	 5.42753664198907E-02 
1801	 0.055214255168359 
1802	 1.49587290853253E-02 
1803	 6.44205181545233E-03 
1804	 4.53423565450038E-02 
1805	 4.96506440619149E-02 
1806	 5.90295205132476E-02 
1807	 6.84835666664386E-02 
1808	 3.64673318940957E-03 
1809	-2.15793652778031E-02 
1810	 5.68669532185297E-02 
1811	 5.47480250569598E-02 
1812	-3.05747005401485E-02 
1813	-1.59735302150346E-02 
1814	 6.86953849345833E-02 
1815	 5.88072793229391E-02 
1816	 6.46211813387189E-02 
1817	-3.83500871371201E-02 
1818	 0.138992849663492 
1819	 0.804079845226011 
1820	 1.08849281387184 
1821	 0.258643943591593 
1822	 0.120587994659166 
1823	 0.714181486272899 
1824	 0.509472672424361 
1825	 0.558609969929059 
1826	 0.671190535389919 
1827	 0.274972121414652 
1828	 0.214273607902517 
1829	 1.66444807613817 
1830	 3.54802181006818 
1831	 0.165842942582324 
1832	 0.030417142641539 
1833	-0.879708514935816 
1834	-7.53542161506576 
1835	-3.49171569989163 
1836	-5.19715187665978 
1837	 0.735764173454822 
1838	 0.112872626060491 
1839	-1.7533374501812 
1840	-2.2499029894982 
1841	-0.8992485722793 
1842	-7.1514551583514 
1843	-1.82730461419589 
1844	-0.907333929689903 
1845	-0.852789052433113 
1846	-0.264054776896942 
1847	-0.125849820921378 
1848	-0.951446237867082 
1849	 0.287281760703303 
1850	-1.1612476577731 
1851	-0.785055298745641 
1852	-11.5071811564678 
1853	-3.12499449679193 
1854	-1.52896358533709 
1855	-0.385299680472463 
1856	-0.626498073163932 
1857	-2.4132325058737 
1858	-3.4444013622906 
1859	-9.51517397817682 
1860	 3.40176513291679 
1861	 0.170185828865257 
1862	-1.70279387949559 
1863	-2.99513084048173 
1864	-1.28335970300633 
1865	-1.47786209688225 
1866	-7.14139596371735 
1867	 5.75251833378059 
1868	 2.52604648077817 
1869	 1.11782929169892 
1870	 0.654055304843801 
1871	-2.78280470455556E-02 
1872	-0.388716435082301 
1873	-0.378982800563824 
1874	-0.627478561649557 
1875	-0.577516022120028 
1876	-0.632026990388903 
1877	-0.788490774346633 
1878	-0.617499967605871 
1879	 3.20875318078479 
1880	-2.61141440300484 
1881	-1.536144808112 
1882	-1.00202419107691 
1883	-0.533843075683817 
1884	-0.981515141609119 
1885	 0.884635827498285 
1886	 0.587630892702071 
1887	 1.76158331924453 
1888	 5.96960423557545 
1889	 7.27521425808909 
1890	 2.70635135139451 
1891	 4.56940730591483 
1892	 4.5562549170872 
1893	 21.2638111497919 
1894	-9.98714142663656 
1895	-8.57750800385158 
1896	-24.5096589922644 
1897	 1.31689980932668 
1898	 1.29169513967633 
1899	 0.578877261616713 
1900	 0.15600382417597 
1901	-0.177229614246448 
1902	-0.524851940341317 
1903	-1.38896171427837 
1904	-2.23464625665963 
1905	 6.64944020458701 
1906	 2.11020957072329 
1907	 2.58726167284447 
1908	 6.50338349337101 
1909	-3.51980747542904 
1910	-0.920750622704608 
1911	-1.01405609417222 
1912	-1.55261200451962 
1913	-1.72547908136582 
1914	-1.30878663873872 
1915	-1.56336505240018 
1916	 2.64563237772575 
1917	-0.684306254470511 
1918	-0.145125007177704 
1919	 1.29878277794595E-02 
1920	 7.98039597237485E-02 
1921	 0.482475906087196 
1922	 1.22692216433849 
1923	-0.569499927533589 
1924	-0.207379037783854 
1925	 0.342582934133802 
1926	 0.390560370958124 
1927	 0.56225116257681 
1928	 0.647272835598586 
1929	 0.384860259769656 
1930	-0.097395114274353 
1931	-0.235716831279021 
1932	-0.24513040166793 
1933	-0.299044620560257 
1934	-0.530578533457285 
1935	-0.561134223085967 
1936	-0.438791408128182 
1937	-0.19324155936551 
1938	 2.24593080550802E-02 
1939	 0.195282728869916 
1940	 0.37869764671907 
1941	 0.457031479261341 
1942	 0.391865505316445 
1943	 0.265898853802338 
1944	 0.201666990110295 
1945	 0.160933864934751 
1946	 8.8030713405134E-03 
1947	-3.31519540875118E-02 
1948	-4.46772028861068E-02 
1949	-9.83401793573043E-02 
1950	 0.023982547423479 
1951	 0.115060923653717 
1952	 0.161737736639957 
1953	 0.207266412217028 
1954	 0.215751515933839 
1955	 0.093642968362626 
1956	 9.31825921937564E-03 
1957	-1.31194042582869E-02 
1958	-3.74428179750793E-02 
1959	-1.73610267885787E-02 
1960	 2.02472196736574E-03 
1961	 8.88240405578061E-03 
1962	 7.54345282346314E-03 
1963	-1.66132009009705E-04 
1964	 1.13429988778326E-02 
1965	 1.61126164836341E-02 
1966	 1.60549391775935E-02 
1967	 1.15335188089495E-02 
1968	 1.57858538060035E-02 
1969	 1.63576422683347E-02 
1970	 1.64393018140838E-02 
1971	 1.71043194581142E-02 
1972	 1.59427210877004E-02 
1973	 1.43065826149792E-02 
1974	 1.57577111892694E-02 
1975	 0.022971429317535 
1976	 2.64185770450956E-02 
1977	 2.64135586964891E-02 
1978	 2.34802222557893E-02 
1979	 2.22011686230493E-02 
1980	 1.67537146291227E-02 
1981	 1.89619005734808E-02 
1982	 2.27232242717977E-02 
1983	 2.43185882612367E-02 
1984	 2.65531843771567E-02 
1985	 2.50137614192892E-02 
1986	 2.13837259370557E-02 
1987	 2.23372408693338E-02 
1988	 2.44495986343735E-02 
1989	 2.34382328352757E-02 
1990	 2.38825689260107E-02 
1991	 2.66300997235958E-02 
1992	 2.67231381501508E-02 
1993	 2.25943508420252E-02 
1994	 2.35973942539383E-02 
1995	 2.87835213603831E-02 
1996	 3.25396232069901E-02 
1997	 3.13372570127419E-02 
1998	 4.02799817253086E-02 
1999	 4.13955367548172E-02 
2000	 3.61303474864052E-02 
2001	 4.31662774842232E-02 
2002	 0.047632638494957 
2003	 4.35041089152678E-02 
2004	 2.93645260521822E-02 
2005	 1.56504841445312E-02 
2006	 1.14042507689353E-02 
2007	 1.40712566688908E-02 
2008	 2.21595807640669E-02 
2009	 2.60708696807779E-02 
2010	 2.84156615577599E-02 
2011	 2.62448024664906E-02 
2012	 1.79890033002096E-02 
2013	 1.76214487733495E-02 
2014	 2.22687246330573E-02 
2015	 1.96930204881806E-02 
2016	 2.31112641340886E-02 
2017	 0.033306145811203 
2018	 3.31550758845076E-02 
2019	 3.41759651358002E-02 
2020	 3.23565407799702E-02 
2021	 2.18449182345954E-02 
2022	 1.84698923444315E-02 
2023	 2.07811470498856E-02 
2024	 2.16439062903604E-02 
2025	 2.60581530335967E-02 
2026	 2.77080706866451E-02 
2027	 2.89688005340879E-02 
2028	 2.65253191977778E-02 
2029	 2.67910736819183E-02 
2030	 2.86831197566386E-02 
2031	 2.81403561926063E-02 
2032	 2.60613591713531E-02 
2033	 2.27977527673631E-02 
2034	 2.21642484650138E-02 
2035	 2.47194317230869E-02 
2036	 0.02640442299527 
2037	 2.81929812470657E-02 
2038	 2.94817492358015E-02 
2039	 2.90712743809469E-02 
2040	 0.025598362510128 
2041	 2.49146360234116E-02 
2042	 2.40792883387959E-02 
2043	 0.023945750267689 
2044	 0.025145713020703 
2045	 2.63676951805626E-02 
2046	 2.64108830180314E-02 
2047	 2.51898497509336E-02 
2048	 2.34566042502548E-02 
2049	 2.29835957964443E-02 
2050	 2.20883707999981E-02 
2051	 0.021770688819144 
2052	 1.98188909424127E-02 
2053	 1.96368519770034E-02 
2054	 2.23799753257666E-02 
2055	 2.25955039614471E-02 
2056	 2.37749458241068E-02 
2057	 2.67547814904633E-02 
2058	 2.66200473955208E-02 
2059	 2.39232322936429E-02 
2060	 2.42006728014572E-02 
2061	 2.50655165763599E-02 
2062	 2.49861358607685E-02 
2063	 2.54716879107297E-02 
2064	 2.54408199039313E-02 
2065	 2.54575156694845E-02 
2066	 2.52130966165128E-02 
2067	 0.024846860112757 
2068	 2.66879506565408E-02 
2069	 2.66271501638257E-02 
2070	 2.58673572341322E-02 
2071	 2.60656563957995E-02 
2072	 2.56653788456766E-02 
2073	 2.52481956703467E-02 
2074	 2.42094347444353E-02 
2075	 2.44584549675089E-02 
2076	 2.57797800534156E-02 
2077	 2.55671034684117E-02 
2078	 2.46406085580087E-02 
2079	 2.41285481558535E-02 
2080	 2.24549420913653E-02 
2081	 2.25592061505853E-02 
2082	 2.38275157882458E-02 
2083	 2.68639335779153E-02 
2084	 3.00235944321368E-02 
2085	 3.26345350806805E-02 
2086	 3.25310191694947E-02 
2087	 3.26103698578706E-02 
2088	 3.46013922316365E-02 
2089	 3.50817655437734E-02 
2090	 3.68916161139685E-02 
2091	 3.92274312045996E-02 
2092	 3.92174055578907E-02 
2093	 3.72137109699755E-02 
2094	 3.50338433903652E-02 
2095	 2.91953656074359E-02 
2096	 2.83665549536216E-02 
2097	 3.04727470370751E-02 
2098	 3.05049103550763E-02 
2099	 3.21884201163857E-02 
2100	 3.41474380026276E-02 
2101	 3.17405612235521E-02 
2102	 2.84135697515298E-02 
2103	 2.80030641046323E-02 
2104	 2.73260910695278E-02 
2105	 2.67604018529582E-02 
2106	 2.83341912209332E-02 
2107	 2.89670266581959E-02 
2108	 2.88861410927506E-02 
2109	 0.029409569403748 
2110	 2.88674366332918E-02 
2111	 2.89304841041603E-02 
2112	 3.00306924623618E-02 
2113	 3.02994005620281E-02 
2114	 3.07367137207893E-02 
2115	 3.15640515612761E-02 
2116	 0.032236781524469 
2117	 3.21395339151292E-02 
2118	 3.21126319208645E-02 
2119	 3.15088943391713E-02 
2120	 2.93312883529934E-02 
2121	 0.02903701591851 
2122	 2.75036277897824E-02 
2123	 2.65372391891378E-02 
2124	 2.55927023363178E-02 
2125	 2.39525145431707E-02 
2126	 2.48043896018037E-02 
2127	 2.48263174303753E-02 
2128	 2.54001673225862E-02 
2129	 2.59592075077801E-02 
2130	 2.58432924261813E-02 
2131	 2.75379037533254E-02 
2132	 2.77584580233714E-02 
2133	 2.85983705072129E-02 
2134	 2.94613166337284E-02 
2135	 3.04980537297927E-02 
2136	 3.02136634335686E-02 
2137	 2.90388888414308E-02 
2138	 2.89994880016017E-02 
2139	 2.83284205893113E-02 
2140	 2.82161487592671E-02 
2141	 2.98696897793796E-02 
2142	 3.03618962940228E-02 
2143	 3.00416114509738E-02 
2144	 2.98634054400701E-02 
2145	 2.89798701060846E-02 
2146	 2.86693743192271E-02 
2147	 2.77817477691839E-02 
2148	 2.57000280640817E-02 
2149	 2.59751714861246E-02 
2150	 2.82102795067921E-02 
2151	 2.86389279150848E-02 
2152	 2.89286895222796E-02 
2153	 2.96898411474179E-02 
2154	 2.88275723975278E-02 
2155	 2.77843609648689E-02 
2156	 2.86295339987424E-02 
2157	 2.86528659676419E-02 
2158	 2.72910903364783E-02 
2159	 2.73296814740842E-02 
2160	 2.85127981019177E-02 
2161	 2.81713749812866E-02 
2162	 2.80234667332878E-02 
2163	 2.76464304381827E-02 
2164	 2.55215988871453E-02 
2165	 2.58349096160125E-02 
2166	 2.76397005302712E-02 
2167	 2.81926504305015E-02 
2168	 3.03126115102997E-02 
2169	 3.11716194232655E-02 
2170	 3.08476371613999E-02 
2171	 2.96126821187309E-02 
2172	 3.00010968204561E-02 
2173	 2.84620540895306E-02 
2174	 2.78688750147827E-02 
2175	 3.00377367766706E-02 
2176	 3.22262368926604E-02 
2177	 3.24624276207071E-02 
2178	 3.39310578998389E-02 
2179	 3.28232472956059E-02 
2180	 2.91708385091268E-02 
2181	 2.96274311434061E-02 
2182	 2.91866965269517E-02 
2183	 2.89776035785897E-02 
2184	 2.95663873544998E-02 
2185	 0.027213442423133 
2186	 2.60213384887154E-02 
2187	 2.28593730680291E-02 
2188	 2.32496669276086E-02 
2189	 2.69776205468322E-02 
2190	 2.85625351597473E-02 
2191	 3.08354059386318E-02 
2192	 0.03190968402969 
2193	 3.17051470872749E-02 
2194	 3.18067664151106E-02 
2195	 3.16527811070555E-02 
2196	 3.17069302334047E-02 
2197	 0.031249562203601 
2198	 3.11529846825321E-02 
2199	 3.07549781914324E-02 
2200	 3.20183718478298E-02 
2201	 3.40980647144187E-02 
2202	 3.41895312231565E-02 
2203	 3.53334376838073E-02 
2204	 3.39864508381302E-02 
2205	 3.19731146370853E-02 
2206	 3.24588607655548E-02 
2207	 3.01525435458247E-02 
2208	 2.96112163289502E-02 
2209	 2.98264624648715E-02 
2210	 2.57777710250805E-02 
2211	 2.40500834083783E-02 
2212	 2.45268681837402E-02 
2213	 2.37367828879426E-02 
2214	 2.60097765338593E-02 
2215	 3.06611709315512E-02 
2216	 3.37685264163604E-02 
2217	 3.39911513633306E-02 
2218	 3.29752825084159E-02 
2219	 3.18068242167424E-02 
2220	 2.59924520112168E-02 
2221	 2.48129859804165E-02 
2222	 2.77411923598964E-02 
2223	 2.84620433640999E-02 
2224	 2.80976007603267E-02 
2225	 0.029290542727487 
2226	 3.22736978544494E-02 
2227	 3.28639400489675E-02 
2228	 3.41396458731705E-02 
2229	 3.36569323541234E-02 
2230	 0.027956694648344 
2231	 2.72856411929815E-02 
2232	 2.94772125830896E-02 
2233	 3.05567155518788E-02 
2234	 3.50770054294095E-02 
2235	 3.53235010216442E-02 
2236	 3.24581917850395E-02 
2237	 3.19460042028794E-02 
2238	 2.95338651546625E-02 
2239	 2.67304661432816E-02 
2240	 2.76012126923303E-02 
2241	 2.47308451610765E-02 
2242	 2.18621850623331E-02 
2243	 2.49921838503588E-02 
2244	 2.59438212972315E-02 
2245	 2.65158542318027E-02 
2246	 2.80744692056001E-02 
2247	 2.46079886720953E-02 
2248	 2.20624973649405E-02 
2249	 2.29212056554863E-02 
2250	 2.33486625559355E-02 
2251	 2.55509985053689E-02 
2252	 2.70113640117874E-02 
2253	 2.35430603602826E-02 
2254	 0.018609238015192 
2255	 1.97410395391456E-02 
2256	 2.23291002638093E-02 
2257	 2.32173881805174E-02 
2258	 0.025545052859236 
2259	 2.59970402606487E-02 
2260	 2.69540764633012E-02 
2261	 2.63379934124943E-02 
2262	 2.67955344600645E-02 
2263	 3.03711988111604E-02 
2264	 3.01633671839354E-02 
2265	 2.64818728968883E-02 
2266	 2.83335637412086E-02 
2267	 3.07834334021551E-02 
2268	 3.12348186495875E-02 
2269	 3.55586687557402E-02 
2270	 3.45879366217973E-02 
2271	 2.55767596004442E-02 
2272	 2.59285435967207E-02 
2273	 0.031529975568038 
2274	 3.30128893864841E-02 
2275	 4.05343530518072E-02 
2276	 4.06409078957646E-02 
2277	 2.78723546608131E-02 
2278	 2.69025219590268E-02 
2279	 3.25623708365513E-02 
2280	 3.26192687653792E-02 
2281	 0.034738985978786 
2282	 3.65308895089468E-02 
2283	 3.69385422137092E-02 
2284	 3.49088829934111E-02 
2285	 2.94118784459226E-02 
2286	 2.47300225528042E-02 
2287	 1.41307002146146E-02 
2288	 5.53971172757916E-04 
2289	 2.69302561686894E-03 
2290	 1.23187719366285E-02 
2291	 2.01741614989851E-02 
2292	 2.62540943649645E-02 
2293	 2.90913746189797E-02 
2294	 3.19334449749665E-02 
2295	 3.48126275075457E-02 
2296	 3.56807585565396E-02 
2297	 3.66092775718883E-02 
2298	 3.49536118496069E-02 
2299	 0.030865706628534 
2300	 3.13371342127684E-02 
2301	 1.92758925384207E-02 
2302	 1.48535844877986E-02 
2303	 3.37336764112506E-02 
2304	 3.50377730942643E-02 
2305	 3.79756478609417E-02 
2306	 0.047872963955038 
2307	 3.62363831503589E-02 
2308	 0.030054825876475 
2309	 0.030994616241224 
2310	 2.68990604526393E-02 
2311	 2.39226317050217E-02 
2312	 1.87739522339693E-02 
2313	 1.85824890704632E-02 
2314	 2.34873361776423E-02 
2315	 2.21079276242001E-02 
2316	 2.68316729109688E-02 
2317	 3.65286461139645E-02 
2318	 3.04588784105497E-02 
2319	 0.035187747136864 
2320	 4.42003895114491E-02 
2321	 4.10202719799687E-02 
2322	 5.66309543842025E-02 
2323	 0.060268298568708 
2324	 4.19421416518144E-02 
2325	 3.82571389562124E-02 
2326	 2.89586131185641E-02 
2327	 9.54229161656421E-03 
2328	 2.74337089670833E-03 
2329	-7.60105579692255E-05 
2330	-5.78726175703567E-03 
2331	-1.73727020501713E-02 
2332	-2.22471379856051E-02 
2333	-9.56805407818445E-03 
2334	-1.67459668846839E-03 
2335	 1.58234510279157E-02 
2336	 4.26524017405948E-02 
2337	 0.043352516425598 
2338	 3.40799105629129E-02 
2339	 3.06295668836939E-02 
2340	 3.27244610781539E-02 
2341	 3.50627915497675E-02 
2342	 2.95208747265506E-02 
2343	 2.28742842754813E-02 
2344	 1.71644994244969E-02 
2345	 3.48005753109558E-03 
2346	-4.40099923851079E-04 
2347	 1.89750951888359E-02 
2348	 2.15136647151043E-02 
2349	 2.70256588098578E-02 
2350	 0.03920364648398 
2351	 2.00784820817761E-02 
2352	 9.93738325134351E-03 
2353	-5.38701725604382E-03 
2354	-3.34102444081568E-02 
2355	-2.87810067629459E-02 
2356	-1.46401963986481E-02 
2357	-6.23098024692107E-03 
2358	 1.09180283073883E-02 
2359	 1.26027393641432E-02 
2360	-9.25963237699329E-03 
2361	-2.16383700648086E-02 
2362	-1.43790344306216E-02 
2363	 2.07444327777757E-03 
2364	 1.02761447943979E-02 
2365	-4.19315201882823E-03 
2366	-2.55976668023043E-02 
2367	-3.91563279469987E-02 
2368	-3.90427706978353E-02 
2369	-3.23845507748408E-02 
2370	 5.0808721574885E-03 
2371	 5.71592021271596E-02 
2372	 7.80730042442988E-02 
2373	 0.115155844100443 
2374	 0.132344391671795 
2375	 6.49292900736417E-02 
2376	 1.37540856863319E-02 
2377	 1.78415860994888E-02 
2378	 4.76525945581572E-02 
2379	 8.40484909680763E-02 
2380	 0.105634153765931 
2381	 0.107177333266655 
2382	 7.10340078654984E-02 
2383	 9.56690222793204E-03 
2384	-2.74091577326031E-02 
2385	-8.2510436397103E-03 
2386	-1.84221328383287E-02 
2387	-2.30283198468632E-02 
2388	 7.02772984887934E-02 
2389	 8.07714118927638E-02 
2390	 5.59065347530586E-02 
2391	 5.80297241386644E-02 
2392	-2.25451200517829E-02 
2393	-7.32567469273965E-02 
2394	-9.25940881350623E-02 
2395	-9.09334482835048E-02 
2396	-3.28059049647233E-02 
2397	-2.99489039939455E-02 
2398	-3.82463332188245E-02 
2399	-1.79893011774053E-02 
2400	-4.00719957105124E-02 
2401	-6.50059987236436E-02 
2402	-6.42952402067311E-02 
2403	-0.107857424249835 
2404	-0.168024114862508 
2405	-0.200510368236499 
2406	-0.275498718443172 
2407	-0.344848214004265 
2408	-0.394626068196897 
2409	-0.336585148016865 
2410	-0.172451227715698 
2411	-7.79450931120841E-02 
2412	-1.47665200332237E-02 
2413	 0.163733254187529 
2414	 0.218094895347705 
2415	 0.106235596237106 
2416	 9.24139789869439E-02 
2417	 3.52714352875316E-02 
2418	-3.13547469731596E-02 
2419	 6.27420546101101E-02 
2420	 7.63906301575909E-02 
2421	-9.05952079852414E-02 
2422	-0.12952129952236 
2423	-0.114779885474986 
2424	-7.67740123811022E-02 
2425	 6.63571955132804E-02 
2426	 0.181738010359873 
2427	 0.209472506143046 
2428	 0.103412471369848 
2429	 2.26695560445956E-02 
2430	 2.34551290547223E-02 
2431	-7.60274566062354E-03 
2432	-8.05869005875097E-03 
2433	 4.95101350766817E-02 
2434	-2.30374925113306E-02 
2435	-0.258607009865873 
2436	-0.277976722052336 
2437	-0.212688846409609 
2438	-0.256629423167929 
2439	 0.046773596783828 
2440	 0.205928746725171 
2441	 7.37273831417816E-02 
2442	-0.136585952828611 
2443	-0.306963559053857 
2444	-0.270531928387018 
2445	-0.349631643733813 
2446	-0.116118415383754 
2447	-8.09855388060093E-02 
2448	-8.00701950185769E-02 
2449	 0.336124224273082 
2450	 0.373791153320523 
2451	-0.383680337860875 
2452	 9.34474684114714 
2453	-1.6702828960144 
2454	-2.19571933004751 
2455	-1.24267995281032 
2456	-1.19127439628184 
2457	 7.8885221846421 
2458	-6.54618078050454E-03 
2459	-1.28478578570737 
2460	 5.68333307538457 
2461	-2.16811185289118 
2462	-3.31907706107938 
2463	-1.5014132872272 
2464	-1.09988361858714 
2465	-1.06613139689678 
2466	-1.03722127395474 
2467	-1.69779156948104 
2468	 16.5378983309677 
2469	 2.89459442149666 
2470	 2.98761537369945 
2471	 0.169627441425399 
2472	-1.14038680609338 
2473	 0.670387962082008 
2474	 1.00280297835295 
2475	 2.78196608721126 
2476	 2.22518324164641 
2477	 2.02197728460334 
2478	-1.77661244082917 
2479	-0.341080896571499 
2480	-0.70379151678969 
2481	-1.09347312739976 
2482	-2.23914767453118 
2483	 3.57584477122539 
2484	 2.00299778071374 
2485	 2.14100142715119 
2486	 1.10955454388761 
2487	 0.270294203263789 
2488	-1.41619367767745 
2489	 4.16219472503026 
2490	 30.8662291913342 
2491	-2.66388543420329 
2492	-3.59941090428405 
2493	-1.76353156932474 
2494	-0.814411837731141 
2495	-1.28692456458787 
2496	-2.77867982246732E-02 
2497	 0.653856298996494 
2498	-1.51846284977921 
2499	-1.34793001338179 
2500	-1.64723121830474 
