Wavelength	rt0714far00005.asd
350	 2.40799931340969E-02 
351	 2.24194102493993E-02 
352	 2.20024714262335E-02 
353	 2.25918173593018E-02 
354	 2.33365586602577E-02 
355	 2.35701468177966E-02 
356	 2.30868844750563E-02 
357	 2.30484126004097E-02 
358	 0.024235988923962 
359	 2.40224286881386E-02 
360	 2.37228571241248E-02 
361	 2.37635279405991E-02 
362	 2.38557544079922E-02 
363	 2.39628950533257E-02 
364	 2.41760026578139E-02 
365	 2.44303795437138E-02 
366	 2.44126494517422E-02 
367	 2.41272838922291E-02 
368	 2.39608330964738E-02 
369	 2.42500338733705E-02 
370	 0.024864459882296 
371	 2.50533465438038E-02 
372	 2.48892364682328E-02 
373	 2.49403865965683E-02 
374	 2.52258469603321E-02 
375	 2.57089254532767E-02 
376	 2.61522981827461E-02 
377	 2.60980253028299E-02 
378	 2.58655702340329E-02 
379	 2.59797035323973E-02 
380	 2.66857537491566E-02 
381	 0.027340536779113 
382	 2.75578565743955E-02 
383	 2.75920275248195E-02 
384	 2.79805631801522E-02 
385	 2.87993861431736E-02 
386	 2.83915195176585E-02 
387	 2.73408588051137E-02 
388	 0.028657612211673 
389	 3.00290305875083E-02 
390	 3.05730823683376E-02 
391	 3.02940013141978E-02 
392	 0.030463797425824 
393	 3.06096536519979E-02 
394	 0.030712167024281 
395	 3.09082883132603E-02 
396	 3.13403580668636E-02 
397	 3.15259362221074E-02 
398	 3.14637925307858E-02 
399	 3.15741042452105E-02 
400	 3.19379868777197E-02 
401	 3.21598810165528E-02 
402	 3.21417332238019E-02 
403	 3.26305859184669E-02 
404	 3.28518766838845E-02 
405	 3.28653147422447E-02 
406	 3.30120602707677E-02 
407	 3.33152546779678E-02 
408	 3.34693141366164E-02 
409	 3.35890985315247E-02 
410	 3.41665536559821E-02 
411	 3.43869754084494E-02 
412	 3.43957249516826E-02 
413	 3.45202597284101E-02 
414	 3.51268748427388E-02 
415	 3.54612015837729E-02 
416	 0.035622936111497 
417	 3.59746651822714E-02 
418	 3.60848061838071E-02 
419	 3.63452049762043E-02 
420	 0.036818592210686 
421	 3.71641205147069E-02 
422	 3.72773392965823E-02 
423	 3.75001988419848E-02 
424	 0.038039956465285 
425	 3.84871389096114E-02 
426	 3.87805567936043E-02 
427	 3.90510991064432E-02 
428	 3.95022948442019E-02 
429	 4.00611678251517E-02 
430	 4.05232836067003E-02 
431	 0.040907913049115 
432	 4.15050719004992E-02 
433	 4.19049772620308E-02 
434	 4.21654987386873E-02 
435	 4.24546786940183E-02 
436	 4.29336219236963E-02 
437	 4.34491363443724E-02 
438	 4.38932166076737E-02 
439	 4.42360503368437E-02 
440	 4.48999280327724E-02 
441	 4.54417110730538E-02 
442	 4.56815796142685E-02 
443	 4.59498242841781E-02 
444	 4.64533251862879E-02 
445	 0.046924019440511 
446	 4.71318812829984E-02 
447	 4.75625583598172E-02 
448	 4.80322224095146E-02 
449	 0.048423321998186 
450	 4.86945998486905E-02 
451	 4.89648480542183E-02 
452	 4.92837832415845E-02 
453	 4.96352758434673E-02 
454	 4.98896204669661E-02 
455	 5.01894423701625E-02 
456	 5.05448589048409E-02 
457	 5.08980826360391E-02 
458	 5.11253602892612E-02 
459	 5.13154810121612E-02 
460	 0.051561687355803 
461	 5.19347261270415E-02 
462	 0.05219142655451 
463	 5.24199867752923E-02 
464	 5.27199488856396E-02 
465	 0.053032998163013 
466	 5.32964100174129E-02 
467	 5.35459710679196E-02 
468	 5.38622711750722E-02 
469	 5.42665082830538E-02 
470	 5.43775687806968E-02 
471	 5.42863997105594E-02 
472	 5.47440035798888E-02 
473	 5.50191619218539E-02 
474	 5.52934124835898E-02 
475	 5.58063821041355E-02 
476	 5.61460149207585E-02 
477	 5.63881713415005E-02 
478	 5.66607437462514E-02 
479	 5.70837580511975E-02 
480	 5.72543242275235E-02 
481	 5.74723149814522E-02 
482	 5.79066145932817E-02 
483	 5.82708715131105E-02 
484	 5.86576762017746E-02 
485	 5.90461587095291E-02 
486	 5.93920994377906E-02 
487	 5.97053674922439E-02 
488	 6.00923750097893E-02 
489	 6.05913587356911E-02 
490	 6.11651614587662E-02 
491	 6.16616934610916E-02 
492	 6.20311634757926E-02 
493	 6.23260731021035E-02 
494	 0.062809000088026 
495	 6.32825246785755E-02 
496	 0.063784834191288 
497	 6.44209367745778E-02 
498	 6.47920448752006E-02 
499	 6.51899046021028E-02 
500	 6.57407048311721E-02 
501	 6.62058789741709E-02 
502	 6.67416115141921E-02 
503	 0.067330636994161 
504	 6.78961271780126E-02 
505	 6.83055993656014E-02 
506	 6.88419984035946E-02 
507	 6.94689177587062E-02 
508	 6.99142051155217E-02 
509	 7.05199587624656E-02 
510	 7.11013079048868E-02 
511	 7.15319488636539E-02 
512	 0.072013693920428 
513	 7.25282513695126E-02 
514	 7.31259117436462E-02 
515	 7.38378459980731E-02 
516	 0.074427052192605 
517	 7.51369521465594E-02 
518	 7.59604760292694E-02 
519	 0.076544461709599 
520	 7.69616228575214E-02 
521	 0.077477235135695 
522	 7.82387943256768E-02 
523	 7.88306258073409E-02 
524	 7.94699028104227E-02 
525	 8.01366561129936E-02 
526	 8.06740717949097E-02 
527	 8.13843949775738E-02 
528	 8.22259512110237E-02 
529	 8.30500078944964E-02 
530	 8.35841398483378E-02 
531	 8.42071957383831E-02 
532	 8.49112922346066E-02 
533	 8.55595576522589E-02 
534	 8.61970349872712E-02 
535	 8.68324334070486E-02 
536	 8.74755084166896E-02 
537	 8.81351000929067E-02 
538	 8.89070164814544E-02 
539	 8.96804765904076E-02 
540	 9.03625556037869E-02 
541	 9.10926510599526E-02 
542	 9.18114339923304E-02 
543	 9.25028241196885E-02 
544	 9.31789379616196E-02 
545	 0.093793354653543 
546	 9.44645151359452E-02 
547	 9.52064164170718E-02 
548	 9.57956747103809E-02 
549	 9.63575831201621E-02 
550	 9.70214787841709E-02 
551	 0.097857114854561 
552	 9.85922615674337E-02 
553	 9.92059626318951E-02 
554	 9.97766531762895E-02 
555	 0.100466037007083 
556	 0.101056262021052 
557	 0.101667008833952 
558	 0.102385087815793 
559	 0.102950172950938 
560	 0.103479968771192 
561	 0.103994103402484 
562	 0.104468190887075 
563	 0.105054366548315 
564	 0.105600589910444 
565	 0.106040944150765 
566	 0.106558690141304 
567	 0.107046038781037 
568	 0.107467082688699 
569	 0.107837556505935 
570	 0.108331049312551 
571	 0.108732561424422 
572	 0.108993386882983 
573	 0.10926790551212 
574	 0.109631140827326 
575	 0.109977058189079 
576	 0.110229859962494 
577	 0.11059312744394 
578	 0.110807005009807 
579	 0.110884830109032 
580	 0.1110056843095 
581	 0.111127830454609 
582	 0.111259603610408 
583	 0.11141681667162 
584	 0.111635777433319 
585	 0.111700063163076 
586	 0.111658431288048 
587	 0.111649400842072 
588	 0.111689786728247 
589	 0.111684198523656 
590	 0.111618509553401 
591	 0.111569247125586 
592	 0.11145404795795 
593	 0.111277678127545 
594	 0.111035738397256 
595	 0.110624460431458 
596	 0.110200006864033 
597	 0.10973552353955 
598	 0.109141573080639 
599	 0.108791738436824 
600	 0.108436026785666 
601	 0.108003533833064 
602	 0.107873363132272 
603	 0.107698421419926 
604	 0.107559131303688 
605	 0.10760214919584 
606	 0.107574266635574 
607	 0.107523579181178 
608	 0.107548505500842 
609	 0.10777011562693 
610	 0.107911077013194 
611	 0.107959377545511 
612	 0.107973906965933 
613	 0.108030157030778 
614	 0.108066401955157 
615	 0.108159971051505 
616	 0.108398611260722 
617	 0.108254508676347 
618	 0.108176288189899 
619	 0.108356367203482 
620	 0.108409355921752 
621	 0.108489190976883 
622	 0.108658028745659 
623	 0.108860225282401 
624	 0.108578359490195 
625	 0.108521165188123 
626	 0.108784263680026 
627	 0.108852667405241 
628	 0.109006852905386 
629	 0.109009368271859 
630	 0.108812039063581 
631	 0.109121207437135 
632	 0.109241530950346 
633	 0.10912742027559 
634	 0.109039796015938 
635	 0.108966058821116 
636	 0.108975948039698 
637	 0.109072517829225 
638	 0.109167715337458 
639	 0.109096966854941 
640	 0.109037181278195 
641	 0.109142527403223 
642	 0.109037469631056 
643	 0.108771024103574 
644	 0.108594864985009 
645	 0.108860736948313 
646	 0.108728338585478 
647	 0.108479923293428 
648	 0.108411096746808 
649	 0.108353500068665 
650	 0.108185282956549 
651	 0.107953170139064 
652	 0.107734850358529 
653	 0.107232778193785 
654	 0.106763292256023 
655	 0.106443890099074 
656	 0.106092023067296 
657	 0.105656133123063 
658	 0.105177224913719 
659	 0.104687197932271 
660	 0.10413016397244 
661	 0.10391141302568 
662	 0.103899110760821 
663	 0.103651814736 
664	 0.103339353212483 
665	 0.103122650984817 
666	 0.103035811856006 
667	 0.102891776778847 
668	 0.102811915610198 
669	 0.102733195296013 
670	 0.102607797080876 
671	 0.102774597198863 
672	 0.102819050084747 
673	 0.102714913303128 
674	 0.102812427476167 
675	 0.102848076572778 
676	 0.103009435566652 
677	 0.103340047050291 
678	 0.103286234202103 
679	 0.10343245306232 
680	 0.103784386015919 
681	 0.104068815379945 
682	 0.104076117394934 
683	 0.104298444270563 
684	 0.104770686415316 
685	 0.104863366579881 
686	 0.105028484950199 
687	 0.105303689469044 
688	 0.105560736530203 
689	 0.105695866436538 
690	 0.105646112534787 
691	 0.105551909354776 
692	 0.105633513355226 
693	 0.105513834670984 
694	 0.105403644164122 
695	 0.10532485017323 
696	 0.104845073826251 
697	 0.104531733917001 
698	 0.104283020829158 
699	 0.103845967714283 
700	 0.103219179631532 
701	 0.102603541777254 
702	 0.102094761714614 
703	 0.101644074206499 
704	 0.100931661247258 
705	 0.100055138360841 
706	 0.099157754581475 
707	 9.82894862423669E-02 
708	 0.097212037950087 
709	 0.096002487061156 
710	 9.48286055173142E-02 
711	 0.093652870394323 
712	 9.21852308047098E-02 
713	 9.05474190076297E-02 
714	 8.92426648739062E-02 
715	 8.75398731979946E-02 
716	 8.58267918618519E-02 
717	 8.45594544783306E-02 
718	 8.24347654661764E-02 
719	 8.03113278348295E-02 
720	 7.85245336313674E-02 
721	 0.076743647632209 
722	 7.52214282153234E-02 
723	 7.34271075606962E-02 
724	 7.14464553512496E-02 
725	 6.97430030981326E-02 
726	 6.72256584729006E-02 
727	 6.47208005456043E-02 
728	 0.062846197942358 
729	 6.02261773246188E-02 
730	 5.75584560312503E-02 
731	 5.51703302794676E-02 
732	 5.30439593282887E-02 
733	 5.12298528674966E-02 
734	 4.96454788534722E-02 
735	 4.82809465815018E-02 
736	 0.047195122160866 
737	 4.63869030394882E-02 
738	 4.58368784661025E-02 
739	 4.54551591148788E-02 
740	 4.48790093511723E-02 
741	 4.47245325023499E-02 
742	 4.47972523878507E-02 
743	 4.45561741489129E-02 
744	 4.45078697563378E-02 
745	 4.44416650097885E-02 
746	 4.42678381149245E-02 
747	 4.41479693011601E-02 
748	 0.04419441824425 
749	 4.42357521907688E-02 
750	 4.41426869649327E-02 
751	 4.41963276203979E-02 
752	 4.41848506202777E-02 
753	 4.41017080995776E-02 
754	 4.40587058954825E-02 
755	 4.41039187355451E-02 
756	 4.41921501440109E-02 
757	 4.42743866181043E-02 
758	 4.43095723347017E-02 
759	 4.44430283115264E-02 
760	 4.46549842129666E-02 
761	 4.47677965754711E-02 
762	 4.51425255639317E-02 
763	 4.52166081665137E-02 
764	 4.50726518810046E-02 
765	 4.49839670020349E-02 
766	 4.48988976667418E-02 
767	 4.50025946456437E-02 
768	 4.52724388073956E-02 
769	 4.54886039756698E-02 
770	 4.55447297480977E-02 
771	 4.56308949307673E-02 
772	 4.58780885906409E-02 
773	 4.60787435726774E-02 
774	 4.63068819783315E-02 
775	 4.66142615657987E-02 
776	 4.70169246063152E-02 
777	 4.73754253099623E-02 
778	 4.76064625818066E-02 
779	 4.78162125120147E-02 
780	 4.82695297082064E-02 
781	 4.86458635840712E-02 
782	 4.87790217302857E-02 
783	 4.88481039320242E-02 
784	 4.97913024913244E-02 
785	 5.01896718835003E-02 
786	 5.03441985564503E-02 
787	 5.09768239952624E-02 
788	 5.14608746939028E-02 
789	 5.18679912503405E-02 
790	 5.23004761559596E-02 
791	 5.28432504118056E-02 
792	 5.32796266911549E-02 
793	 5.37246923135832E-02 
794	 5.42348291711069E-02 
795	 0.054680622573009 
796	 5.52739083922397E-02 
797	 5.56189661197104E-02 
798	 5.55952657877316E-02 
799	 5.65739813367677E-02 
800	 5.71213349754092E-02 
801	 5.71800451684456E-02 
802	 5.74513628139181E-02 
803	 5.76574451113777E-02 
804	 5.77830038398217E-02 
805	 5.78854990738617E-02 
806	 5.80732367815257E-02 
807	 5.82508047725645E-02 
808	 5.82297257063541E-02 
809	 5.79444590127461E-02 
810	 5.76442043089838E-02 
811	 5.77417254048192E-02 
812	 5.77102197157003E-02 
813	 5.68768307896872E-02 
814	 5.65825736705445E-02 
815	 5.63895184087744E-02 
816	 0.056032646386312 
817	 5.55058469654264E-02 
818	 5.48347093158851E-02 
819	 5.42002888828614E-02 
820	 5.34783753753954E-02 
821	 0.05218811596222 
822	 5.08928071944991E-02 
823	 4.97216131840279E-02 
824	 4.85610024650186E-02 
825	 4.70185015190845E-02 
826	 4.50862068319669E-02 
827	 4.29263793323987E-02 
828	 4.09685189211553E-02 
829	 3.96111754891133E-02 
830	 3.84259004391597E-02 
831	 3.72521947773236E-02 
832	 3.62101403182608E-02 
833	 3.53190304225285E-02 
834	 3.45624318182018E-02 
835	 3.38111775705856E-02 
836	 3.28278387930204E-02 
837	 3.25847479789485E-02 
838	 3.25803451301545E-02 
839	 3.22598213577451E-02 
840	 3.17991431675053E-02 
841	 3.13700796329861E-02 
842	 3.11380107858105E-02 
843	 0.03113817654846 
844	 3.09389393736324E-02 
845	 3.05669930097866E-02 
846	 3.01796051479109E-02 
847	 2.99816982675054E-02 
848	 0.029858082019156 
849	 2.96637721179889E-02 
850	 2.93952384228887E-02 
851	 2.92156453077511E-02 
852	 2.87750635988433E-02 
853	 2.84688133820414E-02 
854	 2.84525130944982E-02 
855	 2.80247868631767E-02 
856	 2.80075425430514E-02 
857	 0.028132265529482 
858	 0.027929392536529 
859	 2.72972556355786E-02 
860	 2.71235008194826E-02 
861	 2.72732221553165E-02 
862	 2.71460209276793E-02 
863	 2.69882740488241E-02 
864	 2.67365061587488E-02 
865	 2.64993563684529E-02 
866	 2.64710859290188E-02 
867	 2.58705446822869E-02 
868	 2.57955611108233E-02 
869	 2.62472376058276E-02 
870	 2.55764032335684E-02 
871	 2.47351868182993E-02 
872	 2.46092670206002E-02 
873	 2.51796569772658E-02 
874	 2.44770437656913E-02 
875	 2.39364057189541E-02 
876	 2.37412126128812E-02 
877	 2.36044894174939E-02 
878	 2.30345050027679E-02 
879	 2.26693588599755E-02 
880	 0.022419778071244 
881	 2.20274373238634E-02 
882	 2.25091241067337E-02 
883	 2.21817513961982E-02 
884	 2.14152476242705E-02 
885	 2.19109834313019E-02 
886	 2.18624423518489E-02 
887	 2.12667471123028E-02 
888	 2.07223247766263E-02 
889	 2.11511129241705E-02 
890	 2.15376973889803E-02 
891	 2.15186166021627E-02 
892	 0.021018117862876 
893	 2.02845968666784E-02 
894	 2.00873023444862E-02 
895	 2.04565342774096E-02 
896	 2.08646439563818E-02 
897	 2.00239993512165E-02 
898	 1.95785076212494E-02 
899	 1.94819720915969E-02 
900	 1.91410775104448E-02 
901	 1.84704142317711E-02 
902	 1.84297877979157E-02 
903	 1.85497091297208E-02 
904	 1.80751626151022E-02 
905	 1.77740525200104E-02 
906	 1.74487621507078E-02 
907	 1.73934346430677E-02 
908	 1.80582144495627E-02 
909	 1.83373774450546E-02 
910	 1.80931959112121E-02 
911	 1.72538439323276E-02 
912	 1.59221622799777E-02 
913	 1.59252772815249E-02 
914	 1.59182393945695E-02 
915	 1.53740938989827E-02 
916	 0.015131553443702 
917	 1.47170137631441E-02 
918	 0.014378269579124 
919	 1.40036367384597E-02 
920	 1.29788226356954E-02 
921	 0.014028657855442 
922	 1.52176360982166E-02 
923	 1.46712612015602E-02 
924	 1.25507511536692E-02 
925	 1.22788600566373E-02 
926	 1.30375413326145E-02 
927	 1.31136081407805E-02 
928	 1.31286312904976E-02 
929	 1.25865890203294E-02 
930	 1.11700276550764E-02 
931	 9.25024478698085E-03 
932	 9.95897074250757E-03 
933	 0.0126981483881 
934	 1.45682534223256E-02 
935	 1.35241348000567E-02 
936	 1.39102525227516E-02 
937	 1.00940863147897E-02 
938	 7.5406457212765E-03 
939	 1.12144869688222E-02 
940	 1.23969365913452E-02 
941	 7.94855706731505E-03 
942	 3.21746449111885E-03 
943	 6.35395512098737E-03 
944	 1.22188873089658E-02 
945	 0.014784048021567 
946	 1.23012393941513E-02 
947	 6.9937372305477E-03 
948	 1.41962530441816E-03 
949	 7.96468636984838E-04 
950	 6.61979527339017E-03 
951	 1.50242963189415E-02 
952	 8.41929070866831E-03 
953	 7.25176297953328E-03 
954	 1.08724499202794E-02 
955	 5.6405169282788E-03 
956	 9.83679477995472E-03 
957	 0.011957840213372 
958	 8.97053342064473E-03 
959	 6.09194351353229E-03 
960	 7.21027773284505E-03 
961	 8.71683388101033E-03 
962	 9.15163829547806E-03 
963	 9.1178105374151E-03 
964	 7.07619183621998E-03 
965	 5.28207087727638E-03 
966	 5.36498751721854E-03 
967	 7.60092605585692E-03 
968	 8.76479588665244E-03 
969	 8.03260220919772E-03 
970	 6.79693621869572E-03 
971	 7.64607069958377E-03 
972	 8.9539694123228E-03 
973	 9.23414758987069E-03 
974	 8.0584658988272E-03 
975	 6.36227409390548E-03 
976	 6.26967332533815E-03 
977	 8.63391527201966E-03 
978	 1.07256098184561E-02 
979	 8.38601386278503E-03 
980	 7.61882227985069E-03 
981	 8.91387112012627E-03 
982	 9.43226621457123E-03 
983	 5.78704038080564E-03 
984	 6.65023029895703E-03 
985	 5.95582431815726E-03 
986	 4.15881835755153E-03 
987	 6.87922667561142E-03 
988	 9.71627862020412E-03 
989	 0.010756101250478 
990	 1.04151278823519E-02 
991	 1.01326493449566E-02 
992	 6.40368038243838E-03 
993	 5.73053041318158E-03 
994	 7.80917346958676E-03 
995	 7.46515917634182E-03 
996	 5.39172029645972E-03 
997	 4.18397496346017E-03 
998	 5.56473445744023E-03 
999	 9.08615128958981E-03 
1000	 8.30942337691296E-03 
1001	 9.14985718129588E-03 
1002	 8.92012835442694E-03 
1003	 8.46559641724544E-03 
1004	 7.45306231201394E-03 
1005	 6.96132960654228E-03 
1006	 6.18056197274459E-03 
1007	 6.47861456842191E-03 
1008	 6.86459431718209E-03 
1009	 7.2816418740854E-03 
1010	 7.58981365549617E-03 
1011	 7.55803363958289E-03 
1012	 7.95305029384311E-03 
1013	 8.37860605769745E-03 
1014	 8.65245038240837E-03 
1015	 9.02409812469032E-03 
1016	 9.26567951868481E-03 
1017	 9.20901939784364E-03 
1018	 9.44236750407566E-03 
1019	 1.00115959127288E-02 
1020	 1.00597467734678E-02 
1021	 1.00509045768495E-02 
1022	 9.78165925413946E-03 
1023	 8.87302429569446E-03 
1024	 8.82570875764122E-03 
1025	 8.69019188372402E-03 
1026	 8.64697770112167E-03 
1027	 8.61031797915434E-03 
1028	 8.72718663086458E-03 
1029	 8.49222718819936E-03 
1030	 8.0557831680936E-03 
1031	 7.78343807245553E-03 
1032	 7.1458282014148E-03 
1033	 7.22295668692464E-03 
1034	 7.97341145264492E-03 
1035	 8.29664248691443E-03 
1036	 8.88805249289962E-03 
1037	 9.14541080392705E-03 
1038	 8.95169886591428E-03 
1039	 8.88011737326809E-03 
1040	 9.04527927780427E-03 
1041	 9.24054949919228E-03 
1042	 9.03381923630913E-03 
1043	 8.43345051233146E-03 
1044	 8.59392130511413E-03 
1045	 9.00194566823485E-03 
1046	 8.97961684605269E-03 
1047	 9.17320544913126E-03 
1048	 9.42679879149697E-03 
1049	 9.15486298282337E-03 
1050	 9.22428245588847E-03 
1051	 1.02493164989344E-02 
1052	 1.04609275715632E-02 
1053	 9.85379260465707E-03 
1054	 9.72747192827522E-03 
1055	 9.53116570460124E-03 
1056	 9.41106116297661E-03 
1057	 9.42120253809796E-03 
1058	 9.90783333201966E-03 
1059	 9.74050440771039E-03 
1060	 9.13724124023344E-03 
1061	 9.05151285225406E-03 
1062	 8.72451902639178E-03 
1063	 8.9633546700725E-03 
1064	 1.00952867887941E-02 
1065	 1.04478985687446E-02 
1066	 1.07651634884458E-02 
1067	 1.08410159609017E-02 
1068	 1.01314201968758E-02 
1069	 1.00431840635919E-02 
1070	 1.03088293363187E-02 
1071	 1.04192185915328E-02 
1072	 1.07813905328277E-02 
1073	 1.10341574566386E-02 
1074	 1.10986946482801E-02 
1075	 1.09131448505996E-02 
1076	 1.07352554043403E-02 
1077	 1.05567188713207E-02 
1078	 1.02043223023738E-02 
1079	 9.3508272793583E-03 
1080	 9.28608297760784E-03 
1081	 9.53461868367103E-03 
1082	 9.66529315515655E-03 
1083	 1.04913215396398E-02 
1084	 1.06669312830174E-02 
1085	 0.010406311789575 
1086	 1.01481911369034E-02 
1087	 9.25640142954754E-03 
1088	 9.06198554338976E-03 
1089	 9.34967357119065E-03 
1090	 9.4253402284686E-03 
1091	 9.38538778392067E-03 
1092	 9.62839084486568E-03 
1093	 9.59500110680345E-03 
1094	 9.13232093905713E-03 
1095	 9.01723457478868E-03 
1096	 9.12357035477231E-03 
1097	 9.1123068479849E-03 
1098	 9.0761648924799E-03 
1099	 8.94845717171904E-03 
1100	 8.6977878060996E-03 
1101	 8.78620750896292E-03 
1102	 9.07919214785494E-03 
1103	 9.00049072328247E-03 
1104	 8.53741118862468E-03 
1105	 9.06573623081643E-03 
1106	 9.13405521360973E-03 
1107	 8.57469730598934E-03 
1108	 9.20250550108243E-03 
1109	 0.010031943567707 
1110	 1.04768503788729E-02 
1111	 1.13223053051286E-02 
1112	 1.14695550785571E-02 
1113	 1.07019371560898E-02 
1114	 9.55643121183792E-03 
1115	 6.80071442180206E-03 
1116	 6.13983410026877E-03 
1117	 6.14533237114848E-03 
1118	 6.25080148554749E-03 
1119	 9.8053600876773E-03 
1120	 1.09073082553852E-02 
1121	 6.49928250979318E-03 
1122	 1.07884758096268E-02 
1123	 1.71783222160545E-02 
1124	 0.015156012730892 
1125	 0.01374233008153 
1126	 1.06280889334145E-02 
1127	 6.30026174132757E-04 
1128	-2.58863458134172E-03 
1129	-4.13591851428122E-04 
1130	 8.4561457473069E-03 
1131	 9.76712965787981E-03 
1132	 1.43467070725056E-02 
1133	 1.28432893769853E-02 
1134	 3.05374367885776E-03 
1135	 1.39539292373217E-03 
1136	 1.04761510275101E-03 
1137	 1.68519263414885E-03 
1138	 5.43516511296292E-03 
1139	 9.61149220308541E-03 
1140	 9.17753516243007E-03 
1141	 7.16221905250458E-03 
1142	 6.20941128430966E-03 
1143	 6.72580156596075E-03 
1144	 8.61155260770089E-03 
1145	 1.12481903759524E-02 
1146	 0.011510700618684 
1147	 7.86383384309629E-03 
1148	 5.70145929223141E-03 
1149	 7.55272327571167E-03 
1150	 7.59295987376759E-03 
1151	 8.04515239272074E-03 
1152	 8.66624495069639E-03 
1153	 9.24280233636038E-03 
1154	 7.84039253059629E-03 
1155	 5.39433685382091E-03 
1156	 5.94018123741093E-03 
1157	 5.58256099014334E-03 
1158	 5.36357559134654E-03 
1159	 6.81141145089327E-03 
1160	 7.23175640282963E-03 
1161	 5.71026167484772E-03 
1162	 5.12687442203219E-03 
1163	 4.93478650070114E-03 
1164	 4.71166191071093E-03 
1165	 5.84002644080124E-03 
1166	 6.60593363428763E-03 
1167	 6.20718272518027E-03 
1168	 5.65293928750025E-03 
1169	 5.52917337001806E-03 
1170	 5.69261105395517E-03 
1171	 5.90422070049574E-03 
1172	 7.14492153004331E-03 
1173	 7.20910033063489E-03 
1174	 6.60683007991579E-03 
1175	 6.2224629847354E-03 
1176	 5.77757503029884E-03 
1177	 5.65742486930104E-03 
1178	 6.56246298828679E-03 
1179	 6.87100619280952E-03 
1180	 6.30724720185687E-03 
1181	 6.3622936745195E-03 
1182	 6.8567776959497E-03 
1183	 6.61225876582114E-03 
1184	 6.31388224036366E-03 
1185	 6.51143364798823E-03 
1186	 6.15205419082432E-03 
1187	 5.57518365826789E-03 
1188	 6.06011196751491E-03 
1189	 6.6829581419516E-03 
1190	 6.50685666393177E-03 
1191	 6.36952250553402E-03 
1192	 6.41775674692597E-03 
1193	 6.44253999716912E-03 
1194	 6.46225186237677E-03 
1195	 6.68244180464836E-03 
1196	 6.86760804800986E-03 
1197	 7.12325468899051E-03 
1198	 6.96032327002499E-03 
1199	 6.73231092277709E-03 
1200	 7.14634859311115E-03 
1201	 7.42945077325547E-03 
1202	 7.26330137182347E-03 
1203	 7.15610658151022E-03 
1204	 6.97376286001288E-03 
1205	 6.55950897978037E-03 
1206	 6.53549479479945E-03 
1207	 6.93864771884771E-03 
1208	 6.90680436116887E-03 
1209	 6.45453518313233E-03 
1210	 6.29996531835437E-03 
1211	 6.26736154729267E-03 
1212	 6.2699072869324E-03 
1213	 6.69995786759308E-03 
1214	 6.90320096038792E-03 
1215	 7.06306740659219E-03 
1216	 6.86383007253324E-03 
1217	 6.85050014516762E-03 
1218	 6.80456466417627E-03 
1219	 6.6566423436798E-03 
1220	 6.63265905222388E-03 
1221	 6.53586470889469E-03 
1222	 6.24388301701029E-03 
1223	 6.1302894069697E-03 
1224	 6.13463525253239E-03 
1225	 6.10364151455358E-03 
1226	 6.1457409721195E-03 
1227	 6.16845624130282E-03 
1228	 6.06558662958675E-03 
1229	 6.15669788212557E-03 
1230	 6.44784137645818E-03 
1231	 6.58713535954998E-03 
1232	 6.58957083930289E-03 
1233	 6.16706096022747E-03 
1234	 5.71174918122401E-03 
1235	 5.7456243438432E-03 
1236	 6.35827193780798E-03 
1237	 6.46726787331286E-03 
1238	 6.71039843805566E-03 
1239	 6.7993293309902E-03 
1240	 6.31698022045727E-03 
1241	 5.94068969966431E-03 
1242	 6.27369142769656E-03 
1243	 6.52998377237243E-03 
1244	 6.46391232716875E-03 
1245	 6.74143288153845E-03 
1246	 6.86287001996377E-03 
1247	 6.44733620948145E-03 
1248	 6.22408582701592E-03 
1249	 6.5354184731137E-03 
1250	 6.71411976906396E-03 
1251	 6.58565202378742E-03 
1252	 6.50272196919569E-03 
1253	 6.29712377419552E-03 
1254	 6.21535380901436E-03 
1255	 6.39528305513102E-03 
1256	 6.28857246390152E-03 
1257	 6.18477523041485E-03 
1258	 6.27788033419558E-03 
1259	 6.33552306706239E-03 
1260	 6.23858413127594E-03 
1261	 6.4295711224813E-03 
1262	 6.54064428446386E-03 
1263	 6.37274859527418E-03 
1264	 5.81447737010081E-03 
1265	 5.7900674499577E-03 
1266	 6.54154922445069E-03 
1267	 6.94850616501361E-03 
1268	 6.5358076762213E-03 
1269	 6.44637518046133E-03 
1270	 6.39690790271149E-03 
1271	 5.72870573634463E-03 
1272	 5.86958040297538E-03 
1273	 6.61990457275301E-03 
1274	 6.5244829461141E-03 
1275	 6.18987767896213E-03 
1276	 6.28565025538509E-03 
1277	 6.5004686980274E-03 
1278	 6.54522624033387E-03 
1279	 6.63165386316202E-03 
1280	 6.99788403298787E-03 
1281	 7.0986794651398E-03 
1282	 6.63815771341626E-03 
1283	 6.56212401045364E-03 
1284	 6.88222769677975E-03 
1285	 6.90036925288093E-03 
1286	 6.76047238437621E-03 
1287	 6.68856569783124E-03 
1288	 6.43038307317558E-03 
1289	 6.25942618910748E-03 
1290	 6.0269891012361E-03 
1291	 6.2388665276168E-03 
1292	 6.13058502486293E-03 
1293	 6.03938660663943E-03 
1294	 5.75321881564561E-03 
1295	 5.57529888618854E-03 
1296	 5.63717796222897E-03 
1297	 5.71617100755058E-03 
1298	 6.01736368902098E-03 
1299	 6.36326813247455E-03 
1300	 6.34075303725186E-03 
1301	 5.99514258028206E-03 
1302	 6.19240523294292E-03 
1303	 6.39169599433078E-03 
1304	 6.09508912059787E-03 
1305	 6.35619648775949E-03 
1306	 6.46431276990782E-03 
1307	 6.11031303029619E-03 
1308	 5.70206629591282E-03 
1309	 5.45662033341598E-03 
1310	 5.54950788371383E-03 
1311	 5.35449817629331E-03 
1312	 5.43614432943104E-03 
1313	 6.4302084467744E-03 
1314	 6.7522628059671E-03 
1315	 6.51086853116253E-03 
1316	 6.58397665986683E-03 
1317	 6.88132705049759E-03 
1318	 6.8424750021182E-03 
1319	 6.32297878900649E-03 
1320	 6.40333970874024E-03 
1321	 6.96696675583225E-03 
1322	 6.99710888082277E-03 
1323	 6.34535820623784E-03 
1324	 5.90975899746828E-03 
1325	 6.3157643784557E-03 
1326	 6.29262220590793E-03 
1327	 5.58305733066917E-03 
1328	 6.05494051693326E-03 
1329	 6.85506280108376E-03 
1330	 6.14921631637535E-03 
1331	 5.50170416112341E-03 
1332	 5.77759723126542E-03 
1333	 5.45793709193833E-03 
1334	 4.83805063497788E-03 
1335	 4.48257882188762E-03 
1336	 6.35019425608462E-03 
1337	 6.38793116056422E-03 
1338	 4.46437935936829E-03 
1339	 3.72114563047691E-03 
1340	 3.36293507678649E-03 
1341	 2.90890856779371E-03 
1342	 2.37597161388489E-03 
1343	 1.36312503656333E-03 
1344	-6.59677758630435E-04 
1345	-5.2094750848135E-05 
1346	 3.09363881879195E-03 
1347	 4.6575206449559E-03 
1348	 1.08828437920196E-02 
1349	 1.43881174701324E-02 
1350	 8.64088633881599E-03 
1351	 6.26224511970419E-03 
1352	 4.56057984771764E-03 
1353	 3.38525174055906E-03 
1354	 6.51031580891946E-04 
1355	 6.58947059613903E-03 
1356	 6.39994744874411E-02 
1357	 5.62255295150378E-02 
1358	 3.36503817171982E-02 
1359	 3.39424739666667E-02 
1360	-0.175773920420223 
1361	-0.32059031597783 
1362	-0.158937099264106 
1363	 9.23603072949951E-02 
1364	 0.349167931676537 
1365	 0.347600460101008 
1366	 0.100827417367924 
1367	 0.120970343158776 
1368	 0.244081313214293 
1369	 0.56264334876044 
1370	 0.640509699592578 
1371	 0.580732353823744 
1372	 0.547499276335792 
1373	 0.439263187373928 
1374	 0.4024879956351 
1375	 0.536912415328856 
1376	 0.530921959582826 
1377	 0.606769440320578 
1378	 0.376355117801707 
1379	 2.20884380998556E-02 
1380	-1.11638836970203E-02 
1381	-0.167378881025388 
1382	-0.385306582232139 
1383	-1.16949254737643 
1384	-0.372052950704008 
1385	 0.947885510264196 
1386	 0.903830554565664 
1387	 0.513318883515603 
1388	 0.535604677518661 
1389	 8.61770497085745E-03 
1390	-0.368695082146784 
1391	-0.240327764248329 
1392	 0.479748558223907 
1393	 0.230641558384589 
1394	 7.19513812522617E-02 
1395	 0.229919956688593 
1396	 0.21440196628758 
1397	-0.409382678576519 
1398	-0.187428500358418 
1399	-0.19525267111536 
1400	-1.2152507193132 
1401	-0.261536741650442 
1402	 1.84157791069865 
1403	 0.218017676378042 
1404	 0.287079770199244 
1405	 0.243982066770139 
1406	 0.208384832134907 
1407	 0.185531082470726 
1408	 5.40601526805696E-02 
1409	 0.111698160144626 
1410	 0.368020720248554 
1411	 0.305884652786486 
1412	 0.215231205641776 
1413	 0.148886154600714 
1414	-1.81633900709053E-02 
1415	-2.14563031773379E-02 
1416	 2.93195817579344E-02 
1417	 5.34307648528104E-02 
1418	 0.124939595293915 
1419	 0.120983991469307 
1420	 7.36505792331042E-02 
1421	 0.073032780334912 
1422	 9.62444573381862E-02 
1423	 6.70032777020634E-02 
1424	 1.76421193737272E-02 
1425	 9.81441023949421E-03 
1426	-4.21639903285499E-03 
1427	-1.25774469506691E-02 
1428	 5.47656532528394E-04 
1429	 8.98271620115992E-03 
1430	 1.63452006221451E-02 
1431	 1.49172247441993E-02 
1432	 6.1173133811459E-03 
1433	 1.08200284529834E-02 
1434	 1.59226668165146E-02 
1435	 1.50212114507921E-02 
1436	 1.86563560738319E-02 
1437	 3.37719095474637E-02 
1438	 0.02477154856004 
1439	 4.68103325819446E-03 
1440	-1.72535878223887E-03 
1441	-3.94820969122067E-03 
1442	-9.07778325408953E-03 
1443	 3.84663413547175E-03 
1444	 0.010893117051854 
1445	 4.48289040154741E-03 
1446	 5.30867152348745E-03 
1447	 8.97622815292995E-03 
1448	 7.68352789205947E-03 
1449	 6.06653818375908E-03 
1450	 8.7474058700219E-03 
1451	 6.27384474475274E-03 
1452	 4.61884924648251E-03 
1453	 1.06802708498326E-02 
1454	 1.05947745410552E-02 
1455	 1.03373245947086E-02 
1456	 8.62175657216591E-03 
1457	 2.48513026651964E-03 
1458	 3.87470147231678E-03 
1459	 9.64746074860523E-03 
1460	 9.86055012906255E-03 
1461	 1.10692918763734E-02 
1462	 1.17858380926261E-02 
1463	 9.19525728167582E-03 
1464	 7.47436890086356E-03 
1465	 5.55717053835219E-03 
1466	 6.96987803228407E-03 
1467	 1.03731102292145E-02 
1468	 9.81994465392755E-03 
1469	 1.13001767602157E-02 
1470	 1.21114503522228E-02 
1471	 6.32309446443386E-03 
1472	 5.95018390479865E-03 
1473	 1.09300733267858E-02 
1474	 1.33445303065405E-02 
1475	 1.71954830252554E-02 
1476	 1.58054445795907E-02 
1477	 1.00337442940867E-02 
1478	 9.88568282812727E-03 
1479	 1.08508084047421E-02 
1480	 8.72942833173428E-03 
1481	 6.97994647084693E-03 
1482	 7.42718109566929E-03 
1483	 6.75803052027259E-03 
1484	 5.65087636426592E-03 
1485	 6.24048853502258E-03 
1486	 7.43934809668844E-03 
1487	 7.90836385551532E-03 
1488	 7.50306633452966E-03 
1489	 8.05628975338417E-03 
1490	 8.41180986664418E-03 
1491	 7.51742831908373E-03 
1492	 6.7998101597075E-03 
1493	 6.62524485247204E-03 
1494	 6.84827642098933E-03 
1495	 6.64171175485257E-03 
1496	 6.62065668302675E-03 
1497	 7.59601715715659E-03 
1498	 7.73336927763602E-03 
1499	 7.09993773976373E-03 
1500	 6.88789345182917E-03 
1501	 6.56044832427417E-03 
1502	 6.48540835666751E-03 
1503	 7.15279246501574E-03 
1504	 7.03999490783205E-03 
1505	 6.53139794265635E-03 
1506	 5.87365327102157E-03 
1507	 6.2012485851518E-03 
1508	 5.91835601075597E-03 
1509	 5.39342977451486E-03 
1510	 5.89632768374669E-03 
1511	 6.11812276468764E-03 
1512	 5.98545887866649E-03 
1513	 6.46796635868161E-03 
1514	 6.98305618467166E-03 
1515	 6.56648344233657E-03 
1516	 5.71041830732945E-03 
1517	 5.75618568321895E-03 
1518	 6.28423145500185E-03 
1519	 6.05804681930729E-03 
1520	 5.6432034354265E-03 
1521	 5.82755999730904E-03 
1522	 5.61128184244807E-03 
1523	 5.48481934080738E-03 
1524	 6.17055732426522E-03 
1525	 6.21235994136227E-03 
1526	 5.76173976938902E-03 
1527	 5.34686899829919E-03 
1528	 5.22893006299056E-03 
1529	 5.43966279643276E-03 
1530	 5.4157985215079E-03 
1531	 5.70322812551455E-03 
1532	 5.72484003848959E-03 
1533	 5.61756607995058E-03 
1534	 5.68102814122819E-03 
1535	 5.23610548420778E-03 
1536	 5.64937831714252E-03 
1537	 6.16048801839886E-03 
1538	 5.67054595255489E-03 
1539	 5.70686410524576E-03 
1540	 5.95182967548271E-03 
1541	 5.7197640783998E-03 
1542	 5.68281886964372E-03 
1543	 6.03524196259369E-03 
1544	 6.27313198086815E-03 
1545	 6.06932696577242E-03 
1546	 5.87544319620671E-03 
1547	 5.58117858056575E-03 
1548	 4.91136377100783E-03 
1549	 4.78253476242643E-03 
1550	 5.06712617357315E-03 
1551	 4.97201981409434E-03 
1552	 5.22543114791386E-03 
1553	 5.67823026427257E-03 
1554	 5.65609761671212E-03 
1555	 5.85566066633059E-03 
1556	 5.74974807125219E-03 
1557	 5.47052397348022E-03 
1558	 5.76703545655149E-03 
1559	 5.61342092418599E-03 
1560	 5.72995931005381E-03 
1561	 6.16892938499215E-03 
1562	 5.92323234475425E-03 
1563	 5.68974815910602E-03 
1564	 5.81810375490995E-03 
1565	 6.27226804807625E-03 
1566	 6.40359826075189E-03 
1567	 6.35426910067955E-03 
1568	 6.55493706244652E-03 
1569	 6.38736686082312E-03 
1570	 6.13509266157028E-03 
1571	 5.95275887001864E-03 
1572	 5.6505925440346E-03 
1573	 5.75800387209192E-03 
1574	 6.01707886657662E-03 
1575	 6.13510143865508E-03 
1576	 6.49400691479045E-03 
1577	 6.24420442168336E-03 
1578	 5.4528909181775E-03 
1579	 5.44789803072359E-03 
1580	 5.90688866729339E-03 
1581	 6.19286739063359E-03 
1582	 6.34349322161846E-03 
1583	 6.23070444997348E-03 
1584	 5.98884693387558E-03 
1585	 5.94630157798342E-03 
1586	 6.10610681495376E-03 
1587	 6.22869245209753E-03 
1588	 6.20546787375838E-03 
1589	 6.09499886470592E-03 
1590	 5.94740292875421E-03 
1591	 5.70116226578451E-03 
1592	 5.77791423217355E-03 
1593	 6.14409235084395E-03 
1594	 6.03530366883941E-03 
1595	 5.91709059041129E-03 
1596	 5.95869763915396E-03 
1597	 5.96705901664186E-03 
1598	 5.89891309880486E-03 
1599	 5.44749372513403E-03 
1600	 5.20580217081941E-03 
1601	 5.20544540887728E-03 
1602	 5.12746154287684E-03 
1603	 0.005721934878442 
1604	 6.45021602386434E-03 
1605	 6.12929401301919E-03 
1606	 5.78532141710301E-03 
1607	 5.88271638702077E-03 
1608	 5.57060754617494E-03 
1609	 5.39127662033788E-03 
1610	 5.97273811819387E-03 
1611	 6.38139470772131E-03 
1612	 6.10756368478399E-03 
1613	 5.83222715718501E-03 
1614	 5.6781981858287E-03 
1615	 5.82749185275718E-03 
1616	 6.27828869176915E-03 
1617	 6.50500540936393E-03 
1618	 6.39808663095363E-03 
1619	 5.74698423027632E-03 
1620	 5.06915106073913E-03 
1621	 5.01630964200243E-03 
1622	 5.29296482420063E-03 
1623	 5.43895030442924E-03 
1624	 5.48011918730713E-03 
1625	 5.5681629658751E-03 
1626	 5.36925509880762E-03 
1627	 5.39375524397299E-03 
1628	 5.78558279795145E-03 
1629	 5.85123051953176E-03 
1630	 5.90258987859101E-03 
1631	 5.71725149141234E-03 
1632	 5.49432004129622E-03 
1633	 5.87435993949855E-03 
1634	 5.94151873815538E-03 
1635	 5.94743366154928E-03 
1636	 5.99991409173528E-03 
1637	 5.60148367834292E-03 
1638	 5.44602145728462E-03 
1639	 5.20973481950489E-03 
1640	 5.07953916244564E-03 
1641	 5.27784022067753E-03 
1642	 5.3309495632547E-03 
1643	 5.37361093152712E-03 
1644	 5.41894632449608E-03 
1645	 5.36678697067781E-03 
1646	 5.40518711047156E-03 
1647	 5.79377054776999E-03 
1648	 5.92774192738324E-03 
1649	 5.47353657492177E-03 
1650	 5.10880531991533E-03 
1651	 5.21609193335419E-03 
1652	 5.31690811403622E-03 
1653	 5.42718996221847E-03 
1654	 5.51566569391261E-03 
1655	 5.37282104648637E-03 
1656	 5.34040865655119E-03 
1657	 5.47150880182329E-03 
1658	 5.36087723606901E-03 
1659	 4.91370859775394E-03 
1660	 5.08097321423585E-03 
1661	 5.54178144920247E-03 
1662	 5.69186154248047E-03 
1663	 6.30079732010851E-03 
1664	 6.33259661085871E-03 
1665	 5.38595486949933E-03 
1666	 5.30217865912718E-03 
1667	 5.77088294037888E-03 
1668	 4.76468276525185E-03 
1669	 5.67780464915857E-03 
1670	 6.48871582225517E-03 
1671	 5.54116701255808E-03 
1672	 5.26815066779741E-03 
1673	 4.81033793412969E-03 
1674	 4.29037100497814E-03 
1675	 4.67953465866054E-03 
1676	 5.21109620382424E-03 
1677	 5.53333823601877E-03 
1678	 5.25431653467754E-03 
1679	 5.27176721439648E-03 
1680	 5.6401834362971E-03 
1681	 6.00890811098075E-03 
1682	 6.35037676384374E-03 
1683	 6.03938677773054E-03 
1684	 6.29755560508129E-03 
1685	 6.28345766438662E-03 
1686	 5.79177193410654E-03 
1687	 6.08681839561322E-03 
1688	 5.7433898775431E-03 
1689	 0.005403477763674 
1690	 5.93425190704688E-03 
1691	 6.17240830039315E-03 
1692	 5.74513068975656E-03 
1693	 5.06983955907709E-03 
1694	 4.76874398716391E-03 
1695	 4.77442941610398E-03 
1696	 5.25347166827471E-03 
1697	 6.28231549103395E-03 
1698	 6.70689684269619E-03 
1699	 6.68144882576234E-03 
1700	 6.95423212813623E-03 
1701	 6.57371910285007E-03 
1702	 6.00311715759394E-03 
1703	 6.37277979253642E-03 
1704	 6.47159977710453E-03 
1705	 5.99986951002448E-03 
1706	 6.1250403536245E-03 
1707	 6.1470379653869E-03 
1708	 5.58002582629821E-03 
1709	 6.15498025201314E-03 
1710	 6.97355117305022E-03 
1711	 6.43279893537253E-03 
1712	 5.9995875914825E-03 
1713	 5.56401421879899E-03 
1714	 5.11706049959088E-03 
1715	 4.69324612710325E-03 
1716	 4.64911727032894E-03 
1717	 4.34852897471456E-03 
1718	 4.87653243674695E-03 
1719	 6.71543548196458E-03 
1720	 7.26703728880174E-03 
1721	 7.01249834040492E-03 
1722	 6.92959264971441E-03 
1723	 5.97378348215735E-03 
1724	 5.17305073232256E-03 
1725	 5.84785349606448E-03 
1726	 6.70651665124341E-03 
1727	 6.15944514464576E-03 
1728	 5.48359488806842E-03 
1729	 5.2177517394566E-03 
1730	 5.00658050640146E-03 
1731	 5.64576272046195E-03 
1732	 6.8754944412166E-03 
1733	 7.9045452200154E-03 
1734	 7.50443678113258E-03 
1735	 6.43615251577226E-03 
1736	 6.87952110932714E-03 
1737	 7.24074843896741E-03 
1738	 7.12015033776671E-03 
1739	 7.9643648902603E-03 
1740	 7.60445283046331E-03 
1741	 6.5257339978069E-03 
1742	 6.16737851479623E-03 
1743	 5.86578533868382E-03 
1744	 7.42775873272357E-03 
1745	 8.62027686518657E-03 
1746	 8.4921788755058E-03 
1747	 8.22411889453483E-03 
1748	 4.69817530015373E-03 
1749	 3.77853870082828E-03 
1750	 5.33750616673639E-03 
1751	 5.27212482374256E-03 
1752	 5.49654384354398E-03 
1753	 5.83646974904714E-03 
1754	 5.05433173055603E-03 
1755	 4.86042511558251E-03 
1756	 5.45261275798836E-03 
1757	 5.54911483931311E-03 
1758	 6.28395452132145E-03 
1759	 6.05804502077264E-03 
1760	 4.80244806976406E-03 
1761	 4.56373911292658E-03 
1762	 4.32098603002788E-03 
1763	 4.71377359874888E-03 
1764	 6.42161705959732E-03 
1765	 6.2304239018223E-03 
1766	 4.89008020059747E-03 
1767	 5.20195014048032E-03 
1768	 0.004303722528877 
1769	 3.13323936235003E-03 
1770	 4.29928757801301E-03 
1771	 4.98873658972333E-03 
1772	 5.93588370311202E-03 
1773	 6.56023862738223E-03 
1774	 5.01958192679179E-03 
1775	 3.16618905573686E-03 
1776	 3.06564778118781E-03 
1777	 6.35015584724902E-03 
1778	 7.05690070971517E-03 
1779	 6.06167407660637E-03 
1780	 6.02024278885472E-03 
1781	 4.34697555494341E-03 
1782	 4.10331751783162E-03 
1783	 7.16783163583561E-03 
1784	 6.62615578627295E-03 
1785	 2.61561726971111E-03 
1786	 3.47400903866693E-03 
1787	 5.38226128206467E-03 
1788	 5.81737399683522E-03 
1789	 1.06309504653704E-02 
1790	 1.36106974589811E-02 
1791	 1.28021787229906E-02 
1792	 0.015609418044368 
1793	 9.85934209091384E-03 
1794	 1.75346300085427E-03 
1795	 3.50984168226029E-03 
1796	 1.18135937048209E-02 
1797	 2.21972993142677E-02 
1798	 2.01320014919983E-02 
1799	 1.65296659751637E-02 
1800	 7.11443286842447E-03 
1801	 2.88604535173823E-03 
1802	 1.96345862665477E-02 
1803	 2.43099968351059E-02 
1804	 2.44207730530032E-02 
1805	 2.50647487134662E-02 
1806	 4.44154868880933E-04 
1807	-2.70163842938954E-03 
1808	 2.34355788535935E-02 
1809	 2.72452498933736E-02 
1810	 3.64039595154819E-02 
1811	 6.26460102891089E-02 
1812	 0.05453862366198 
1813	 7.91175848183224E-02 
1814	 0.19050412251867 
1815	 0.331642399120723 
1816	 0.650604510183042 
1817	 1.11384218591604 
1818	 2.76752830329185 
1819	 0.741073047952423 
1820	 1.06898344222938E-02 
1821	-1.07538077231264 
1822	-1.71687633263342 
1823	-1.96133615134231 
1824	-1.01866689794407 
1825	 0.464528453583126 
1826	 0.625196162653075 
1827	 0.550555319531417 
1828	 0.691247259721708 
1829	 0.492493282925324 
1830	-0.181905845892107 
1831	 0.365867504702688 
1832	 0.622013645158086 
1833	 2.09783801588957 
1834	 7.24884273282854 
1835	 0.706933681054432 
1836	 0.756340300096762 
1837	 9.92492900524616E-02 
1838	 0.548236109309283 
1839	 1.57973199146692 
1840	 0.604386447791737 
1841	 2.27225406535612 
1842	-9.93656742408431 
1843	-1.25123555711265 
1844	 0.151750992160595 
1845	 0.372626841833794 
1846	 0.89712561689366 
1847	 1.13128621543156 
1848	 2.5140400659378 
1849	-1.78969818100484 
1850	-2.73035597978501 
1851	-8.38750618914929 
1852	-36.8056800808163 
1853	-26.8476000059476 
1854	-6.93798781736081 
1855	-1.16182013409611 
1856	-1.05698653903757 
1857	-2.39010411627122 
1858	-2.73582104308927 
1859	-3.12061876318684 
1860	 0.272415199377183 
1861	-0.47936756673927 
1862	-1.77960875948802 
1863	-1.74903863303865 
1864	-0.947532936157703 
1865	-1.55029320905496 
1866	-16.0732153327077 
1867	 13.5086825367184 
1868	 4.03605313608501 
1869	 1.48339518330866 
1870	 4.91206229662306E-02 
1871	-0.560325225241586 
1872	-0.289092594167713 
1873	 1.74805646565297E-02 
1874	 0.204628826632478 
1875	 0.168005857346863 
1876	 0.106396515034377 
1877	-0.156445949349365 
1878	-0.415034021555079 
1879	-3.36024443879022 
1880	 2.26852516898066 
1881	 1.15551115185571 
1882	 0.674920558621133 
1883	 0.350976039794732 
1884	 0.444896367535858 
1885	 0.420173852070096 
1886	 0.382468568851836 
1887	 7.93564088899191E-02 
1888	-4.69260265698876 
1889	-6.73811925095765 
1890	-1.74643554008337 
1891	-0.707032426740286 
1892	 1.88538682810219 
1893	 21.8444961289773 
1894	-18.4857939375586 
1895	-17.1248229328758 
1896	-84.5514799731045 
1897	 2.51058325945877 
1898	 0.34508561840127 
1899	-0.366042990815198 
1900	-0.991232283165126 
1901	-1.0401662429663 
1902	-1.20381764586886 
1903	-1.44712896310145 
1904	-2.98814897499679 
1905	 6.95530629169846 
1906	 0.73566813453474 
1907	 1.12793909773745E-02 
1908	-5.53960549032425 
1909	 0.901247214017022 
1910	-0.293992437580128 
1911	 4.33158803517974E-02 
1912	 0.620097583860482 
1913	 0.899971756727706 
1914	 1.17554564649217 
1915	 2.33146437215257 
1916	-18.4302620257998 
1917	-0.622686176422042 
1918	-0.112053053662872 
1919	-8.07195497711537E-02 
1920	-4.47253126912229E-02 
1921	 0.240786696009738 
1922	 0.878386726008304 
1923	 2.26475859090739 
1924	-0.507963835628347 
1925	-1.15369625745426 
1926	-0.948698038723634 
1927	-0.512859828030725 
1928	-0.125470607680188 
1929	-0.26283896992293 
1930	 0.189830662069987 
1931	 0.324480028663939 
1932	 0.24465446383796 
1933	 0.759138943459476 
1934	 1.11572811979228 
1935	 1.19988191735882 
1936	 1.2567648757683 
1937	 1.01544244335131 
1938	 0.786266155112471 
1939	 0.641182403863427 
1940	 0.496764479247392 
1941	 0.27451165360827 
1942	 0.26359775063493 
1943	 0.201699135545921 
1944	 9.60285919766841E-02 
1945	 8.64127725219872E-02 
1946	-6.01669671975786E-03 
1947	-4.31856572529816E-02 
1948	-0.038853109794709 
1949	-6.86682579849454E-02 
1950	-0.024110804828906 
1951	-2.59531551133184E-02 
1952	-8.0757277124017E-03 
1953	 2.47591929026438E-02 
1954	 6.91184668183083E-02 
1955	 5.13304110116511E-02 
1956	 8.42817870793995E-02 
1957	 0.104996474333512 
1958	 9.96013604356159E-02 
1959	 0.101842204797583 
1960	 7.72900413263265E-02 
1961	 5.37530516974076E-02 
1962	 2.78857620701593E-02 
1963	 2.54192156066861E-03 
1964	 7.74596023771777E-03 
1965	 1.63306779869162E-02 
1966	 1.05621066259388E-02 
1967	 1.9089972900608E-03 
1968	-4.70449131521545E-03 
1969	-8.69629129393575E-03 
1970	-9.39740305523659E-03 
1971	-3.58126810376687E-03 
1972	 7.39225474180144E-03 
1973	 1.20202331450389E-02 
1974	 1.34700640166658E-02 
1975	 1.75733681007991E-02 
1976	 1.54837281894498E-02 
1977	 9.37674270254631E-03 
1978	 2.42840991280613E-03 
1979	 6.5303685930669E-04 
1980	-1.95532870966514E-03 
1981	 2.65639117717376E-03 
1982	 6.59964478168809E-03 
1983	 8.60125010400421E-03 
1984	 7.53914867133147E-03 
1985	 6.47889926731286E-04 
1986	-7.14488355112782E-04 
1987	 1.8314595540734E-03 
1988	 6.89572081314804E-04 
1989	 2.79869991143224E-03 
1990	 5.09667804745436E-03 
1991	 1.77530865797584E-03 
1992	 3.18114797244398E-03 
1993	 6.09051937624304E-03 
1994	 5.35993748972416E-03 
1995	 1.28532119488487E-03 
1996	 5.09581385430413E-04 
1997	-4.43276558222138E-03 
1998	-8.15776709413684E-03 
1999	-1.62794529202818E-03 
2000	 5.15225453685622E-03 
2001	 1.56074173426904E-02 
2002	 0.025280203107847 
2003	 0.019274891636575 
2004	 1.11942394329853E-02 
2005	 9.60706350790263E-03 
2006	 1.32316145804504E-03 
2007	-3.68286855352866E-03 
2008	 5.68864806150792E-03 
2009	 8.33799832128875E-03 
2010	 6.39548630109391E-03 
2011	 4.21806792695583E-03 
2012	 4.86000358376056E-03 
2013	-3.83983521844581E-04 
2014	-0.012476106869804 
2015	-1.03009229941308E-02 
2016	-5.77719560003677E-03 
2017	-4.75280980741533E-03 
2018	 0.00130646953042 
2019	 6.92059374058635E-03 
2020	 6.67286274074597E-03 
2021	 6.37650935559615E-03 
2022	 3.53237045806604E-03 
2023	-1.84190549205697E-03 
2024	-4.81357525480883E-03 
2025	-9.70593443300182E-03 
2026	-1.01169814028679E-02 
2027	-8.55817170818173E-03 
2028	-5.76843030353287E-03 
2029	-2.68544155860427E-03 
2030	 6.72203763991191E-04 
2031	 1.21855487170419E-03 
2032	 1.5549437001667E-03 
2033	 1.97449566389951E-03 
2034	 4.97174097424563E-03 
2035	 0.007738359551154 
2036	 8.14490218147756E-03 
2037	 8.10280850737175E-03 
2038	 4.61798950499756E-03 
2039	 3.26260219468709E-03 
2040	 1.33892756803626E-03 
2041	 1.93706493599725E-03 
2042	 6.15933378335691E-03 
2043	 6.95892746805311E-03 
2044	 6.97051589011795E-03 
2045	 6.72840579717686E-03 
2046	 6.48257724846432E-03 
2047	 6.7053506869476E-03 
2048	 6.37201196100644E-03 
2049	 6.22331619226223E-03 
2050	 7.37839348921713E-03 
2051	 5.4455220495195E-03 
2052	 2.31399435031628E-03 
2053	 3.72975967325345E-03 
2054	 2.95259441883346E-03 
2055	 1.84252754146593E-03 
2056	 2.51016598144573E-03 
2057	 7.05186474675238E-03 
2058	 8.05699188239679E-03 
2059	 7.43955892749417E-03 
2060	 7.97383972428973E-03 
2061	 8.06005327596577E-03 
2062	 1.03058328672903E-02 
2063	 1.20795316416571E-02 
2064	 1.15392602557483E-02 
2065	 1.26159598440572E-02 
2066	 1.32280412642317E-02 
2067	 1.02646723175442E-02 
2068	 8.6287730849893E-03 
2069	 5.98790573534073E-03 
2070	 4.18451043460653E-03 
2071	 4.43888340952527E-03 
2072	 3.2856305349098E-03 
2073	 4.6200663458163E-03 
2074	 9.14353170732743E-03 
2075	 8.76716390741448E-03 
2076	 7.17058150862259E-03 
2077	 6.88971957616181E-03 
2078	 3.94843749425995E-03 
2079	 2.48315967651127E-03 
2080	 1.77918244926278E-03 
2081	 4.17318342283055E-03 
2082	 4.99315605919704E-03 
2083	 3.06900500923681E-03 
2084	 4.42759277406555E-03 
2085	 0.005873117344207 
2086	 4.0246644528488E-03 
2087	 3.22697591361645E-03 
2088	 2.98106732544146E-03 
2089	 2.15062759079885E-03 
2090	 4.02446761245455E-03 
2091	 7.38844651446403E-03 
2092	 8.18408631917431E-03 
2093	 7.33415482798827E-03 
2094	 7.11514721836637E-03 
2095	 5.87793123794546E-03 
2096	 5.42925485671767E-03 
2097	 6.33789660707751E-03 
2098	 6.06995832110735E-03 
2099	 5.26818063265409E-03 
2100	 3.40792606187403E-03 
2101	 1.69482450196654E-03 
2102	 2.24725132915936E-03 
2103	 4.39726027837047E-03 
2104	 5.25114390591658E-03 
2105	 6.40666464247345E-03 
2106	 7.51752612900411E-03 
2107	 7.10818715389848E-03 
2108	 7.06362444982052E-03 
2109	 7.5763911831156E-03 
2110	 7.32606566125576E-03 
2111	 7.47855582702585E-03 
2112	 7.83944779096063E-03 
2113	 7.73899114912244E-03 
2114	 7.2840839790497E-03 
2115	 7.45339359168364E-03 
2116	 8.03264449498349E-03 
2117	 7.5394535029337E-03 
2118	 6.77405090377755E-03 
2119	 6.05874633390635E-03 
2120	 3.53498205485602E-03 
2121	 3.5679580809575E-03 
2122	 6.04742107932754E-03 
2123	 7.51565346864958E-03 
2124	 8.05386897698895E-03 
2125	 6.7484540025149E-03 
2126	 6.29479293581808E-03 
2127	 7.20946654372455E-03 
2128	 7.17969284126334E-03 
2129	 7.73259835442755E-03 
2130	 7.41445698299736E-03 
2131	 4.46699602184882E-03 
2132	 1.98929774973689E-03 
2133	 1.37554037434766E-03 
2134	 1.76235972288499E-03 
2135	 2.67263693628268E-03 
2136	 3.4170953504443E-03 
2137	 6.17827415388711E-03 
2138	 7.34880230280518E-03 
2139	 7.03416656347761E-03 
2140	 7.75853453693164E-03 
2141	 9.61052995298103E-03 
2142	 9.96246103535116E-03 
2143	 0.010176810210409 
2144	 8.75006691926537E-03 
2145	 6.38795115566576E-03 
2146	 4.01179251590189E-03 
2147	 2.52354997393745E-03 
2148	 3.28819339774686E-03 
2149	 5.4234824979422E-03 
2150	 7.9886057347113E-03 
2151	 1.06129261951242E-02 
2152	 1.02290160340085E-02 
2153	 6.27625314064272E-03 
2154	 4.15666204058859E-03 
2155	 3.69966301666306E-03 
2156	 2.01210128575664E-03 
2157	 1.79072153825993E-03 
2158	 3.99401357174771E-03 
2159	 5.0938694101175E-03 
2160	 6.14226383260391E-03 
2161	 7.22029202980006E-03 
2162	 8.01183782469332E-03 
2163	 8.76704768542693E-03 
2164	 0.01108035447774 
2165	 1.01530556697436E-02 
2166	 5.80828579030455E-03 
2167	 5.25563297826751E-03 
2168	 5.16998995008491E-03 
2169	 4.03088900951489E-03 
2170	 3.03430742735319E-03 
2171	 5.85810101626253E-03 
2172	 8.77692100418865E-03 
2173	 7.72272743606978E-03 
2174	 7.78525929727338E-03 
2175	 9.5021711818669E-03 
2176	 8.68671593250851E-03 
2177	 6.10636080843765E-03 
2178	 8.22038549831421E-03 
2179	 1.15962035872326E-02 
2180	 1.10917906035349E-02 
2181	 1.13459493138072E-02 
2182	 1.19049886029334E-02 
2183	 8.64775333848912E-03 
2184	 4.87325862491338E-03 
2185	 4.96334750858559E-03 
2186	 4.20352624534277E-03 
2187	 2.39060691163245E-03 
2188	 2.66380265798359E-03 
2189	 4.53420191098746E-03 
2190	 5.6556670097122E-03 
2191	 8.9876928779813E-03 
2192	 1.03939686114409E-02 
2193	 0.010959119972442 
2194	 1.09667778084334E-02 
2195	 7.99539268713624E-03 
2196	 7.9819159481627E-03 
2197	 1.02136033074919E-02 
2198	 1.06482927699785E-02 
2199	 1.33675833489781E-02 
2200	 1.22077924366709E-02 
2201	 5.79577975992412E-03 
2202	 3.2653100294148E-03 
2203	-2.77548879510484E-04 
2204	-1.7734296571567E-03 
2205	 9.8552117017294E-04 
2206	 1.67265098574845E-03 
2207	 3.64450997024106E-03 
2208	 6.02548045566862E-03 
2209	 9.46605478983284E-03 
2210	 1.24756995488866E-02 
2211	 1.32592421127051E-02 
2212	 1.19296805362926E-02 
2213	 9.80385588888174E-03 
2214	 0.007878237674953 
2215	 5.97332830801983E-03 
2216	 7.97520907490761E-03 
2217	 7.68958745439803E-03 
2218	 6.00332925043771E-03 
2219	 4.73008502956049E-03 
2220	 3.43053667507164E-03 
2221	 1.52942122545843E-03 
2222	-9.06059408551225E-04 
2223	-2.72722769999686E-03 
2224	-6.40395570198711E-03 
2225	-5.8288279578469E-03 
2226	-1.84961660567562E-03 
2227	 6.28230048980012E-04 
2228	 6.30121264540085E-03 
2229	 8.85412571338293E-03 
2230	 9.11564663090214E-03 
2231	 8.47343045622659E-03 
2232	 5.12029219449188E-03 
2233	 4.21027125626274E-03 
2234	 3.48571048655528E-03 
2235	 3.62373570032816E-03 
2236	 6.61655451657991E-04 
2237	 1.47752614256422E-03 
2238	 1.58394436170254E-03 
2239	-2.2221953994801E-03 
2240	 3.50307280258531E-03 
2241	 9.02420332940112E-03 
2242	 8.44290279719494E-03 
2243	 8.53917161683465E-03 
2244	 6.65710473465825E-03 
2245	 5.48549555896541E-03 
2246	 7.93744481492034E-03 
2247	 1.17358163911713E-02 
2248	 1.11091755900971E-02 
2249	 8.14553779503729E-03 
2250	 6.56313907861095E-03 
2251	 6.78760466552973E-03 
2252	 7.00968510032261E-03 
2253	 5.48911062024928E-03 
2254	 4.58247935474884E-03 
2255	 3.45778684147147E-03 
2256	 2.9660814229899E-03 
2257	 5.37086266195274E-03 
2258	 4.83723153983222E-03 
2259	-7.42835866166678E-04 
2260	-3.17256005631489E-03 
2261	-5.46320085598823E-03 
2262	-7.41644563482526E-03 
2263	-7.17708931360865E-03 
2264	-8.64143511196283E-03 
2265	-1.28425553043052E-02 
2266	-1.39470129271423E-02 
2267	-1.51474206644521E-02 
2268	-1.17951424555754E-02 
2269	-1.05359614565963E-03 
2270	 2.9978209166868E-03 
2271	 6.61106141902415E-03 
2272	 7.98117610622841E-03 
2273	 6.52885694780913E-04 
2274	-6.42878459052282E-05 
2275	 7.49386089231266E-03 
2276	 8.01289167576415E-03 
2277	 6.80279273687053E-03 
2278	 5.56165626351315E-03 
2279	-4.89588607356418E-03 
2280	-9.04618128040765E-03 
2281	-1.09490477070743E-02 
2282	-6.33150162219116E-03 
2283	-4.81756093326323E-04 
2284	 5.09683600348693E-03 
2285	 4.36579109171524E-03 
2286	 3.94187781818963E-03 
2287	 2.16119913249006E-03 
2288	-3.16142467560637E-03 
2289	-6.96764962397147E-03 
2290	-6.34562324707466E-03 
2291	-3.28044844424039E-03 
2292	 2.31092632432536E-03 
2293	 1.22106896175395E-02 
2294	 0.011541212326558 
2295	 2.82794788723255E-03 
2296	-1.19348612037657E-03 
2297	-6.88367647246032E-03 
2298	-3.90696796408342E-03 
2299	 3.55909100862017E-03 
2300	-4.82577303091165E-04 
2301	-0.00689088728089 
2302	-9.48148256491001E-03 
2303	-0.011838622893842 
2304	-6.59425343455554E-03 
2305	 3.16032455140239E-03 
2306	 8.06520762665347E-03 
2307	 1.01569578653824E-02 
2308	 2.06366883510614E-03 
2309	-1.29767728212524E-03 
2310	 2.10585716037962E-03 
2311	-1.67007358569051E-03 
2312	 4.13231264498071E-03 
2313	 1.38931218749676E-02 
2314	 0.010937025833607 
2315	 5.01068136151491E-03 
2316	 6.33827162771234E-03 
2317	 3.36399819925409E-03 
2318	-2.92935428087672E-03 
2319	 8.52463435840003E-03 
2320	 8.98587561950868E-03 
2321	-4.84656031182035E-03 
2322	 3.15262565154359E-03 
2323	-3.73997122843153E-03 
2324	-8.15125320429223E-03 
2325	 1.25092053171531E-02 
2326	 2.07231392278529E-02 
2327	 3.05560787994485E-02 
2328	 3.91357579949659E-02 
2329	 3.63176410341182E-02 
2330	 2.62907682400584E-02 
2331	 1.16423694314305E-02 
2332	 2.72611604483883E-03 
2333	-6.63288594449733E-03 
2334	-1.64432583291251E-02 
2335	-1.05117825707544E-02 
2336	 5.33696306547476E-03 
2337	 1.33632207176282E-02 
2338	 2.55923647381711E-02 
2339	 3.41379846088122E-02 
2340	 3.49630755262181E-02 
2341	 3.15721782364208E-02 
2342	 1.94232570367362E-02 
2343	 1.50811908842264E-02 
2344	 9.01243783458363E-03 
2345	 1.50828330626685E-02 
2346	 2.58212488780697E-02 
2347	 2.92668148024902E-02 
2348	 3.61383643127778E-02 
2349	 2.62214648246004E-02 
2350	 1.53293902196842E-02 
2351	 3.22650009351823E-03 
2352	-2.02329095643853E-02 
2353	-2.72120972072881E-02 
2354	-5.04367116509181E-03 
2355	 1.89721744179023E-02 
2356	 3.04708975475291E-02 
2357	 3.03924597385533E-02 
2358	 1.97441902912492E-02 
2359	-8.10720754861475E-03 
2360	-1.91262064018353E-02 
2361	-4.45477965514882E-03 
2362	 9.18889450840761E-03 
2363	 3.51478515022269E-02 
2364	 3.97170033000106E-02 
2365	 3.33032906989089E-02 
2366	 1.42636360152963E-02 
2367	-1.83176015515227E-02 
2368	-1.83257246934211E-02 
2369	-2.89471971705693E-02 
2370	-0.027071363415894 
2371	-1.80066714076945E-02 
2372	-2.47396878983842E-02 
2373	-2.31130420018816E-02 
2374	-0.037909422919441 
2375	-3.8047193453396E-03 
2376	 3.25427637851727E-02 
2377	-8.50394855112242E-03 
2378	-3.26573053945966E-02 
2379	-3.88537158180754E-02 
2380	-5.77151677274944E-02 
2381	-2.84740259331179E-02 
2382	-2.68289744685694E-03 
2383	-2.72618296124432E-02 
2384	-3.88489323831497E-02 
2385	 5.74030754970027E-03 
2386	 6.04305845587334E-02 
2387	 7.06358750881018E-02 
2388	 2.20748187052618E-02 
2389	-2.12861452025934E-02 
2390	-6.73620388155577E-02 
2391	-9.00396642342865E-02 
2392	-7.04909727787748E-02 
2393	-6.49249691648629E-02 
2394	 6.56266623884923E-03 
2395	 0.082727811391136 
2396	 8.55220624573561E-02 
2397	 6.18291698235815E-02 
2398	-6.05650403391304E-03 
2399	-6.02164423206442E-02 
2400	-6.04133093392935E-02 
2401	-1.26393323994431E-02 
2402	 3.36530775025694E-02 
2403	 6.06913608085714E-02 
2404	 4.40466125560262E-02 
2405	 5.30068917210681E-02 
2406	 4.54215029875281E-02 
2407	-0.12807075357636 
2408	-0.149692995435885 
2409	-7.04173571597054E-02 
2410	-0.147673262333228 
2411	 9.80062218934665E-03 
2412	 0.130136999773674 
2413	-3.88127288032619E-02 
2414	 5.10599251372673E-02 
2415	 0.365140915814913 
2416	 0.277983571615888 
2417	 0.309978361172163 
2418	 0.431848814225115 
2419	 0.264168435600163 
2420	 0.198434958207258 
2421	 7.98070230262515E-02 
2422	-9.90902811924853E-02 
2423	-0.341150634351683 
2424	-0.489824890996193 
2425	-0.295435247813255 
2426	-0.184995174668659 
2427	-5.94169398300979E-03 
2428	 0.154780043718722 
2429	 3.23272881149853E-02 
2430	-4.04559645830588E-02 
2431	-8.31022250491436E-02 
2432	-0.231197175532509 
2433	-0.223804641034814 
2434	-0.162969108741351 
2435	-9.60311131089491E-02 
2436	-4.56106237997983E-02 
2437	-0.206172538191518 
2438	-0.227019984022039 
2439	-0.139379194164023 
2440	-0.154371366193343 
2441	 8.66290843794159E-02 
2442	 0.226957346458358 
2443	 0.281123755252626 
2444	 0.583620085128752 
2445	 0.815903160459109 
2446	 0.354496459213806 
2447	-0.566748809835528 
2448	-0.913796526483738 
2449	-0.727237518922479 
2450	-0.80865758236306 
2451	-1.17402908158761 
2452	 5.98199622135961 
2453	-1.45379701470991 
2454	-1.00760791291968 
2455	-0.766820424705141 
2456	-2.0945517482248 
2457	 10.6317138980805 
2458	 5.70492836400143 
2459	 3.88453088699072 
2460	 11.5123234421276 
2461	-3.77579506167423 
2462	 1.42269191338644 
2463	 0.738501046876183 
2464	 0.242877897143535 
2465	 8.30696366095135E-02 
2466	-0.683688567189487 
2467	-14.3816638039337 
2468	-42.1255122575126 
2469	-1.76651679449763 
2470	-1.82438918442278 
2471	 3.01587658751003 
2472	 2.31213651962533 
2473	-0.110945288239385 
2474	-0.012550980173511 
2475	 0.639728850659961 
2476	 0.72580333586358 
2477	 0.795336468546682 
2478	-1.89009648168727 
2479	-0.476687992725157 
2480	-0.303045953878814 
2481	-0.793160327216234 
2482	-1.65651028085462 
2483	 1.44328151747821 
2484	 0.720491243311322 
2485	-0.491213166890008 
2486	-1.35240700697438 
2487	-0.29426892659882 
2488	 3.60956251551126 
2489	 3.07941427252394 
2490	 21.8411396012675 
2491	-1.04653845627446 
2492	-0.670729193218584 
2493	-0.438000114184832 
2494	 6.03848189639734E-02 
2495	 0.377337275188693 
2496	-0.223894413109136 
2497	-0.321605944784813 
2498	 0.28906035024043 
2499	 8.62473777157946E-02 
2500	-0.362468957717184 
