Wavelength	rt0714yellow200006.asd
350	 7.66020161223154E-02 
351	 7.54205211680315E-02 
352	 7.45433172674282E-02 
353	 7.45655477920662E-02 
354	 7.52470670409026E-02 
355	 7.53323648481384E-02 
356	 7.43159892378973E-02 
357	 7.39830672795487E-02 
358	 7.55839104834391E-02 
359	 7.50883180013153E-02 
360	 7.39963441290613E-02 
361	 7.34984266015636E-02 
362	 7.41767565957193E-02 
363	 7.43115448411843E-02 
364	 7.43030394162828E-02 
365	 7.43891496213657E-02 
366	 0.074131366933764 
367	 7.41277572712759E-02 
368	 7.40201571054345E-02 
369	 7.36228718128576E-02 
370	 7.43640535430633E-02 
371	 7.43063052468174E-02 
372	 7.35742832711387E-02 
373	 7.34922339647411E-02 
374	 7.40110697015781E-02 
375	 7.43711365520356E-02 
376	 7.43727771313048E-02 
377	 7.46838059197816E-02 
378	 7.44098690113498E-02 
379	 7.41555367920498E-02 
380	 7.45522608900101E-02 
381	 7.52302765350833E-02 
382	 7.57050338795263E-02 
383	 7.56935808032843E-02 
384	 7.52761821952123E-02 
385	 7.59697691999295E-02 
386	 7.60366308197778E-02 
387	 7.54190176999001E-02 
388	 7.61199738990021E-02 
389	 7.70354719660483E-02 
390	 7.72950794498669E-02 
391	 7.68408793639492E-02 
392	 7.73766808567654E-02 
393	 7.77207493087063E-02 
394	 7.78491797701494E-02 
395	 7.80968992676453E-02 
396	 7.82302028734405E-02 
397	 7.83700544904234E-02 
398	 7.83968620262755E-02 
399	 7.80270899528425E-02 
400	 7.83141605917325E-02 
401	 0.07862453731744 
402	 7.86063604754289E-02 
403	 7.91686659660386E-02 
404	 7.94378643515226E-02 
405	 7.93105647048138E-02 
406	 0.079078763970826 
407	 7.94405388101843E-02 
408	 7.98059173426878E-02 
409	 8.00318090943378E-02 
410	 8.04623260749216E-02 
411	 8.03537196405585E-02 
412	 8.02813164463197E-02 
413	 8.06483844784652E-02 
414	 8.08980386191609E-02 
415	 8.10947525762438E-02 
416	 8.13426377275681E-02 
417	 8.17141054563467E-02 
418	 8.19069411051443E-02 
419	 8.21300431017498E-02 
420	 8.24698150207111E-02 
421	 8.28394187154628E-02 
422	 8.30180997320342E-02 
423	 8.32475187717017E-02 
424	 8.37075828831779E-02 
425	 8.41516609862795E-02 
426	 8.44225784678705E-02 
427	 8.48072758722368E-02 
428	 0.085631516643919 
429	 0.085824690747363 
430	 8.61301660008213E-02 
431	 8.67764779291344E-02 
432	 8.71987753582057E-02 
433	 8.75321727741866E-02 
434	 8.78796216477239E-02 
435	 8.83175966370263E-02 
436	 8.88713189024411E-02 
437	 8.92868800913111E-02 
438	 8.96754047333902E-02 
439	 9.03050450774105E-02 
440	 9.09405267160888E-02 
441	 9.13981747369833E-02 
442	 9.16739623372151E-02 
443	 0.092004351882568 
444	 0.092454475421858 
445	 9.28435426053096E-02 
446	 9.30480703899337E-02 
447	 9.34657819363468E-02 
448	 9.38366401754021E-02 
449	 9.41224614822245E-02 
450	 9.44508486297603E-02 
451	 0.09471868691702 
452	 0.094950783033754 
453	 9.51951007472627E-02 
454	 9.55165757942291E-02 
455	 9.57641938883461E-02 
456	 9.59456977872208E-02 
457	 0.09611947633389 
458	 9.62557375097287E-02 
459	 9.64064346260784E-02 
460	 9.66276700429013E-02 
461	 9.69561593536757E-02 
462	 0.09695929668885 
463	 9.69758345439981E-02 
464	 9.72863230645474E-02 
465	 9.75883515165187E-02 
466	 9.78056133697619E-02 
467	 9.79437081273471E-02 
468	 0.098073204883213 
469	 9.82897497831086E-02 
470	 9.85028314128546E-02 
471	 9.86604059558011E-02 
472	 9.87854562998837E-02 
473	 9.89704584402655E-02 
474	 9.92005790891835E-02 
475	 0.099444474894296 
476	 9.97380481944275E-02 
477	 9.99939848698211E-02 
478	 0.100229413514206 
479	 0.100521383525825 
480	 0.100725585221474 
481	 0.100944915518903 
482	 0.101274692733718 
483	 0.101742486063698 
484	 0.10211012209798 
485	 0.10240386767282 
486	 0.10274635439177 
487	 0.103162226684175 
488	 0.103439783681155 
489	 0.103702275428975 
490	 0.104371251910991 
491	 0.104917583925893 
492	 0.105327857668161 
493	 0.105684464367026 
494	 0.106016481923799 
495	 0.106509914974938 
496	 0.107065394636691 
497	 0.107473273981498 
498	 0.107954826853362 
499	 0.108556041469327 
500	 0.109154902469032 
501	 0.10939896221096 
502	 0.109885061341675 
503	 0.11051462784514 
504	 0.111047181476125 
505	 0.111551554325318 
506	 0.112122273008754 
507	 0.112730264133773 
508	 0.113260193392635 
509	 0.113897698308408 
510	 0.114491994578179 
511	 0.114973369237496 
512	 0.115596444901466 
513	 0.116156063487126 
514	 0.116765725965896 
515	 0.117591402738804 
516	 0.118169562788167 
517	 0.118846889783058 
518	 0.119681283798396 
519	 0.120297714356242 
520	 0.12086818803629 
521	 0.121478052124123 
522	 0.122158307371928 
523	 0.122812963053595 
524	 0.123474284178889 
525	 0.124083855818503 
526	 0.124560775055997 
527	 0.125306300350598 
528	 0.126077677746827 
529	 0.126717792727314 
530	 0.127425970229908 
531	 0.128148763667362 
532	 0.128842320142875 
533	 0.129483922655795 
534	 0.130209702858399 
535	 0.130810513687534 
536	 0.131315837596596 
537	 0.132036404333162 
538	 0.132756749074148 
539	 0.133390227126349 
540	 0.133938062079984 
541	 0.134577210558737 
542	 0.135219705701798 
543	 0.135860584797941 
544	 0.136538427298523 
545	 0.137120622634069 
546	 0.137760342701718 
547	 0.138477617321861 
548	 0.138957521320277 
549	 0.139511183514432 
550	 0.140158848730373 
551	 0.140806784219818 
552	 0.141345286505278 
553	 0.141889423588262 
554	 0.142467607983239 
555	 0.142993344543762 
556	 0.143538272188084 
557	 0.144075899802922 
558	 0.144585270933405 
559	 0.145195309348639 
560	 0.145521201437045 
561	 0.145728161358948 
562	 0.146280628186696 
563	 0.146852234001809 
564	 0.147245986935818 
565	 0.147454777330715 
566	 0.147802213872687 
567	 0.148131422052466 
568	 0.148428389937655 
569	 0.148723506713268 
570	 0.149038195365231 
571	 0.149317120920615 
572	 0.149513948243246 
573	 0.149602146203964 
574	 0.1498039293575 
575	 0.150043159052575 
576	 0.150220247515537 
577	 0.150414045926431 
578	 0.150596748155635 
579	 0.150742157661587 
580	 0.150833357136409 
581	 0.150923758918169 
582	 0.151042855892116 
583	 0.151170502366472 
584	 0.151215461139663 
585	 0.151033156664785 
586	 0.150738719084965 
587	 0.15051723226954 
588	 0.150302430469349 
589	 0.15013701201939 
590	 0.150052183969777 
591	 0.150043325654604 
592	 0.149937624666001 
593	 0.149699387652559 
594	 0.14938752039592 
595	 0.149239287792917 
596	 0.148985853133693 
597	 0.148581458371044 
598	 0.148130372777367 
599	 0.147777293387848 
600	 0.147566370111421 
601	 0.14746023038759 
602	 0.147320561635346 
603	 0.147089665978997 
604	 0.146861012339868 
605	 0.146756266573707 
606	 0.146743341489449 
607	 0.146619009964192 
608	 0.146465138422118 
609	 0.146641616436486 
610	 0.146627240736484 
611	 0.146592767247179 
612	 0.146685607274432 
613	 0.1465249158975 
614	 0.146409074729106 
615	 0.146431773849522 
616	 0.146522457731266 
617	 0.146265035854166 
618	 0.146176415937154 
619	 0.146370364143109 
620	 0.146142114198983 
621	 0.146184923303988 
622	 0.146384257155999 
623	 0.146388638197644 
624	 0.146031888534444 
625	 0.145909566177773 
626	 0.146041871806631 
627	 0.145897468265182 
628	 0.145840532844998 
629	 0.145769899793747 
630	 0.145663092457091 
631	 0.145985539137482 
632	 0.145958062814072 
633	 0.145729214946729 
634	 0.145808684702953 
635	 0.145677136662121 
636	 0.145571093420659 
637	 0.145629832789365 
638	 0.14576812109694 
639	 0.145498854836964 
640	 0.145272181351164 
641	 0.145509283972556 
642	 0.145310585922821 
643	 0.144959650988788 
644	 0.144646229775675 
645	 0.144459207502012 
646	 0.144287936850667 
647	 0.144176966988031 
648	 0.144123541946735 
649	 0.143960157126844 
650	 0.143718564662033 
651	 0.143460247611435 
652	 0.143238774824809 
653	 0.14288741773146 
654	 0.142536560772583 
655	 0.142199740197527 
656	 0.141749295271422 
657	 0.14139399008881 
658	 0.14108417940214 
659	 0.140738838812153 
660	 0.140393652380103 
661	 0.139967791214991 
662	 0.139594339517929 
663	 0.139492303275221 
664	 0.139207200478327 
665	 0.138901817080452 
666	 0.138709115268121 
667	 0.138576448900165 
668	 0.138389907151107 
669	 0.138222938298412 
670	 0.138183412990594 
671	 0.138206780555176 
672	 0.138139654521045 
673	 0.138016002428541 
674	 0.138038394849041 
675	 0.138105558578057 
676	 0.138126575392518 
677	 0.138111312459666 
678	 0.138331264830275 
679	 0.138508723031105 
680	 0.138646610950032 
681	 0.138853438034372 
682	 0.138984581516157 
683	 0.139276942376965 
684	 0.139625684913235 
685	 0.139432124158664 
686	 0.139274263354404 
687	 0.139451475518725 
688	 0.139946535331583 
689	 0.140309482936344 
690	 0.140264235923359 
691	 0.14005894002099 
692	 0.140207848754738 
693	 0.140297448770861 
694	 0.140460127015637 
695	 0.140664411826853 
696	 0.140532951948675 
697	 0.140424435008945 
698	 0.140232778888994 
699	 0.139806572208354 
700	 0.139419744951487 
701	 0.139235639400021 
702	 0.139151271714457 
703	 0.138860299454773 
704	 0.138270139143682 
705	 0.137767355150209 
706	 0.137431918654296 
707	 0.136445533919519 
708	 0.135652970724684 
709	 0.135081192143306 
710	 0.134431445672275 
711	 0.133477981163175 
712	 0.132280329308051 
713	 0.130978336724249 
714	 0.129729034448389 
715	 0.128240836916461 
716	 0.126761270631626 
717	 0.125556367374901 
718	 0.123639178798373 
719	 0.122159620930226 
720	 0.121143008769123 
721	 0.119922939971922 
722	 0.118451902857427 
723	 0.116836546355448 
724	 0.115302293879342 
725	 0.113704161521749 
726	 0.111984038403986 
727	 0.110298499230381 
728	 0.108637746224254 
729	 0.106220629809162 
730	 0.104108532797511 
731	 0.102409659620483 
732	 0.100711911478679 
733	 9.92839128149107E-02 
734	 9.80056605349702E-02 
735	 9.68383836785371E-02 
736	 9.58571180138227E-02 
737	 9.51971354287354E-02 
738	 9.47629518038782E-02 
739	 9.44199713315114E-02 
740	 9.40476318798031E-02 
741	 0.093986553996558 
742	 9.40616944729533E-02 
743	 9.38902704047403E-02 
744	 9.38424235585509E-02 
745	 9.38203698654538E-02 
746	 9.36882836970381E-02 
747	 9.33215993241528E-02 
748	 9.33887995747229E-02 
749	 9.35225377345642E-02 
750	 9.33359667222947E-02 
751	 9.33238512759644E-02 
752	 9.32742656793063E-02 
753	 0.093205716161284 
754	 9.32418568502673E-02 
755	 9.32820522731303E-02 
756	 9.32569764135946E-02 
757	 9.31351661370588E-02 
758	 9.28720792326497E-02 
759	 9.22566426976148E-02 
760	 9.16686553296846E-02 
761	 9.19328084236277E-02 
762	 9.22927008510123E-02 
763	 9.25197051091943E-02 
764	 9.26926476028157E-02 
765	 9.29665343574389E-02 
766	 9.32207282553642E-02 
767	 9.34067738702078E-02 
768	 9.35794762890912E-02 
769	 9.38714833455233E-02 
770	 9.40572768641034E-02 
771	 9.41126442105081E-02 
772	 9.41558814238957E-02 
773	 9.45957567189364E-02 
774	 9.48051711276952E-02 
775	 9.48623004316982E-02 
776	 9.51104166252434E-02 
777	 0.095392909819531 
778	 9.57096770426348E-02 
779	 9.59887650318823E-02 
780	 9.61057453648793E-02 
781	 9.64274602915027E-02 
782	 9.66854641314038E-02 
783	 9.67741414955595E-02 
784	 9.72377190259309E-02 
785	 9.75808919634157E-02 
786	 9.77571137516723E-02 
787	 0.097937632785434 
788	 9.85147714441697E-02 
789	 0.098907668331834 
790	 9.91144492781528E-02 
791	 9.95982139878511E-02 
792	 9.99658345718278E-02 
793	 0.100317818103976 
794	 0.100708170091471 
795	 0.100996686525962 
796	 0.101303087095504 
797	 0.101622432475691 
798	 0.101935944005947 
799	 0.102253242809008 
800	 0.102668110078074 
801	 0.103025139765063 
802	 0.103109200106118 
803	 0.103319519937799 
804	 0.103548584978265 
805	 0.103697710118942 
806	 0.103740230009477 
807	 0.103888560691362 
808	 0.103645918738701 
809	 0.102904372664554 
810	 0.102911614530977 
811	 0.102856226136014 
812	 0.10247921283094 
813	 0.10181832431184 
814	 0.101373681971332 
815	 0.101107178286128 
816	 0.100746610026187 
817	 0.100014501640172 
818	 0.099875215825106 
819	 9.95659782615512E-02 
820	 0.098614714211513 
821	 9.70868387102635E-02 
822	 9.65983131512524E-02 
823	 9.60387949239984E-02 
824	 9.44817556720907E-02 
825	 9.30894855218855E-02 
826	 9.13151938710482E-02 
827	 8.94381038348518E-02 
828	 8.80110200187944E-02 
829	 0.086463569820596 
830	 8.52072017290459E-02 
831	 8.42940264559266E-02 
832	 8.34678369062979E-02 
833	 8.22120818496355E-02 
834	 8.14862610440073E-02 
835	 8.12756705837282E-02 
836	 8.01597724377349E-02 
837	 0.080042528920623 
838	 8.01455787195534E-02 
839	 7.96789108733955E-02 
840	 7.93507639096003E-02 
841	 7.91209666633159E-02 
842	 7.89110067185542E-02 
843	 7.86576701572486E-02 
844	 7.85747366412763E-02 
845	 7.81390455562682E-02 
846	 0.077691194615695 
847	 7.79752887726698E-02 
848	 7.75644882129144E-02 
849	 7.70913123703583E-02 
850	 7.68679325046936E-02 
851	 0.076500974173279 
852	 7.62235694013202E-02 
853	 7.61870104989153E-02 
854	 7.62460603811198E-02 
855	 7.56683660596352E-02 
856	 7.57875890817578E-02 
857	 7.59471656337869E-02 
858	 7.53803384922554E-02 
859	 7.49958444563592E-02 
860	 7.46128877328613E-02 
861	 7.42949857929529E-02 
862	 7.41865681686732E-02 
863	 0.074273555637171 
864	 7.38774388179407E-02 
865	 7.32914066046281E-02 
866	 7.35386382358242E-02 
867	 7.30971693815971E-02 
868	 7.28583846698472E-02 
869	 7.31128717493359E-02 
870	 0.072976975569182 
871	 7.24127244395389E-02 
872	 0.071904774680764 
873	 7.17963384083902E-02 
874	 7.18571598076272E-02 
875	 7.13127752110718E-02 
876	 7.07190545865544E-02 
877	 7.06563571454778E-02 
878	 7.01204785046555E-02 
879	 6.97682822913928E-02 
880	 6.94023206158432E-02 
881	 6.87167202066125E-02 
882	 0.069246546093202 
883	 6.89813074150695E-02 
884	 6.82283247986587E-02 
885	 6.88237964615653E-02 
886	 6.86571870920156E-02 
887	 6.80955501989686E-02 
888	 6.75922422413655E-02 
889	 6.73568805111624E-02 
890	 6.73766584445221E-02 
891	 6.70360828966212E-02 
892	 6.63467556725893E-02 
893	 6.66845428225008E-02 
894	 6.62144368459041E-02 
895	 6.57602858009376E-02 
896	 6.60429824136007E-02 
897	 6.48652914798832E-02 
898	 6.47255280746768E-02 
899	 6.48417385985209E-02 
900	 6.40222226150256E-02 
901	 6.39637712780593E-02 
902	 0.063968438926684 
903	 6.37130522543716E-02 
904	 0.063167484572768 
905	 6.28521485620497E-02 
906	 6.30266359004213E-02 
907	 6.34912732947547E-02 
908	 6.36434942204883E-02 
909	 6.29417394211497E-02 
910	 6.22872837346418E-02 
911	 6.16531611607861E-02 
912	 6.03203436900386E-02 
913	 6.06112567789407E-02 
914	 6.08782228478408E-02 
915	 6.04015602361734E-02 
916	 6.00797606844459E-02 
917	 5.94920455362724E-02 
918	 5.83774100147224E-02 
919	 5.73161026577897E-02 
920	 5.78016550351909E-02 
921	 5.74983640084198E-02 
922	 5.72533025985774E-02 
923	 5.76865329096139E-02 
924	 5.76352637945155E-02 
925	 5.73083161164623E-02 
926	 5.69368128792504E-02 
927	 5.67430926258009E-02 
928	 5.67783938768875E-02 
929	 5.61322233223459E-02 
930	 5.59770211106678E-02 
931	 0.057426366761057 
932	 5.20242982994669E-02 
933	 5.56957964580511E-02 
934	 6.02043207107873E-02 
935	 5.18553123041408E-02 
936	 5.19049578381681E-02 
937	 5.30506986443483E-02 
938	 5.30461349827478E-02 
939	 5.17972436723055E-02 
940	 4.88700174941386E-02 
941	 5.09108501764119E-02 
942	 5.30120728736569E-02 
943	 4.80928786556085E-02 
944	 5.45431920021443E-02 
945	 6.02835208640123E-02 
946	 0.059260539039181 
947	 5.24903954593988E-02 
948	 4.39896019327272E-02 
949	 4.28311151677234E-02 
950	 4.82358942764628E-02 
951	 5.24391159468407E-02 
952	 4.87417332763267E-02 
953	 4.98774869138692E-02 
954	 0.053671309500486 
955	 4.93541229427509E-02 
956	 4.84579311053912E-02 
957	 5.13322493549603E-02 
958	 5.31198093962371E-02 
959	 4.86051156240585E-02 
960	 4.95612886283426E-02 
961	 5.11208051140011E-02 
962	 5.05979816366954E-02 
963	 4.88678125641295E-02 
964	 0.050237087334651 
965	 5.00383538950508E-02 
966	 4.84466341449993E-02 
967	 0.049016873666928 
968	 4.85271606360984E-02 
969	 4.92937745825671E-02 
970	 5.04118567345798E-02 
971	 4.88382433724746E-02 
972	 5.16003801268709E-02 
973	 5.14638741815938E-02 
974	 4.80369486510972E-02 
975	 4.84290425676934E-02 
976	 4.95381845727318E-02 
977	 5.11880769000158E-02 
978	 5.20392852603819E-02 
979	 5.02911499696742E-02 
980	 4.87669100513869E-02 
981	 5.06420369065237E-02 
982	 5.29986503376091E-02 
983	 4.98257018753583E-02 
984	 4.90679341175748E-02 
985	 4.82345718596123E-02 
986	 4.70260960853834E-02 
987	 4.77790634243217E-02 
988	 5.32770608396328E-02 
989	 5.34900115838763E-02 
990	 4.99883742602442E-02 
991	 0.051942327270299 
992	 5.14305989073827E-02 
993	 5.13757191716554E-02 
994	 5.15186595309642E-02 
995	 4.96810638302162E-02 
996	 4.96495020642404E-02 
997	 4.98875025693572E-02 
998	 5.16393639285643E-02 
999	 5.55736893366607E-02 
1000	 4.92725533128619E-02 
1001	 4.58050861630185E-02 
1002	 4.52704969927224E-02 
1003	 4.52423469890037E-02 
1004	 0.045749596510363 
1005	 4.56166379464202E-02 
1006	 4.51309765071834E-02 
1007	 4.52477155943216E-02 
1008	 4.51929182038167E-02 
1009	 4.49564106988219E-02 
1010	 0.045478405565891 
1011	 4.56899027806097E-02 
1012	 0.045427681132912 
1013	 0.045041971763763 
1014	 4.53005149780551E-02 
1015	 4.62114357793189E-02 
1016	 4.65365507300476E-02 
1017	 4.70660014270007E-02 
1018	 4.74332855257662E-02 
1019	 4.73005784634215E-02 
1020	 4.73446307606888E-02 
1021	 4.75369745737971E-02 
1022	 4.77250155574684E-02 
1023	 4.77621560593438E-02 
1024	 4.73537358357769E-02 
1025	 4.72521889225989E-02 
1026	 4.71594244348055E-02 
1027	 4.69384795850855E-02 
1028	 4.67793375055261E-02 
1029	 4.64276531899631E-02 
1030	 4.55853696255858E-02 
1031	 4.53982477948127E-02 
1032	 4.54395277058315E-02 
1033	 4.54520328850074E-02 
1034	 4.58830069987384E-02 
1035	 4.61992199310344E-02 
1036	 4.62533696704579E-02 
1037	 4.65532134042135E-02 
1038	 4.72439781480634E-02 
1039	 4.75753872868487E-02 
1040	 4.81208488189556E-02 
1041	 4.87418753746238E-02 
1042	 4.86855621641024E-02 
1043	 4.83679039680608E-02 
1044	 4.79438227676128E-02 
1045	 4.65752431758768E-02 
1046	 4.63209655749295E-02 
1047	 4.66623509704167E-02 
1048	 4.66177465701415E-02 
1049	 4.69990461626093E-02 
1050	 4.70478717959993E-02 
1051	 4.64208270726637E-02 
1052	 4.64483997099084E-02 
1053	 4.69142347617175E-02 
1054	 4.71688723589586E-02 
1055	 4.77890123721609E-02 
1056	 4.80711473281044E-02 
1057	 4.81696214266898E-02 
1058	 0.048003664484602 
1059	 4.78298830137021E-02 
1060	 4.73808483950176E-02 
1061	 4.72593471644936E-02 
1062	 4.72577151895158E-02 
1063	 4.70767856108574E-02 
1064	 4.69424757553819E-02 
1065	 4.68369718744437E-02 
1066	 4.63859650274209E-02 
1067	 4.63626432070239E-02 
1068	 4.66204922069203E-02 
1069	 4.69528132381098E-02 
1070	 4.79106717214623E-02 
1071	 4.82342417684584E-02 
1072	 4.84370154096712E-02 
1073	 4.83515656412077E-02 
1074	 0.048162646340986 
1075	 4.73870546779216E-02 
1076	 4.71219857720731E-02 
1077	 4.69121691169683E-02 
1078	 4.69212816542713E-02 
1079	 4.72280562032055E-02 
1080	 4.72821044865675E-02 
1081	 4.76480348027906E-02 
1082	 4.74984462678913E-02 
1083	 0.046669339880052 
1084	 4.63454756600194E-02 
1085	 4.59145583408069E-02 
1086	 4.57626259245916E-02 
1087	 0.046137949784444 
1088	 4.63094615425431E-02 
1089	 4.68232489945722E-02 
1090	 4.66376719585006E-02 
1091	 4.65089202385231E-02 
1092	 4.62353498439603E-02 
1093	 4.61389133002577E-02 
1094	 4.58081474765773E-02 
1095	 4.57907089854116E-02 
1096	 4.62553616574871E-02 
1097	 4.60967020064946E-02 
1098	 4.55424729944338E-02 
1099	 4.53523362973457E-02 
1100	 0.044892141773868 
1101	 4.47376434081831E-02 
1102	 4.53140659727774E-02 
1103	 4.54096678856257E-02 
1104	 4.52928309415591E-02 
1105	 4.51309118374068E-02 
1106	 4.50517172772395E-02 
1107	 4.44936672568564E-02 
1108	 4.41889496278033E-02 
1109	 4.38719896133849E-02 
1110	 4.38677173860044E-02 
1111	 4.41912762526094E-02 
1112	 4.45294738880706E-02 
1113	 4.57003382981773E-02 
1114	 4.56154661373928E-02 
1115	 4.43414701765997E-02 
1116	 4.30918508819559E-02 
1117	 4.01948150333344E-02 
1118	 3.90339970128928E-02 
1119	 3.87230581610523E-02 
1120	 3.82317842930427E-02 
1121	 3.98483098685293E-02 
1122	 4.11855557656215E-02 
1123	 3.97650052896897E-02 
1124	 4.17024313509124E-02 
1125	 0.043337457821407 
1126	 4.05305156721297E-02 
1127	 3.63621895637786E-02 
1128	 3.65048615486994E-02 
1129	 3.61873732385033E-02 
1130	 3.45307894913337E-02 
1131	 3.40747518553245E-02 
1132	 3.62492082443176E-02 
1133	 0.037708101747457 
1134	 3.97610518846776E-02 
1135	 4.10725272572718E-02 
1136	 4.11710024267225E-02 
1137	 4.11310076830653E-02 
1138	 4.02545793185541E-02 
1139	 4.13024751826007E-02 
1140	 4.07443794870141E-02 
1141	 4.01093891159874E-02 
1142	 4.20078739204893E-02 
1143	 4.31152188325906E-02 
1144	 0.040634374857891 
1145	 0.039864181463506 
1146	 4.09461830277746E-02 
1147	 3.95233336304849E-02 
1148	 4.08814923474556E-02 
1149	 4.45869146772917E-02 
1150	 4.47943333229491E-02 
1151	 4.10004265972255E-02 
1152	 4.08880140723986E-02 
1153	 4.15365523278086E-02 
1154	 4.16901184784479E-02 
1155	 4.28959807865681E-02 
1156	 4.27577627014092E-02 
1157	 4.06972693899268E-02 
1158	 4.03142739139926E-02 
1159	 4.05337071877116E-02 
1160	 0.04078889019296 
1161	 4.27019726675232E-02 
1162	 4.36468684230881E-02 
1163	 4.27199372427745E-02 
1164	 4.22581848610985E-02 
1165	 4.17435919921227E-02 
1166	 4.15196781951821E-02 
1167	 4.20598203324592E-02 
1168	 4.25618384969148E-02 
1169	 4.29695257690355E-02 
1170	 4.26103229642466E-02 
1171	 0.042441235418228 
1172	 4.22828900854924E-02 
1173	 4.20977281729926E-02 
1174	 4.16384016556238E-02 
1175	 4.16915644860281E-02 
1176	 0.042207060675943 
1177	 4.23018418490973E-02 
1178	 4.25517172152092E-02 
1179	 4.28517873289282E-02 
1180	 0.042683775883517 
1181	 4.23858287871311E-02 
1182	 4.20708914233939E-02 
1183	 4.22803863971872E-02 
1184	 4.24347737515866E-02 
1185	 4.21445124167083E-02 
1186	 4.24843947206032E-02 
1187	 4.28595044315223E-02 
1188	 4.30036567705392E-02 
1189	 4.33959437026502E-02 
1190	 4.33021804199175E-02 
1191	 4.25960242345747E-02 
1192	 4.24424318459048E-02 
1193	 4.23490600966108E-02 
1194	 4.25930853795343E-02 
1195	 4.27126250642259E-02 
1196	 4.29120265165481E-02 
1197	 4.27039229929218E-02 
1198	 4.22789989272392E-02 
1199	 4.26268581601011E-02 
1200	 4.28881142209196E-02 
1201	 4.26633492171566E-02 
1202	 4.26433522593916E-02 
1203	 4.22973579845649E-02 
1204	 4.21713112588528E-02 
1205	 4.27499843862593E-02 
1206	 4.30747655654408E-02 
1207	 4.31103963391225E-02 
1208	 4.29991424174538E-02 
1209	 4.27249894461206E-02 
1210	 4.24895746266954E-02 
1211	 4.24687383728264E-02 
1212	 4.27540780558401E-02 
1213	 4.30065808950608E-02 
1214	 4.29789276195649E-02 
1215	 4.27977334134393E-02 
1216	 4.25545346952674E-02 
1217	 4.25811382312743E-02 
1218	 4.27539862853607E-02 
1219	 4.30223618350182E-02 
1220	 4.34571898794347E-02 
1221	 4.34343365545514E-02 
1222	 4.29450358657282E-02 
1223	 4.27977373347925E-02 
1224	 4.27526949800834E-02 
1225	 4.24002327435098E-02 
1226	 4.20999020658199E-02 
1227	 4.22823168742182E-02 
1228	 4.26343524274895E-02 
1229	 4.25383914417466E-02 
1230	 4.24280719842228E-02 
1231	 4.24946109633151E-02 
1232	 4.23482781959291E-02 
1233	 4.23022094645055E-02 
1234	 4.26116443776501E-02 
1235	 4.27693036108944E-02 
1236	 4.26309958555338E-02 
1237	 4.25526474815914E-02 
1238	 4.25159203565777E-02 
1239	 4.26230134969648E-02 
1240	 0.042688561473312 
1241	 4.28008144089822E-02 
1242	 4.26847872333495E-02 
1243	 4.25053199558654E-02 
1244	 4.26078544366083E-02 
1245	 4.28127649151625E-02 
1246	 4.31708929419836E-02 
1247	 0.043689342701886 
1248	 0.04375032867029 
1249	 4.35381804215587E-02 
1250	 0.043567419662306 
1251	 4.34509955219523E-02 
1252	 4.31970486162494E-02 
1253	 4.30391900909965E-02 
1254	 4.28182961956721E-02 
1255	 0.042617372465328 
1256	 4.25308229234963E-02 
1257	 0.042591660653213 
1258	 4.25819071808866E-02 
1259	 4.26575073043139E-02 
1260	 4.27300256133894E-02 
1261	 4.28582187877977E-02 
1262	 4.27974047579746E-02 
1263	 4.25965711810756E-02 
1264	 4.24808566232182E-02 
1265	 4.24615149446232E-02 
1266	 4.23845352717482E-02 
1267	 4.23601012750529E-02 
1268	 4.23877614802274E-02 
1269	 4.23394048214355E-02 
1270	 4.24299946150512E-02 
1271	 4.24673380702718E-02 
1272	 4.21671329708757E-02 
1273	 4.19356559128881E-02 
1274	 4.20095905009982E-02 
1275	 0.042087091032414 
1276	 4.20916503175035E-02 
1277	 4.21420508360092E-02 
1278	 4.20712563451549E-02 
1279	 4.20391202612912E-02 
1280	 4.22435562040183E-02 
1281	 4.23019987646115E-02 
1282	 4.22078364471254E-02 
1283	 4.21772547335281E-02 
1284	 4.21760070252597E-02 
1285	 0.042128069192709 
1286	 4.19994332358404E-02 
1287	 4.20438441897873E-02 
1288	 4.21946270760009E-02 
1289	 4.22454076491249E-02 
1290	 0.04236999847329 
1291	 4.25052374731807E-02 
1292	 4.24554567975431E-02 
1293	 4.20729340393092E-02 
1294	 4.17790289771657E-02 
1295	 4.16269193740463E-02 
1296	 4.16475970637166E-02 
1297	 4.18823548614456E-02 
1298	 0.041695154671036 
1299	 4.14630466249408E-02 
1300	 4.17158632365125E-02 
1301	 4.17496929796364E-02 
1302	 4.16116752266985E-02 
1303	 4.17051100147579E-02 
1304	 4.14314283552392E-02 
1305	 4.10247222250461E-02 
1306	 4.07298946243116E-02 
1307	 4.10283905565369E-02 
1308	 4.09169835591692E-02 
1309	 4.00773739339038E-02 
1310	 3.99750466492522E-02 
1311	 4.08532052711071E-02 
1312	 4.07334162986843E-02 
1313	 3.98853303936474E-02 
1314	 3.98619110766365E-02 
1315	 3.98844602970941E-02 
1316	 3.94442446544864E-02 
1317	 3.92372969862988E-02 
1318	 3.94938344243908E-02 
1319	 0.03976069911861 
1320	 0.039762021180652 
1321	 4.04432680826365E-02 
1322	 4.03982816110412E-02 
1323	 3.98031876652687E-02 
1324	 3.92284416820773E-02 
1325	 3.89399898028407E-02 
1326	 3.90670567910213E-02 
1327	 0.039840881702329 
1328	 3.98562031233309E-02 
1329	 3.90679147067741E-02 
1330	 3.88083799908595E-02 
1331	 3.87986573024415E-02 
1332	 3.86627230550774E-02 
1333	 3.85195867692889E-02 
1334	 3.90227546395561E-02 
1335	 3.97347231628274E-02 
1336	 3.97665022997272E-02 
1337	 3.97373736819304E-02 
1338	 4.12241163790134E-02 
1339	 4.14125084990516E-02 
1340	 3.94155710658174E-02 
1341	 3.84756000626404E-02 
1342	 3.80169967285019E-02 
1343	 0.037493652363329 
1344	 3.66158536271279E-02 
1345	 3.63436814083629E-02 
1346	 0.03715508913428 
1347	 0.037211485077451 
1348	 3.75031641411901E-02 
1349	 3.69645830323331E-02 
1350	 3.47041697749095E-02 
1351	 3.37975170483239E-02 
1352	 3.39460749419322E-02 
1353	 2.97645206400103E-02 
1354	 2.56015958018655E-02 
1355	 8.4650972158333E-03 
1356	-2.89439341156972E-02 
1357	-5.87297649955958E-02 
1358	-8.84503185547598E-02 
1359	-0.160475806860257 
1360	-0.342907958037699 
1361	-0.349966297029801 
1362	-0.201961260145219 
1363	-0.304636850523269 
1364	-0.381918417380701 
1365	-0.34006961458837 
1366	-0.460757156197802 
1367	-0.710768000508793 
1368	-0.785718484354722 
1369	-0.767785471768698 
1370	-0.756828173071559 
1371	-0.572547301783976 
1372	-0.465258570965392 
1373	-0.337209548280666 
1374	-0.234512999916303 
1375	-0.170262021863075 
1376	-0.209856707880297 
1377	-0.170574335455076 
1378	-0.103362966482475 
1379	-0.281014713877658 
1380	-0.279499789435116 
1381	 0.101229280075388 
1382	 2.67654213969797E-02 
1383	-2.57229949920689 
1384	-3.25745082157141 
1385	-1.7320269739466 
1386	-1.53680751951387 
1387	 0.201115955898914 
1388	 0.452001061397629 
1389	 0.17172890951743 
1390	 0.002084588893179 
1391	-0.700472012084523 
1392	-0.565969972727192 
1393	-0.24155921741774 
1394	-0.037184403539505 
1395	-3.96476755989002E-02 
1396	-0.240954291234487 
1397	-1.00730021087515 
1398	-0.883790762619399 
1399	-0.648060489578084 
1400	-1.01258875770374 
1401	-1.55635760384556 
1402	-3.90947422035104 
1403	-0.322511337790668 
1404	-0.161899384404468 
1405	-0.176102592734453 
1406	-0.306872378016531 
1407	-0.290827054487129 
1408	-0.220724196049159 
1409	-0.194919536721737 
1410	-0.199229791089148 
1411	-0.132522427116107 
1412	-2.05974301130664E-02 
1413	-2.43929793074606E-02 
1414	-3.52601485480761E-02 
1415	-6.35883767905063E-02 
1416	-0.208459277820761 
1417	-0.186969632554554 
1418	-0.110791932926683 
1419	-5.95888421995542E-02 
1420	 2.23880907640815E-02 
1421	 5.29467109249997E-02 
1422	 7.21164989038027E-02 
1423	 6.62012199553284E-02 
1424	 3.64976522676752E-02 
1425	 3.58237042278773E-02 
1426	 4.99315743832068E-02 
1427	 4.00748250621637E-02 
1428	 1.53264457389306E-02 
1429	 0.020277699771937 
1430	 3.30736972996628E-02 
1431	 2.55043139609897E-02 
1432	 2.80538326070761E-02 
1433	 0.031530464890531 
1434	 1.28471373734094E-02 
1435	 2.81415724904977E-03 
1436	 1.12660916228491E-02 
1437	 1.04414253537945E-02 
1438	 4.26404914801549E-03 
1439	 0.011912619161666 
1440	 2.69095881495419E-02 
1441	 0.036077922105531 
1442	 3.76565130318659E-02 
1443	 3.29029942522247E-02 
1444	 2.40557454859539E-02 
1445	 2.38679045208974E-02 
1446	 2.21024476545806E-02 
1447	 1.63291723283935E-02 
1448	 0.023620915454028 
1449	 2.82255491800868E-02 
1450	 2.55815782973298E-02 
1451	 3.07418778878521E-02 
1452	 3.75163772765879E-02 
1453	 3.45173726053233E-02 
1454	 3.21880807925427E-02 
1455	 3.05487111070137E-02 
1456	 3.19734682559095E-02 
1457	 3.16232026191824E-02 
1458	 3.08569106361436E-02 
1459	 3.34442820079179E-02 
1460	 3.42197109144009E-02 
1461	 3.01776429350742E-02 
1462	 3.08164835944657E-02 
1463	 3.75181054101988E-02 
1464	 3.79794542258768E-02 
1465	 3.54781866610701E-02 
1466	 3.45193788052076E-02 
1467	 3.05004495597385E-02 
1468	 0.030292369211247 
1469	 3.42252922136084E-02 
1470	 3.30269924129481E-02 
1471	 3.01303439241336E-02 
1472	 2.94962544934788E-02 
1473	 2.71934343882363E-02 
1474	 2.61409456359173E-02 
1475	 2.74782226998102E-02 
1476	 0.028163461410065 
1477	 2.78857257847519E-02 
1478	 2.85046196543135E-02 
1479	 3.08630675541137E-02 
1480	 0.031644659826924 
1481	 3.16169144020045E-02 
1482	 3.10653802326511E-02 
1483	 2.91544883277907E-02 
1484	 2.95854550955496E-02 
1485	 3.12260040588697E-02 
1486	 3.14174326486544E-02 
1487	 3.15215324807736E-02 
1488	 3.22609063216415E-02 
1489	 3.23467802600706E-02 
1490	 3.25995978052776E-02 
1491	 3.42699210516798E-02 
1492	 3.46916376870546E-02 
1493	 3.34371405914574E-02 
1494	 3.36983119482424E-02 
1495	 3.51490531464212E-02 
1496	 3.52604886281215E-02 
1497	 3.48745069236534E-02 
1498	 0.03521030645392 
1499	 3.56226112488238E-02 
1500	 3.53736695843151E-02 
1501	 3.50701889925513E-02 
1502	 3.51366968896612E-02 
1503	 3.44903449394365E-02 
1504	 0.034376558770749 
1505	 3.49536369722357E-02 
1506	 3.58333913053949E-02 
1507	 3.59037891738776E-02 
1508	 3.58327195250346E-02 
1509	 3.56241739619758E-02 
1510	 3.52213488597752E-02 
1511	 3.49360103937888E-02 
1512	 3.49989548472626E-02 
1513	 3.51744368163295E-02 
1514	 0.035299651745034 
1515	 0.035488705010295 
1516	 3.53223946149796E-02 
1517	 3.51391042497338E-02 
1518	 3.53503755069708E-02 
1519	 3.56637288105611E-02 
1520	 3.59812730586248E-02 
1521	 3.57638144808581E-02 
1522	 3.55432249369447E-02 
1523	 3.54793075974087E-02 
1524	 3.51964009352554E-02 
1525	 3.55644162952054E-02 
1526	 3.59990043283869E-02 
1527	 3.61825829711621E-02 
1528	 3.64544183556468E-02 
1529	 3.64597155635139E-02 
1530	 3.65705787734563E-02 
1531	 3.66428489803122E-02 
1532	 3.63060532871382E-02 
1533	 0.036007580548806 
1534	 3.61253350547748E-02 
1535	 3.64428598876827E-02 
1536	 3.64220628094394E-02 
1537	 3.63669335567096E-02 
1538	 3.63848160145968E-02 
1539	 3.60691262340214E-02 
1540	 3.60813398066904E-02 
1541	 3.65056630332907E-02 
1542	 0.036562976662092 
1543	 3.66100283265003E-02 
1544	 3.70224903799181E-02 
1545	 3.71608544770899E-02 
1546	 3.71540853496442E-02 
1547	 3.71506206863434E-02 
1548	 3.68948931966273E-02 
1549	 3.67480784264989E-02 
1550	 3.66915636852039E-02 
1551	 3.68496169339858E-02 
1552	 3.70812286580569E-02 
1553	 3.70890404074189E-02 
1554	 3.71729305669049E-02 
1555	 3.69830698448877E-02 
1556	 3.67452219855306E-02 
1557	 3.69890604977638E-02 
1558	 3.70099776433267E-02 
1559	 3.67307196998584E-02 
1560	 3.70089668349596E-02 
1561	 3.77375590894284E-02 
1562	 0.037947881926803 
1563	 3.76644338882031E-02 
1564	 3.75996733792824E-02 
1565	 3.75354315184753E-02 
1566	 3.72644448440422E-02 
1567	 3.71858193213018E-02 
1568	 3.75278284186609E-02 
1569	 3.75038797937812E-02 
1570	 3.72180847177189E-02 
1571	 0.037862883385371 
1572	 3.81138927675828E-02 
1573	 3.76975424628584E-02 
1574	 3.79160748084209E-02 
1575	 3.82530319891795E-02 
1576	 0.038290860548554 
1577	 3.80500336626735E-02 
1578	 3.80684365201015E-02 
1579	 0.038407076619062 
1580	 3.82015355476056E-02 
1581	 3.78118270005431E-02 
1582	 3.78643392012485E-02 
1583	 0.037872522282582 
1584	 3.78707428202508E-02 
1585	 3.83272430353007E-02 
1586	 3.83375343684212E-02 
1587	 3.74412269195512E-02 
1588	 3.71629548074148E-02 
1589	 0.0380354506837 
1590	 3.85631389789336E-02 
1591	 3.84377864643942E-02 
1592	 3.86540877091858E-02 
1593	 3.84555358517206E-02 
1594	 3.78415135580966E-02 
1595	 3.81700864685037E-02 
1596	 3.85767550524424E-02 
1597	 3.86887334381633E-02 
1598	 3.88342442639797E-02 
1599	 3.86434495556654E-02 
1600	 3.85475630952424E-02 
1601	 0.038255342210024 
1602	 3.80716296667685E-02 
1603	 3.86404838315361E-02 
1604	 3.86767661972951E-02 
1605	 3.82441335533886E-02 
1606	 0.038794433518413 
1607	 3.95051775995132E-02 
1608	 3.94655284617509E-02 
1609	 3.95165978322466E-02 
1610	 3.93859784054472E-02 
1611	 3.88867272500608E-02 
1612	 0.038769787337251 
1613	 3.89491598855119E-02 
1614	 3.87559664436431E-02 
1615	 3.85356603839368E-02 
1616	 3.87028702419521E-02 
1617	 3.81714238430192E-02 
1618	 3.77694661520167E-02 
1619	 0.038129927043345 
1620	 3.77173930854889E-02 
1621	 3.76102313864668E-02 
1622	 3.83904294953683E-02 
1623	 3.82610059531739E-02 
1624	 0.03778915215773 
1625	 3.81936236699359E-02 
1626	 3.85402298039534E-02 
1627	 3.82639023403847E-02 
1628	 3.82407394852919E-02 
1629	 3.86204205902745E-02 
1630	 0.038578029333067 
1631	 3.86165231837069E-02 
1632	 3.94145321375185E-02 
1633	 3.95707934431898E-02 
1634	 0.039015136842471 
1635	 3.89624794631745E-02 
1636	 3.88418030742375E-02 
1637	 3.86537568169432E-02 
1638	 3.86585374491817E-02 
1639	 3.83476103485025E-02 
1640	 3.85145914461789E-02 
1641	 3.89566836487523E-02 
1642	 3.86690573314046E-02 
1643	 3.85250449648979E-02 
1644	 3.87077835422995E-02 
1645	 0.038746902294793 
1646	 3.90702406245059E-02 
1647	 3.92295587107959E-02 
1648	 3.86622466355647E-02 
1649	 3.79568663784529E-02 
1650	 3.77202930396464E-02 
1651	 3.82645517042882E-02 
1652	 3.88241407868948E-02 
1653	 3.87120575183654E-02 
1654	 3.90185777873033E-02 
1655	 3.95189904937569E-02 
1656	 0.039484810349878 
1657	 3.94474993318041E-02 
1658	 3.93633240886243E-02 
1659	 3.87678198937762E-02 
1660	 3.83988901523354E-02 
1661	 3.82504333645312E-02 
1662	 3.84586850575491E-02 
1663	 3.87524361575518E-02 
1664	 3.88681127031252E-02 
1665	 3.94440263943355E-02 
1666	 3.94175495132619E-02 
1667	 3.86796151850778E-02 
1668	 0.038602207013617 
1669	 3.84166355809166E-02 
1670	 3.85448067262519E-02 
1671	 3.88156290806835E-02 
1672	 3.88507240505569E-02 
1673	 3.88079999716994E-02 
1674	 3.87006863661002E-02 
1675	 3.90133663966903E-02 
1676	 3.97932620802898E-02 
1677	 3.99011590132073E-02 
1678	 3.94518804322896E-02 
1679	 3.90601369169734E-02 
1680	 3.84145170303105E-02 
1681	 3.83774859990984E-02 
1682	 3.93052244099154E-02 
1683	 3.93412087823125E-02 
1684	 3.87998200402162E-02 
1685	 3.90202434129764E-02 
1686	 3.87620643670572E-02 
1687	 3.84214875843981E-02 
1688	 3.88105438504692E-02 
1689	 3.90908715537465E-02 
1690	 3.91584108520563E-02 
1691	 3.91682084953901E-02 
1692	 0.039303106052085 
1693	 3.93533736657637E-02 
1694	 3.89582420627137E-02 
1695	 3.82962873206916E-02 
1696	 3.81421237508424E-02 
1697	 0.038340437230867 
1698	 3.85121031970928E-02 
1699	 3.90951988383401E-02 
1700	 3.91414636277551E-02 
1701	 3.81498614182435E-02 
1702	 3.78125282836293E-02 
1703	 0.038417264818039 
1704	 3.83105598803583E-02 
1705	 3.81636571314258E-02 
1706	 3.90477270016798E-02 
1707	 0.039022595865912 
1708	 3.81027568754126E-02 
1709	 3.86398037229137E-02 
1710	 3.89209865112111E-02 
1711	 0.038081384268311 
1712	 3.89084482494697E-02 
1713	 3.90429672759653E-02 
1714	 3.89000757315965E-02 
1715	 3.84962072902688E-02 
1716	 3.85663035331607E-02 
1717	 3.88523825763602E-02 
1718	 3.87486526619653E-02 
1719	 3.90737543836571E-02 
1720	 3.93779549429388E-02 
1721	 3.95834416919958E-02 
1722	 4.01273512620533E-02 
1723	 3.95796098783557E-02 
1724	 3.87783626648922E-02 
1725	 3.87293592848906E-02 
1726	 3.83644156600059E-02 
1727	 0.038806672613824 
1728	 3.94845981589955E-02 
1729	 3.88023668496861E-02 
1730	 3.81036825299356E-02 
1731	 3.77142424623381E-02 
1732	 3.84526885204678E-02 
1733	 3.97813021441347E-02 
1734	 3.98001982295472E-02 
1735	 3.93650096117262E-02 
1736	 3.81671560055406E-02 
1737	 3.69543399235169E-02 
1738	 3.70103530583572E-02 
1739	 3.76401456390483E-02 
1740	 3.79650196162926E-02 
1741	 3.76851638731301E-02 
1742	 3.77620221042193E-02 
1743	 3.75421660837606E-02 
1744	 3.71296915903193E-02 
1745	 3.76678199543472E-02 
1746	 3.90773609213273E-02 
1747	 3.90111220050879E-02 
1748	 3.82056932418108E-02 
1749	 3.81538779570703E-02 
1750	 3.71829196185101E-02 
1751	 3.66513292787062E-02 
1752	 3.77273273532961E-02 
1753	 3.76635332403513E-02 
1754	 3.62222825707643E-02 
1755	 3.60984822495372E-02 
1756	 3.61358728236523E-02 
1757	 3.51969639988636E-02 
1758	 3.72955675717901E-02 
1759	 3.77019508969852E-02 
1760	 3.74118018387004E-02 
1761	 3.75286138379962E-02 
1762	 3.54435087871209E-02 
1763	 3.66032328907096E-02 
1764	 0.039896730876497 
1765	 0.039935718938808 
1766	 3.98445853924896E-02 
1767	 3.79877821563015E-02 
1768	 3.36373202474332E-02 
1769	 3.50317646064408E-02 
1770	 3.92786449657995E-02 
1771	 0.039578614798465 
1772	 4.08342922200935E-02 
1773	 4.00219528055643E-02 
1774	 3.49275885239052E-02 
1775	 0.035756142483042 
1776	 3.61099050105589E-02 
1777	 3.86467700335357E-02 
1778	 3.97153568809586E-02 
1779	 3.87266665246189E-02 
1780	 3.79356231082228E-02 
1781	 3.69787364095471E-02 
1782	 3.65050021999603E-02 
1783	 3.57540213571245E-02 
1784	 3.58196438557729E-02 
1785	 3.60369599142251E-02 
1786	 3.64565642929315E-02 
1787	 3.90573803166287E-02 
1788	 0.039466841622169 
1789	 3.88899378238439E-02 
1790	 3.63616600587757E-02 
1791	 3.14449097215872E-02 
1792	 2.70553757066321E-02 
1793	 3.10111039440317E-02 
1794	 3.70036822980609E-02 
1795	 3.47433421961326E-02 
1796	 3.14039427403443E-02 
1797	 2.12447632891848E-02 
1798	 7.48265509087618E-03 
1799	 1.75148081805954E-02 
1800	 4.01955339746865E-02 
1801	 4.47037706105934E-02 
1802	 3.10292641682877E-02 
1803	 2.19378874590102E-02 
1804	-0.017530390625125 
1805	-2.96196984949555E-02 
1806	 4.31624464180619E-03 
1807	 1.62389224150475E-02 
1808	 4.82123994998141E-02 
1809	 6.89288711080217E-02 
1810	 3.95940858441599E-02 
1811	 5.10979339694484E-02 
1812	 0.11167812436011 
1813	 7.79570273747098E-02 
1814	-5.88696556026482E-02 
1815	-0.226528071013817 
1816	-1.10125668456363 
1817	-1.32806130303407 
1818	-1.2622266644303 
1819	-0.15679607323995 
1820	 0.20776800474174 
1821	-0.264233693338944 
1822	-0.331539042632371 
1823	-0.378077662199951 
1824	-0.363799636883025 
1825	 0.150260051099769 
1826	 0.176333401091441 
1827	-0.091454966663964 
1828	-0.356287070805281 
1829	-2.14620653672772 
1830	-5.2899526981278 
1831	-0.220086105015831 
1832	-0.206402393207608 
1833	-0.476622961459774 
1834	-4.2642792287925 
1835	-1.9145978739464 
1836	-4.19879870483064 
1837	 3.2543095488592 
1838	 2.36224800923627 
1839	 1.71073015354297 
1840	 1.36659522136712 
1841	 1.97926680067206 
1842	-0.146600586928026 
1843	 0.775815013350248 
1844	 0.647240656981209 
1845	 0.711916569137395 
1846	 1.0005715462887 
1847	 1.0992331259241 
1848	 1.8407678106174 
1849	-9.77720450643926E-03 
1850	-1.01402642890258 
1851	 5.41051580195248 
1852	 37.0014133013595 
1853	-1.48638056531374 
1854	-1.91332234855627 
1855	-0.917697695070277 
1856	-0.840102453717743 
1857	-0.446091223466087 
1858	-0.429267447947797 
1859	 0.934667569157693 
1860	 0.935904011476133 
1861	 1.94519032367137 
1862	 1.81375924547103 
1863	 2.12837359461795 
1864	 1.19755730781355 
1865	 0.959405532360826 
1866	 1.18069112012462 
1867	-3.22637716552565 
1868	-3.4663981020317 
1869	-1.93948465316968 
1870	-1.63309596693727 
1871	-1.59710369383913 
1872	-0.767798917063322 
1873	-0.418408625446775 
1874	-0.343470976832294 
1875	-0.569321131157816 
1876	-0.664269808275244 
1877	-1.06666722941668 
1878	-1.37577485200485 
1879	-3.36494832425996 
1880	 0.581891019308929 
1881	 0.158334008756788 
1882	-0.272576138507618 
1883	-1.22814578709233 
1884	-4.18154081284451 
1885	 2.75258296237508 
1886	 1.32238194226865 
1887	 1.97215605883862 
1888	 7.67868102887199 
1889	 9.1470324134005 
1890	 4.37722496160344 
1891	 7.29328197576928 
1892	 6.77428778296867 
1893	 27.3748118266388 
1894	-2.88036016473096 
1895	 2.04809938969501 
1896	 36.1851040522867 
1897	-3.39533266407607 
1898	-0.65592128785239 
1899	 0.406769830551342 
1900	 0.557170399214345 
1901	 0.116282334431246 
1902	-0.219901943179101 
1903	-1.10932115009363 
1904	-2.38483761632322 
1905	 7.98708282575535 
1906	 2.21071671098399 
1907	 2.17021933807927 
1908	 7.56340750715951 
1909	-1.24096756395878 
1910	 0.44691979707552 
1911	 0.647950543520649 
1912	 0.86065503918406 
1913	 1.01604224103935 
1914	 0.235828258508075 
1915	-0.503356592426211 
1916	 13.1506151457491 
1917	 0.507651401149462 
1918	 0.145146396850152 
1919	 0.300656854412612 
1920	 0.456791340744333 
1921	 0.435437425800912 
1922	 1.04644208931955 
1923	 7.97275490849777 
1924	 1.55367169068713 
1925	 0.537777619860435 
1926	 4.22388408594664E-02 
1927	-0.494839571828706 
1928	-0.939644692824706 
1929	-1.79558133328959 
1930	-0.552660301568652 
1931	 0.57916216548602 
1932	 0.555949959654867 
1933	 0.452910397306878 
1934	 0.163875401133238 
1935	 6.40347698468703E-02 
1936	 0.207679507408487 
1937	 0.274440538325757 
1938	 0.351051379251218 
1939	 0.413816172148551 
1940	 0.434202136975822 
1941	 0.497048734648587 
1942	 0.406025559511708 
1943	 0.304082896595717 
1944	 0.24353775401488 
1945	 0.124273442702778 
1946	 0.149477616134351 
1947	 0.202872162491166 
1948	 0.14678962124025 
1949	 0.130637393609783 
1950	 0.15385982903185 
1951	 0.115981111535742 
1952	 9.17018295340795E-02 
1953	 8.68393892793236E-02 
1954	 0.111640402122825 
1955	 9.69576721110048E-02 
1956	 9.30003273058005E-02 
1957	 0.131342090202321 
1958	 0.120708634832068 
1959	 7.39745302979767E-02 
1960	 5.30832211658622E-02 
1961	 1.88672130410999E-02 
1962	 6.00117564664482E-03 
1963	 2.17756639970458E-02 
1964	 1.85321599156472E-02 
1965	 1.97487289262356E-02 
1966	 2.51498226804539E-02 
1967	 3.28056636821351E-02 
1968	 2.87237672059554E-02 
1969	 2.06475801457741E-02 
1970	 2.62186645164919E-02 
1971	 3.06568324434675E-02 
1972	 2.42154226223881E-02 
1973	 2.92129061388907E-02 
1974	 3.30878482048074E-02 
1975	 2.88054267365633E-02 
1976	 2.81123683284353E-02 
1977	 3.10123315471259E-02 
1978	 0.032077910889868 
1979	 3.13360817747933E-02 
1980	 2.84748121755603E-02 
1981	 2.86911677598888E-02 
1982	 0.031054567473805 
1983	 3.40771893493599E-02 
1984	 3.63155810352257E-02 
1985	 3.47686849734954E-02 
1986	 3.14513053914049E-02 
1987	 2.84617182740813E-02 
1988	 2.75044929881545E-02 
1989	 0.031717104224419 
1990	 3.40929700407423E-02 
1991	 0.030787493403395 
1992	 2.76984412760349E-02 
1993	 2.63478538094358E-02 
1994	 2.64865401081738E-02 
1995	 2.90148225021292E-02 
1996	 3.27254475985832E-02 
1997	 3.41281171995594E-02 
1998	 3.47194620585528E-02 
1999	 3.28608613804584E-02 
2000	 2.88197348171411E-02 
2001	 3.26727823822412E-02 
2002	 3.59470756848123E-02 
2003	 2.81930625028872E-02 
2004	 2.77342429357605E-02 
2005	 3.03724152464655E-02 
2006	 3.89338799533923E-02 
2007	 0.056710923746332 
2008	 5.68238302853206E-02 
2009	 5.79054567845053E-02 
2010	 5.67927463845699E-02 
2011	 4.72064170218612E-02 
2012	 2.66057257482797E-02 
2013	 2.03068761494428E-02 
2014	 1.34448157253782E-02 
2015	 1.22412209837098E-02 
2016	 0.013684086416495 
2017	 1.77200414160262E-02 
2018	 2.26990277845386E-02 
2019	 1.69370179053498E-02 
2020	 2.12127487953114E-02 
2021	 2.91789281831292E-02 
2022	 3.15413109679916E-02 
2023	 3.43417639391834E-02 
2024	 3.56553829409102E-02 
2025	 3.36152296991763E-02 
2026	 3.31583982582342E-02 
2027	 3.29854315892943E-02 
2028	 3.38030217117337E-02 
2029	 0.035365876861866 
2030	 3.76330269410295E-02 
2031	 0.038446416730608 
2032	 3.94381021209584E-02 
2033	 3.77102028573323E-02 
2034	 3.49288985317325E-02 
2035	 3.38592714880762E-02 
2036	 0.032081258531703 
2037	 3.07549965689532E-02 
2038	 2.92510232728932E-02 
2039	 0.028474156023733 
2040	 2.86373407721338E-02 
2041	 2.75434996502051E-02 
2042	 2.51559572739555E-02 
2043	 2.58363310201253E-02 
2044	 2.69589804202446E-02 
2045	 2.82496156000146E-02 
2046	 3.53650501421823E-02 
2047	 4.03006761167252E-02 
2048	 3.93992634960095E-02 
2049	 3.84097456758004E-02 
2050	 3.49326364173068E-02 
2051	 2.95789110850009E-02 
2052	 2.78560741223884E-02 
2053	 2.86836979181904E-02 
2054	 3.09407019285949E-02 
2055	 3.22045098785723E-02 
2056	 0.032802452015861 
2057	 3.38498946980748E-02 
2058	 3.51332262696501E-02 
2059	 3.55987620999699E-02 
2060	 3.53690672103109E-02 
2061	 3.66374145025101E-02 
2062	 3.39493270077319E-02 
2063	 3.09232478681781E-02 
2064	 3.05621587771702E-02 
2065	 3.02563839816868E-02 
2066	 3.02504031566199E-02 
2067	 0.028974213496048 
2068	 2.92724477929984E-02 
2069	 3.42140154242469E-02 
2070	 3.73670697854919E-02 
2071	 0.038801385094689 
2072	 3.88206418295905E-02 
2073	 3.80987698555403E-02 
2074	 3.35639237531816E-02 
2075	 3.29435393129538E-02 
2076	 3.47019826143954E-02 
2077	 3.47564628790653E-02 
2078	 3.49203347389118E-02 
2079	 3.47536547462596E-02 
2080	 3.40660675667492E-02 
2081	 3.28080097274754E-02 
2082	 3.27763593864798E-02 
2083	 3.14510062740566E-02 
2084	 3.16809761734361E-02 
2085	 3.26823281966607E-02 
2086	 3.39816086688462E-02 
2087	 3.60881335002988E-02 
2088	 3.56302463025027E-02 
2089	 3.53416830899247E-02 
2090	 3.39191403226448E-02 
2091	 0.030991300378663 
2092	 3.03352198781934E-02 
2093	 3.02960888961338E-02 
2094	 3.07265207022226E-02 
2095	 3.47717823521696E-02 
2096	 3.54467248011366E-02 
2097	 3.37907113387141E-02 
2098	 3.34577023396136E-02 
2099	 3.28774112172311E-02 
2100	 3.02029538983457E-02 
2101	 3.09280832853065E-02 
2102	 3.16075674238808E-02 
2103	 3.14870714011848E-02 
2104	 3.16722195023778E-02 
2105	 3.03461376755505E-02 
2106	 0.030735502691748 
2107	 3.20936276443129E-02 
2108	 3.27514137706339E-02 
2109	 3.33606705223512E-02 
2110	 0.032632726674663 
2111	 3.12312308365599E-02 
2112	 3.12197556035753E-02 
2113	 3.09678555983307E-02 
2114	 3.11303990469015E-02 
2115	 3.13956751436041E-02 
2116	 3.17407835638287E-02 
2117	 3.17794137507967E-02 
2118	 3.13932688618873E-02 
2119	 0.031663522746246 
2120	 3.25041355688987E-02 
2121	 3.30606814922793E-02 
2122	 0.033144335808108 
2123	 3.42941156252239E-02 
2124	 3.49597328301972E-02 
2125	 3.55875794620091E-02 
2126	 3.47203690732397E-02 
2127	 3.34548357258502E-02 
2128	 3.41479326031231E-02 
2129	 0.034190924945734 
2130	 3.56684829827899E-02 
2131	 3.92279835743639E-02 
2132	 4.10631938261998E-02 
2133	 4.07884671172527E-02 
2134	 4.02729581042462E-02 
2135	 0.038470714230005 
2136	 3.70960439558845E-02 
2137	 3.45810332517095E-02 
2138	 3.46205132163907E-02 
2139	 0.036186285939088 
2140	 3.69881831964404E-02 
2141	 3.86488511672083E-02 
2142	 3.94856595263191E-02 
2143	 3.99076888997767E-02 
2144	 3.97822071193722E-02 
2145	 4.00067698408827E-02 
2146	 0.040748121474846 
2147	 3.88842216405043E-02 
2148	 3.74876684669958E-02 
2149	 3.54747781359139E-02 
2150	 3.31211429394449E-02 
2151	 3.32805885413837E-02 
2152	 3.22543864584844E-02 
2153	 3.30359150609914E-02 
2154	 3.46733768989192E-02 
2155	 3.24133537995992E-02 
2156	 3.27771465671966E-02 
2157	 3.40847123010538E-02 
2158	 3.61162231260651E-02 
2159	 3.65214365160183E-02 
2160	 3.86351602181365E-02 
2161	 0.038645048413943 
2162	 3.45521629873104E-02 
2163	 3.39840776559054E-02 
2164	 3.66488395516742E-02 
2165	 3.57619613014321E-02 
2166	 3.39048480488092E-02 
2167	 3.29685948313646E-02 
2168	 2.84187441908249E-02 
2169	 2.77150736707524E-02 
2170	 3.00429330047597E-02 
2171	 3.21255453870641E-02 
2172	 3.65846169982778E-02 
2173	 4.05795748276728E-02 
2174	 4.15058373878271E-02 
2175	 4.23255590262565E-02 
2176	 4.12218653128813E-02 
2177	 0.038954783762128 
2178	 3.70952378664486E-02 
2179	 3.53632283725463E-02 
2180	 3.30692682332737E-02 
2181	 3.22429171803927E-02 
2182	 3.23713398709574E-02 
2183	 3.11322025666486E-02 
2184	 3.09975147423947E-02 
2185	 3.03831345065206E-02 
2186	 0.030913067559264 
2187	 3.42610991258506E-02 
2188	 3.41482818814233E-02 
2189	 3.15569588290906E-02 
2190	 3.18485625045276E-02 
2191	 3.23318966674612E-02 
2192	 0.031544761775404 
2193	 3.28096996111292E-02 
2194	 3.29534647056406E-02 
2195	 2.91674538411544E-02 
2196	 2.75462667466574E-02 
2197	 2.77295546039237E-02 
2198	 2.73249282183871E-02 
2199	 2.62872390478041E-02 
2200	 2.71731953230287E-02 
2201	 2.73483535410661E-02 
2202	 2.98699880236981E-02 
2203	 3.36809889388733E-02 
2204	 3.54931668736812E-02 
2205	 3.77331800197659E-02 
2206	 3.96883554060886E-02 
2207	 3.63793683193801E-02 
2208	 3.18868269623626E-02 
2209	 3.06581141620241E-02 
2210	 3.06606932120335E-02 
2211	 0.031743397211206 
2212	 3.38291662376541E-02 
2213	 3.23652648163049E-02 
2214	 2.76215666915694E-02 
2215	 0.023018651639921 
2216	 2.19291854204122E-02 
2217	 2.25902546388451E-02 
2218	 0.02709794710528 
2219	 3.00224369737578E-02 
2220	 3.41477524446929E-02 
2221	 3.45921917126365E-02 
2222	 3.36007216421719E-02 
2223	 3.25779427376475E-02 
2224	 2.79218574216599E-02 
2225	 2.88698599939233E-02 
2226	 3.50906666139156E-02 
2227	 3.55003315899926E-02 
2228	 3.37183646552352E-02 
2229	 3.53227073000412E-02 
2230	 0.036156712845122 
2231	 3.56887526345053E-02 
2232	 3.92469536367993E-02 
2233	 3.92375080986305E-02 
2234	 3.58136945925899E-02 
2235	 2.94950279429286E-02 
2236	 2.42487900182291E-02 
2237	 2.22143626465421E-02 
2238	 2.22632247551974E-02 
2239	 2.37821903980932E-02 
2240	 2.62606862508179E-02 
2241	 2.63574628630944E-02 
2242	 2.79177877810174E-02 
2243	 0.029737439068261 
2244	 3.24588988032472E-02 
2245	 3.65205888451944E-02 
2246	 3.75769945971462E-02 
2247	 3.61090490700426E-02 
2248	 3.12797372633801E-02 
2249	 0.02939247999215 
2250	 3.06061462107972E-02 
2251	 2.94997573460077E-02 
2252	 3.36237951273354E-02 
2253	 3.85784364457924E-02 
2254	 3.69953695951308E-02 
2255	 0.03409885511156 
2256	 3.27081862452892E-02 
2257	 3.18760952134071E-02 
2258	 3.16395580287792E-02 
2259	 3.52744621155441E-02 
2260	 3.64304061541852E-02 
2261	 3.49534349561516E-02 
2262	 3.39354693543422E-02 
2263	 3.46864545170763E-02 
2264	 3.49611172589018E-02 
2265	 3.24572470426804E-02 
2266	 3.28513644778802E-02 
2267	 3.63743749769336E-02 
2268	 0.035327207441959 
2269	 3.35690109819528E-02 
2270	 3.35561695011088E-02 
2271	 0.031169237721049 
2272	 2.74981732753524E-02 
2273	 2.41042961578944E-02 
2274	 2.35930204213485E-02 
2275	 2.13266652615879E-02 
2276	 2.17348378662239E-02 
2277	 2.83456848474556E-02 
2278	 3.03395575033477E-02 
2279	 2.94950190427459E-02 
2280	 3.20018264523966E-02 
2281	 3.71300229185014E-02 
2282	 3.74739669250558E-02 
2283	 3.22594563139895E-02 
2284	 3.24600862928176E-02 
2285	 3.46297814341764E-02 
2286	 2.97531982367867E-02 
2287	 0.02988448676746 
2288	 3.15693760409352E-02 
2289	 3.15799153793375E-02 
2290	 2.91613364173629E-02 
2291	 0.028061381773115 
2292	 3.46435730597666E-02 
2293	 3.67854197705218E-02 
2294	 4.49925103267372E-02 
2295	 5.24817840359675E-02 
2296	 0.047729048402962 
2297	 4.16159423396857E-02 
2298	 3.14658217943415E-02 
2299	 3.04238570078817E-02 
2300	 3.14840365761473E-02 
2301	 2.68422674612841E-02 
2302	 2.52219587711342E-02 
2303	 1.98054406071117E-02 
2304	 1.74162071510599E-02 
2305	 0.011374626077113 
2306	 1.75280276100418E-03 
2307	-2.14258011268724E-03 
2308	-3.48322406737657E-04 
2309	 0.014008693523876 
2310	 3.14402613519136E-02 
2311	 3.90872465382202E-02 
2312	 3.69424825158615E-02 
2313	 3.26503050077434E-02 
2314	 2.63780758408417E-02 
2315	 0.020825011371776 
2316	 2.40385306292979E-02 
2317	 2.88875686979142E-02 
2318	 2.75011621854683E-02 
2319	 3.04439009618295E-02 
2320	 3.20617754544927E-02 
2321	 2.29087963329696E-02 
2322	 1.73872528679529E-02 
2323	 1.45945783201507E-02 
2324	 1.11270137194815E-02 
2325	 1.08315937452843E-02 
2326	 1.32084309441691E-02 
2327	 2.28548467108087E-02 
2328	 3.18077037225715E-02 
2329	 3.93256376519128E-02 
2330	 5.43127281150958E-02 
2331	 5.78454265831753E-02 
2332	 4.96121057053768E-02 
2333	 4.40247515623307E-02 
2334	 3.92114137277211E-02 
2335	 3.28964376404141E-02 
2336	 2.16228747787665E-02 
2337	 1.69136104276926E-02 
2338	 1.60840970601645E-02 
2339	 1.17818417459761E-02 
2340	 1.38901419733469E-02 
2341	 6.23128668737746E-03 
2342	-4.51459512147337E-03 
2343	-1.28670500805765E-02 
2344	-2.46828305492635E-02 
2345	-1.29196806332005E-02 
2346	 1.43178197108981E-03 
2347	 1.30742934955673E-02 
2348	 3.73885874017161E-02 
2349	 2.50181355103184E-02 
2350	-3.35098019475167E-03 
2351	-1.69824383273462E-02 
2352	-2.77197346039977E-02 
2353	-2.46174348068769E-03 
2354	 3.09754118324735E-02 
2355	 4.60240705401569E-02 
2356	 4.82451080452386E-02 
2357	 2.39223685248587E-02 
2358	 5.13204131381636E-03 
2359	-2.09901404297023E-02 
2360	-3.99555046061194E-02 
2361	-2.97161883823226E-02 
2362	-0.033509038507295 
2363	-1.26102742521778E-02 
2364	 1.83167210644555E-02 
2365	 2.00241376212768E-02 
2366	 3.96653711364592E-02 
2367	 4.14097920599753E-02 
2368	 4.31979634430887E-02 
2369	 6.58800378290484E-02 
2370	 5.23945709050219E-02 
2371	 1.51891280802928E-02 
2372	-0.024082034790755 
2373	-5.65165266381928E-02 
2374	-3.06716779416417E-02 
2375	 4.05676375785282E-02 
2376	 6.42382206424128E-02 
2377	 5.37758060549345E-02 
2378	 3.49075169494675E-02 
2379	-3.72006842597811E-02 
2380	-7.73762183015092E-02 
2381	-7.78709651837896E-02 
2382	-0.174101584236761 
2383	-0.210897347273902 
2384	-0.143057999608265 
2385	-5.84638861074083E-02 
2386	 1.23323101653559E-02 
2387	 3.22512219246246E-02 
2388	-4.99322953354608E-02 
2389	-0.115459525141062 
2390	-6.54188769539633E-02 
2391	-3.39466539152658E-02 
2392	 2.61712237315365E-03 
2393	 2.24832157721823E-02 
2394	-1.46774956254643E-02 
2395	-3.64775448293312E-02 
2396	-5.60210148835422E-02 
2397	-7.66684185719891E-02 
2398	-0.12723870397495 
2399	-0.14762021856126 
2400	-0.113904151189002 
2401	-7.59875204141041E-02 
2402	-3.08648556803824E-02 
2403	-1.65549903470007E-02 
2404	-2.57917622219124E-02 
2405	-0.034787753244773 
2406	-2.72247948861114E-02 
2407	-1.79775047140284E-02 
2408	-1.12105017891333E-02 
2409	-6.15299398629581E-02 
2410	-0.284179486572589 
2411	-0.567755523401888 
2412	-0.561743751248471 
2413	-0.48029070663654 
2414	-0.485325077945692 
2415	-0.164780354689408 
2416	 1.00485844003914E-02 
2417	 3.73202203631558E-02 
2418	 0.295974876616929 
2419	 0.261188171757095 
2420	 0.109128812326074 
2421	-2.64238394714187E-02 
2422	-6.71561083819966E-02 
2423	 5.35648557612582E-02 
2424	 0.095667649701921 
2425	 0.10828740346798 
2426	 8.58885209914883E-02 
2427	-0.222901863817786 
2428	-0.314766252719619 
2429	-0.226850444136325 
2430	-0.22251558485574 
2431	-0.233156996582804 
2432	-0.232394419131999 
2433	-0.311796068855611 
2434	-0.133325018557537 
2435	 8.85910663284257E-02 
2436	 9.10518302915129E-02 
2437	 0.127012061244499 
2438	 7.26218489690573E-02 
2439	-0.20641226309335 
2440	-0.192044571581499 
2441	-4.67757795491234E-02 
2442	-6.04407637259539E-02 
2443	-0.116837006209907 
2444	-0.147444790909231 
2445	-0.160192650307404 
2446	 0.11072812319468 
2447	 0.585776723610007 
2448	 0.738895646798468 
2449	 0.397312601544404 
2450	 0.15901892631498 
2451	-2.58320873460444 
2452	 50.742503432346 
2453	-3.31470133811667 
2454	-2.47018741723489 
2455	-1.54028770098429 
2456	-1.28010545206009 
2457	 1.60025256493924 
2458	-2.76110228278775 
2459	 1.05327485019187 
2460	 5.79954708815458 
2461	 3.27088347536747 
2462	-2.00842275101407 
2463	-0.139572999569871 
2464	 0.565827849934966 
2465	 1.38589910015334E-02 
2466	-0.421402260566824 
2467	-3.45136396943291 
2468	-17.1532447117151 
2469	-2.15507069807798 
2470	-3.19805722112712 
2471	-7.32217057516572 
2472	-9.03788100557406 
2473	 2.6370183014986 
2474	 1.94135621989004 
2475	 2.85687395090965 
2476	 0.775277466901029 
2477	 0.779072240708893 
2478	-2.9215653219899 
2479	-1.22591431457819 
2480	-1.46973655384255 
2481	-1.48966862449766 
2482	-1.21851179675048 
2483	-1.59801445876711 
2484	-1.39192866059066 
2485	-1.35311354397638 
2486	-0.827060604377761 
2487	 0.469985736442001 
2488	 4.52779034266099 
2489	-5.66681413842171 
2490	-45.2419530093143 
2491	 2.76556701181395 
2492	 3.21734402812469 
2493	 1.53376355657534 
2494	 0.285483841177561 
2495	 0.31175705621499 
2496	 0.390983540951403 
2497	 0.29980075172786 
2498	-1.78833201619439 
2499	-0.526688531832746 
2500	 0.78949373287873 
