Wavelength	rt0714yellow300008.asd
350	 7.41602445581875E-02 
351	 7.36302557135416E-02 
352	 0.073348811242542 
353	 7.35323481956501E-02 
354	 7.40712160290668E-02 
355	 7.42919758891828E-02 
356	 7.40243859819837E-02 
357	 7.39538667185519E-02 
358	 0.074533575755681 
359	 7.40438598993468E-02 
360	 7.35158493372814E-02 
361	 7.34468875513921E-02 
362	 7.37758072179217E-02 
363	 7.33698185897957E-02 
364	 7.37522543636055E-02 
365	 7.48740028947579E-02 
366	 7.38504931322592E-02 
367	 7.40481434397036E-02 
368	 7.46868594893661E-02 
369	 7.45726828461569E-02 
370	 7.52369985942663E-02 
371	 7.49954550642561E-02 
372	 7.44532644230601E-02 
373	 7.52528359676709E-02 
374	 7.52331781453821E-02 
375	 7.57440532270915E-02 
376	 7.69135472980644E-02 
377	 7.67872124029678E-02 
378	 0.076603655436053 
379	 7.68334840283983E-02 
380	 7.74849469437873E-02 
381	 7.77198919373314E-02 
382	 7.83399870906684E-02 
383	 7.91920010160462E-02 
384	 7.97139613189391E-02 
385	 8.00862033551648E-02 
386	 8.01235317555017E-02 
387	 0.080152641789598 
388	 0.081017837919064 
389	 8.19810285260361E-02 
390	 8.23952410755642E-02 
391	 8.22938344083938E-02 
392	 8.32207135221394E-02 
393	 8.39805318734806E-02 
394	 8.43431639579264E-02 
395	 8.45239489495238E-02 
396	 8.48665143107232E-02 
397	 8.53192191502805E-02 
398	 8.57681130383821E-02 
399	 8.60876475726512E-02 
400	 8.64222841861104E-02 
401	 8.67072753580628E-02 
402	 8.70319715616851E-02 
403	 8.79870552736344E-02 
404	 8.84338222268897E-02 
405	 8.84638418232027E-02 
406	 8.86589715871258E-02 
407	 8.94166323232984E-02 
408	 9.01792716296805E-02 
409	 9.07232392242985E-02 
410	 9.12072895770699E-02 
411	 9.13273518877847E-02 
412	 9.15805306189462E-02 
413	 9.22557355653327E-02 
414	 9.28419408444138E-02 
415	 9.34356836958018E-02 
416	 9.40135296576924E-02 
417	 9.45499056130468E-02 
418	 9.52432244595892E-02 
419	 9.58535101182893E-02 
420	 0.096431581851761 
421	 9.73515470193654E-02 
422	 9.80508023233927E-02 
423	 9.86734578501107E-02 
424	 9.94240017139508E-02 
425	 0.100262825281804 
426	 0.100944159981662 
427	 0.1017398716961 
428	 0.103025610766942 
429	 0.104026664702593 
430	 0.10494088622589 
431	 0.105958136301472 
432	 0.10714634364484 
433	 0.108046850095966 
434	 0.108833588232489 
435	 0.109745005061722 
436	 0.110750235831 
437	 0.111865796680124 
438	 0.112969817930474 
439	 0.113910801117583 
440	 0.115035679196828 
441	 0.116031642945304 
442	 0.116801080379365 
443	 0.117656422946497 
444	 0.118662165424395 
445	 0.11953520282229 
446	 0.120092245368251 
447	 0.120941045845083 
448	 0.121744372189399 
449	 0.122383726574228 
450	 0.122928281036607 
451	 0.123412891937711 
452	 0.124014436367442 
453	 0.124725563099533 
454	 0.125117309148787 
455	 0.125648304404532 
456	 0.126178610328583 
457	 0.126462319816152 
458	 0.126913382373711 
459	 0.127302816121732 
460	 0.127611133616629 
461	 0.128045220402384 
462	 0.128349444638701 
463	 0.128703633784238 
464	 0.129221101509822 
465	 0.129598379212612 
466	 0.129955798799121 
467	 0.130339147539807 
468	 0.130752237329393 
469	 0.131137426323533 
470	 0.131448122123925 
471	 0.131751302551705 
472	 0.132256573639471 
473	 0.132664928782829 
474	 0.1331156147591 
475	 0.133737323120016 
476	 0.134199384085546 
477	 0.134642063093436 
478	 0.13513341265824 
479	 0.135682303032545 
480	 0.136236738819249 
481	 0.136750381807259 
482	 0.137290929266342 
483	 0.138170463442259 
484	 0.138904729694005 
485	 0.139547632301879 
486	 0.140305702131107 
487	 0.141002961399775 
488	 0.141741304060121 
489	 0.14257014016432 
490	 0.143471684750945 
491	 0.144310757337655 
492	 0.145150579088709 
493	 0.146042192023848 
494	 0.146900711569856 
495	 0.147774791302406 
496	 0.148712290257179 
497	 0.149748068223269 
498	 0.150794636621221 
499	 0.151775112813494 
500	 0.152719850077699 
501	 0.1538165307112 
502	 0.154974367246184 
503	 0.156051708379978 
504	 0.156978651255296 
505	 0.157986721309591 
506	 0.159151702221492 
507	 0.160353000900291 
508	 0.161344829520769 
509	 0.162429347296615 
510	 0.163617500949378 
511	 0.164820061107516 
512	 0.165821828795986 
513	 0.166933268957071 
514	 0.1681819634766 
515	 0.169453500830449 
516	 0.170673957746428 
517	 0.17195925072267 
518	 0.173283440652078 
519	 0.174436129302636 
520	 0.175549025084309 
521	 0.176720315961291 
522	 0.177985185684739 
523	 0.179170145728338 
524	 0.180419292462053 
525	 0.181714232722353 
526	 0.182932091347331 
527	 0.184098944236745 
528	 0.18536083649475 
529	 0.18672046924288 
530	 0.187867482383678 
531	 0.189061333997051 
532	 0.190308794094389 
533	 0.191532486658873 
534	 0.192765353841656 
535	 0.193935544284923 
536	 0.195079634541885 
537	 0.196350604640837 
538	 0.197594819007833 
539	 0.198811925554239 
540	 0.20001298555789 
541	 0.201109988751469 
542	 0.202254966958302 
543	 0.20345240992756 
544	 0.204608371866024 
545	 0.205588327078734 
546	 0.206589632039676 
547	 0.207690777980257 
548	 0.208651487383302 
549	 0.209733641245085 
550	 0.210883475370947 
551	 0.21193863446007 
552	 0.212797888394736 
553	 0.213706773578414 
554	 0.214716195533663 
555	 0.215631155265921 
556	 0.216465787934221 
557	 0.217393778503632 
558	 0.218477888551223 
559	 0.219355908171076 
560	 0.219985151562785 
561	 0.220548650743209 
562	 0.221329288235386 
563	 0.22197103068863 
564	 0.222544861728562 
565	 0.22311994917378 
566	 0.223660082953165 
567	 0.224107640701778 
568	 0.224519397655895 
569	 0.224987037585708 
570	 0.225533783598213 
571	 0.225974352504422 
572	 0.226320987206037 
573	 0.226805285163193 
574	 0.227335794137953 
575	 0.227764336658377 
576	 0.228061399947317 
577	 0.22866690950999 
578	 0.229008937661193 
579	 0.229134017397438 
580	 0.22943505437771 
581	 0.229570967265123 
582	 0.229650621859693 
583	 0.229777012990237 
584	 0.229954555132501 
585	 0.230053529176957 
586	 0.229973847379347 
587	 0.229699898519993 
588	 0.229599794113711 
589	 0.229598704936501 
590	 0.22957134669567 
591	 0.229389213116682 
592	 0.229134739486663 
593	 0.228868667317662 
594	 0.228613853303464 
595	 0.228281905889027 
596	 0.227877101051562 
597	 0.227389090481214 
598	 0.226822633651173 
599	 0.226335391523931 
600	 0.22596891997219 
601	 0.225705495342016 
602	 0.225459252500353 
603	 0.225235282338611 
604	 0.225038298404564 
605	 0.224887244616198 
606	 0.224846279061071 
607	 0.22482583445298 
608	 0.224807497554358 
609	 0.22484711168145 
610	 0.224740860749028 
611	 0.224673035052846 
612	 0.224762514760666 
613	 0.224684295862713 
614	 0.224647874673394 
615	 0.224662499356169 
616	 0.224623983477128 
617	 0.224478463787257 
618	 0.224405231940118 
619	 0.224438269663405 
620	 0.224338384615142 
621	 0.224319292584142 
622	 0.224386226990648 
623	 0.224432605532907 
624	 0.224153117006565 
625	 0.224016533620387 
626	 0.224096388952613 
627	 0.224068929223657 
628	 0.224026309068377 
629	 0.223982306454152 
630	 0.223941967529496 
631	 0.223917725429968 
632	 0.223871426494826 
633	 0.223816879806999 
634	 0.22378467588366 
635	 0.223723385618965 
636	 0.223651021521478 
637	 0.223596055595662 
638	 0.223595296067644 
639	 0.223460840898648 
640	 0.2232798781734 
641	 0.223192230126178 
642	 0.223206517712063 
643	 0.222982509479147 
644	 0.222620585972251 
645	 0.222551724667871 
646	 0.22224471307127 
647	 0.221995100147773 
648	 0.221999552049673 
649	 0.221901901008075 
650	 0.221598239777853 
651	 0.221192329002178 
652	 0.220867133171975 
653	 0.220562251568066 
654	 0.220177624833636 
655	 0.21964397028948 
656	 0.219020698143357 
657	 0.218734911943197 
658	 0.218486265910184 
659	 0.217982450932533 
660	 0.217407260446125 
661	 0.216988552250733 
662	 0.21672802710533 
663	 0.216479778097044 
664	 0.216169546791524 
665	 0.215920759995973 
666	 0.21575716759599 
667	 0.215474822477305 
668	 0.215319154696045 
669	 0.215225206229134 
670	 0.215071866589898 
671	 0.215002019942782 
672	 0.214982681561981 
673	 0.214951063395062 
674	 0.214832965230965 
675	 0.214702447112029 
676	 0.214726955138275 
677	 0.214947997628314 
678	 0.215075417393743 
679	 0.215119723643651 
680	 0.21516397508947 
681	 0.215311110788124 
682	 0.215467787028702 
683	 0.215662815702314 
684	 0.215807189493237 
685	 0.215636056964742 
686	 0.215622214704767 
687	 0.215792418872196 
688	 0.215977686069345 
689	 0.216080255884397 
690	 0.216016110030792 
691	 0.215911219798184 
692	 0.215970077454387 
693	 0.215724926350961 
694	 0.215617777284028 
695	 0.215717465457648 
696	 0.215307246511529 
697	 0.214952037094337 
698	 0.214650010587556 
699	 0.214232852845112 
700	 0.21343755900768 
701	 0.212939023412446 
702	 0.212690538206283 
703	 0.212056363986603 
704	 0.211303650683166 
705	 0.210596948811034 
706	 0.209934112460664 
707	 0.208911684674051 
708	 0.20797294440646 
709	 0.207099341336952 
710	 0.206099170953587 
711	 0.204882474712404 
712	 0.203498145559429 
713	 0.202080136660576 
714	 0.200790609693262 
715	 0.199240156832964 
716	 0.197665528896408 
717	 0.196364686157595 
718	 0.194471829882249 
719	 0.192558367549386 
720	 0.19111063332894 
721	 0.189982022278538 
722	 0.188580365710387 
723	 0.186915775012695 
724	 0.185260216796721 
725	 0.183686855337148 
726	 0.18180692998402 
727	 0.179929003580377 
728	 0.178260692576004 
729	 0.176117271057282 
730	 0.174224904727747 
731	 0.17259987264834 
732	 0.170884384759733 
733	 0.169291872286479 
734	 0.167976892355886 
735	 0.166961916385537 
736	 0.166077113016683 
737	 0.165511073483646 
738	 0.165090932581899 
739	 0.164656375527929 
740	 0.164306235160368 
741	 0.164124756837644 
742	 0.163997464543605 
743	 0.163751412541982 
744	 0.163698911938031 
745	 0.163672722923793 
746	 0.163559185157905 
747	 0.163380893180124 
748	 0.163529134778183 
749	 0.163534762907066 
750	 0.163069993962184 
751	 0.163003341880423 
752	 0.163001315447974 
753	 0.162948985197517 
754	 0.162874989512923 
755	 0.162971513872285 
756	 0.162876968048898 
757	 0.162533064631452 
758	 0.162360377794439 
759	 0.162254443663802 
760	 0.162102681255293 
761	 0.161954153281659 
762	 0.162287876010992 
763	 0.162438944615473 
764	 0.162327447370094 
765	 0.162174223153347 
766	 0.162344238589791 
767	 0.16250041127489 
768	 0.162560076754612 
769	 0.162665219900241 
770	 0.162800548331476 
771	 0.162833841227508 
772	 0.16276367897979 
773	 0.163019045927057 
774	 0.163168436670078 
775	 0.163197840113965 
776	 0.163292457946748 
777	 0.163621479331815 
778	 0.163836807703826 
779	 0.163942480381415 
780	 0.164303363047169 
781	 0.164431302812458 
782	 0.164419537301872 
783	 0.16446036837946 
784	 0.164731623741292 
785	 0.164898627427179 
786	 0.165057844899113 
787	 0.165396502220626 
788	 0.165699262886954 
789	 0.165942994898616 
790	 0.166218068973222 
791	 0.166672064313319 
792	 0.167091739886903 
793	 0.167419187790204 
794	 0.167635579529173 
795	 0.167728472751021 
796	 0.168056449872727 
797	 0.168358298175826 
798	 0.168399776137844 
799	 0.168625044866531 
800	 0.168936609308611 
801	 0.169239634604861 
802	 0.169424272091512 
803	 0.169264933614294 
804	 0.169254788643633 
805	 0.169465882851505 
806	 0.169462436312262 
807	 0.169610502678724 
808	 0.169473918702412 
809	 0.168887145912441 
810	 0.168753105051123 
811	 0.168784528358851 
812	 0.168536964200222 
813	 0.167691614198019 
814	 0.167369362016892 
815	 0.16733873294159 
816	 0.167105310831662 
817	 0.166245062331792 
818	 0.165790521792315 
819	 0.16538949166726 
820	 0.164710370289197 
821	 0.163644176148994 
822	 0.162822136025769 
823	 0.161969967199073 
824	 0.160837882435233 
825	 0.159765678243297 
826	 0.158397264099142 
827	 0.156805733760133 
828	 0.155322027273657 
829	 0.153979027716252 
830	 0.152947250511367 
831	 0.152153915677274 
832	 0.151385958664418 
833	 0.150659913361491 
834	 0.150057160336164 
835	 0.149489106695882 
836	 0.148661916775158 
837	 0.148501143371172 
838	 0.148462917198467 
839	 0.148031950369464 
840	 0.147589879724773 
841	 0.147473267004801 
842	 0.147335789366296 
843	 0.146797568112016 
844	 0.146678754869303 
845	 0.146407268771285 
846	 0.146044200145509 
847	 0.14604956156107 
848	 0.146030942219556 
849	 0.145753169293173 
850	 0.145325427904398 
851	 0.145217912740823 
852	 0.144604191032662 
853	 0.144373393657557 
854	 0.144776480750765 
855	 0.143963665097969 
856	 0.143911028468342 
857	 0.14417014566596 
858	 0.143889664903454 
859	 0.143292682861455 
860	 0.142979449411448 
861	 0.142971154384985 
862	 0.142970529110795 
863	 0.142971044246612 
864	 0.142582946144654 
865	 0.142092254730824 
866	 0.142255178008005 
867	 0.141788480355922 
868	 0.141562896315462 
869	 0.141825281666042 
870	 0.141664063617345 
871	 0.140842296370042 
872	 0.140242134634207 
873	 0.140358310697717 
874	 0.140262368681804 
875	 0.139934182191208 
876	 0.139692792363561 
877	 0.139705601410635 
878	 0.139111367948798 
879	 0.138661281081473 
880	 0.138512419072984 
881	 0.138507448717261 
882	 0.138726444341293 
883	 0.137952542157924 
884	 0.136934298567625 
885	 0.137565639858642 
886	 0.137885223429159 
887	 0.137513578069314 
888	 0.136760339161643 
889	 0.13646819787168 
890	 0.136652123812093 
891	 0.136517172374474 
892	 0.135809289959021 
893	 0.13558512385578 
894	 0.134943489244022 
895	 0.135040985569425 
896	 0.136242022643753 
897	 0.134658310442952 
898	 0.134078790016938 
899	 0.134375408624735 
900	 0.134227347153415 
901	 0.133789713679053 
902	 0.133326281727972 
903	 0.133060983284713 
904	 0.133039120388441 
905	 0.13262268921953 
906	 0.132525403369828 
907	 0.13288235727708 
908	 0.133255146463493 
909	 0.132943281953674 
910	 0.132092734516303 
911	 0.13119707420511 
912	 0.130910284544709 
913	 0.131659851244262 
914	 0.131516725468942 
915	 0.130628507458791 
916	 0.1313955282516 
917	 0.130404495504997 
918	 0.129045834843055 
919	 0.128235626729668 
920	 0.127356809178298 
921	 0.12860267409626 
922	 0.129536343472063 
923	 0.128693972679029 
924	 0.128504108083689 
925	 0.12785205502489 
926	 0.127019338707485 
927	 0.126848655723937 
928	 0.128903216322874 
929	 0.127820256556754 
930	 0.125506238149692 
931	 0.127205591967172 
932	 0.12627320072439 
933	 0.125079554805154 
934	 0.126194915668654 
935	 0.129472334202118 
936	 0.128262952140301 
937	 0.126432509031892 
938	 0.1253645365481 
939	 0.124479182645142 
940	 0.119349215606551 
941	 0.119289802463036 
942	 0.122780245121992 
943	 0.124026973993831 
944	 0.129982675528969 
945	 0.129195204785979 
946	 0.124820305724158 
947	 0.126207715638306 
948	 0.11862083734697 
949	 0.11797156168879 
950	 0.124266176241599 
951	 0.12681416834686 
952	 0.12437843547893 
953	 0.123062347868131 
954	 0.121828604864762 
955	 0.116826854877605 
956	 0.122689951760158 
957	 0.126780877874315 
958	 0.125235723807531 
959	 0.122538705137659 
960	 0.120496067779529 
961	 0.121136850428446 
962	 0.122690274282764 
963	 0.121547165891638 
964	 0.119504997125474 
965	 0.119470602717646 
966	 0.121030545971574 
967	 0.121583129966107 
968	 0.121657965952896 
969	 0.120575031514198 
970	 0.11905601285277 
971	 0.119010883562641 
972	 0.122066094209184 
973	 0.121829769508814 
974	 0.118357574877283 
975	 0.118498848406585 
976	 0.122306011479309 
977	 0.12382954659189 
978	 0.122027897305615 
979	 0.120807719457428 
980	 0.121424410011133 
981	 0.122564094158015 
982	 0.122316009040896 
983	 0.119710892315046 
984	 0.121603033376394 
985	 0.121354545589626 
986	 0.118749046877945 
987	 0.119408444797374 
988	 0.124874867645798 
989	 0.124092353225405 
990	 0.119895091090239 
991	 0.123302445090544 
992	 0.120372580931245 
993	 0.119015207170215 
994	 0.119852441905992 
995	 0.118215603103845 
996	 0.118451580754702 
997	 0.119879086925795 
998	 0.121840183306543 
999	 0.123381142353782 
1000	 0.121399037138892 
1001	 0.107961309224473 
1002	 0.107752277627548 
1003	 0.107631341890903 
1004	 0.10760476278735 
1005	 0.107461981950838 
1006	 0.106919644057079 
1007	 0.106664601842407 
1008	 0.107080014835078 
1009	 0.107724895238136 
1010	 0.108756865943872 
1011	 0.108721527648185 
1012	 0.107980890035016 
1013	 0.107569662432685 
1014	 0.107208615173879 
1015	 0.10638729782118 
1016	 0.106607291059183 
1017	 0.107946048023525 
1018	 0.108121987056376 
1019	 0.108395317139958 
1020	 0.108346850120311 
1021	 0.107326794815373 
1022	 0.106683507924245 
1023	 0.106877664255874 
1024	 0.106675338202973 
1025	 0.107165928468869 
1026	 0.107879834538345 
1027	 0.108218943694877 
1028	 0.108812629209623 
1029	 0.108760802727485 
1030	 0.108063055155527 
1031	 0.10777991304725 
1032	 0.107055254108931 
1033	 0.107050059917517 
1034	 0.107826922303151 
1035	 0.107998476291453 
1036	 0.108313444775317 
1037	 0.108337700314922 
1038	 0.107832572223011 
1039	 0.107493838372166 
1040	 0.107220391809255 
1041	 0.107223127451166 
1042	 0.107306871958157 
1043	 0.107500337358607 
1044	 0.10791347061335 
1045	 0.108795835780527 
1046	 0.109028310947484 
1047	 0.109330245921703 
1048	 0.109220345880799 
1049	 0.108378073945439 
1050	 0.107949714080703 
1051	 0.107209697237839 
1052	 0.107080489024522 
1053	 0.107384410119711 
1054	 0.107644148862951 
1055	 0.108670196486379 
1056	 0.109100236777744 
1057	 0.109277095686204 
1058	 0.109266685613171 
1059	 0.108952352200997 
1060	 0.107829593065599 
1061	 0.107764053472806 
1062	 0.107877211973977 
1063	 0.108141775570708 
1064	 0.10952861739912 
1065	 0.109712094893902 
1066	 0.108955428559279 
1067	 0.10889551630071 
1068	 0.10864153722441 
1069	 0.10854901751769 
1070	 0.109289762523847 
1071	 0.109409409679708 
1072	 0.109085190489585 
1073	 0.108677010966502 
1074	 0.10840912119002 
1075	 0.107876947004792 
1076	 0.107770943700289 
1077	 0.108047244555206 
1078	 0.107978688404507 
1079	 0.107850324025782 
1080	 0.107848871673969 
1081	 0.107743734374529 
1082	 0.107745916500628 
1083	 0.108174179806913 
1084	 0.108117421127459 
1085	 0.107446406183338 
1086	 0.107356428530314 
1087	 0.107319138842603 
1088	 0.107389860614131 
1089	 0.108023059334103 
1090	 0.108655256928575 
1091	 0.108638262441376 
1092	 0.108165964549796 
1093	 0.107857570226508 
1094	 0.106975992242657 
1095	 0.106850595803193 
1096	 0.107289093160552 
1097	 0.10731960771584 
1098	 0.107614338173246 
1099	 0.107516314952934 
1100	 0.106845267891623 
1101	 0.106523196819173 
1102	 0.105970742062139 
1103	 0.105990384774842 
1104	 0.106673029067814 
1105	 0.107129664190759 
1106	 0.107714837092961 
1107	 0.107213804911287 
1108	 0.105412781887283 
1109	 0.104659378895662 
1110	 0.10458185581206 
1111	 0.105499367006591 
1112	 0.105628744821511 
1113	 0.10689112589186 
1114	 0.106669313320696 
1115	 0.103542646959542 
1116	 0.102944004099897 
1117	 0.104549737713882 
1118	 0.104430323833627 
1119	 0.105567568419275 
1120	 0.105130902389701 
1121	 9.97444429949247E-02 
1122	 9.60824993191831E-02 
1123	 9.95565663589687E-02 
1124	 9.99348927469306E-02 
1125	 0.103585591624077 
1126	 0.105573376305498 
1127	 9.87680007466795E-02 
1128	 9.98662596223388E-02 
1129	 0.101128292504164 
1130	 0.104700812355692 
1131	 0.103480101578732 
1132	 0.101165797932674 
1133	 0.101323273903578 
1134	 0.100679117491801 
1135	 0.10064260027236 
1136	 0.102831429310914 
1137	 0.102816722082538 
1138	 9.99259742424937E-02 
1139	 0.100709760169781 
1140	 0.102696490363674 
1141	 0.104193853413926 
1142	 0.105341673501543 
1143	 0.103128942510632 
1144	 0.101794428457252 
1145	 0.101353729346075 
1146	 9.93039673727871E-02 
1147	 9.98202780704099E-02 
1148	 0.100675084641124 
1149	 0.100519255029107 
1150	 0.100511544512382 
1151	 0.101576246242572 
1152	 0.101959128823313 
1153	 0.101585791071566 
1154	 0.101755723071489 
1155	 0.102771922841581 
1156	 0.102213332215144 
1157	 0.101801891942299 
1158	 0.102111862435155 
1159	 0.101741685716813 
1160	 0.102072614252187 
1161	 0.102827262272994 
1162	 0.102154281016404 
1163	 0.10146372591876 
1164	 0.101998782771984 
1165	 0.101903285435243 
1166	 0.101476770295701 
1167	 0.102058721160888 
1168	 0.102223580826153 
1169	 0.102261812256448 
1170	 0.103126616280629 
1171	 0.103117444035703 
1172	 0.101908516770232 
1173	 0.101724186253803 
1174	 0.101931703039031 
1175	 0.101739923717784 
1176	 0.101404833357224 
1177	 0.102167685404677 
1178	 0.102483401953483 
1179	 0.1022455187067 
1180	 0.102534777957354 
1181	 0.10256445789965 
1182	 0.10210982104196 
1183	 0.101999655046196 
1184	 0.102211180624784 
1185	 0.102066047013374 
1186	 0.101929339760088 
1187	 0.10195774423535 
1188	 0.101778325204936 
1189	 0.101744011377304 
1190	 0.102026294224856 
1191	 0.102060266055301 
1192	 0.102017260895022 
1193	 0.101786172326436 
1194	 0.102004584576151 
1195	 0.102008866681926 
1196	 0.101852886866177 
1197	 0.102088058937609 
1198	 0.10175015535195 
1199	 0.101385988799017 
1200	 0.101938503004677 
1201	 0.102236559767725 
1202	 0.102180967588786 
1203	 0.102416518965656 
1204	 0.10235984355208 
1205	 0.101980302758938 
1206	 0.101898621905111 
1207	 0.101875166260598 
1208	 0.101640153901667 
1209	 0.101631861009464 
1210	 0.101818789415418 
1211	 0.101765111193596 
1212	 0.101880728224727 
1213	 0.102056573700375 
1214	 0.10199664755191 
1215	 0.101756390802513 
1216	 0.101966579632152 
1217	 0.1019103362145 
1218	 0.101453354553798 
1219	 0.101735806318604 
1220	 0.102250995394354 
1221	 0.102255429846615 
1222	 0.10199355898857 
1223	 0.101811185575705 
1224	 0.10180896393872 
1225	 0.101824501385059 
1226	 0.101779933399412 
1227	 0.101905375031621 
1228	 0.101817965502958 
1229	 0.101705212554809 
1230	 0.102136127542218 
1231	 0.102045256634186 
1232	 0.101502910114602 
1233	 0.101786422797704 
1234	 0.102154084166708 
1235	 0.102007327165092 
1236	 0.101854238983913 
1237	 0.101848710613493 
1238	 0.101460105029135 
1239	 0.100866105860603 
1240	 0.101123683107872 
1241	 0.101541125017176 
1242	 0.101471296279584 
1243	 0.101596665361962 
1244	 0.101977765252788 
1245	 0.101938425714735 
1246	 0.101542093404034 
1247	 0.101389256345763 
1248	 0.101311836390703 
1249	 0.100972440318462 
1250	 0.101059925716477 
1251	 0.101373327880294 
1252	 0.101333959868855 
1253	 0.101335557221354 
1254	 0.101529228827014 
1255	 0.101665280693968 
1256	 0.10153049402396 
1257	 0.101036399952306 
1258	 0.101105204241788 
1259	 0.101317871339053 
1260	 0.101182193048772 
1261	 0.101248102014043 
1262	 0.101240778361546 
1263	 0.100796121469713 
1264	 0.100818369571153 
1265	 0.100832642152797 
1266	 0.100686631590213 
1267	 0.100850183106634 
1268	 0.10044828290963 
1269	 0.100377098025227 
1270	 0.101119826507352 
1271	 0.100992844596682 
1272	 0.100616380970897 
1273	 0.100680827817633 
1274	 0.100282240562936 
1275	 0.100302309462526 
1276	 0.100925312861206 
1277	 0.100888119114323 
1278	 0.100769784315139 
1279	 0.100976656265086 
1280	 0.100858026940503 
1281	 0.100825428898264 
1282	 0.101031244055204 
1283	 0.101024439756826 
1284	 0.100777505195133 
1285	 0.100671813647838 
1286	 0.100491176337112 
1287	 0.100447152045657 
1288	 0.100580896393258 
1289	 0.100592171214627 
1290	 0.100573096706453 
1291	 0.100738720059681 
1292	 0.100571241867805 
1293	 0.100235518209648 
1294	 0.100412623011343 
1295	 0.100669154430495 
1296	 0.100557415811018 
1297	 0.100314051789493 
1298	 0.10041835623778 
1299	 0.100628794593671 
1300	 0.100597765927096 
1301	 0.100625407662243 
1302	 0.100728309557237 
1303	 0.100351001336644 
1304	 9.98688878242927E-02 
1305	 0.100087795327818 
1306	 0.1003121219144 
1307	 0.100445179991642 
1308	 0.100260975929525 
1309	 0.100261164741139 
1310	 0.100223454303541 
1311	 9.97757309462918E-02 
1312	 9.93467788570573E-02 
1313	 9.90051700848454E-02 
1314	 9.89482403270009E-02 
1315	 9.88818258348757E-02 
1316	 9.85101602032135E-02 
1317	 9.80618264369619E-02 
1318	 9.83505502150597E-02 
1319	 9.90502564671663E-02 
1320	 9.91007451579389E-02 
1321	 0.099400038204913 
1322	 9.97137961128692E-02 
1323	 0.100057192785664 
1324	 9.93864265337994E-02 
1325	 9.83393385284336E-02 
1326	 9.90295177741497E-02 
1327	 9.88165928801485E-02 
1328	 0.097522449160374 
1329	 9.79860279409944E-02 
1330	 9.76808299968384E-02 
1331	 9.65957092358653E-02 
1332	 9.72551514804774E-02 
1333	 9.78479351419298E-02 
1334	 9.72994297821969E-02 
1335	 9.76974986216734E-02 
1336	 9.91491179306512E-02 
1337	 0.099367383931284 
1338	 9.97027754157325E-02 
1339	 9.85678637608955E-02 
1340	 9.38448496905763E-02 
1341	 9.30679815165407E-02 
1342	 9.39192857514279E-02 
1343	 9.44215452204576E-02 
1344	 0.100158025256023 
1345	 0.102436999945457 
1346	 9.98239666349589E-02 
1347	 9.86298347549514E-02 
1348	 9.57841992702045E-02 
1349	 9.50662788637672E-02 
1350	 9.69858183503766E-02 
1351	 9.60896248924945E-02 
1352	 0.100208363178329 
1353	 0.100908158771073 
1354	 7.30434366481976E-02 
1355	 6.43519457663394E-02 
1356	 9.27957207606558E-02 
1357	 9.7020921465379E-03 
1358	-9.51434725217972E-02 
1359	-0.11980190799872 
1360	-0.02993561940253 
1361	 0.138190848439489 
1362	 0.137629876553392 
1363	 0.261088544665236 
1364	 0.204689976308773 
1365	-0.167443859527496 
1366	-0.506000814927259 
1367	-0.982886627600063 
1368	-0.859881406119023 
1369	-0.356960679683285 
1370	-0.257280613648561 
1371	 0.171483904286354 
1372	 0.296486631582458 
1373	 0.188217958107366 
1374	-5.17834122184263E-02 
1375	-0.754246913393314 
1376	-0.585297401051249 
1377	-0.471649960397128 
1378	-0.370085162801439 
1379	 0.248025003919526 
1380	 0.250992404281306 
1381	-0.250340842200914 
1382	-0.394781526678715 
1383	-0.469264142436214 
1384	-0.203218339486512 
1385	 0.966324432487407 
1386	 0.872104525786244 
1387	-0.376843859558575 
1388	-0.411410250727822 
1389	-0.410393524274802 
1390	-0.642605044898247 
1391	-0.584742709894445 
1392	-0.184093862727306 
1393	-0.411289330116605 
1394	-0.636199181812653 
1395	-0.400385189892556 
1396	-0.034290919654422 
1397	-8.54285313560663E-02 
1398	-0.036971120189649 
1399	-0.198541914206389 
1400	-0.583224559866137 
1401	-0.427215924630661 
1402	-4.94676562691607 
1403	-0.345325396516557 
1404	-0.11620664035402 
1405	-6.38146159423834E-02 
1406	 0.183675099594134 
1407	 0.151339367516031 
1408	-4.31122513733311E-02 
1409	-0.20483507467381 
1410	-0.542396293921574 
1411	-0.488437996225855 
1412	-0.319358522257586 
1413	-0.214762426760113 
1414	 1.32334558730807E-03 
1415	 4.17566698286114E-02 
1416	 8.66469677635417E-03 
1417	-1.70352783277471E-02 
1418	-9.44824105379785E-02 
1419	-6.53342977633714E-02 
1420	-3.49238363718709E-04 
1421	 2.90917574077637E-02 
1422	 9.75249958789639E-02 
1423	 0.095981873856722 
1424	 2.94390589625358E-02 
1425	 3.75638660574775E-02 
1426	 8.53305551324502E-02 
1427	 7.82022189477493E-02 
1428	 5.85240327342524E-02 
1429	 6.59032210839689E-02 
1430	 0.060748361348082 
1431	 4.77389015059101E-02 
1432	 4.99415687182964E-02 
1433	 6.01594603562974E-02 
1434	 5.80403428864999E-02 
1435	 0.055294519360307 
1436	 7.00244614398401E-02 
1437	 8.88430815814949E-02 
1438	 6.15540458795777E-02 
1439	 3.96192785633301E-02 
1440	 6.66893472618218E-02 
1441	 6.64014940611209E-02 
1442	 5.18364649259326E-02 
1443	 6.26130750093714E-02 
1444	 6.94590430412093E-02 
1445	 6.49098829141538E-02 
1446	 5.77009745955696E-02 
1447	 5.78299940565087E-02 
1448	 6.04353925954798E-02 
1449	 5.98153860720433E-02 
1450	 6.74461768940997E-02 
1451	 7.25724561249596E-02 
1452	 6.75478090132435E-02 
1453	 6.54717099970428E-02 
1454	 6.61220060999164E-02 
1455	 7.14090925728195E-02 
1456	 7.04012657624054E-02 
1457	 6.71279809688782E-02 
1458	 6.62990201490976E-02 
1459	 6.38895176788442E-02 
1460	 6.31742441527593E-02 
1461	 6.53352961169417E-02 
1462	 6.55011071078399E-02 
1463	 6.44276440637297E-02 
1464	 0.063624547052125 
1465	 6.18826992078419E-02 
1466	 6.16953576239385E-02 
1467	 0.062054301990483 
1468	 6.23453698257565E-02 
1469	 0.065055911990403 
1470	 0.066165475624895 
1471	 6.59538879825964E-02 
1472	 6.56685932932645E-02 
1473	 6.43764103010394E-02 
1474	 6.43036807859118E-02 
1475	 6.36631100731811E-02 
1476	 6.43552097033625E-02 
1477	 0.0684537367174 
1478	 6.80082500772311E-02 
1479	 6.38119431071459E-02 
1480	 6.42951134690658E-02 
1481	 6.52997209682181E-02 
1482	 6.54019365423857E-02 
1483	 6.85527928448096E-02 
1484	 6.96569613935602E-02 
1485	 6.79309415259377E-02 
1486	 6.75066795109688E-02 
1487	 6.79098329891299E-02 
1488	 0.067985851698129 
1489	 0.066839474134301 
1490	 6.78408099746289E-02 
1491	 7.13148670534595E-02 
1492	 7.15145182624955E-02 
1493	 7.02450902292822E-02 
1494	 7.04658533424674E-02 
1495	 7.01786725649946E-02 
1496	 6.99500294828784E-02 
1497	 0.0706670608016 
1498	 7.11123487838707E-02 
1499	 0.070720519946194 
1500	 7.08251384118272E-02 
1501	 7.18652181230678E-02 
1502	 7.22849897178591E-02 
1503	 7.23364388603105E-02 
1504	 7.25270575478305E-02 
1505	 7.26608951266432E-02 
1506	 7.24071587135587E-02 
1507	 7.27401167393971E-02 
1508	 7.28494964138436E-02 
1509	 7.24157805733828E-02 
1510	 7.29446548720318E-02 
1511	 7.37391292789543E-02 
1512	 7.36271532682742E-02 
1513	 7.33080481890377E-02 
1514	 7.35561678280576E-02 
1515	 7.44860316200782E-02 
1516	 7.46798199103012E-02 
1517	 7.42449750109339E-02 
1518	 7.45674790793837E-02 
1519	 7.48953514832178E-02 
1520	 7.50338979617306E-02 
1521	 7.51844446798819E-02 
1522	 7.49814254110106E-02 
1523	 0.074472841868868 
1524	 7.43107731390942E-02 
1525	 7.51079529239849E-02 
1526	 7.60604608155384E-02 
1527	 7.61310586916836E-02 
1528	 7.58477409628696E-02 
1529	 7.62423968971037E-02 
1530	 7.65231676916937E-02 
1531	 7.63200503225775E-02 
1532	 7.67714248356138E-02 
1533	 7.73797452347593E-02 
1534	 7.73476363174822E-02 
1535	 0.077447815740616 
1536	 7.78091294427052E-02 
1537	 0.0778038972759 
1538	 7.77906116634166E-02 
1539	 7.79610432621627E-02 
1540	 7.82567267739448E-02 
1541	 7.82424883985521E-02 
1542	 7.77748848575426E-02 
1543	 7.80999875338012E-02 
1544	 7.89334895140532E-02 
1545	 7.90304833000698E-02 
1546	 7.88322200451148E-02 
1547	 7.89282885677139E-02 
1548	 7.90149899108523E-02 
1549	 7.94020674022548E-02 
1550	 8.00533204227916E-02 
1551	 8.03348530808562E-02 
1552	 8.02683924648179E-02 
1553	 7.98109517175715E-02 
1554	 7.96678675984613E-02 
1555	 8.01836038780796E-02 
1556	 8.01429510649506E-02 
1557	 7.99866665450331E-02 
1558	 8.06551967030948E-02 
1559	 0.080893847956161 
1560	 8.07003231447785E-02 
1561	 8.08583157416007E-02 
1562	 8.08850000622752E-02 
1563	 8.11456938033689E-02 
1564	 8.13290310370196E-02 
1565	 8.13443726124095E-02 
1566	 8.17281598830039E-02 
1567	 8.17456578697785E-02 
1568	 8.17999522893275E-02 
1569	 0.082253931506832 
1570	 8.23000950422575E-02 
1571	 8.20960929727554E-02 
1572	 8.23255348229515E-02 
1573	 8.25547931402103E-02 
1574	 8.27514687527816E-02 
1575	 8.31230178260184E-02 
1576	 8.32148914435499E-02 
1577	 8.33138179266371E-02 
1578	 8.33017436222303E-02 
1579	 8.33927518460872E-02 
1580	 8.32671122985105E-02 
1581	 8.27984330934339E-02 
1582	 8.28903748126442E-02 
1583	 8.25870877934197E-02 
1584	 8.23861292480261E-02 
1585	 8.30820271032666E-02 
1586	 8.33659531652655E-02 
1587	 8.34873955966394E-02 
1588	 0.083695322786606 
1589	 8.34591849515254E-02 
1590	 8.34531258591475E-02 
1591	 8.36991440717141E-02 
1592	 8.36119295222172E-02 
1593	 8.32774816032968E-02 
1594	 8.31264313474822E-02 
1595	 8.33984650510153E-02 
1596	 8.35345556377887E-02 
1597	 8.36433894692068E-02 
1598	 8.40451267715474E-02 
1599	 0.084026900060251 
1600	 8.41901741325495E-02 
1601	 8.50801263100491E-02 
1602	 8.51427706515704E-02 
1603	 8.46320633071845E-02 
1604	 0.08486777633845 
1605	 8.49454203126319E-02 
1606	 8.44880510556323E-02 
1607	 0.084530487110097 
1608	 8.49131449184539E-02 
1609	 8.50656529671726E-02 
1610	 8.52860801729381E-02 
1611	 8.54854962432319E-02 
1612	 8.52805763251498E-02 
1613	 8.50947994120198E-02 
1614	 8.53765949945462E-02 
1615	 8.56143421930525E-02 
1616	 8.52820064092541E-02 
1617	 8.46841532981775E-02 
1618	 8.46629143553619E-02 
1619	 8.52635146674172E-02 
1620	 8.57038420919843E-02 
1621	 8.57309844721634E-02 
1622	 8.58681708593394E-02 
1623	 8.59349229486074E-02 
1624	 0.085322677271773 
1625	 8.53109865350002E-02 
1626	 8.57913365782291E-02 
1627	 8.55019169728121E-02 
1628	 8.56132315380887E-02 
1629	 8.61286121193786E-02 
1630	 8.57827120087448E-02 
1631	 0.085268852714824 
1632	 8.53196281612912E-02 
1633	 8.53889489552305E-02 
1634	 8.55505238030825E-02 
1635	 8.58441534156054E-02 
1636	 8.58412824683707E-02 
1637	 8.58620525112425E-02 
1638	 8.60311170921869E-02 
1639	 8.60063025452219E-02 
1640	 8.61329467599374E-02 
1641	 8.63904209717589E-02 
1642	 8.60744773974886E-02 
1643	 8.56700228527709E-02 
1644	 8.55227640368541E-02 
1645	 8.52738839339737E-02 
1646	 8.53163254290273E-02 
1647	 8.56887358633806E-02 
1648	 8.59401966994178E-02 
1649	 8.60627048135278E-02 
1650	 8.59845169872286E-02 
1651	 8.61419157796496E-02 
1652	 0.086517977080667 
1653	 8.66216744094196E-02 
1654	 8.68409627352709E-02 
1655	 8.66642798640014E-02 
1656	 8.63351905447998E-02 
1657	 8.61262819142402E-02 
1658	 8.61136207279421E-02 
1659	 8.60575840662108E-02 
1660	 8.60386397825214E-02 
1661	 8.62735415454735E-02 
1662	 8.62788784398093E-02 
1663	 8.60306512068198E-02 
1664	 8.59375698578598E-02 
1665	 8.58880326255912E-02 
1666	 8.60443586083441E-02 
1667	 8.60989474094989E-02 
1668	 8.57793154792404E-02 
1669	 8.65380045774315E-02 
1670	 8.67630248971262E-02 
1671	 0.086322638125034 
1672	 8.66272351144294E-02 
1673	 8.70921011419032E-02 
1674	 8.63019384662859E-02 
1675	 8.52185955424152E-02 
1676	 8.52765385000104E-02 
1677	 0.085200421442174 
1678	 8.56937234734432E-02 
1679	 8.75256863914038E-02 
1680	 8.76412640639008E-02 
1681	 8.65632501899853E-02 
1682	 8.66090019751409E-02 
1683	 8.66197907354472E-02 
1684	 8.66137825075193E-02 
1685	 8.72542805673596E-02 
1686	 8.71147900120158E-02 
1687	 8.62064389509719E-02 
1688	 8.60265936095312E-02 
1689	 8.62739233562022E-02 
1690	 8.63130240007593E-02 
1691	 8.65992804347244E-02 
1692	 8.67514726953051E-02 
1693	 8.62225607516738E-02 
1694	 0.085649275624186 
1695	 8.57135424630819E-02 
1696	 8.62068805551706E-02 
1697	 8.67415997411596E-02 
1698	 8.69743216064369E-02 
1699	 8.69592696470367E-02 
1700	 8.68434532892519E-02 
1701	 8.62893222321995E-02 
1702	 0.086194609106727 
1703	 8.66009626190715E-02 
1704	 8.58709861342396E-02 
1705	 8.57270743940241E-02 
1706	 8.71322082740812E-02 
1707	 8.72916500917553E-02 
1708	 8.68546640380641E-02 
1709	 8.67121115790762E-02 
1710	 8.58842689154306E-02 
1711	 8.54308504865592E-02 
1712	 8.57925059955465E-02 
1713	 8.64816844119544E-02 
1714	 8.65168061759251E-02 
1715	 8.54051492012364E-02 
1716	 8.57541264888824E-02 
1717	 8.55844703014982E-02 
1718	 8.44770034929253E-02 
1719	 8.45907412709205E-02 
1720	 8.50553519085522E-02 
1721	 8.50376835420354E-02 
1722	 8.53731304320105E-02 
1723	 0.085555304403797 
1724	 8.53300959737226E-02 
1725	 8.53040481510261E-02 
1726	 8.54230556266746E-02 
1727	 8.56104553323034E-02 
1728	 8.55627877757683E-02 
1729	 8.47386455102609E-02 
1730	 8.39331166683575E-02 
1731	 8.41453762718103E-02 
1732	 8.47918598320187E-02 
1733	 8.49521242734878E-02 
1734	 8.48018377811208E-02 
1735	 0.084455207125784 
1736	 8.38629970823026E-02 
1737	 0.083758014944221 
1738	 8.40042631820131E-02 
1739	 8.39428093736629E-02 
1740	 8.39320614097928E-02 
1741	 8.41115301118265E-02 
1742	 8.41706506151807E-02 
1743	 8.37961047919785E-02 
1744	 8.29233355770426E-02 
1745	 8.23676778906008E-02 
1746	 8.28056023443691E-02 
1747	 8.29757021451302E-02 
1748	 8.29305331637452E-02 
1749	 8.33848691123017E-02 
1750	 8.46949505605568E-02 
1751	 8.47360833063125E-02 
1752	 8.41552829200137E-02 
1753	 8.39567582938809E-02 
1754	 8.28006578768245E-02 
1755	 8.27730702258975E-02 
1756	 8.42412365513284E-02 
1757	 0.084115271119949 
1758	 8.33770889726063E-02 
1759	 8.37449352028383E-02 
1760	 8.42431642849174E-02 
1761	 8.32652976815293E-02 
1762	 8.37466612717497E-02 
1763	 8.36706853645746E-02 
1764	 8.18762877456402E-02 
1765	 8.23671549210358E-02 
1766	 8.28765426722994E-02 
1767	 8.20850710251977E-02 
1768	 8.23707176356809E-02 
1769	 8.29556617111283E-02 
1770	 8.22706221932916E-02 
1771	 8.09293851099816E-02 
1772	 8.03426500522184E-02 
1773	 8.10315334097721E-02 
1774	 8.17182781520958E-02 
1775	 7.98551122421497E-02 
1776	 8.00873395797585E-02 
1777	 0.080213749944512 
1778	 7.95176074111464E-02 
1779	 8.08832255971341E-02 
1780	 8.19816858086819E-02 
1781	 8.15274306599651E-02 
1782	 8.03625949574118E-02 
1783	 8.01391673748095E-02 
1784	 7.92040173102891E-02 
1785	 7.40723464483445E-02 
1786	 7.33559904894384E-02 
1787	 7.62138238561053E-02 
1788	 7.78768665369066E-02 
1789	 8.24053125149004E-02 
1790	 8.01229260771478E-02 
1791	 8.21995988031942E-02 
1792	 8.39043991396824E-02 
1793	 7.47525215569003E-02 
1794	 7.30325842166059E-02 
1795	 7.21683827081381E-02 
1796	 7.00785127889395E-02 
1797	 8.23634534866555E-02 
1798	 8.68220174411349E-02 
1799	 8.38704022877755E-02 
1800	 7.35327348620309E-02 
1801	 6.56186360901517E-02 
1802	 5.98445064813869E-02 
1803	 5.65753035682928E-02 
1804	 5.92992172038259E-02 
1805	 6.74645879160797E-02 
1806	 0.100886574779526 
1807	 0.104281309575954 
1808	 8.64843895116494E-02 
1809	 4.58501507020555E-02 
1810	-0.114923616387494 
1811	-0.165354168998167 
1812	-0.115800197030826 
1813	-4.08025321569959E-02 
1814	 0.368296616696248 
1815	 0.443541050797949 
1816	 0.162501391724453 
1817	-0.781646223158659 
1818	-2.86912691715111 
1819	 0.41663272688304 
1820	 1.31718239889667 
1821	 1.74056592602339 
1822	 1.86216739493758 
1823	-0.869893275313008 
1824	-2.01839906641787 
1825	-0.645457728104767 
1826	-0.556543504831548 
1827	-0.291895561667803 
1828	-0.263507821348084 
1829	-1.15545890126653 
1830	-2.02993363210188 
1831	-0.310982696607172 
1832	-0.417418973431082 
1833	-1.23772041050215 
1834	-4.93688256798392 
1835	-1.50644930871113 
1836	-2.99289378934458 
1837	 1.23357275934792 
1838	 0.824781959741237 
1839	 2.24701867445703 
1840	 0.96219039537294 
1841	-9.36874377168069E-02 
1842	-0.171674645011391 
1843	 0.330997339190734 
1844	 0.462991040906281 
1845	 0.378931200325457 
1846	-1.44467195393791E-02 
1847	 1.94424419881213E-02 
1848	 0.820651085184904 
1849	-0.380985304436224 
1850	-1.76232425257127 
1851	-8.2317542254897 
1852	-46.5940999768813 
1853	-11.510592700293 
1854	-1.80323763302708 
1855	-0.245098824991877 
1856	-3.48277399816569E-02 
1857	 0.273140115661521 
1858	 0.385966908138962 
1859	-0.659654711151203 
1860	-1.01845254195537 
1861	-1.51878148603365 
1862	-3.05090118015469 
1863	-4.96768720582969 
1864	-2.82179376218463 
1865	-3.11898367577795 
1866	-11.1492785808133 
1867	 8.59385564495345 
1868	 4.52685110488244 
1869	 1.95826868059351 
1870	 0.863800246137841 
1871	 1.85072872260929E-02 
1872	-0.326604502150345 
1873	-0.195692274607169 
1874	-0.203574718035756 
1875	-0.237642334073625 
1876	-0.182403881619712 
1877	 0.126021353027931 
1878	 0.203948836096688 
1879	-1.0021587997115 
1880	-7.10013701537341E-02 
1881	-0.674859638903681 
1882	-0.435353612190734 
1883	-0.523442924834406 
1884	-3.78641184618809 
1885	 1.32227620085277 
1886	 0.163325532532501 
1887	-0.127440322726685 
1888	-8.32093902319765E-02 
1889	-0.429298044907696 
1890	-1.53388837754957 
1891	-2.07356122256961 
1892	 0.474571417913924 
1893	 8.23898459097395 
1894	-0.811789505496041 
1895	-4.27199096758748 
1896	-21.0539455718417 
1897	 0.794742439603847 
1898	 0.515947993832508 
1899	-0.223156582088406 
1900	-0.359015162410384 
1901	-0.393722213572935 
1902	-0.486059737959929 
1903	-0.671739597050428 
1904	-0.342692859022287 
1905	-1.78183901965296 
1906	 0.405935933992762 
1907	 1.90978867744405 
1908	 5.27964499016888E-02 
1909	-1.62940731102823 
1910	-1.12064973865735 
1911	-0.414960656940747 
1912	-0.744589074872593 
1913	-1.19638444718409 
1914	-0.901513399660332 
1915	-1.44667675330325 
1916	 33.2872067518951 
1917	 2.19932754968397 
1918	 0.596534012522669 
1919	 0.529618876607012 
1920	 0.473066794420068 
1921	 0.602896101103624 
1922	 2.76407609367762 
1923	 20.3790503038344 
1924	 2.60416198177949 
1925	 2.08214121306777 
1926	 1.84178742796837 
1927	 1.99009603697167 
1928	 2.17410919193878 
1929	 1.55918442842398 
1930	 0.258044689634879 
1931	-0.889310606575284 
1932	-1.20263589682707 
1933	-1.25109523162744 
1934	-1.09065870311444 
1935	-0.584383260658771 
1936	-0.578863686959802 
1937	-0.492630042795826 
1938	-0.335322019293038 
1939	-0.393527714211779 
1940	-0.689143899419664 
1941	-0.641986001056633 
1942	-0.400077567778745 
1943	-0.270679295378106 
1944	-8.97515190316795E-02 
1945	 1.36533052473786E-02 
1946	-3.33655834484058E-03 
1947	-8.31096375910628E-02 
1948	-0.132710876216104 
1949	-5.65870770974349E-02 
1950	-1.50124479857159E-02 
1951	-0.053311843769766 
1952	-5.27408019189443E-02 
1953	-4.09274583390728E-02 
1954	-4.42382437210186E-02 
1955	-3.16027126255425E-02 
1956	 4.91855662248442E-03 
1957	 2.65429163314229E-02 
1958	 5.53880889598361E-03 
1959	-3.22625707193773E-02 
1960	-3.85610516015793E-02 
1961	-2.69779982390714E-02 
1962	-0.013696816449264 
1963	 7.08156551579427E-03 
1964	 2.38478890924072E-02 
1965	 3.70867977757834E-02 
1966	 4.27674780044551E-02 
1967	 4.36085808410041E-02 
1968	 4.05670841081799E-02 
1969	 3.92928721724218E-02 
1970	 3.87686174257787E-02 
1971	 4.41035479176094E-02 
1972	 4.52484360452396E-02 
1973	 4.17784799836467E-02 
1974	 3.77579882715783E-02 
1975	 3.17246971882468E-02 
1976	 0.032646887516195 
1977	 3.81035416122405E-02 
1978	 4.32939588299099E-02 
1979	 4.46079305551184E-02 
1980	 4.51030891791233E-02 
1981	 4.10321073187592E-02 
1982	 0.037683959879823 
1983	 3.76561532028247E-02 
1984	 3.90650988604335E-02 
1985	 3.92773513781471E-02 
1986	 4.17559708074121E-02 
1987	 4.15996628949381E-02 
1988	 3.74961250360589E-02 
1989	 3.93399378694513E-02 
1990	 4.11119651446837E-02 
1991	 4.10524535738793E-02 
1992	 4.67774138132569E-02 
1993	 4.81959255168072E-02 
1994	 4.81351800629207E-02 
1995	 4.47763123778049E-02 
1996	 4.32930649675867E-02 
1997	 3.61903190989049E-02 
1998	 3.85939734144274E-02 
1999	 4.33322982877856E-02 
2000	 3.91545939706783E-02 
2001	 3.84338827018426E-02 
2002	 3.08586949809612E-02 
2003	 2.33399979614429E-02 
2004	 2.36053359564794E-02 
2005	 2.65449106352523E-02 
2006	 3.68546676773388E-02 
2007	 3.90526231931552E-02 
2008	 4.12280946814414E-02 
2009	 4.84352243158282E-02 
2010	 6.30509294351665E-02 
2011	 6.45439686117107E-02 
2012	 6.49207302819195E-02 
2013	 0.060560815527228 
2014	 4.87898772690196E-02 
2015	 4.81033315606263E-02 
2016	 5.16535823603776E-02 
2017	 6.11584145889413E-02 
2018	 6.71875907287956E-02 
2019	 5.99137792341076E-02 
2020	 5.29838214276841E-02 
2021	 4.72717778804664E-02 
2022	 0.045338600106777 
2023	 4.85246540947962E-02 
2024	 4.80719924501472E-02 
2025	 0.04604018450439 
2026	 4.59898903538383E-02 
2027	 4.53078745381263E-02 
2028	 4.59916092217947E-02 
2029	 4.77784937330809E-02 
2030	 5.04753322318526E-02 
2031	 4.93258618996482E-02 
2032	 4.76126063165015E-02 
2033	 4.80882692744737E-02 
2034	 4.86590020113623E-02 
2035	 5.32284936221896E-02 
2036	 0.057000117158806 
2037	 5.62875675914165E-02 
2038	 0.055993398344921 
2039	 5.53982975111243E-02 
2040	 5.17423067908969E-02 
2041	 0.050338919727912 
2042	 5.00245642838639E-02 
2043	 5.05913672606995E-02 
2044	 5.20857364481782E-02 
2045	 5.38860522451612E-02 
2046	 5.51809860418121E-02 
2047	 5.53713130784942E-02 
2048	 5.49525184379239E-02 
2049	 5.46925585577905E-02 
2050	 5.43092949773525E-02 
2051	 5.61584518499725E-02 
2052	 0.055717163634481 
2053	 5.12030699350437E-02 
2054	 4.86582077813019E-02 
2055	 4.94572187499171E-02 
2056	 4.90454710111894E-02 
2057	 4.91165149077316E-02 
2058	 4.97606895861271E-02 
2059	 5.05036290478676E-02 
2060	 4.98556601091623E-02 
2061	 4.76442671232276E-02 
2062	 5.02868913119175E-02 
2063	 5.29684248461352E-02 
2064	 5.35981653755835E-02 
2065	 5.42622226799842E-02 
2066	 5.58456504444962E-02 
2067	 5.45237196757467E-02 
2068	 5.24271853824287E-02 
2069	 5.32383662956328E-02 
2070	 5.25150936478112E-02 
2071	 5.21243126466374E-02 
2072	 5.64318619752293E-02 
2073	 5.80168512529566E-02 
2074	 6.00993766477714E-02 
2075	 6.02769557460829E-02 
2076	 5.82784507561187E-02 
2077	 5.69359576069595E-02 
2078	 5.47080929452744E-02 
2079	 5.46798884238458E-02 
2080	 5.63123979754824E-02 
2081	 5.60060397725105E-02 
2082	 5.68397580630283E-02 
2083	 0.057160587929058 
2084	 5.70462925357788E-02 
2085	 5.91694283739463E-02 
2086	 6.21718282954236E-02 
2087	 6.42800968363769E-02 
2088	 6.41281368061165E-02 
2089	 6.38634872612185E-02 
2090	 6.40635921387298E-02 
2091	 6.36058704574937E-02 
2092	 6.34487727853065E-02 
2093	 6.49913503260124E-02 
2094	 6.45959251554547E-02 
2095	 6.19156030007119E-02 
2096	 6.09162665244976E-02 
2097	 5.94213921071173E-02 
2098	 5.87147628091511E-02 
2099	 5.77782122866099E-02 
2100	 6.10246836673412E-02 
2101	 6.29019377612887E-02 
2102	 6.38282682257553E-02 
2103	 6.61846233595003E-02 
2104	 6.69234683456515E-02 
2105	 6.58396394838371E-02 
2106	 0.06491681961568 
2107	 6.41653871564385E-02 
2108	 6.35833940688222E-02 
2109	 6.22164908674532E-02 
2110	 0.061434872681681 
2111	 6.26054065945516E-02 
2112	 6.17698541596999E-02 
2113	 6.16731683082297E-02 
2114	 0.064132517047791 
2115	 6.41517658741065E-02 
2116	 6.17823152679908E-02 
2117	 6.09522077308361E-02 
2118	 5.82039605883594E-02 
2119	 5.88554155039735E-02 
2120	 6.25270405636704E-02 
2121	 6.51130725304247E-02 
2122	 6.61866135876541E-02 
2123	 6.73395875672019E-02 
2124	 0.066294017727106 
2125	 6.56092440294526E-02 
2126	 6.51238488701763E-02 
2127	 6.57179379678638E-02 
2128	 6.55598073270382E-02 
2129	 6.30650415089353E-02 
2130	 6.15472178809714E-02 
2131	 6.05468075578251E-02 
2132	 6.07220788379382E-02 
2133	 6.27524911887614E-02 
2134	 6.40841812789569E-02 
2135	 6.76656395812239E-02 
2136	 6.86204483586609E-02 
2137	 6.73065844484172E-02 
2138	 6.65460937410827E-02 
2139	 6.56110794065337E-02 
2140	 0.064598382765228 
2141	 6.31354616009882E-02 
2142	 6.25597487703378E-02 
2143	 6.28062377740882E-02 
2144	 6.08447065666661E-02 
2145	 6.06287197940046E-02 
2146	 6.20793075283899E-02 
2147	 6.27505870831857E-02 
2148	 6.34805219581719E-02 
2149	 6.53366257357355E-02 
2150	 6.60966697794019E-02 
2151	 6.49298660611015E-02 
2152	 6.66487994024043E-02 
2153	 6.93744193997692E-02 
2154	 7.04907171847255E-02 
2155	 6.95941871206301E-02 
2156	 6.97046002506964E-02 
2157	 7.06055528432181E-02 
2158	 7.00690496373223E-02 
2159	 6.94236315545449E-02 
2160	 7.06846220028173E-02 
2161	 0.070957314177367 
2162	 6.92044573901719E-02 
2163	 6.89601196487817E-02 
2164	 7.12254052740329E-02 
2165	 7.15218215372511E-02 
2166	 7.05135532122146E-02 
2167	 6.96361777036475E-02 
2168	 6.68870464104374E-02 
2169	 6.59064552493763E-02 
2170	 6.52714197217753E-02 
2171	 6.60272217346518E-02 
2172	 6.70614346426594E-02 
2173	 0.068276213954931 
2174	 6.95134900339161E-02 
2175	 6.65978157869224E-02 
2176	 0.062341714379326 
2177	 6.44572613031661E-02 
2178	 6.67973108512978E-02 
2179	 6.74311709600347E-02 
2180	 6.82919445602741E-02 
2181	 6.64484499794526E-02 
2182	 6.59950366181958E-02 
2183	 6.66632270592741E-02 
2184	 6.59773400889517E-02 
2185	 6.52914780338962E-02 
2186	 6.47065794679735E-02 
2187	 6.09748216846334E-02 
2188	 5.99043627433889E-02 
2189	 0.061601630033007 
2190	 6.20156537550529E-02 
2191	 6.24615056340046E-02 
2192	 6.30073808689872E-02 
2193	 6.46046429587196E-02 
2194	 6.44298334067769E-02 
2195	 6.17997549686425E-02 
2196	 6.00702046421399E-02 
2197	 5.64407925893105E-02 
2198	 5.61594467738724E-02 
2199	 5.85222950869512E-02 
2200	 6.25978711289316E-02 
2201	 6.08738556148278E-02 
2202	 5.98332680770565E-02 
2203	 6.08558097477012E-02 
2204	 6.18316693393008E-02 
2205	 6.73544470734299E-02 
2206	 7.18618443417208E-02 
2207	 7.16453953905064E-02 
2208	 6.82198348867595E-02 
2209	 6.44109525485091E-02 
2210	 6.33831626130798E-02 
2211	 6.41378862342225E-02 
2212	 6.24934109481159E-02 
2213	 5.76351983845605E-02 
2214	 5.77528402560937E-02 
2215	 6.04996864223971E-02 
2216	 5.96160974949424E-02 
2217	 6.12150341629023E-02 
2218	 0.068409247843894 
2219	 6.96270259750462E-02 
2220	 6.65638386102301E-02 
2221	 6.58179433665664E-02 
2222	 6.43067151522256E-02 
2223	 6.23259500325699E-02 
2224	 6.11150840665674E-02 
2225	 6.04091492283181E-02 
2226	 5.90814613489858E-02 
2227	 5.75577358743414E-02 
2228	 0.055121132516087 
2229	 0.054775512466236 
2230	 5.49203104570026E-02 
2231	 5.56221550823248E-02 
2232	 6.02329145984516E-02 
2233	 0.061575365974851 
2234	 6.07830559154078E-02 
2235	 6.09196425346155E-02 
2236	 6.09412556678878E-02 
2237	 6.23825799464977E-02 
2238	 6.40123221097086E-02 
2239	 6.44011561943497E-02 
2240	 6.62487025450519E-02 
2241	 0.062427019213883 
2242	 6.08424718307521E-02 
2243	 6.55754147722005E-02 
2244	 6.85320262782057E-02 
2245	 7.13114728296027E-02 
2246	 7.27898868583371E-02 
2247	 6.94290120224971E-02 
2248	 6.20731040083645E-02 
2249	 5.65731760186343E-02 
2250	 5.24121131816249E-02 
2251	 4.99862151464002E-02 
2252	 5.36461345735569E-02 
2253	 0.060892259969711 
2254	 6.40349100836527E-02 
2255	 6.43071330862229E-02 
2256	 6.48370520491392E-02 
2257	 5.95667727260836E-02 
2258	 5.79553758334558E-02 
2259	 6.11794451156754E-02 
2260	 6.24698356592696E-02 
2261	 0.064773958143855 
2262	 6.62519197957246E-02 
2263	 6.65032057136031E-02 
2264	 6.74878377745691E-02 
2265	 0.069000082256173 
2266	 6.88322796875743E-02 
2267	 6.76002174525064E-02 
2268	 6.83192223134918E-02 
2269	 0.069538876546929 
2270	 6.85495655584985E-02 
2271	 6.68403055802387E-02 
2272	 6.63049195122486E-02 
2273	 6.43436338725809E-02 
2274	 6.24006266685087E-02 
2275	 0.065793802933394 
2276	 6.42737893673417E-02 
2277	 5.54746747564486E-02 
2278	 0.054253951868879 
2279	 5.61863776500902E-02 
2280	 5.24587595370723E-02 
2281	 0.048737042222088 
2282	 4.52391404764848E-02 
2283	 4.52853980160042E-02 
2284	 4.76889108070984E-02 
2285	 5.17312280242623E-02 
2286	 5.99659398809612E-02 
2287	 5.92803798205591E-02 
2288	 5.73024742828393E-02 
2289	 6.00005639833064E-02 
2290	 5.57693481148118E-02 
2291	 5.43266480387911E-02 
2292	 5.47669329013524E-02 
2293	 5.69893164800393E-02 
2294	 6.33186087743525E-02 
2295	 5.90404675941614E-02 
2296	 5.24861770501292E-02 
2297	 4.84072915823267E-02 
2298	 4.51226106781742E-02 
2299	 4.58832267486658E-02 
2300	 4.75275075019337E-02 
2301	 4.61182482654774E-02 
2302	 0.038969258598599 
2303	 3.90892951055023E-02 
2304	 4.64756386552852E-02 
2305	 5.05568933382124E-02 
2306	 6.08480739749021E-02 
2307	 6.73354854735232E-02 
2308	 6.00449476423673E-02 
2309	 5.27130472815512E-02 
2310	 4.87029041385285E-02 
2311	 4.94014309481584E-02 
2312	 5.39602228618564E-02 
2313	 5.48907496351117E-02 
2314	 5.81513116539571E-02 
2315	 5.77689338977166E-02 
2316	 5.15617183757213E-02 
2317	 5.30936632177134E-02 
2318	 5.09748638752424E-02 
2319	 4.18427784141003E-02 
2320	 3.32988780853251E-02 
2321	 3.74821423663428E-02 
2322	 0.046636171140155 
2323	 4.29262469060729E-02 
2324	 4.59848043676267E-02 
2325	 0.04434486407616 
2326	 2.93084926036697E-02 
2327	 2.85987195568192E-02 
2328	 4.17704579485217E-02 
2329	 0.051951928355066 
2330	 0.056625793017154 
2331	 6.79407066020712E-02 
2332	 7.39184075920842E-02 
2333	 6.71976893247028E-02 
2334	 6.88511498230632E-02 
2335	 7.58529458851177E-02 
2336	 7.11176573897751E-02 
2337	 6.20707538690476E-02 
2338	 5.98644819733593E-02 
2339	 4.54215259190698E-02 
2340	 3.12886459806206E-02 
2341	 3.23193599024951E-02 
2342	 2.18734703047778E-02 
2343	 2.09794060217845E-02 
2344	 3.81603217115467E-02 
2345	 4.36660030722858E-02 
2346	 5.13264008371516E-02 
2347	 6.94994522410194E-02 
2348	 0.068155440941699 
2349	 4.87159890832709E-02 
2350	 5.03954550237885E-02 
2351	 5.54039763749216E-02 
2352	 4.77338196764432E-02 
2353	 0.047759256598457 
2354	 4.16600643714325E-02 
2355	 4.97499208348037E-03 
2356	-3.14621255926265E-02 
2357	-1.65722293973669E-02 
2358	 1.09132269288344E-02 
2359	 3.44009968455493E-02 
2360	 5.71146178349619E-02 
2361	 5.05549786784659E-02 
2362	 3.50397328368786E-02 
2363	 4.20502400913383E-02 
2364	 5.62963430801942E-02 
2365	 4.95842778603108E-02 
2366	 2.62933091619078E-02 
2367	 2.10527513288828E-02 
2368	 0.016153166164093 
2369	 1.70418766435827E-03 
2370	 4.95097416333579E-03 
2371	-1.66377836379901E-02 
2372	-4.72073564204159E-02 
2373	-4.29759964756172E-02 
2374	-0.052647470297164 
2375	-5.86818766104358E-02 
2376	-6.44480682630977E-02 
2377	-0.113602949429215 
2378	-0.102175012613913 
2379	-8.37395175898245E-02 
2380	-8.27163747404095E-02 
2381	 3.47976442831122E-02 
2382	 6.73923151285364E-02 
2383	 1.69238645043833E-03 
2384	-1.89708633404564E-02 
2385	-2.53351748511704E-02 
2386	 1.88528236742285E-02 
2387	 9.82027951795042E-02 
2388	 0.157837685026321 
2389	 0.128926972485444 
2390	 5.34089468329863E-02 
2391	-1.75125713835452E-02 
2392	-6.90996926869932E-02 
2393	-0.0591657365232 
2394	-3.79380083382174E-02 
2395	 1.39574177728898E-03 
2396	 0.029507817387535 
2397	-3.69322895599329E-02 
2398	-0.109783323405714 
2399	-7.34747384399091E-02 
2400	-3.10586281755067E-02 
2401	 2.92905432236187E-03 
2402	 4.34657818298279E-02 
2403	-3.01615942008345E-02 
2404	-0.105086886634655 
2405	-0.136768958316854 
2406	-0.208475857848171 
2407	-0.266569041439031 
2408	-0.283174716119315 
2409	-0.227689314049113 
2410	-0.141551817776322 
2411	-0.135985497126537 
2412	-0.345586513850335 
2413	-0.473458839726418 
2414	-0.457084127587817 
2415	-0.423876778097461 
2416	-0.251136694195628 
2417	-0.126574545347771 
2418	-0.039790064365348 
2419	 7.93707422876679E-02 
2420	 0.132285526207871 
2421	 0.124935914225478 
2422	 5.26934470859438E-02 
2423	-4.91555770994225E-03 
2424	 1.99851425954836E-02 
2425	 0.032594890546948 
2426	 0.130178911974095 
2427	 0.337357896535479 
2428	 0.204712996783733 
2429	 7.08987929071942E-02 
2430	 4.32105856271331E-02 
2431	-0.136891573941205 
2432	-0.248005797329792 
2433	-0.142898893865806 
2434	-6.36213830030144E-02 
2435	-5.36942282486824E-02 
2436	-0.146900719686468 
2437	-0.410726715514012 
2438	-0.742352236538182 
2439	-0.75291264269267 
2440	-0.587838328408519 
2441	-0.345382771101926 
2442	-9.74422898506437E-02 
2443	-0.106912846715741 
2444	-0.181752906294186 
2445	-0.249444977025687 
2446	-0.254150536962278 
2447	-7.33056563564503E-02 
2448	 2.56939798288821E-03 
2449	 0.294849031667491 
2450	 0.43966417723848 
2451	-0.55703098256744 
2452	 14.5190917117199 
2453	-0.33623603830927 
2454	-0.707467180826558 
2455	-0.285239633850865 
2456	 0.927677157521942 
2457	-4.30501753605413 
2458	-0.968719127118527 
2459	-0.277828915286452 
2460	 3.88745301853413 
2461	-11.639451290953 
2462	-6.20487510003797 
2463	-0.573936516283858 
2464	 4.43355417262944E-02 
2465	 0.212513909322711 
2466	-0.177373408852033 
2467	-5.88461043747111 
2468	-29.8641165116695 
2469	-3.02909862775122 
2470	-2.13710433863368 
2471	 1.94755479698173 
2472	 3.34221919979885 
2473	-0.95669694746356 
2474	-0.214309633040384 
2475	 0.125012694094635 
2476	 1.15567369122886 
2477	 1.71220526819053 
2478	-1.91339083958545 
2479	-0.806130929440067 
2480	-1.30885720508111 
2481	-1.33646821388707 
2482	-1.54331607184038 
2483	 1.75307639041243 
2484	 1.01852601360242 
2485	-0.20088968695965 
2486	 0.498504239988544 
2487	 1.03554933558688 
2488	-2.54114867096405 
2489	 1.30206362835092 
2490	 23.5765142401038 
2491	-1.2263061164018 
2492	-1.52964318982062 
2493	 0.402558321613903 
2494	 0.267821395479986 
2495	 1.13105145509761 
2496	 0.796693079317322 
2497	 1.13603017227751 
2498	-2.34953614013233 
2499	-0.136536464770783 
2500	 7.38987639138746E-03 
