Wavelength	rt0714far00001.asd
350	 2.88188110758279E-02 
351	 0.027297675944709 
352	 2.63493600385074E-02 
353	 2.68015481299038E-02 
354	 2.80775439300686E-02 
355	 2.76576696218914E-02 
356	 2.72708037831891E-02 
357	 2.74422946147132E-02 
358	 2.81270257529546E-02 
359	 2.86964401925245E-02 
360	 2.85472867998167E-02 
361	 2.79820436302537E-02 
362	 2.78680829058261E-02 
363	 2.81764830600721E-02 
364	 2.84876351356495E-02 
365	 0.028546535008192 
366	 0.028426648173877 
367	 2.82064270700246E-02 
368	 2.82403564404899E-02 
369	 2.87439292818392E-02 
370	 2.93235929297065E-02 
371	 2.94368943233584E-02 
372	 2.92852930866432E-02 
373	 2.94829920749682E-02 
374	 2.98758889046518E-02 
375	 3.04779376749645E-02 
376	 0.030921661958059 
377	 3.03663502044127E-02 
378	 3.06523482371492E-02 
379	 3.10291215107197E-02 
380	 3.08006636732539E-02 
381	 3.15027821841261E-02 
382	 3.19623857790749E-02 
383	 3.21605946456034E-02 
384	 3.25683141833817E-02 
385	 3.28422070456198E-02 
386	 3.26943403363449E-02 
387	 3.25042239738787E-02 
388	 3.32939339202636E-02 
389	 3.39856748037816E-02 
390	 3.42382364408244E-02 
391	 3.41845254580704E-02 
392	 3.46810666119686E-02 
393	 3.48996475638682E-02 
394	 3.49989333159754E-02 
395	 3.53788702771852E-02 
396	 3.56442057607594E-02 
397	 3.57593137233108E-02 
398	 3.57501630852646E-02 
399	 0.035682234402825 
400	 0.03588284973762 
401	 3.59623524045852E-02 
402	 3.58323276084568E-02 
403	 3.63233662813175E-02 
404	 3.68999930908019E-02 
405	 3.72313974965131E-02 
406	 3.72047763791948E-02 
407	 3.74737918742131E-02 
408	 3.76759177545402E-02 
409	 3.78123760602775E-02 
410	 3.82623607060822E-02 
411	 3.83130083619474E-02 
412	 3.82470531752279E-02 
413	 3.84313388040505E-02 
414	 3.90280192396091E-02 
415	 3.95005562212309E-02 
416	 3.97889188397768E-02 
417	 0.040018469233754 
418	 4.00089609736365E-02 
419	 4.03902451231078E-02 
420	 0.041038892753852 
421	 0.041021761078495 
422	 4.13432230569443E-02 
423	 4.18084987768857E-02 
424	 4.21358292611618E-02 
425	 4.25301830124381E-02 
426	 4.28149488229339E-02 
427	 4.31777018360369E-02 
428	 4.38640213595794E-02 
429	 4.42315620962239E-02 
430	 4.45720061712262E-02 
431	 4.50641957758565E-02 
432	 4.56476092596055E-02 
433	 4.60332007430342E-02 
434	 4.62916909180362E-02 
435	 4.66003810312843E-02 
436	 4.71901791358077E-02 
437	 0.047771954962659 
438	 4.82105059115314E-02 
439	 0.048509768128192 
440	 4.90372612434294E-02 
441	 4.96202980643255E-02 
442	 5.00669827821056E-02 
443	 5.02380000802144E-02 
444	 5.07168942194705E-02 
445	 5.12350854423524E-02 
446	 5.14714378936464E-02 
447	 5.18856502478482E-02 
448	 5.23460984535916E-02 
449	 5.27799173496315E-02 
450	 0.053165463842226 
451	 5.34261327115474E-02 
452	 5.37882931434753E-02 
453	 5.42743028180956E-02 
454	 5.43803333991225E-02 
455	 5.47108040999746E-02 
456	 0.055161381175829 
457	 5.54310555745917E-02 
458	 5.56555559734906E-02 
459	 5.59549409944109E-02 
460	 5.63221219448431E-02 
461	 5.66216835352664E-02 
462	 5.68294174674267E-02 
463	 5.70223267640238E-02 
464	 0.057271051159335 
465	 5.75577439098947E-02 
466	 5.79309535865247E-02 
467	 5.82991269486884E-02 
468	 5.85358632497599E-02 
469	 5.88190280428899E-02 
470	 5.90400092359411E-02 
471	 5.92155214166472E-02 
472	 5.95587202022155E-02 
473	 5.98553716204978E-02 
474	 6.01791936554934E-02 
475	 6.06101726635644E-02 
476	 6.09880925561609E-02 
477	 6.12929978429428E-02 
478	 0.061539308305621 
479	 6.17738445902756E-02 
480	 6.20893144366247E-02 
481	 6.23452021252068E-02 
482	 6.25903252047652E-02 
483	 6.33578863520273E-02 
484	 6.38190960217577E-02 
485	 6.40964046729418E-02 
486	 6.45584790924403E-02 
487	 6.47695747378655E-02 
488	 6.51121745647554E-02 
489	 6.56782364312418E-02 
490	 6.62430856122651E-02 
491	 6.67929942505093E-02 
492	 6.72563270006164E-02 
493	 6.76150760422813E-02 
494	 6.79944556834591E-02 
495	 6.84842610928731E-02 
496	 6.90448694863725E-02 
497	 6.95766498337441E-02 
498	 0.07013807933383 
499	 7.06467163196796E-02 
500	 7.11025498132189E-02 
501	 7.16497445200138E-02 
502	 0.072200827243519 
503	 7.28023630414985E-02 
504	 7.34651428603409E-02 
505	 7.38985353937978E-02 
506	 7.43959910566378E-02 
507	 7.49765024792565E-02 
508	 7.54454830698457E-02 
509	 7.60155482395804E-02 
510	 7.66856486466093E-02 
511	 7.73588447852103E-02 
512	 7.77832337174772E-02 
513	 7.83078000494202E-02 
514	 7.89271113622208E-02 
515	 7.95031867823191E-02 
516	 8.01884102285682E-02 
517	 8.09204370461669E-02 
518	 8.16154206254956E-02 
519	 8.21956205217992E-02 
520	 8.27679669222061E-02 
521	 8.33995083646485E-02 
522	 8.40958908720037E-02 
523	 8.46845556472823E-02 
524	 8.52850404963618E-02 
525	 8.59617166728897E-02 
526	 8.67205733755727E-02 
527	 8.73637873428857E-02 
528	 8.80390357326857E-02 
529	 0.088802521944382 
530	 0.089425065806405 
531	 9.01263261364153E-02 
532	 9.08267600504957E-02 
533	 9.14086104662025E-02 
534	 9.22467908706602E-02 
535	 0.092949880528805 
536	 9.34871939338997E-02 
537	 9.42760768273573E-02 
538	 9.50663443726997E-02 
539	 9.57936114552072E-02 
540	 9.64611049742373E-02 
541	 9.71338119462895E-02 
542	 9.79171308619716E-02 
543	 9.87074402345887E-02 
544	 9.93046150891762E-02 
545	 9.99144297904415E-02 
546	 0.100657975301696 
547	 0.101480194870033 
548	 0.102002913410441 
549	 0.102639101587756 
550	 0.103405665043354 
551	 0.104164244308363 
552	 0.104763657515436 
553	 0.105356299495177 
554	 0.106045938149572 
555	 0.106849146978211 
556	 0.107381873209095 
557	 0.107964690291886 
558	 0.10883995461628 
559	 0.109453240359902 
560	 0.10987818388051 
561	 0.11032717606328 
562	 0.111053375249916 
563	 0.111695364776441 
564	 0.112190146275923 
565	 0.11260278088371 
566	 0.11317040096462 
567	 0.113690437572487 
568	 0.114112152752811 
569	 0.114468711322437 
570	 0.114939431918692 
571	 0.115388924521732 
572	 0.115739586895238 
573	 0.116003568858606 
574	 0.116452414567093 
575	 0.116885481412966 
576	 0.117131636352847 
577	 0.117525311308216 
578	 0.117716049253384 
579	 0.117766646978751 
580	 0.117979770514307 
581	 0.11827715096398 
582	 0.118484949651093 
583	 0.118579574757767 
584	 0.118839846590529 
585	 0.119028553895605 
586	 0.119060823809709 
587	 0.11896910570461 
588	 0.119136430462502 
589	 0.119259002889176 
590	 0.119232962268716 
591	 0.119222968217752 
592	 0.119112356252244 
593	 0.119000275814025 
594	 0.118919587197015 
595	 0.118568047178414 
596	 0.118161757387706 
597	 0.117736752636611 
598	 0.117248224980145 
599	 0.116883849401407 
600	 0.116610303000525 
601	 0.116406470198421 
602	 0.116332194221776 
603	 0.116203289985243 
604	 0.116058912868638 
605	 0.115997730884314 
606	 0.115986449358271 
607	 0.116061410002939 
608	 0.116192321600541 
609	 0.116280427496428 
610	 0.116345467673606 
611	 0.116518922172506 
612	 0.116821499129623 
613	 0.116895028498744 
614	 0.116835300545457 
615	 0.116790272914279 
616	 0.116903542930202 
617	 0.116902202611546 
618	 0.116990326141095 
619	 0.117205575035245 
620	 0.117228995221941 
621	 0.11739731325626 
622	 0.117628928050359 
623	 0.11772498329442 
624	 0.117610881453572 
625	 0.117617976360704 
626	 0.117797411792335 
627	 0.117918485930727 
628	 0.117959438102979 
629	 0.11795386733372 
630	 0.117995585195889 
631	 0.118339580045592 
632	 0.118319570852541 
633	 0.118121896320502 
634	 0.118265241949671 
635	 0.118299735823589 
636	 0.11830953923356 
637	 0.118372798070267 
638	 0.118493043600108 
639	 0.118484341592534 
640	 0.118474567188205 
641	 0.118582353542505 
642	 0.118480684288237 
643	 0.118360787932232 
644	 0.118337129947947 
645	 0.118436181315329 
646	 0.118424614098252 
647	 0.11828745789543 
648	 0.118116649714968 
649	 0.118168015761041 
650	 0.117942185034383 
651	 0.117602584061974 
652	 0.117485052299958 
653	 0.117144012924423 
654	 0.116792993836398 
655	 0.116476010197163 
656	 0.115992546104003 
657	 0.115597858156686 
658	 0.115199939816444 
659	 0.114687408998197 
660	 0.114120283161055 
661	 0.113818016754362 
662	 0.113705289907058 
663	 0.113477146414342 
664	 0.113257304001335 
665	 0.113115050608454 
666	 0.113014353528579 
667	 0.112731059254705 
668	 0.112634729684134 
669	 0.112609141656303 
670	 0.112479939840957 
671	 0.112665728144789 
672	 0.112732495239725 
673	 0.112679961135785 
674	 0.112916309135446 
675	 0.112936967701856 
676	 0.113024784156495 
677	 0.113340256501452 
678	 0.113326690701386 
679	 0.11356579304084 
680	 0.113984660307759 
681	 0.114246407495083 
682	 0.114467140306365 
683	 0.114666233416823 
684	 0.114849817760578 
685	 0.115029856367808 
686	 0.11531175631028 
687	 0.115628180064686 
688	 0.115839593003808 
689	 0.115898424896337 
690	 0.115711749245322 
691	 0.115539055206148 
692	 0.115777928312323 
693	 0.115804733100639 
694	 0.115581645222138 
695	 0.11521807521909 
696	 0.114842091897089 
697	 0.114617949477592 
698	 0.114378381140747 
699	 0.113899970250089 
700	 0.1132003931005 
701	 0.112620198063059 
702	 0.112217104914515 
703	 0.111772722941108 
704	 0.111040021397858 
705	 0.110264187878601 
706	 0.109558275883371 
707	 0.108501892569501 
708	 0.107522503019633 
709	 0.106568939146302 
710	 0.105453353146195 
711	 0.104333809350715 
712	 0.102897028202811 
713	 0.10129200728759 
714	 0.100114511717124 
715	 9.86850481811805E-02 
716	 9.71525449284722E-02 
717	 9.58091052306095E-02 
718	 9.40638667526397E-02 
719	 9.19660917601681E-02 
720	 9.00943509684991E-02 
721	 8.85830607067838E-02 
722	 8.70768811249251E-02 
723	 8.52773620172195E-02 
724	 8.33374380197181E-02 
725	 8.15039650257221E-02 
726	 0.079352943314133 
727	 7.71200241523217E-02 
728	 7.49747947430554E-02 
729	 7.23359287337732E-02 
730	 6.96712430099613E-02 
731	 6.72562026689294E-02 
732	 6.51044776606729E-02 
733	 0.063296108164939 
734	 6.17152658735864E-02 
735	 6.03496219249705E-02 
736	 5.92994038182988E-02 
737	 0.058445498849629 
738	 5.77971637641975E-02 
739	 5.73349284370975E-02 
740	 5.67800128120617E-02 
741	 5.65799598280918E-02 
742	 5.66015608011537E-02 
743	 5.64501998801582E-02 
744	 0.056398384975084 
745	 5.63654983375589E-02 
746	 5.62609373438445E-02 
747	 5.60239816302947E-02 
748	 5.62055616875825E-02 
749	 5.63343270219227E-02 
750	 5.60176668293915E-02 
751	 0.0560197174247 
752	 5.60548811572763E-02 
753	 5.60658368637388E-02 
754	 5.61180857687372E-02 
755	 5.62124766043946E-02 
756	 5.62704505388534E-02 
757	 5.62713607622789E-02 
758	 5.62842422959946E-02 
759	 5.63475722562764E-02 
760	 5.67528578623921E-02 
761	 5.73144780539466E-02 
762	 5.72425799992389E-02 
763	 5.71587686118471E-02 
764	 5.71253100962569E-02 
765	 5.70315866683368E-02 
766	 5.69260102884992E-02 
767	 5.71412544038649E-02 
768	 5.75289431875332E-02 
769	 5.74998846168341E-02 
770	 5.77267244912013E-02 
771	 5.79617191418104E-02 
772	 5.80180356088778E-02 
773	 5.83984472599166E-02 
774	 5.86689058867845E-02 
775	 5.88442151299759E-02 
776	 5.91349795561765E-02 
777	 5.96379142505613E-02 
778	 6.00240199850887E-02 
779	 6.02611333531237E-02 
780	 6.06363159659882E-02 
781	 6.09372513538585E-02 
782	 6.12462490992428E-02 
783	 6.16489488268164E-02 
784	 6.21363519710223E-02 
785	 6.25133758607818E-02 
786	 0.062900616335087 
787	 6.34781408848281E-02 
788	 6.40865226824788E-02 
789	 6.46171682594198E-02 
790	 6.50078960655028E-02 
791	 6.52798256061988E-02 
792	 6.57470203213575E-02 
793	 6.63829605825158E-02 
794	 0.067042207693519 
795	 6.74662593075266E-02 
796	 6.78574217407285E-02 
797	 6.81774121889771E-02 
798	 6.84412070228385E-02 
799	 6.90221207748775E-02 
800	 6.96121943627603E-02 
801	 7.01165017060254E-02 
802	 7.05237447920725E-02 
803	 7.03712945573841E-02 
804	 7.05083020840401E-02 
805	 7.09824123750911E-02 
806	 7.08989387524372E-02 
807	 7.11893689536647E-02 
808	 7.11046764773014E-02 
809	 7.03541027145414E-02 
810	 7.06946139658941E-02 
811	 7.07592133727256E-02 
812	 7.04191747071944E-02 
813	 7.00331604629941E-02 
814	 6.96906680687702E-02 
815	 6.93774045523649E-02 
816	 6.89216551340433E-02 
817	 6.81444675407829E-02 
818	 6.77039075127421E-02 
819	 6.71542017066307E-02 
820	 6.61359826752311E-02 
821	 6.45340511772679E-02 
822	 6.36650853042001E-02 
823	 6.27254271919021E-02 
824	 6.10120179813117E-02 
825	 5.92791823481827E-02 
826	 5.74416583418103E-02 
827	 5.54992254860922E-02 
828	 5.35686893889526E-02 
829	 5.15063430219501E-02 
830	 5.01943840083993E-02 
831	 4.92544666599229E-02 
832	 4.75848474392693E-02 
833	 4.64886627656545E-02 
834	 4.58192552750471E-02 
835	 4.51576661359217E-02 
836	 4.40272868966018E-02 
837	 4.37469386271471E-02 
838	 4.38515653531638E-02 
839	 0.043670292289043 
840	 4.30661659708983E-02 
841	 4.24537171664153E-02 
842	 4.20765907563017E-02 
843	 4.19737702002788E-02 
844	 0.041659061471066 
845	 4.11984930508716E-02 
846	 0.040903100951046 
847	 4.10936242737327E-02 
848	 4.07780613304906E-02 
849	 4.03538804254784E-02 
850	 4.00429450607906E-02 
851	 3.96322260020497E-02 
852	 3.92131398931028E-02 
853	 3.90513386263142E-02 
854	 0.03906558853652 
855	 3.83605751663625E-02 
856	 3.84829212440839E-02 
857	 3.86826909936176E-02 
858	 3.81032644424823E-02 
859	 3.79006588432363E-02 
860	 3.76029274117017E-02 
861	 3.74089001579956E-02 
862	 0.037604721682338 
863	 3.68200080384729E-02 
864	 3.66823057523504E-02 
865	 3.70743511885598E-02 
866	 3.63214417258087E-02 
867	 3.59710820224936E-02 
868	 3.57939196436801E-02 
869	 3.56460748656052E-02 
870	 3.57867849951452E-02 
871	 3.51727279865817E-02 
872	 3.44721248677484E-02 
873	 3.42833139922035E-02 
874	 3.41849697290598E-02 
875	 3.38910669251008E-02 
876	 0.033488546525116 
877	 0.033136173855434 
878	 3.27162494528314E-02 
879	 3.22481174846366E-02 
880	 3.19165663016761E-02 
881	 3.18986898397035E-02 
882	 3.19938817763765E-02 
883	 3.13282482958109E-02 
884	 3.05431981825264E-02 
885	 3.10734175048547E-02 
886	 0.030698943746588 
887	 3.02178751292633E-02 
888	 3.00818402341054E-02 
889	 2.99731800029635E-02 
890	 3.00824437544999E-02 
891	 2.98276452035052E-02 
892	 2.91349517346278E-02 
893	 0.029119930729641 
894	 2.90897051663072E-02 
895	 2.90935418564256E-02 
896	 2.91435276703424E-02 
897	 0.02852675319269 
898	 2.81389876738194E-02 
899	 2.78728711375437E-02 
900	 2.74238603063047E-02 
901	 2.71481573534276E-02 
902	 2.73418063721232E-02 
903	 2.71638140227478E-02 
904	 2.59584407588566E-02 
905	 2.61301487807864E-02 
906	 2.61222560636694E-02 
907	 2.60147713168071E-02 
908	 2.67373626696245E-02 
909	 2.55326983555469E-02 
910	 2.52290170713554E-02 
911	 2.58213356674114E-02 
912	 2.46734661247841E-02 
913	 0.024019750272681 
914	 2.34724963291805E-02 
915	 2.29516252289397E-02 
916	 2.29288065380844E-02 
917	 2.19183543994152E-02 
918	 2.16637630020695E-02 
919	 0.021857799840929 
920	 1.92299043704247E-02 
921	 2.02658735941431E-02 
922	 2.15409534230126E-02 
923	 2.03251441696677E-02 
924	 1.94125623964659E-02 
925	 1.96903697250657E-02 
926	 1.98456754773333E-02 
927	 1.84370986809298E-02 
928	 1.65766330354803E-02 
929	 1.92421011679778E-02 
930	 2.15207788982708E-02 
931	 1.51439381151297E-02 
932	 1.75044893545003E-02 
933	 1.46283170377877E-02 
934	 1.23539745715183E-02 
935	 2.00902232761001E-02 
936	 1.76481561504119E-02 
937	 1.73237441031757E-02 
938	 1.84003171007261E-02 
939	 1.71028372331735E-02 
940	 0.015662510076916 
941	 1.40099364374694E-02 
942	 1.37603561641353E-02 
943	 1.65893796304982E-02 
944	 1.94070083821335E-02 
945	 1.98565139745347E-02 
946	 1.93556281963322E-02 
947	 0.019333832495743 
948	 5.93778237900622E-03 
949	 0.006138573290291 
950	 1.47979956229174E-02 
951	 1.04353926318855E-02 
952	 1.37372237347451E-02 
953	 1.51052090250207E-02 
954	 1.32332940112518E-02 
955	 1.36526664915329E-02 
956	 1.56105702553797E-02 
957	 1.44609678721009E-02 
958	 1.26547769398566E-02 
959	 1.57548141456357E-02 
960	 1.38482505169641E-02 
961	 1.15095582039381E-02 
962	 1.15053705657953E-02 
963	 1.30750660017723E-02 
964	 9.39824593404399E-03 
965	 7.23877786479499E-03 
966	 9.24313660978707E-03 
967	 1.32058454388354E-02 
968	 1.22298091607979E-02 
969	 1.13421874789892E-02 
970	 1.12338952311237E-02 
971	 8.85826552394382E-03 
972	 1.18377549316607E-02 
973	 1.24879282252439E-02 
974	 9.29945701301975E-03 
975	 8.51290169652281E-03 
976	 1.26761088435662E-02 
977	 1.45811552745923E-02 
978	 1.26228878942596E-02 
979	 1.11517760628598E-02 
980	 1.13104699342061E-02 
981	 1.15169232434658E-02 
982	 1.16028393243036E-02 
983	 1.24358962738063E-02 
984	 1.14102547890675E-02 
985	 0.010282440275853 
986	 9.85509126748541E-03 
987	 1.00702995792728E-02 
988	 0.013431120313227 
989	 1.53162299707083E-02 
990	 0.014003573820769 
991	 1.09744923228375E-02 
992	 8.79855988105162E-03 
993	 9.15090364287926E-03 
994	 1.02508913578503E-02 
995	 9.14615595019609E-03 
996	 0.010711191133982 
997	 1.14073960771312E-02 
998	 1.16052786987427E-02 
999	 1.33642246664795E-02 
1000	 1.19950036160859E-02 
1001	 1.06992883200217E-02 
1002	 9.71847965366066E-03 
1003	 9.47991849968292E-03 
1004	 9.0411098719594E-03 
1005	 9.20976607398493E-03 
1006	 1.04304136266847E-02 
1007	 1.14104614622858E-02 
1008	 1.11914032464766E-02 
1009	 1.16119269967696E-02 
1010	 1.13375160339765E-02 
1011	 1.10408727680613E-02 
1012	 1.15482260359047E-02 
1013	 1.07794344489345E-02 
1014	 1.06203430840582E-02 
1015	 1.06652721108179E-02 
1016	 0.010457362254183 
1017	 9.98847198212368E-03 
1018	 1.00989628224957E-02 
1019	 9.98656641021813E-03 
1020	 1.02224430999299E-02 
1021	 1.11253723298335E-02 
1022	 1.21159640698503E-02 
1023	 1.23998397334282E-02 
1024	 1.27600159072699E-02 
1025	 0.013099705176526 
1026	 1.30742361199214E-02 
1027	 1.30749499172431E-02 
1028	 0.013206291264858 
1029	 1.29709875900396E-02 
1030	 1.23480130210963E-02 
1031	 1.19663314309673E-02 
1032	 1.12326818016872E-02 
1033	 0.011109307781734 
1034	 1.13015757295693E-02 
1035	 1.15472073759688E-02 
1036	 1.23643229323304E-02 
1037	 1.27888443176332E-02 
1038	 1.32643674776374E-02 
1039	 1.33949701956396E-02 
1040	 0.012891978552711 
1041	 1.30791463157048E-02 
1042	 1.31458413030112E-02 
1043	 1.30785681170619E-02 
1044	 1.33157546766258E-02 
1045	 1.39894590989617E-02 
1046	 1.41398346004392E-02 
1047	 1.39959296379242E-02 
1048	 1.41932051707791E-02 
1049	 1.45075720854474E-02 
1050	 0.014607392550981 
1051	 1.47494613195357E-02 
1052	 1.49323038423749E-02 
1053	 0.015036706749048 
1054	 1.49647083300852E-02 
1055	 1.49749627248372E-02 
1056	 0.014914977638311 
1057	 1.47197887546999E-02 
1058	 1.40157922837789E-02 
1059	 1.39647136455189E-02 
1060	 1.41390219657051E-02 
1061	 1.44215045852706E-02 
1062	 1.53452292444157E-02 
1063	 1.53689236988873E-02 
1064	 1.49084888852746E-02 
1065	 1.48326102651682E-02 
1066	 1.42321333358212E-02 
1067	 1.41763680946803E-02 
1068	 0.015030454681201 
1069	 1.51970837407758E-02 
1070	 1.50327439035817E-02 
1071	 1.50069950720763E-02 
1072	 1.45050742102878E-02 
1073	 1.45577441773138E-02 
1074	 1.45184166311854E-02 
1075	 1.45979861258038E-02 
1076	 1.48110648805197E-02 
1077	 0.015359118510051 
1078	 1.53356329410439E-02 
1079	 1.51776469723811E-02 
1080	 1.50517274892902E-02 
1081	 1.44017572524055E-02 
1082	 1.41744978478238E-02 
1083	 1.44360616716123E-02 
1084	 1.43613623945884E-02 
1085	 1.41468164712115E-02 
1086	 1.40052396566775E-02 
1087	 1.35727104702213E-02 
1088	 1.35023615619394E-02 
1089	 1.39310507098039E-02 
1090	 1.40071546150558E-02 
1091	 0.013939942335982 
1092	 1.39351474854538E-02 
1093	 1.36679744809488E-02 
1094	 1.29401745585646E-02 
1095	 1.25203135423002E-02 
1096	 1.16838486215034E-02 
1097	 1.19659799536791E-02 
1098	 1.35087291687797E-02 
1099	 1.37471401397771E-02 
1100	 1.44212238437569E-02 
1101	 1.43193150877166E-02 
1102	 1.16220446555417E-02 
1103	 1.10623542642041E-02 
1104	 1.16619116426395E-02 
1105	 1.26456371267182E-02 
1106	 0.013017415385517 
1107	 1.32844307794793E-02 
1108	 0.012971206252315 
1109	 1.28230398119073E-02 
1110	 1.29982901381601E-02 
1111	 1.48918218030502E-02 
1112	 1.48040595022651E-02 
1113	 1.27671085343886E-02 
1114	 1.22314163240417E-02 
1115	 1.16304594134529E-02 
1116	 1.08677807673279E-02 
1117	 1.14010957769319E-02 
1118	 1.09387986424125E-02 
1119	 7.8563868524333E-03 
1120	 6.99964918876276E-03 
1121	 1.01241369411615E-02 
1122	 9.01141744980265E-03 
1123	 7.76182398868092E-03 
1124	 1.07745688912116E-02 
1125	 7.14857635042474E-03 
1126	 5.5577694444591E-03 
1127	 1.09541589633539E-02 
1128	 1.08969466362814E-02 
1129	 1.04500358149483E-02 
1130	 1.16042096594528E-02 
1131	 1.07806687257327E-02 
1132	 5.43607737505681E-03 
1133	 6.39654753579191E-03 
1134	 1.02880951180406E-02 
1135	 1.18901569670311E-02 
1136	 1.65605870566897E-02 
1137	 1.65490320055459E-02 
1138	 1.25259692268042E-02 
1139	 1.13140482427266E-02 
1140	 1.12974364645801E-02 
1141	 9.24345282041955E-03 
1142	 1.01730174181512E-02 
1143	 1.19895932568609E-02 
1144	 1.29933603156081E-02 
1145	 1.37125780895243E-02 
1146	 1.30462559326585E-02 
1147	 1.23739137624842E-02 
1148	 1.15903926300656E-02 
1149	 1.03070214894846E-02 
1150	 9.64622569431312E-03 
1151	 9.9079438671027E-03 
1152	 9.90229056554446E-03 
1153	 9.08725130322452E-03 
1154	 9.84452771987238E-03 
1155	 1.21766912661799E-02 
1156	 1.22334365105317E-02 
1157	 0.010266182916563 
1158	 9.09095878024496E-03 
1159	 7.86419581297764E-03 
1160	 8.09517590788919E-03 
1161	 9.66006126873421E-03 
1162	 1.00239605317886E-02 
1163	 1.01008439696899E-02 
1164	 9.94435749204349E-03 
1165	 9.12637009623961E-03 
1166	 8.81680868699364E-03 
1167	 9.12633294277782E-03 
1168	 9.23803986714495E-03 
1169	 9.16300468576588E-03 
1170	 9.23404834764373E-03 
1171	 9.21752610633196E-03 
1172	 8.58251683968605E-03 
1173	 8.28979347582867E-03 
1174	 8.11097937267038E-03 
1175	 8.46783016311208E-03 
1176	 8.5238266648088E-03 
1177	 8.34544136504326E-03 
1178	 8.34989926925693E-03 
1179	 8.39104585251907E-03 
1180	 8.51698384907194E-03 
1181	 8.45893502870146E-03 
1182	 8.66720629247267E-03 
1183	 9.18182682966157E-03 
1184	 8.86019404909703E-03 
1185	 8.79395814480447E-03 
1186	 9.1969070219762E-03 
1187	 8.92285904559332E-03 
1188	 9.04929262262383E-03 
1189	 9.34866052434423E-03 
1190	 9.00832344541407E-03 
1191	 8.78497860561777E-03 
1192	 8.65820984336225E-03 
1193	 8.63336670711597E-03 
1194	 8.4205645852595E-03 
1195	 8.38909860339369E-03 
1196	 8.46895013398851E-03 
1197	 8.45352944379376E-03 
1198	 8.63336801902898E-03 
1199	 8.80313291683119E-03 
1200	 8.64885446190965E-03 
1201	 8.63559834668874E-03 
1202	 8.83486214670356E-03 
1203	 8.59776551081418E-03 
1204	 8.58183351787694E-03 
1205	 9.19212426241097E-03 
1206	 9.21854545841642E-03 
1207	 8.99901387984624E-03 
1208	 9.22603613140439E-03 
1209	 8.96829041031289E-03 
1210	 8.69818287141236E-03 
1211	 8.93065435851504E-03 
1212	 9.12711999132526E-03 
1213	 9.1589574513232E-03 
1214	 9.09756943878746E-03 
1215	 8.87862165750355E-03 
1216	 9.0455740710115E-03 
1217	 9.10608902254437E-03 
1218	 8.76655350202173E-03 
1219	 8.98483461507053E-03 
1220	 9.11746184859631E-03 
1221	 8.72038003661896E-03 
1222	 8.68079584577965E-03 
1223	 8.66288207422039E-03 
1224	 8.32841680853058E-03 
1225	 8.33711703904671E-03 
1226	 8.59739140832683E-03 
1227	 8.74525800970428E-03 
1228	 8.87926029634083E-03 
1229	 8.71766586727836E-03 
1230	 8.47809026507882E-03 
1231	 8.63493114232276E-03 
1232	 8.51147120020668E-03 
1233	 8.38510798038694E-03 
1234	 8.92865103615933E-03 
1235	 9.11433147041421E-03 
1236	 8.85570122341763E-03 
1237	 8.90326631776013E-03 
1238	 9.28690141788388E-03 
1239	 9.18228768299084E-03 
1240	 8.62178540528046E-03 
1241	 8.67689358676583E-03 
1242	 8.85029473473835E-03 
1243	 8.63146312012408E-03 
1244	 8.52501655199945E-03 
1245	 8.54513116002843E-03 
1246	 8.59636159897891E-03 
1247	 8.73114107413508E-03 
1248	 8.91357963295037E-03 
1249	 9.29077160592061E-03 
1250	 9.40761342384159E-03 
1251	 9.01217609007303E-03 
1252	 8.95418700129597E-03 
1253	 9.29956060592475E-03 
1254	 9.09218682475023E-03 
1255	 8.44507051008541E-03 
1256	 8.32569822792906E-03 
1257	 8.48548741271856E-03 
1258	 8.44532291087662E-03 
1259	 8.52921972594461E-03 
1260	 8.65854917989618E-03 
1261	 8.56085046641139E-03 
1262	 8.60323537578974E-03 
1263	 8.76437076809377E-03 
1264	 9.30428519676756E-03 
1265	 9.14740028558131E-03 
1266	 8.85429382977899E-03 
1267	 9.08825726957565E-03 
1268	 9.32208721939953E-03 
1269	 9.44964881195855E-03 
1270	 9.35240904072191E-03 
1271	 9.06744334734502E-03 
1272	 8.97515855446405E-03 
1273	 9.08436846800975E-03 
1274	 0.009298762764603 
1275	 8.99394883310014E-03 
1276	 8.35618954773152E-03 
1277	 8.42216314517811E-03 
1278	 8.61069563674158E-03 
1279	 8.56093845408282E-03 
1280	 8.65349912490402E-03 
1281	 8.54518798517132E-03 
1282	 7.95711539759063E-03 
1283	 7.90719972649048E-03 
1284	 8.13782891094065E-03 
1285	 8.27707335457199E-03 
1286	 8.70119840827763E-03 
1287	 8.92072338493529E-03 
1288	 8.95193470618404E-03 
1289	 8.9246417133923E-03 
1290	 8.83591609098965E-03 
1291	 8.8337330309017E-03 
1292	 8.26160166083316E-03 
1293	 8.26642532733148E-03 
1294	 8.87457414297768E-03 
1295	 8.68320428079695E-03 
1296	 8.60619456524122E-03 
1297	 9.27829442836256E-03 
1298	 9.02598328386701E-03 
1299	 8.15657914939406E-03 
1300	 8.13039437964197E-03 
1301	 8.18308645857282E-03 
1302	 7.74769506954895E-03 
1303	 7.70771126732952E-03 
1304	 8.31467455775562E-03 
1305	 8.30402333199879E-03 
1306	 8.12522853776354E-03 
1307	 8.00305322276062E-03 
1308	 8.16289729110827E-03 
1309	 7.79614790318101E-03 
1310	 7.94118071802179E-03 
1311	 9.05942653196091E-03 
1312	 9.19157713833719E-03 
1313	 8.56690931512106E-03 
1314	 8.53395197482632E-03 
1315	 8.63405538361488E-03 
1316	 8.69617540277854E-03 
1317	 8.92990219292088E-03 
1318	 9.12015249478092E-03 
1319	 9.27149049220474E-03 
1320	 9.19666545029796E-03 
1321	 8.73783932750269E-03 
1322	 9.28006506736065E-03 
1323	 1.01508936605539E-02 
1324	 9.32584890327623E-03 
1325	 9.18856984889886E-03 
1326	 9.86052882047904E-03 
1327	 9.46534213995438E-03 
1328	 9.42585662709058E-03 
1329	 9.10871159731343E-03 
1330	 8.22596338289408E-03 
1331	 8.41507599309691E-03 
1332	 8.79426287592218E-03 
1333	 9.14342607086458E-03 
1334	 1.01496538011636E-02 
1335	 1.03446203790663E-02 
1336	 9.06643247123744E-03 
1337	 9.31366949033374E-03 
1338	 1.04171263867147E-02 
1339	 1.10266593306706E-02 
1340	 1.23577185514436E-02 
1341	 1.22758292399635E-02 
1342	 1.08077647491629E-02 
1343	 1.09621969400215E-02 
1344	 0.01105209188558 
1345	 0.010983750850687 
1346	 1.24460880062358E-02 
1347	 1.27391766947766E-02 
1348	 1.24828744469015E-02 
1349	 1.17903901727033E-02 
1350	 7.10540355364137E-03 
1351	 5.55982192403872E-03 
1352	 5.10250416065942E-03 
1353	 1.3037275757842E-03 
1354	 8.32081727152515E-03 
1355	 1.80023193925381E-02 
1356	 3.24888107083907E-02 
1357	 1.84299990466371E-02 
1358	-0.014272100639503 
1359	 0.109788424630213 
1360	 0.306519670656007 
1361	 0.442184053932567 
1362	 0.486366143089548 
1363	 0.393265496739747 
1364	 0.259149240430104 
1365	-0.020332275999608 
1366	-8.42957010557192E-02 
1367	 0.312050656585078 
1368	 0.373810211674319 
1369	 0.278718085623769 
1370	 0.414631071497664 
1371	 0.518825239163586 
1372	 0.445313587012053 
1373	 0.421312615623736 
1374	 0.822624356693507 
1375	 1.390721360041 
1376	 1.09678320516482 
1377	 1.25260080465824 
1378	 1.40711248037133 
1379	 0.778691460929613 
1380	 0.5375514166526 
1381	 0.26528747103916 
1382	 0.37850357130283 
1383	 1.68590478152386 
1384	 1.34368723935334 
1385	 1.12334836472178 
1386	 0.897031237407352 
1387	-0.540047018637986 
1388	-0.655242956332381 
1389	-0.469054411350772 
1390	-0.431678244643288 
1391	-0.436237705269772 
1392	-0.033351301439762 
1393	 0.204858686974643 
1394	 0.204587557984163 
1395	 0.486202122364817 
1396	 0.813219214793929 
1397	 0.820890297599317 
1398	 0.700111007555202 
1399	 1.13017629997867 
1400	 1.59360094599923 
1401	 2.6629041406407 
1402	 16.9309688880803 
1403	 1.06673274457782 
1404	 0.308552119463574 
1405	 0.249604691400318 
1406	 0.248547221097281 
1407	 0.133405022881339 
1408	 2.87665799996651E-02 
1409	 2.40264615959987E-02 
1410	-0.10448037399897 
1411	-6.94380261794746E-02 
1412	 0.1733314116649 
1413	 0.220777647558603 
1414	 0.175280493953849 
1415	 0.156747799054312 
1416	 0.166101661958903 
1417	 0.108492369012793 
1418	 1.67081780786053E-02 
1419	 7.72429875094882E-03 
1420	 6.71755490314348E-03 
1421	 5.71787585539363E-03 
1422	 4.20901652751344E-02 
1423	 3.49421125125778E-02 
1424	-2.88332159004822E-03 
1425	-3.20438583305837E-03 
1426	 1.32946791178277E-03 
1427	-4.19284293973024E-04 
1428	 1.06211432128427E-02 
1429	 1.81708553404944E-02 
1430	 2.09568999148435E-02 
1431	 1.82573120421026E-02 
1432	 8.39668900636068E-03 
1433	 1.09617982449235E-02 
1434	 1.60289019628784E-02 
1435	 2.03044217806851E-02 
1436	 4.10230991172701E-02 
1437	 4.83475455783383E-02 
1438	 0.039587631759998 
1439	 3.72731928599186E-02 
1440	 4.50153953410957E-02 
1441	 4.56697029574259E-02 
1442	 0.040440882153819 
1443	 0.03136150875464 
1444	 2.41285645536838E-02 
1445	 1.89040368768802E-02 
1446	 1.43600093630373E-02 
1447	 1.23264086045856E-02 
1448	 9.47057900051422E-03 
1449	 6.92708323473613E-03 
1450	 4.9431504917374E-03 
1451	 5.80914403051931E-03 
1452	 1.22992227044717E-02 
1453	 1.52436688648326E-02 
1454	 1.34120499520967E-02 
1455	 9.60012727936841E-03 
1456	 1.04343029593589E-02 
1457	 9.42094768905199E-03 
1458	 9.31280034744303E-03 
1459	 1.29124293958455E-02 
1460	 1.31769984895193E-02 
1461	 1.14853715191347E-02 
1462	 0.008743044284932 
1463	 3.94958245584209E-03 
1464	 3.26674024045949E-03 
1465	 7.72254801348915E-04 
1466	 1.88879850971293E-03 
1467	 1.23787522192138E-02 
1468	 1.48439579119812E-02 
1469	 1.18430859807754E-02 
1470	 1.29035456268455E-02 
1471	 1.45113218410239E-02 
1472	 1.28245229639107E-02 
1473	 1.02176932117795E-02 
1474	 1.11007500512887E-02 
1475	 1.05465766263426E-02 
1476	 9.92767122336355E-03 
1477	 1.43573819356785E-02 
1478	 1.42220956903312E-02 
1479	 8.36124726452053E-03 
1480	 7.15636854886765E-03 
1481	 8.24668282513381E-03 
1482	 7.63854439238864E-03 
1483	 6.58083341887066E-03 
1484	 7.64223013648196E-03 
1485	 1.01255133526338E-02 
1486	 9.8570922371042E-03 
1487	 9.19770194318839E-03 
1488	 9.23484221897484E-03 
1489	 8.23293669876968E-03 
1490	 7.42657871670011E-03 
1491	 7.34877397635252E-03 
1492	 7.40032275780107E-03 
1493	 7.26318488626843E-03 
1494	 6.65853817448962E-03 
1495	 5.45174638385855E-03 
1496	 5.8936809592631E-03 
1497	 7.16698526975156E-03 
1498	 7.31473511858461E-03 
1499	 8.52638572693654E-03 
1500	 8.86849566331997E-03 
1501	 6.99431640496243E-03 
1502	 6.62571024555454E-03 
1503	 7.42941671907259E-03 
1504	 7.53135415894114E-03 
1505	 7.5044690563001E-03 
1506	 7.85481737784422E-03 
1507	 7.80487425683566E-03 
1508	 7.37732067561056E-03 
1509	 7.38730980047076E-03 
1510	 7.62258993753935E-03 
1511	 7.34574719133047E-03 
1512	 7.29236166850154E-03 
1513	 7.19930894502646E-03 
1514	 6.58281643596748E-03 
1515	 6.63381073411535E-03 
1516	 7.26774833017698E-03 
1517	 7.62436183654143E-03 
1518	 7.76844247556656E-03 
1519	 7.85752106183088E-03 
1520	 7.56519226358043E-03 
1521	 6.88645649874037E-03 
1522	 7.00953531458262E-03 
1523	 7.48454664830251E-03 
1524	 7.18206950571565E-03 
1525	 7.26803592815092E-03 
1526	 7.58880287022509E-03 
1527	 6.92330097937355E-03 
1528	 6.49768336134168E-03 
1529	 6.80229590054986E-03 
1530	 6.65150903329802E-03 
1531	 6.83259704152915E-03 
1532	 7.32950297165669E-03 
1533	 6.84355869335239E-03 
1534	 6.80824141704806E-03 
1535	 7.27643733041913E-03 
1536	 6.88240876011504E-03 
1537	 6.71555812253868E-03 
1538	 6.87433363069155E-03 
1539	 6.49866087795436E-03 
1540	 6.3667689381805E-03 
1541	 6.70483431302199E-03 
1542	 6.87957940834842E-03 
1543	 6.70466161062552E-03 
1544	 6.35838196290345E-03 
1545	 6.3072716290397E-03 
1546	 6.3760937434019E-03 
1547	 6.39325745892088E-03 
1548	 6.57557127645338E-03 
1549	 6.88654284093799E-03 
1550	 6.88722181453906E-03 
1551	 6.53048277289582E-03 
1552	 6.52851458345553E-03 
1553	 6.69953952940385E-03 
1554	 6.54552193006938E-03 
1555	 6.52615056359993E-03 
1556	 6.61225975851756E-03 
1557	 6.48944530952554E-03 
1558	 6.6364328200974E-03 
1559	 6.91210965059084E-03 
1560	 7.15050751769825E-03 
1561	 7.20156596683666E-03 
1562	 6.58982963551844E-03 
1563	 5.85081467177523E-03 
1564	 5.98275534221716E-03 
1565	 6.95021279752781E-03 
1566	 7.23991050272802E-03 
1567	 6.95413556377582E-03 
1568	 7.06009112378297E-03 
1569	 6.71538838438547E-03 
1570	 6.33196287196475E-03 
1571	 6.97254051210868E-03 
1572	 7.34430042330129E-03 
1573	 6.79265543024472E-03 
1574	 6.8420787856943E-03 
1575	 0.007234385722606 
1576	 7.09128170110492E-03 
1577	 7.13195672406151E-03 
1578	 7.4166740078546E-03 
1579	 7.31702950841153E-03 
1580	 6.71575367156752E-03 
1581	 6.28689992285448E-03 
1582	 6.55166130971668E-03 
1583	 7.11554057557797E-03 
1584	 7.31396424848113E-03 
1585	 7.30632542743823E-03 
1586	 7.23710377196888E-03 
1587	 6.82799823946042E-03 
1588	 6.7566288456256E-03 
1589	 7.11463932344293E-03 
1590	 7.10023887237612E-03 
1591	 7.05725136471399E-03 
1592	 7.16565338971013E-03 
1593	 6.95147336732517E-03 
1594	 6.79162152629215E-03 
1595	 6.58036535685236E-03 
1596	 6.35347622249934E-03 
1597	 6.85662611107952E-03 
1598	 7.00420681774701E-03 
1599	 6.34443978156191E-03 
1600	 6.42132951154634E-03 
1601	 7.0932066766793E-03 
1602	 7.28632007243392E-03 
1603	 7.33294014440612E-03 
1604	 7.35343521955149E-03 
1605	 6.93917759486376E-03 
1606	 6.79072009338241E-03 
1607	 7.2533094693466E-03 
1608	 7.33377299434547E-03 
1609	 6.74655890854196E-03 
1610	 6.43888302679467E-03 
1611	 6.8478875312074E-03 
1612	 7.32055502350185E-03 
1613	 7.5493375207093E-03 
1614	 7.65235161463618E-03 
1615	 7.46485400379153E-03 
1616	 7.01453456954912E-03 
1617	 6.49530222057381E-03 
1618	 6.25755691633252E-03 
1619	 6.25405103575718E-03 
1620	 6.19334408394248E-03 
1621	 6.43962592327258E-03 
1622	 6.79628243727994E-03 
1623	 6.80908201129885E-03 
1624	 6.96887710631192E-03 
1625	 7.11717878706077E-03 
1626	 6.69172397601811E-03 
1627	 6.46502591916889E-03 
1628	 6.49424412039859E-03 
1629	 6.67408467205003E-03 
1630	 7.34999750717041E-03 
1631	 7.69343713787449E-03 
1632	 7.65909406734416E-03 
1633	 7.60007672435312E-03 
1634	 7.34762802971642E-03 
1635	 6.94522862638501E-03 
1636	 6.69120320242434E-03 
1637	 6.56774498820581E-03 
1638	 0.006644581482507 
1639	 7.03595423330386E-03 
1640	 6.98601476426769E-03 
1641	 6.89958165395771E-03 
1642	 6.8669565198131E-03 
1643	 6.48223147387106E-03 
1644	 6.59324338097774E-03 
1645	 6.83091933358603E-03 
1646	 6.68040447667683E-03 
1647	 6.6938792229853E-03 
1648	 6.91320139177297E-03 
1649	 6.86508730667298E-03 
1650	 6.51096377639071E-03 
1651	 6.79232275725609E-03 
1652	 7.21479546756851E-03 
1653	 6.97816684698474E-03 
1654	 7.21821259249862E-03 
1655	 7.5988812762467E-03 
1656	 7.26599265981098E-03 
1657	 6.6519567058886E-03 
1658	 6.82345364551831E-03 
1659	 6.88049921035478E-03 
1660	 6.81103630804992E-03 
1661	 7.54724353329217E-03 
1662	 7.71173720540176E-03 
1663	 6.92400387151069E-03 
1664	 6.7284766373114E-03 
1665	 7.33287993246017E-03 
1666	 7.0646756185785E-03 
1667	 5.73224266740805E-03 
1668	 6.29656889548994E-03 
1669	 6.81332213462034E-03 
1670	 7.03629125212615E-03 
1671	 7.81148867226237E-03 
1672	 7.54647430000498E-03 
1673	 6.89256999871576E-03 
1674	 7.47056243592011E-03 
1675	 7.75155557026043E-03 
1676	 7.22166553423072E-03 
1677	 6.89106653190362E-03 
1678	 6.28448533291713E-03 
1679	 5.55519273031385E-03 
1680	 6.00379289018114E-03 
1681	 6.78420286055664E-03 
1682	 6.73099575513895E-03 
1683	 6.97562893746354E-03 
1684	 7.13082996703197E-03 
1685	 6.40401710076059E-03 
1686	 6.60209916271224E-03 
1687	 7.3420447446097E-03 
1688	 7.34459342169441E-03 
1689	 7.18968042728584E-03 
1690	 6.52361185434367E-03 
1691	 6.5171458051809E-03 
1692	 7.49557703263296E-03 
1693	 7.73824476685393E-03 
1694	 7.65449303456169E-03 
1695	 7.02184404868028E-03 
1696	 6.0543274982293E-03 
1697	 6.3475797160335E-03 
1698	 7.33527094202735E-03 
1699	 7.47967471710477E-03 
1700	 7.13912642634304E-03 
1701	 6.9602386646593E-03 
1702	 6.87386264805377E-03 
1703	 7.22341552607246E-03 
1704	 7.6140069918388E-03 
1705	 7.87549192916103E-03 
1706	 7.60396757658266E-03 
1707	 6.57028002459305E-03 
1708	 6.30026362283861E-03 
1709	 6.61609587543309E-03 
1710	 6.78381651035615E-03 
1711	 7.48836493143537E-03 
1712	 7.97220595716874E-03 
1713	 6.69326919801748E-03 
1714	 6.31726646343477E-03 
1715	 6.19487921057252E-03 
1716	 5.98759800651328E-03 
1717	 6.34187054984194E-03 
1718	 0.00631645861279 
1719	 6.04519479525917E-03 
1720	 6.26280082257304E-03 
1721	 6.53017716790934E-03 
1722	 6.94668590340955E-03 
1723	 6.70387838261047E-03 
1724	 5.63804148480832E-03 
1725	 5.45598678245651E-03 
1726	 6.12919576254357E-03 
1727	 6.96132424120447E-03 
1728	 7.64717152195538E-03 
1729	 7.28056210472802E-03 
1730	 6.8931112768389E-03 
1731	 7.63964471745149E-03 
1732	 8.12239800387765E-03 
1733	 8.0129271659651E-03 
1734	 7.1516153986273E-03 
1735	 5.84585504181795E-03 
1736	 6.02410320306832E-03 
1737	 7.37672577666703E-03 
1738	 8.17894388613197E-03 
1739	 8.41663254177602E-03 
1740	 8.13211893469929E-03 
1741	 7.34762497833828E-03 
1742	 7.24010857427924E-03 
1743	 6.93081439184937E-03 
1744	 5.99992068735126E-03 
1745	 6.35321101049176E-03 
1746	 6.68209664361918E-03 
1747	 7.22149992198964E-03 
1748	 9.11482110034366E-03 
1749	 9.3477760039327E-03 
1750	 8.77286340791195E-03 
1751	 8.59281835283902E-03 
1752	 7.00855496158452E-03 
1753	 6.60047363789366E-03 
1754	 7.56534740054004E-03 
1755	 7.97390083558701E-03 
1756	 8.84332499176596E-03 
1757	 1.05078848409285E-02 
1758	 8.64818621253624E-03 
1759	 7.42061725872091E-03 
1760	 8.60564285757021E-03 
1761	 9.29310184069276E-03 
1762	 0.009756359126507 
1763	 9.20465148152902E-03 
1764	 7.48562226695007E-03 
1765	 6.51855074799026E-03 
1766	 7.20560090980418E-03 
1767	 9.6370901968244E-03 
1768	 1.05005385567163E-02 
1769	 8.25771514902795E-03 
1770	 7.0796492818577E-03 
1771	 6.37672820798031E-03 
1772	 4.74946151218115E-03 
1773	 4.84248423479478E-03 
1774	 6.39592511508082E-03 
1775	 7.95496643514076E-03 
1776	 8.91763770557833E-03 
1777	 9.7975330727007E-03 
1778	 1.02250426794775E-02 
1779	 1.08561899759948E-02 
1780	 1.04338259377625E-02 
1781	 8.67873076457271E-03 
1782	 7.32211387798406E-03 
1783	 3.75040637873621E-03 
1784	 2.79477927401553E-03 
1785	 3.79956710914342E-03 
1786	 5.39158879619262E-03 
1787	 9.56578852864793E-03 
1788	 1.11357298083641E-02 
1789	 1.32809731140204E-02 
1790	 1.26735652431659E-02 
1791	 9.48208161153043E-03 
1792	 7.68630317356742E-03 
1793	 6.11987434550657E-03 
1794	 1.43501981990628E-02 
1795	 2.43825028090434E-02 
1796	 0.018852665468769 
1797	 1.65229199508899E-02 
1798	 7.81959219811741E-03 
1799	-9.37687969143239E-03 
1800	 1.78964223178571E-02 
1801	 3.02833329139194E-02 
1802	 3.53737441003226E-02 
1803	 4.84605001672182E-02 
1804	 5.01067300463869E-02 
1805	 6.29000003537107E-02 
1806	 0.1086969047277 
1807	 0.130969536132913 
1808	 0.124863480782381 
1809	 0.13484488530976 
1810	 0.123881932227297 
1811	 0.109695874592936 
1812	 8.52272687927996E-02 
1813	 9.78495447081401E-02 
1814	 0.131364559202675 
1815	 0.137408183491087 
1816	 0.295097328377698 
1817	 0.717690477031127 
1818	 0.289444940905759 
1819	 0.337033196797113 
1820	 0.742946685572203 
1821	 0.390235427530265 
1822	 0.301303980670011 
1823	 1.33001552218851E-02 
1824	-9.51201517248405E-02 
1825	 0.460014396436959 
1826	 0.479040187058442 
1827	 1.38631507872394E-02 
1828	 9.48664466491024E-02 
1829	 1.10656807111207 
1830	 2.8761226909844 
1831	-0.182279859640406 
1832	-0.212485886146366 
1833	 0.28670027205123 
1834	 2.5216031514233 
1835	 1.58492375933621 
1836	 1.9713498607286 
1837	 0.430125719454815 
1838	 0.903581457238903 
1839	 2.84413612323093 
1840	 2.6456948575917 
1841	 5.96733443995999 
1842	-19.1798622530929 
1843	-3.53913848290479 
1844	-1.35879352493088 
1845	-1.18260632592738 
1846	-1.09906393092114 
1847	-1.29091235805712 
1848	-3.63572965481861 
1849	 5.38619869445856 
1850	 10.5844601137528 
1851	 24.890299542986 
1852	 109.839328043802 
1853	 36.5196701858868 
1854	 3.64345150564922 
1855	-1.28792801719263 
1856	-1.47364344987044 
1857	-1.83881923836728 
1858	-2.35454498149676 
1859	-3.99714765046142 
1860	-2.16140925028493 
1861	-0.454918815880549 
1862	 0.643743333986827 
1863	-0.846202028187355 
1864	-0.814194733036256 
1865	-1.12183941200283 
1866	-11.3433235148422 
1867	 11.2582115810384 
1868	 2.50987837457909 
1869	 0.621358695642227 
1870	 0.214145699560227 
1871	-6.40551648951641E-02 
1872	-0.558048714950789 
1873	-0.360296360535712 
1874	-0.102500351961023 
1875	-8.03110629290258E-02 
1876	-1.07456553109715E-02 
1877	 0.308945515027036 
1878	 0.558117430719788 
1879	 3.54344726103851 
1880	-1.18191209845432 
1881	 0.350435560884527 
1882	 0.251061431204892 
1883	 0.494718040730594 
1884	 3.17586321133915 
1885	-0.771711116512338 
1886	-7.57547274245072E-02 
1887	-0.211731105265024 
1888	 1.87683152063035 
1889	 3.26976446769349 
1890	 1.70189175188646 
1891	 1.97316627944928 
1892	-0.378612029585553 
1893	-2.15099873446248 
1894	-2.38132180750572 
1895	-0.555112981866393 
1896	-47.8753615320525 
1897	 4.1012344344368 
1898	 0.898364125009857 
1899	 0.865798756276588 
1900	 0.594805684363045 
1901	-0.293327045005975 
1902	-0.446046612177968 
1903	-0.386048944820189 
1904	 0.418082832664354 
1905	-5.08491473240954 
1906	-2.27836415076144 
1907	-5.04735498499973 
1908	-18.5208124249237 
1909	 3.93965580775612 
1910	 0.686672382131341 
1911	 0.384635598337872 
1912	 0.265131003817427 
1913	 0.317034212926471 
1914	 0.78285647804254 
1915	 1.11640758887314 
1916	-7.77324175645333 
1917	-0.265873266096045 
1918	 4.08011953730425E-02 
1919	 0.268373259578845 
1920	 0.1345465226175 
1921	 0.145034395398617 
1922	 2.39401146340314 
1923	 10.0572121695049 
1924	 0.784233535402029 
1925	 0.26931255301081 
1926	-9.20577780922261E-02 
1927	-0.964381730701584 
1928	-1.10571650834882 
1929	-1.21855261810539 
1930	-0.747167962219659 
1931	-0.142426652148863 
1932	-2.34080472325841E-04 
1933	-0.306298272764669 
1934	-0.147455407834256 
1935	-1.46317804736378E-02 
1936	-0.190077460363127 
1937	 4.49479481461959E-02 
1938	 8.18841476363082E-02 
1939	 0.144784714360527 
1940	 0.110680525615814 
1941	 0.235984596856837 
1942	 0.196171705114664 
1943	 8.25621296253634E-02 
1944	-6.36138242929412E-02 
1945	-0.13798678190095 
1946	-0.16611276389656 
1947	-0.154696922871279 
1948	-0.110207529365715 
1949	-8.57241878081401E-02 
1950	-0.122298789066884 
1951	-9.04735221847981E-02 
1952	-5.25398800081302E-02 
1953	-1.05178437787984E-02 
1954	-2.01479941531519E-02 
1955	 0.057483659499638 
1956	 9.11855055319638E-02 
1957	 5.16025359302326E-02 
1958	 5.63269552601053E-02 
1959	 3.14904305384568E-02 
1960	-6.16720938101398E-03 
1961	-7.73936504140519E-03 
1962	-2.33197516496503E-03 
1963	-7.10239973823488E-04 
1964	 1.16955141749807E-02 
1965	 1.39791599999212E-02 
1966	 9.69498898309306E-03 
1967	-3.22946492796123E-03 
1968	-3.46712836007477E-03 
1969	-5.53390706874495E-03 
1970	-5.83725916943825E-03 
1971	 2.1683451334306E-03 
1972	-1.0378197668761E-04 
1973	-3.74764220055389E-03 
1974	 1.60683411808319E-04 
1975	 3.42473647229586E-05 
1976	-6.64492318044062E-05 
1977	 3.20257303624839E-03 
1978	-2.78534151167548E-03 
1979	-3.58357351375701E-03 
1980	-4.7406392989446E-03 
1981	 1.47610706451061E-03 
1982	 2.89014161683656E-03 
1983	 7.26689369516773E-03 
1984	 9.51961538843442E-03 
1985	 2.84169929429391E-03 
1986	-1.91714377141756E-05 
1987	 1.52223925696415E-03 
1988	 2.35651783868636E-03 
1989	 1.74783001428751E-03 
1990	-7.01947411273217E-04 
1991	-1.82658264570751E-03 
1992	-9.15043030343879E-04 
1993	-1.7241158256813E-03 
1994	-2.79588318452415E-03 
1995	-2.65700535767406E-03 
1996	-3.95883750909979E-03 
1997	-6.72757671880579E-03 
1998	-4.07827550716562E-03 
1999	-1.32642519390591E-03 
2000	-3.74640323884527E-03 
2001	-9.71358413156578E-03 
2002	-1.70464523158006E-02 
2003	-1.42975307457363E-02 
2004	-1.00047347872652E-02 
2005	-1.17771353430375E-02 
2006	-1.09597365376084E-02 
2007	-1.63596760360629E-02 
2008	-2.25447598261927E-02 
2009	-0.022852477672734 
2010	-0.017512767049566 
2011	-1.63593387984401E-02 
2012	-1.41986903113781E-02 
2013	-1.03737686429326E-02 
2014	-1.30672905604966E-02 
2015	-1.39137900666925E-02 
2016	-8.27617349392676E-03 
2017	-4.58144090578746E-03 
2018	 3.41494956997905E-04 
2019	 3.24648930570309E-03 
2020	 4.3898512169391E-03 
2021	 5.90915214470664E-03 
2022	 5.65136028220482E-03 
2023	 4.77090348237442E-03 
2024	 6.77253471782781E-03 
2025	 1.13776913546295E-02 
2026	 1.26920108858458E-02 
2027	 0.013409389149593 
2028	 1.53759710856569E-02 
2029	 1.83155572327214E-02 
2030	 1.71968607045282E-02 
2031	 1.42880186070682E-02 
2032	 1.21041031364217E-02 
2033	 7.89461194906876E-03 
2034	 3.35180473291653E-03 
2035	 4.52539899194583E-03 
2036	 8.60039191685281E-03 
2037	 1.02753399849035E-02 
2038	 1.03556174775153E-02 
2039	 1.03173516533142E-02 
2040	 8.13724427263356E-03 
2041	 7.12340927421921E-03 
2042	 6.70247003468679E-03 
2043	 6.82415835291792E-03 
2044	 7.2341290238638E-03 
2045	 7.84033918463808E-03 
2046	 8.89803734215636E-03 
2047	 7.95426171428363E-03 
2048	 7.38060647729638E-03 
2049	 7.26839169429831E-03 
2050	 5.8641105157212E-03 
2051	 5.63228929259207E-03 
2052	 5.21339728049485E-03 
2053	 2.93681451504271E-03 
2054	 2.61935238594232E-03 
2055	 5.52244839772869E-03 
2056	 7.05506192374561E-03 
2057	 1.07931644856719E-02 
2058	 9.92320922059717E-03 
2059	 4.35995435902872E-03 
2060	 2.93134027822683E-03 
2061	 1.55705619703989E-04 
2062	 6.01714281678531E-04 
2063	 4.92253396064132E-03 
2064	 9.1030070944931E-03 
2065	 1.13518168947051E-02 
2066	 1.11802577422205E-02 
2067	 9.31490711634115E-03 
2068	 9.17005948711551E-03 
2069	 8.56400084225023E-03 
2070	 7.55248946835709E-03 
2071	 8.70413834117894E-03 
2072	 9.99988453145893E-03 
2073	 8.54387849628926E-03 
2074	 4.15986582659878E-03 
2075	 3.61598355195456E-03 
2076	 2.32905837784058E-03 
2077	 1.46400435523122E-03 
2078	 0.003756167056292 
2079	 4.47458676249015E-03 
2080	 3.51445257877767E-03 
2081	 4.74885977981834E-03 
2082	 5.91362697495427E-03 
2083	 4.98561533580875E-03 
2084	 4.42302682828008E-03 
2085	 5.19661443535932E-03 
2086	 4.76430892574896E-03 
2087	 5.25376747812569E-03 
2088	 7.11995324978471E-03 
2089	 6.50449073052666E-03 
2090	 6.24327103720906E-03 
2091	 7.15288575491208E-03 
2092	 6.99396032996779E-03 
2093	 5.99859766248841E-03 
2094	 5.15571504791523E-03 
2095	 3.52520367618771E-03 
2096	 2.91368976409506E-03 
2097	 3.10753976666278E-03 
2098	 2.0896383040785E-03 
2099	 2.48149674321255E-04 
2100	 6.76622971432148E-04 
2101	-2.51585873133432E-04 
2102	-3.88577681829027E-04 
2103	 2.85455893472981E-03 
2104	 4.47328260227066E-03 
2105	 5.46141393940312E-03 
2106	 7.60799898517402E-03 
2107	 8.96346949543537E-03 
2108	 8.69172983380799E-03 
2109	 7.14660655399757E-03 
2110	 7.22457416310877E-03 
2111	 9.0850226604474E-03 
2112	 8.93556913997486E-03 
2113	 8.59522480734538E-03 
2114	 8.86134062492805E-03 
2115	 8.80516064758768E-03 
2116	 7.71852992662176E-03 
2117	 6.5340279626533E-03 
2118	 5.00029644312303E-03 
2119	 4.7949178351185E-03 
2120	 4.28203340387794E-03 
2121	 3.69903223845972E-03 
2122	 5.5341445868954E-03 
2123	 6.70550765385197E-03 
2124	 4.75390452964187E-03 
2125	 2.29803910185594E-03 
2126	 2.63741233590616E-03 
2127	 4.54573683045005E-03 
2128	 4.61257959291072E-03 
2129	 5.88374924553297E-03 
2130	 6.70236274192029E-03 
2131	 4.45501496226924E-03 
2132	 5.61097641883561E-03 
2133	 8.15100031459207E-03 
2134	 8.04868677872396E-03 
2135	 6.66004932222985E-03 
2136	 5.9903511655875E-03 
2137	 2.41121358355514E-03 
2138	 2.57575236700166E-03 
2139	 6.6420279544492E-03 
2140	 7.77368336434033E-03 
2141	 9.0981810774437E-03 
2142	 1.03289341466262E-02 
2143	 1.11652482369672E-02 
2144	 9.20904921281438E-03 
2145	 8.29595284005918E-03 
2146	 8.80248385999204E-03 
2147	 8.46958612464445E-03 
2148	 8.59357128919634E-03 
2149	 8.71765163258308E-03 
2150	 7.75836131172138E-03 
2151	 7.09106480730246E-03 
2152	 5.0405921564546E-03 
2153	 4.48062402733915E-03 
2154	 6.19373313608772E-03 
2155	 7.2322826060357E-03 
2156	 8.6107733225989E-03 
2157	 8.4022727544649E-03 
2158	 8.15532089815567E-03 
2159	 6.94868528667295E-03 
2160	 2.32227081097019E-03 
2161	 1.62300940957134E-03 
2162	 2.61049659002049E-03 
2163	 0.002993266056253 
2164	 5.64547574151069E-03 
2165	 6.37312718056091E-03 
2166	 5.90744890242421E-03 
2167	 6.51100605121531E-03 
2168	 6.7820432750757E-03 
2169	 7.19284594488552E-03 
2170	 8.90808478605545E-03 
2171	 8.65633781341111E-03 
2172	 7.68760766144585E-03 
2173	 6.2994962937128E-03 
2174	 3.5903199815423E-03 
2175	 2.84676291369615E-03 
2176	 2.22057407760141E-03 
2177	 1.02718356456244E-03 
2178	 4.40625562491145E-04 
2179	-8.09147859092817E-04 
2180	-6.43278989753707E-04 
2181	 1.04294803199564E-03 
2182	 1.22944630583435E-03 
2183	 2.07471335318936E-03 
2184	 3.83183483643157E-03 
2185	 1.49664786048448E-03 
2186	 1.52718964041486E-03 
2187	 4.37080202481719E-03 
2188	 5.12362521614282E-03 
2189	 4.76345844536351E-03 
2190	 4.59851172196588E-03 
2191	 4.30886208848785E-03 
2192	 3.03835512823146E-03 
2193	 9.93290512643901E-05 
2194	-1.36296446649439E-03 
2195	-3.57489221292514E-03 
2196	-3.40959316680824E-03 
2197	 1.2680154542503E-04 
2198	 1.18397464635216E-03 
2199	 3.50951032325568E-03 
2200	 2.85228891201405E-03 
2201	 4.79137951654038E-04 
2202	 1.17914508440675E-04 
2203	 3.13713294620212E-03 
2204	 6.35880676623202E-03 
2205	 1.08047612036521E-02 
2206	 1.52929121088469E-02 
2207	 1.75166562775914E-02 
2208	 2.10427050384492E-02 
2209	 2.03084619051146E-02 
2210	 0.016306883609402 
2211	 1.29811434434736E-02 
2212	 9.32954357861181E-03 
2213	 7.66739136321781E-03 
2214	 8.34919282516448E-03 
2215	 9.66312751564403E-03 
2216	 9.24399539983299E-03 
2217	 9.02859151533937E-03 
2218	 8.08075525162604E-03 
2219	 7.37240151171972E-03 
2220	 8.32029015767018E-03 
2221	 6.01663927919236E-03 
2222	-2.7415198480845E-04 
2223	-2.00539274045909E-03 
2224	-2.65326266453709E-03 
2225	-3.3824170228791E-03 
2226	-1.74369783183572E-03 
2227	-6.06544152499413E-04 
2228	-1.61552443470485E-03 
2229	-7.60307317001499E-04 
2230	 4.33423735889348E-03 
2231	 5.74169244586041E-03 
2232	 5.08433899744755E-03 
2233	 4.66178000065181E-03 
2234	 1.85574075487175E-03 
2235	 1.59835531379174E-03 
2236	-2.83068295555716E-04 
2237	-1.6806959801668E-03 
2238	-3.08456986291073E-03 
2239	-6.22302845666628E-03 
2240	-6.59403004058768E-03 
2241	-4.75269378531375E-03 
2242	-4.46281287909526E-03 
2243	-3.3972135030157E-03 
2244	-7.28113265166442E-04 
2245	 1.41488847058039E-03 
2246	 4.77880245304714E-03 
2247	 9.10078359155085E-03 
2248	 1.28427108464812E-02 
2249	 1.02532403944639E-02 
2250	 6.32818012133016E-03 
2251	 3.64626376198585E-03 
2252	-1.06844354412482E-03 
2253	 3.19322592087034E-04 
2254	 2.03428312845352E-03 
2255	 2.31435999491581E-03 
2256	 1.99141799794543E-03 
2257	 9.60320916353734E-04 
2258	 2.14984443242299E-03 
2259	 4.77497370960572E-04 
2260	-1.10696824896462E-03 
2261	-5.21377848965517E-03 
2262	-4.22283664158801E-03 
2263	-1.14316167668733E-03 
2264	 2.4028506071134E-03 
2265	 1.28002694368392E-02 
2266	 1.52115920529119E-02 
2267	 1.25777140634337E-02 
2268	 1.23876934061448E-02 
2269	 9.73056385151652E-03 
2270	 7.52737462072483E-03 
2271	 5.22524452971087E-03 
2272	 0.002867707213159 
2273	-2.82271059308324E-04 
2274	-2.4578293190042E-03 
2275	-2.00389596185017E-03 
2276	-2.08228264683847E-03 
2277	-5.15122396549731E-03 
2278	-4.9501241802652E-03 
2279	-1.49914630072606E-03 
2280	 6.97958226901119E-04 
2281	 4.01955059926607E-03 
2282	 7.97479324192691E-03 
2283	 7.93018134607733E-03 
2284	 5.24909946611183E-03 
2285	 7.78403654540193E-03 
2286	 6.46979332121975E-03 
2287	 1.71794176890166E-03 
2288	 3.73631485174475E-03 
2289	 3.32890388389797E-04 
2290	-1.16313167669793E-03 
2291	 6.04256686297281E-03 
2292	 2.11853665817981E-03 
2293	-4.09589063749727E-03 
2294	-4.55924686369394E-03 
2295	-5.47288170789938E-03 
2296	-3.41113620945721E-03 
2297	 2.78469054291524E-03 
2298	 6.52077883664686E-03 
2299	 5.73959732014602E-03 
2300	 7.72872782078121E-03 
2301	 2.02491343444522E-03 
2302	-8.09180601079572E-03 
2303	-8.68896320789129E-03 
2304	-1.01390194392742E-02 
2305	-1.08709230096251E-02 
2306	-4.36176396453207E-03 
2307	 1.24906893303166E-03 
2308	 1.21876454690182E-03 
2309	 4.44792592454022E-03 
2310	 7.07703660870673E-03 
2311	 2.70637520448561E-03 
2312	 5.27165099739063E-03 
2313	 1.03530632063404E-02 
2314	 1.03371096638039E-02 
2315	 0.011963429866194 
2316	 5.22178848985586E-03 
2317	-4.96222020234967E-03 
2318	-8.33106201263943E-03 
2319	-1.80400606189762E-02 
2320	-2.50194766143519E-02 
2321	-2.75154427593326E-02 
2322	-2.82090736952127E-02 
2323	-2.23235051000515E-02 
2324	-1.65451629878608E-02 
2325	-1.14829714138661E-03 
2326	 1.83265719909527E-03 
2327	-1.16822781288343E-02 
2328	-9.9872083927824E-03 
2329	-1.15498540891476E-02 
2330	-1.39603853246203E-02 
2331	-5.85185597634379E-03 
2332	-9.03982163246493E-03 
2333	-1.31241841398178E-02 
2334	-7.95456084479589E-03 
2335	 9.81429962528371E-03 
2336	 0.033756687194797 
2337	 4.29685652998099E-02 
2338	 4.76691044021514E-02 
2339	 4.45368259474177E-02 
2340	 2.70848804242634E-02 
2341	 1.67455979366082E-02 
2342	 0.023128432883574 
2343	 0.027954657433185 
2344	 2.00303159519286E-02 
2345	 1.48356419131386E-02 
2346	-6.85502507487246E-04 
2347	-3.16463361904038E-02 
2348	-3.41494472678286E-02 
2349	-2.58535345447097E-02 
2350	-2.49606714869088E-02 
2351	-1.06555497793185E-02 
2352	-1.19961330847824E-02 
2353	-2.29640041704502E-02 
2354	-0.040631134608116 
2355	-3.85263221264953E-02 
2356	-0.030354902031436 
2357	-4.17038987206099E-02 
2358	-2.42663253861052E-02 
2359	-0.023730572476881 
2360	-2.57848982979983E-02 
2361	-6.86335459961431E-03 
2362	-0.026442087459246 
2363	-3.68729911012774E-02 
2364	-2.47573685581425E-02 
2365	-0.041118107643149 
2366	-6.65544212159897E-02 
2367	-7.03758680573019E-02 
2368	-6.83013127581371E-02 
2369	-4.58929289862779E-02 
2370	 8.88559462345892E-04 
2371	-5.97792770394805E-03 
2372	-4.86022894833628E-02 
2373	-8.14072290836217E-02 
2374	-0.136226666462694 
2375	-0.123675660628775 
2376	-8.25194381426386E-02 
2377	-9.08171837577179E-02 
2378	-8.62542170408217E-02 
2379	-6.36145280752723E-02 
2380	-4.74136976472457E-02 
2381	-2.97801941306456E-02 
2382	-5.88149209823787E-03 
2383	-1.92402185837142E-02 
2384	-8.84761268477441E-02 
2385	-8.72180292420891E-02 
2386	-7.50091822083575E-02 
2387	-7.80970839027416E-02 
2388	-6.01573607022307E-03 
2389	-9.76212475932994E-04 
2390	 1.22941411699895E-02 
2391	 3.36109129708189E-02 
2392	-1.86345181975903E-02 
2393	 9.61212189965566E-03 
2394	 2.45550578190489E-02 
2395	-4.46870674859738E-02 
2396	-5.20672972390033E-02 
2397	-4.68836756790133E-02 
2398	-0.103300917839306 
2399	-0.164348954434988 
2400	-0.215646562007368 
2401	-0.283814375366392 
2402	-0.306724757781671 
2403	-0.218116879584623 
2404	-8.56999167069155E-02 
2405	-5.88968524317295E-02 
2406	-6.51557255573689E-02 
2407	-1.85471462767101E-02 
2408	-2.05387777307119E-02 
2409	-3.47098052920613E-02 
2410	-3.90362824995438E-02 
2411	-0.336597346977329 
2412	-0.766802319719407 
2413	-0.727431059041778 
2414	-0.803275716931071 
2415	-0.919334216758016 
2416	-0.57309746795291 
2417	-0.575086805523959 
2418	-0.629096384637827 
2419	-0.358633533680582 
2420	-0.198117057704132 
2421	-0.100699214007116 
2422	-0.020811005488512 
2423	-4.18409106756143E-02 
2424	-0.287182332656344 
2425	-0.44753480385065 
2426	-0.472395939529537 
2427	-0.23945781363152 
2428	 2.80307065071033E-02 
2429	 1.52516992933168E-02 
2430	-6.77334932856983E-02 
2431	-0.103247607380127 
2432	-0.172093597509241 
2433	-0.177791898022434 
2434	-0.208904137184193 
2435	-0.235952797164705 
2436	-0.121206218596618 
2437	-8.01669288234443E-02 
2438	-0.14751377026358 
2439	-0.374348589672596 
2440	-0.547580343357086 
2441	-0.502839430135222 
2442	-0.531330277852236 
2443	-0.606551621845136 
2444	-0.527195771816517 
2445	-0.877163817301393 
2446	-1.14415062672132 
2447	-0.803293021129589 
2448	-0.940914531114245 
2449	-0.776229157231298 
2450	-0.735277470416682 
2451	-3.53554876187416 
2452	 21.5794137327371 
2453	-1.34416868465312 
2454	-1.60341430740293 
2455	-1.00997782276296 
2456	-1.24177554827346 
2457	 16.8530048678376 
2458	 15.6907121089543 
2459	 9.83548980294469 
2460	 55.2040471209274 
2461	-35.409569340512 
2462	-12.0058216504971 
2463	-3.66727362984407 
2464	-1.79457737135989 
2465	-0.907732058926546 
2466	-1.33744103842783 
2467	-13.350649037757 
2468	-42.6416471364974 
2469	-3.24713027405087 
2470	-9.44335092511467 
2471	-10.4002306722608 
2472	-6.43022296290273 
2473	 2.00136741136021 
2474	 0.803947501918961 
2475	 0.979378515776002 
2476	 1.161583971748 
2477	 1.63492612017525 
2478	-4.66910194555514 
2479	-1.62351700333749 
2480	-1.46555150557103 
2481	-1.64705918769276 
2482	-2.16147057084751 
2483	 2.39843205556494 
2484	 1.26154968085967 
2485	 1.84713260828703 
2486	 1.47666804325473 
2487	 2.64913433749775 
2488	 21.0458981086821 
2489	 10.7780296677752 
2490	 26.5412566222832 
2491	-0.28317631469235 
2492	 1.20309637918457 
2493	-3.47458003896297E-02 
2494	-0.549094694697233 
2495	-1.39782927007235 
2496	-0.427659336653847 
2497	-0.301618920689118 
2498	 1.09231233806112 
2499	 0.333107973861806 
2500	 0.602262947372579 
