Wavelength	rt0714yellow00001.asd
350	 5.14394568665401E-02 
351	 5.05050195213782E-02 
352	 5.06643273474098E-02 
353	 5.14023729090517E-02 
354	 5.19075291409294E-02 
355	 5.17161692456394E-02 
356	 0.051492526311251 
357	 5.16788206730212E-02 
358	 5.22914913734239E-02 
359	 5.19898456925116E-02 
360	 5.18818042663593E-02 
361	 5.22742453357061E-02 
362	 0.052795156347428 
363	 5.27239637038809E-02 
364	 5.29156652142854E-02 
365	 5.34455233932365E-02 
366	 5.29108472523665E-02 
367	 5.32275725140427E-02 
368	 0.053959644218161 
369	 5.42799593025709E-02 
370	 5.43272460077617E-02 
371	 5.46380236016968E-02 
372	 5.47466911651193E-02 
373	 0.053925132129495 
374	 5.45260644562494E-02 
375	 5.54085727734105E-02 
376	 5.59235111927119E-02 
377	 5.66189673004606E-02 
378	 5.65168922114836E-02 
379	 5.65967817117857E-02 
380	 5.75604562595285E-02 
381	 5.77365432019009E-02 
382	 0.058650622256831 
383	 0.059703953767195 
384	 5.96579470052719E-02 
385	 6.06399758963427E-02 
386	 6.04106296596402E-02 
387	 5.95314370907017E-02 
388	 6.17650981227913E-02 
389	 0.062966962305329 
390	 6.30903905260346E-02 
391	 6.30649271481527E-02 
392	 6.40219926648109E-02 
393	 6.48009084054433E-02 
394	 6.52946998408312E-02 
395	 6.58118503029538E-02 
396	 6.65306642373576E-02 
397	 6.69652237820978E-02 
398	 6.70274418777398E-02 
399	 6.70170281279742E-02 
400	 0.067643187702651 
401	 6.83782935061471E-02 
402	 6.88233678221035E-02 
403	 6.92953968477895E-02 
404	 6.96917313752365E-02 
405	 6.99238618624387E-02 
406	 7.00804888386715E-02 
407	 7.12578464513927E-02 
408	 7.20329146975942E-02 
409	 7.21984106546769E-02 
410	 7.28347534646392E-02 
411	 7.34502602958855E-02 
412	 7.39265742529946E-02 
413	 7.43323627710025E-02 
414	 7.50289728284242E-02 
415	 7.58007855423402E-02 
416	 7.65156612271884E-02 
417	 7.71073573818515E-02 
418	 7.76707197559362E-02 
419	 7.84003262908853E-02 
420	 7.92261298302082E-02 
421	 0.079812165551279 
422	 8.05457189123375E-02 
423	 8.13939703966947E-02 
424	 0.082232355641103 
425	 8.29079088310276E-02 
426	 8.38408568521938E-02 
427	 8.49571596906028E-02 
428	 8.59645292331717E-02 
429	 8.69950662226726E-02 
430	 8.80806023968822E-02 
431	 8.92242296821707E-02 
432	 9.04112695373493E-02 
433	 9.14385438515711E-02 
434	 9.23650718946431E-02 
435	 9.33153322302148E-02 
436	 0.094400784064356 
437	 9.56241770307082E-02 
438	 0.096780902845279 
439	 9.76405153229308E-02 
440	 9.88458604012191E-02 
441	 9.99696977800978E-02 
442	 0.100834572589956 
443	 0.101798854955591 
444	 0.102759570803066 
445	 0.103543197808195 
446	 0.104118093136915 
447	 0.105097222181158 
448	 0.105933860962328 
449	 0.106579440050342 
450	 0.107340102953713 
451	 0.107790063588955 
452	 0.108310215778822 
453	 0.109047078812529 
454	 0.109424199761426 
455	 0.109901464309006 
456	 0.110414776614089 
457	 0.110775750048735 
458	 0.111183571239961 
459	 0.11158432252371 
460	 0.111972718790887 
461	 0.112397768738506 
462	 0.112778423849523 
463	 0.113150535358924 
464	 0.113527002868308 
465	 0.113763692007434 
466	 0.114198734087751 
467	 0.114699478349892 
468	 0.114971040967343 
469	 0.115443460806046 
470	 0.115789838074784 
471	 0.116019789546045 
472	 0.116672426646817 
473	 0.117177572106489 
474	 0.117623107393702 
475	 0.118180050711039 
476	 0.118676553956362 
477	 0.11907802856329 
478	 0.119515338909236 
479	 0.12019034279424 
480	 0.120746321897242 
481	 0.121200763565056 
482	 0.121751173017965 
483	 0.122904525387222 
484	 0.123528338088048 
485	 0.123964637214114 
486	 0.124905967345174 
487	 0.125646375371169 
488	 0.126343246355648 
489	 0.127147992859236 
490	 0.128149471369642 
491	 0.12911925349396 
492	 0.13001244516853 
493	 0.130874696975593 
494	 0.131920917150875 
495	 0.13278895041371 
496	 0.133633932051718 
497	 0.134811817343115 
498	 0.135924950539163 
499	 0.136937158693132 
500	 0.13794121395 
501	 0.139171003371232 
502	 0.140235187146521 
503	 0.141262587370633 
504	 0.142446740964401 
505	 0.143580104450983 
506	 0.144716511665578 
507	 0.145884252658299 
508	 0.147079173167546 
509	 0.148197645276345 
510	 0.149386332151657 
511	 0.150677107854608 
512	 0.151744056392409 
513	 0.152791517304986 
514	 0.15397086936202 
515	 0.155358457318795 
516	 0.156704637788132 
517	 0.158024915491242 
518	 0.159329263125275 
519	 0.160595592298613 
520	 0.161861966093381 
521	 0.163079685242249 
522	 0.164234525260917 
523	 0.16545257936558 
524	 0.166830166969238 
525	 0.168251152371214 
526	 0.169484856387675 
527	 0.17078866792116 
528	 0.17214803783349 
529	 0.173483213109374 
530	 0.174661076668578 
531	 0.175856868700508 
532	 0.177148939335718 
533	 0.178532679888349 
534	 0.17980146306552 
535	 0.180939432079602 
536	 0.182075848238786 
537	 0.183470077154095 
538	 0.184814116639744 
539	 0.186096893817151 
540	 0.187350197071005 
541	 0.188478688606151 
542	 0.189688925818678 
543	 0.190988498733113 
544	 0.192252555588468 
545	 0.193335544461739 
546	 0.194403514117813 
547	 0.195551011673607 
548	 0.196662021449757 
549	 0.197739837801077 
550	 0.198804385099146 
551	 0.199879020227308 
552	 0.200928996482413 
553	 0.201984009734065 
554	 0.203022228000354 
555	 0.203956633368882 
556	 0.204874041351156 
557	 0.205827050473622 
558	 0.206820411744475 
559	 0.20779714257007 
560	 0.208593624792961 
561	 0.20929135656338 
562	 0.210113155377868 
563	 0.210938003556142 
564	 0.211701678080755 
565	 0.212390674757961 
566	 0.213074497020974 
567	 0.213825987544594 
568	 0.214474796179895 
569	 0.21486624257425 
570	 0.215512708590284 
571	 0.216034670063268 
572	 0.216375548563122 
573	 0.21687419175583 
574	 0.21735624543173 
575	 0.217721986579915 
576	 0.217976742058824 
577	 0.218433415623313 
578	 0.218764568385119 
579	 0.2189995922964 
580	 0.2193571473721 
581	 0.219557865825669 
582	 0.219717165509093 
583	 0.219904091252137 
584	 0.220009992607116 
585	 0.220134675357285 
586	 0.220235824445032 
587	 0.220241776439254 
588	 0.220229027037402 
589	 0.220184930047989 
590	 0.22016569655903 
591	 0.220284227934185 
592	 0.22025754944363 
593	 0.22015281978712 
594	 0.220042526786571 
595	 0.219767327789045 
596	 0.219513450606478 
597	 0.219248210457261 
598	 0.218845315502018 
599	 0.218567238544333 
600	 0.218304971330448 
601	 0.218037298693757 
602	 0.217978712088549 
603	 0.217950073925849 
604	 0.217818381531267 
605	 0.217549545481819 
606	 0.217499700560152 
607	 0.217573739112874 
608	 0.217611178434321 
609	 0.217424535360561 
610	 0.217320748627213 
611	 0.217294731190461 
612	 0.217292493832195 
613	 0.217346432223714 
614	 0.217298002354604 
615	 0.21717715434555 
616	 0.217117336905159 
617	 0.217072782011702 
618	 0.217053767304788 
619	 0.217035423878417 
620	 0.21692055655687 
621	 0.216977859354889 
622	 0.217066988374682 
623	 0.216965386610006 
624	 0.216747623690847 
625	 0.216677271308876 
626	 0.216751149322695 
627	 0.216713909145611 
628	 0.216686352390551 
629	 0.216593202935931 
630	 0.216459339868928 
631	 0.216707987842088 
632	 0.216602682033197 
633	 0.21632898597954 
634	 0.216420437893664 
635	 0.216309790850424 
636	 0.216255264343706 
637	 0.216341506323486 
638	 0.216303671281323 
639	 0.216097726740489 
640	 0.215930888539063 
641	 0.215963699303965 
642	 0.215830289023621 
643	 0.215608708899687 
644	 0.215411230327728 
645	 0.215351537087998 
646	 0.215108723953086 
647	 0.214909233581416 
648	 0.214902110663085 
649	 0.21485108224522 
650	 0.214518378280627 
651	 0.214065060114591 
652	 0.213776741593763 
653	 0.21344774473603 
654	 0.213195136229178 
655	 0.212899511142974 
656	 0.212155172867269 
657	 0.211875851706103 
658	 0.211600350434339 
659	 0.210928519004992 
660	 0.21055506184663 
661	 0.210192921478752 
662	 0.209826779428535 
663	 0.209603863869 
664	 0.209469283218893 
665	 0.209265469139882 
666	 0.208947540313881 
667	 0.208682523606241 
668	 0.208595617107752 
669	 0.208571980551115 
670	 0.208461698866396 
671	 0.208413997323393 
672	 0.208403653600205 
673	 0.208408575063444 
674	 0.208417417353352 
675	 0.208416625025482 
676	 0.20850024779155 
677	 0.208695131811606 
678	 0.208810393240918 
679	 0.208948300822854 
680	 0.209194337924111 
681	 0.209576625897923 
682	 0.209769825340233 
683	 0.210047752000817 
684	 0.210469401495032 
685	 0.210773117246017 
686	 0.211171268525205 
687	 0.211664386320931 
688	 0.212185569871271 
689	 0.212887187177612 
690	 0.213164026303189 
691	 0.213241284465662 
692	 0.213755968356401 
693	 0.213902409873623 
694	 0.214123308505353 
695	 0.214538811911419 
696	 0.214510291188478 
697	 0.214707253491046 
698	 0.214781432829301 
699	 0.214308642385632 
700	 0.214143452416858 
701	 0.214126091116446 
702	 0.214097309960564 
703	 0.213939259465084 
704	 0.213554250615564 
705	 0.213066507691717 
706	 0.212560198883094 
707	 0.211896815085761 
708	 0.211441168796357 
709	 0.21095510773605 
710	 0.21008697967397 
711	 0.209234555525059 
712	 0.208370537897138 
713	 0.207456633912114 
714	 0.206444467032421 
715	 0.205394995315387 
716	 0.204324415151007 
717	 0.20328015502108 
718	 0.202033628950888 
719	 0.200861968797427 
720	 0.199830205541972 
721	 0.198723013652672 
722	 0.197773198825014 
723	 0.196637443855363 
724	 0.195352130962378 
725	 0.194200943535243 
726	 0.192820192183743 
727	 0.191532273495107 
728	 0.190484581492318 
729	 0.1887665176222 
730	 0.187322986637078 
731	 0.186157483160829 
732	 0.184855571654282 
733	 0.183924133337111 
734	 0.183079972721962 
735	 0.182268286368761 
736	 0.181773825438077 
737	 0.181308157317699 
738	 0.18093332342443 
739	 0.180719241380969 
740	 0.180459634359722 
741	 0.180377193528893 
742	 0.180384285889705 
743	 0.18025514357731 
744	 0.180088765680137 
745	 0.180090683369712 
746	 0.180185349826959 
747	 0.179914190091776 
748	 0.179958828994959 
749	 0.179992442774937 
750	 0.179707357103389 
751	 0.17973118710022 
752	 0.179785461803782 
753	 0.17974710977781 
754	 0.179611200804137 
755	 0.179553610875048 
756	 0.179626980008485 
757	 0.179729925948215 
758	 0.179494840893989 
759	 0.179090600020023 
760	 0.179065980849223 
761	 0.17966099905211 
762	 0.179503599167528 
763	 0.179523345681679 
764	 0.179636771538527 
765	 0.179524102482436 
766	 0.179306272508057 
767	 0.179354631324985 
768	 0.179622989131226 
769	 0.179693583389756 
770	 0.179649554777216 
771	 0.179552896018174 
772	 0.179495756293024 
773	 0.179646359064032 
774	 0.179797491223154 
775	 0.1798644463454 
776	 0.179884416042582 
777	 0.180257046318396 
778	 0.180448683365626 
779	 0.180378062974096 
780	 0.180472676834608 
781	 0.180511060550832 
782	 0.180673819445379 
783	 0.181008302566278 
784	 0.1811198834296 
785	 0.181171224443933 
786	 0.18127348129759 
787	 0.181494881899266 
788	 0.181748148442112 
789	 0.181921304476314 
790	 0.182082279110454 
791	 0.182408396318759 
792	 0.182539434618982 
793	 0.182791166701583 
794	 0.18317500539837 
795	 0.183046309421195 
796	 0.183225096255245 
797	 0.183508621791225 
798	 0.183611170167475 
799	 0.183997545512125 
800	 0.184262954259585 
801	 0.184332794595343 
802	 0.184328620303175 
803	 0.184156884287707 
804	 0.184270504049649 
805	 0.184581955933464 
806	 0.18442081424833 
807	 0.184593706298719 
808	 0.184521251730188 
809	 0.183940557231043 
810	 0.184152849698487 
811	 0.183754721583049 
812	 0.183145403468941 
813	 0.18324465849882 
814	 0.182992762300993 
815	 0.182867771782895 
816	 0.182663290713268 
817	 0.181772015523298 
818	 0.181335234084176 
819	 0.181307738632836 
820	 0.181235170744333 
821	 0.180332221703582 
822	 0.179416493392892 
823	 0.178784006929509 
824	 0.178298433934087 
825	 0.177228457503373 
826	 0.175978130746628 
827	 0.174774599618768 
828	 0.173821399999693 
829	 0.172923639162259 
830	 0.172376257849964 
831	 0.171906496616157 
832	 0.170951317671499 
833	 0.170245230065096 
834	 0.169991906646222 
835	 0.169863018950884 
836	 0.169004582417044 
837	 0.168782799221175 
838	 0.168985331460131 
839	 0.169067413958004 
840	 0.168575639500669 
841	 0.168070026174456 
842	 0.167856256210714 
843	 0.167951569960041 
844	 0.167568128018652 
845	 0.167437265464939 
846	 0.167469843690593 
847	 0.167084233428681 
848	 0.167070715385135 
849	 0.166857954343311 
850	 0.166409600541157 
851	 0.166496417001755 
852	 0.166198562409037 
853	 0.165800721422133 
854	 0.165577175622217 
855	 0.165168436219595 
856	 0.165565125414429 
857	 0.165943801756624 
858	 0.165472438969503 
859	 0.165115350502326 
860	 0.164846214516592 
861	 0.164680722921179 
862	 0.164621372950595 
863	 0.164608195884721 
864	 0.164509726469671 
865	 0.164344374443617 
866	 0.164229765052139 
867	 0.163669138416319 
868	 0.16358638862761 
869	 0.163945650300243 
870	 0.163318188061862 
871	 0.162933498432013 
872	 0.162964761949984 
873	 0.163171062969254 
874	 0.162949835342731 
875	 0.162385008259221 
876	 0.162031607702023 
877	 0.162210777774978 
878	 0.161852279504082 
879	 0.161715090052318 
880	 0.161595768795787 
881	 0.161075951491851 
882	 0.161305303106262 
883	 0.161138214111326 
884	 0.160660729239683 
885	 0.16082143398904 
886	 0.160748067348771 
887	 0.160390468572471 
888	 0.160034188875586 
889	 0.160170922115033 
890	 0.160158352803914 
891	 0.160087416051286 
892	 0.160057491452761 
893	 0.159938370721302 
894	 0.159709173117814 
895	 0.159633431156591 
896	 0.159730442083572 
897	 0.159011744988877 
898	 0.158645197995338 
899	 0.158548842767963 
900	 0.158275916586405 
901	 0.157861355180371 
902	 0.158030609546871 
903	 0.158195213284652 
904	 0.157628568689573 
905	 0.157576245604256 
906	 0.157087783992421 
907	 0.156893240047492 
908	 0.158342038271063 
909	 0.1575829812739 
910	 0.156895754164406 
911	 0.157015086851436 
912	 0.156790560714165 
913	 0.156627711803222 
914	 0.155945062143558 
915	 0.155216934871202 
916	 0.155859374942639 
917	 0.155175299163979 
918	 0.154508586168675 
919	 0.154327865866952 
920	 0.153258601184329 
921	 0.153640460488414 
922	 0.154642428439235 
923	 0.155013501428958 
924	 0.15395622361498 
925	 0.153347757957553 
926	 0.15365076572599 
927	 0.154229375165531 
928	 0.152119518513912 
929	 0.151758657687508 
930	 0.151997656418563 
931	 0.149178891269237 
932	 0.147926496114792 
933	 0.146459127998984 
934	 0.14650927186186 
935	 0.149535605316851 
936	 0.150977766993792 
937	 0.1489621926263 
938	 0.148449301894505 
939	 0.151904129609502 
940	 0.144420207541504 
941	 0.145125829497375 
942	 0.150759261592799 
943	 0.149051097147995 
944	 0.151149441005982 
945	 0.152886822608826 
946	 0.151733828525731 
947	 0.147401017389387 
948	 0.139945760708503 
949	 0.141648288508192 
950	 0.146631591047386 
951	 0.141756438410654 
952	 0.144861119916589 
953	 0.148236620298595 
954	 0.147363652706222 
955	 0.143222499708469 
956	 0.144497471114015 
957	 0.147478449985611 
958	 0.149159486862201 
959	 0.148348274969132 
960	 0.145286551571805 
961	 0.144265669396801 
962	 0.144296153122294 
963	 0.141694184448577 
964	 0.142983328245487 
965	 0.144138864124459 
966	 0.143344407305353 
967	 0.141657057148943 
968	 0.143136209964255 
969	 0.144847038822877 
970	 0.144113256716077 
971	 0.140502530141734 
972	 0.145095714739279 
973	 0.147146392386861 
974	 0.144016177674551 
975	 0.142991333789151 
976	 0.141484297245025 
977	 0.143359312895281 
978	 0.146232024541751 
979	 0.143704277306506 
980	 0.144451896238882 
981	 0.145694691823074 
982	 0.145659897649352 
983	 0.144533488148885 
984	 0.142389791873615 
985	 0.140923215899157 
986	 0.141520111347951 
987	 0.144604858602859 
988	 0.147677211898368 
989	 0.147617166976398 
990	 0.145826115410059 
991	 0.145942415751607 
992	 0.142386851125717 
993	 0.141148460117494 
994	 0.142175326047303 
995	 0.141407777932322 
996	 0.142711027697942 
997	 0.143025210933708 
998	 0.143856788535917 
999	 0.14747620477551 
1000	 0.143228007894606 
1001	 0.140911104372764 
1002	 0.141157567875678 
1003	 0.141232658634466 
1004	 0.141424549886919 
1005	 0.141512178932043 
1006	 0.1414655596412 
1007	 0.141493952285976 
1008	 0.141800056593412 
1009	 0.141851641780398 
1010	 0.142202244843603 
1011	 0.142712079906215 
1012	 0.142520512009673 
1013	 0.142779056031995 
1014	 0.142936897955795 
1015	 0.14298607924844 
1016	 0.143079808288382 
1017	 0.143329248775432 
1018	 0.143308096648905 
1019	 0.14323886893637 
1020	 0.14305327184392 
1021	 0.142679031348524 
1022	 0.14232059082762 
1023	 0.14218542477043 
1024	 0.14180240488544 
1025	 0.141641463012281 
1026	 0.142183215600849 
1027	 0.142364339736686 
1028	 0.142680236950407 
1029	 0.142761168564808 
1030	 0.14257230194121 
1031	 0.142629752310963 
1032	 0.142767952483779 
1033	 0.14284235621791 
1034	 0.14303196808221 
1035	 0.143118492571731 
1036	 0.142943575356235 
1037	 0.142965487042615 
1038	 0.142966698674449 
1039	 0.14336191840258 
1040	 0.143551750118745 
1041	 0.143720115359951 
1042	 0.14346887293534 
1043	 0.142845945354776 
1044	 0.142507335481755 
1045	 0.141630681718756 
1046	 0.141735019975926 
1047	 0.142504313718716 
1048	 0.142940259199546 
1049	 0.144161674823338 
1050	 0.144479264589996 
1051	 0.144001103860677 
1052	 0.143983771291938 
1053	 0.143693742424067 
1054	 0.143596684361744 
1055	 0.144053466590287 
1056	 0.144116099328894 
1057	 0.14403245198028 
1058	 0.143606453554233 
1059	 0.143753466655215 
1060	 0.1442046806685 
1061	 0.144037244278779 
1062	 0.143785003214973 
1063	 0.143750217883735 
1064	 0.143254990181949 
1065	 0.143069976629785 
1066	 0.143770750094548 
1067	 0.143630738424366 
1068	 0.142472504173768 
1069	 0.142161707894577 
1070	 0.14182796483002 
1071	 0.141837937634951 
1072	 0.142176999263008 
1073	 0.143459865303109 
1074	 0.143708497346504 
1075	 0.143766772586499 
1076	 0.143771013111245 
1077	 0.143252230591759 
1078	 0.143154228544932 
1079	 0.143294770844583 
1080	 0.143322636880289 
1081	 0.143492518478376 
1082	 0.143414599123927 
1083	 0.143349026413018 
1084	 0.142959432320934 
1085	 0.141853977200751 
1086	 0.141446480663901 
1087	 0.140933966775056 
1088	 0.140871337604543 
1089	 0.141775363853319 
1090	 0.142575671942237 
1091	 0.142493069176625 
1092	 0.142128713026052 
1093	 0.141651482871475 
1094	 0.139945441068057 
1095	 0.139702715988727 
1096	 0.140435137831407 
1097	 0.140570118702752 
1098	 0.141103097727156 
1099	 0.141215724675527 
1100	 0.140730460499114 
1101	 0.140628609562294 
1102	 0.140495579218877 
1103	 0.140624906088778 
1104	 0.14117982933323 
1105	 0.141630435093937 
1106	 0.14106811591329 
1107	 0.141070530562126 
1108	 0.141022285663418 
1109	 0.140376084980814 
1110	 0.140662849182511 
1111	 0.142713091937621 
1112	 0.142551018279142 
1113	 0.140970342911591 
1114	 0.140797267590721 
1115	 0.13922692452625 
1116	 0.139388151758423 
1117	 0.143956248354256 
1118	 0.145021966010781 
1119	 0.144220516040207 
1120	 0.143746361716772 
1121	 0.138874749468978 
1122	 0.13773612907459 
1123	 0.140144658303649 
1124	 0.138560603465607 
1125	 0.142020791025599 
1126	 0.143535690586151 
1127	 0.141202587055911 
1128	 0.144434690341883 
1129	 0.143441899663844 
1130	 0.139214663542879 
1131	 0.137121643117297 
1132	 0.135012064674135 
1133	 0.133733202880676 
1134	 0.133128183512095 
1135	 0.134714271765332 
1136	 0.138752919500938 
1137	 0.138416749114461 
1138	 0.138061537538619 
1139	 0.13443823131941 
1140	 0.131797887001568 
1141	 0.134969476057899 
1142	 0.136603972261182 
1143	 0.137088418992584 
1144	 0.135927116912626 
1145	 0.131525151760288 
1146	 0.129141217942815 
1147	 0.131069805587078 
1148	 0.13480367252926 
1149	 0.134717503485013 
1150	 0.133617540657624 
1151	 0.131317260709451 
1152	 0.13090109698264 
1153	 0.12906297593201 
1154	 0.128720523425703 
1155	 0.129949107348408 
1156	 0.130689858871364 
1157	 0.130624881090588 
1158	 0.131081373554784 
1159	 0.130614935352653 
1160	 0.130114306640887 
1161	 0.129641271649935 
1162	 0.129340910235818 
1163	 0.129922444702242 
1164	 0.129563044297519 
1165	 0.129164767581602 
1166	 0.128850850740441 
1167	 0.127821290716365 
1168	 0.127930204930069 
1169	 0.128579832650237 
1170	 0.128554909749575 
1171	 0.128596722296941 
1172	 0.129104714283577 
1173	 0.129184818990397 
1174	 0.128697727112306 
1175	 0.128515746926173 
1176	 0.128762516582343 
1177	 0.128990132207165 
1178	 0.128850368790049 
1179	 0.128741829625615 
1180	 0.128916364941746 
1181	 0.128328103594534 
1182	 0.127835177099026 
1183	 0.128356468495501 
1184	 0.12857536317332 
1185	 0.128458653052454 
1186	 0.128559211909561 
1187	 0.128395026714538 
1188	 0.128192577538841 
1189	 0.128459154247724 
1190	 0.128905355722072 
1191	 0.128982374922655 
1192	 0.128797786154418 
1193	 0.128239106654648 
1194	 0.127929156690148 
1195	 0.128165421169845 
1196	 0.12867711514514 
1197	 0.128871312216124 
1198	 0.128534109704486 
1199	 0.128190939914028 
1200	 0.12802315553163 
1201	 0.128101167970832 
1202	 0.128546369861979 
1203	 0.128850805192312 
1204	 0.128466911157457 
1205	 0.128245693893294 
1206	 0.128603798156842 
1207	 0.128588185307791 
1208	 0.12825746281632 
1209	 0.127979545272692 
1210	 0.127677129994347 
1211	 0.127648096631253 
1212	 0.128047286635025 
1213	 0.128326570287766 
1214	 0.128272198850751 
1215	 0.128070366352663 
1216	 0.127772149331612 
1217	 0.127446685831808 
1218	 0.127079671358176 
1219	 0.127055549629055 
1220	 0.127677374478785 
1221	 0.127795483864832 
1222	 0.127325653593578 
1223	 0.127461675684849 
1224	 0.127498653036208 
1225	 0.127159770747902 
1226	 0.127356151225343 
1227	 0.127359458082272 
1228	 0.126747191239064 
1229	 0.126841839392728 
1230	 0.127326921304038 
1231	 0.127191889641147 
1232	 0.127198617655997 
1233	 0.12716488875974 
1234	 0.126849861331759 
1235	 0.126800504081967 
1236	 0.127294132563033 
1237	 0.12748446590045 
1238	 0.127680456182975 
1239	 0.127394438255755 
1240	 0.126934464192997 
1241	 0.127044260477742 
1242	 0.126918508106281 
1243	 0.126716727364306 
1244	 0.127228935898896 
1245	 0.127437969725183 
1246	 0.127258840466913 
1247	 0.127275745082643 
1248	 0.126841120841007 
1249	 0.126356922369017 
1250	 0.12665589679512 
1251	 0.127058640927481 
1252	 0.127017917369536 
1253	 0.126955312496982 
1254	 0.126923343829816 
1255	 0.126731971304866 
1256	 0.12647620078276 
1257	 0.126609815699972 
1258	 0.126816665560541 
1259	 0.126595378151504 
1260	 0.126545951131966 
1261	 0.127397272052849 
1262	 0.127350577716785 
1263	 0.126575484139854 
1264	 0.125772780406078 
1265	 0.125891118965457 
1266	 0.126139595474971 
1267	 0.125894326680478 
1268	 0.126210771146372 
1269	 0.126542086354229 
1270	 0.126113161271734 
1271	 0.125939833518157 
1272	 0.126319856921489 
1273	 0.126524486817644 
1274	 0.126167649898425 
1275	 0.125607075218327 
1276	 0.125622943518426 
1277	 0.125698650033009 
1278	 0.125710359402052 
1279	 0.126126733149699 
1280	 0.126326038964593 
1281	 0.126280604044691 
1282	 0.125472023997907 
1283	 0.125291563403466 
1284	 0.125482333221151 
1285	 0.125363841358403 
1286	 0.125210403405668 
1287	 0.125185992985341 
1288	 0.125034935459022 
1289	 0.124961812415968 
1290	 0.125056877468004 
1291	 0.125097514171198 
1292	 0.125181643756164 
1293	 0.125085665704555 
1294	 0.124443308772372 
1295	 0.124408913907276 
1296	 0.124443087803948 
1297	 0.123924796125506 
1298	 0.123865037321093 
1299	 0.123755817150384 
1300	 0.123263119593438 
1301	 0.123303519868792 
1302	 0.123964027631134 
1303	 0.123872171982896 
1304	 0.123025613980359 
1305	 0.122868393056807 
1306	 0.122814671009429 
1307	 0.122955434156606 
1308	 0.122641676019277 
1309	 0.122310711900793 
1310	 0.122204262988426 
1311	 0.121840403793271 
1312	 0.121380998002738 
1313	 0.121212439251878 
1314	 0.121095594172881 
1315	 0.120570834472372 
1316	 0.120395235568961 
1317	 0.120868978469182 
1318	 0.120920379713179 
1319	 0.120651717058465 
1320	 0.120597825308303 
1321	 0.120786987351229 
1322	 0.120870008168225 
1323	 0.120122853875418 
1324	 0.1187386441337 
1325	 0.118589344973819 
1326	 0.11944990118995 
1327	 0.120118797351288 
1328	 0.120065066021463 
1329	 0.118723095230874 
1330	 0.117442990747655 
1331	 0.118255228159783 
1332	 0.119943514218097 
1333	 0.119408109585723 
1334	 0.118008381748642 
1335	 0.118020962408793 
1336	 0.117592146854212 
1337	 0.117158145911467 
1338	 0.118501162028381 
1339	 0.118974927462716 
1340	 0.118019548741444 
1341	 0.117328679318432 
1342	 0.117139971239935 
1343	 0.116699901692449 
1344	 0.115326787797588 
1345	 0.113711263683546 
1346	 0.111377822542465 
1347	 0.11097743686779 
1348	 0.109571476833484 
1349	 0.109164868384908 
1350	 0.12242985051229 
1351	 0.129305846250743 
1352	 0.121745810366785 
1353	 0.122321273761402 
1354	 0.118822251930092 
1355	 0.100911802902449 
1356	 0.139085065090746 
1357	 0.220256601625862 
1358	 0.232274829579455 
1359	 0.258538757028235 
1360	 0.236021010778109 
1361	 0.080931955629687 
1362	 0.107455888771031 
1363	 0.180502528890043 
1364	 0.126716522055992 
1365	 0.11598789694079 
1366	 0.23345650184388 
1367	 0.403319716925774 
1368	 0.2165565255704 
1369	-0.26285263267103 
1370	-0.225540130665059 
1371	 6.69620206742511E-02 
1372	 5.13783605311984E-02 
1373	 0.26476825127373 
1374	 0.494566570260368 
1375	 0.270077596501294 
1376	-9.19157200933898E-03 
1377	-0.161886483694372 
1378	-0.111863305221311 
1379	-0.147330692504413 
1380	-0.130097521119033 
1381	 0.272399693553625 
1382	 0.41501690356973 
1383	-0.71173176785302 
1384	-0.790330221175646 
1385	 0.504170647594888 
1386	 0.605144622171192 
1387	 0.475044619983431 
1388	 0.481576315767993 
1389	 0.434303440817449 
1390	 0.16998018302048 
1391	-0.126105782515368 
1392	-0.402856236601824 
1393	-0.339976295168539 
1394	-0.257989958016456 
1395	-0.428982480023343 
1396	-0.233165310121028 
1397	-0.342867106066074 
1398	-1.17588661624842 
1399	-1.81505767947424 
1400	-2.68158681858006 
1401	-3.81469979472147 
1402	-8.63602592956623 
1403	-0.171608035446348 
1404	-6.39406398158907E-02 
1405	-6.58942092782736E-02 
1406	-0.104362809461262 
1407	-0.16311211644552 
1408	-0.383334260676171 
1409	-0.350056295800709 
1410	-0.137845929254282 
1411	-0.164754496669419 
1412	-0.279677651362843 
1413	-0.178917802833883 
1414	-6.16198622883498E-02 
1415	-0.039799059010642 
1416	 4.26881827504887E-02 
1417	 0.11402789849329 
1418	 0.120564036356655 
1419	 0.106885468665457 
1420	 0.102685160352465 
1421	 0.1205171634049 
1422	 0.132674376495035 
1423	 0.113017249156392 
1424	 0.103418930158316 
1425	 9.97753753181542E-02 
1426	 7.43868325840625E-02 
1427	 6.03213112787002E-02 
1428	 5.52354862304741E-02 
1429	 6.03024437655811E-02 
1430	 6.91974821627592E-02 
1431	 0.068214127555234 
1432	 7.69422793302717E-02 
1433	 8.27361413838859E-02 
1434	 7.29925815643632E-02 
1435	 7.04197427130928E-02 
1436	 7.60934707169539E-02 
1437	 7.88976932254123E-02 
1438	 8.82524361355381E-02 
1439	 8.81465690812274E-02 
1440	 7.37789122797262E-02 
1441	 7.81001298624025E-02 
1442	 8.35364799474694E-02 
1443	 6.89580528637356E-02 
1444	 6.25427854141654E-02 
1445	 6.81083563162022E-02 
1446	 7.10355663099657E-02 
1447	 6.92037011975359E-02 
1448	 6.78236369919141E-02 
1449	 6.72175170750647E-02 
1450	 6.35284948712254E-02 
1451	 5.88393946328933E-02 
1452	 5.95213481395396E-02 
1453	 6.34691457400493E-02 
1454	 6.42020365991163E-02 
1455	 6.41192959886734E-02 
1456	 6.56579374393582E-02 
1457	 6.80356480785903E-02 
1458	 6.81656789408001E-02 
1459	 6.79047663898496E-02 
1460	 0.067726926427545 
1461	 0.065953777781105 
1462	 6.61807628566975E-02 
1463	 6.87925740847686E-02 
1464	 6.91317464106613E-02 
1465	 6.82480728412175E-02 
1466	 6.75508548797266E-02 
1467	 6.59856878988254E-02 
1468	 6.42208606359956E-02 
1469	 0.062556446755481 
1470	 6.17314286712454E-02 
1471	 0.05987467965318 
1472	 5.99969448641716E-02 
1473	 6.29877651386732E-02 
1474	 0.063297598726049 
1475	 6.18913899089265E-02 
1476	 6.26304550387461E-02 
1477	 6.50142079003431E-02 
1478	 6.49074929280746E-02 
1479	 6.31624634689339E-02 
1480	 6.38649387544929E-02 
1481	 0.064443198835256 
1482	 6.48867751443229E-02 
1483	 6.72957071228444E-02 
1484	 0.068783890489338 
1485	 6.92190609109995E-02 
1486	 0.069297233306586 
1487	 0.06877661135519 
1488	 6.93995687585739E-02 
1489	 7.07529082477786E-02 
1490	 7.07822119145721E-02 
1491	 7.04261507392996E-02 
1492	 7.08455438535473E-02 
1493	 7.08525994717968E-02 
1494	 7.08816135815022E-02 
1495	 7.16569922420749E-02 
1496	 7.22591181955677E-02 
1497	 0.072389173038271 
1498	 7.25570920038464E-02 
1499	 7.29570383309596E-02 
1500	 7.33324285873099E-02 
1501	 7.32457288477407E-02 
1502	 7.37369779283331E-02 
1503	 7.57779536772051E-02 
1504	 0.075937337788648 
1505	 0.075259867662757 
1506	 7.41729746782314E-02 
1507	 7.41305847851715E-02 
1508	 7.42016325993446E-02 
1509	 7.46974549320534E-02 
1510	 7.55624611418686E-02 
1511	 7.58194121066424E-02 
1512	 7.59362864334698E-02 
1513	 0.076376023701734 
1514	 7.71694175451883E-02 
1515	 7.75638450251734E-02 
1516	 7.72340453720747E-02 
1517	 7.74635899632686E-02 
1518	 7.81591836310866E-02 
1519	 7.84397625890271E-02 
1520	 7.85924011149312E-02 
1521	 7.88624334419767E-02 
1522	 7.90477910828334E-02 
1523	 7.92770981179471E-02 
1524	 7.96889352595038E-02 
1525	 8.00932548796149E-02 
1526	 8.04860722608137E-02 
1527	 8.06733289048742E-02 
1528	 8.07031395986739E-02 
1529	 8.07769710920122E-02 
1530	 8.08255294668025E-02 
1531	 8.10921613647562E-02 
1532	 8.15753005001031E-02 
1533	 8.19433042217072E-02 
1534	 8.21669279662169E-02 
1535	 8.26775430352073E-02 
1536	 8.31035867969631E-02 
1537	 8.33430991375751E-02 
1538	 8.37975091917064E-02 
1539	 8.36901625303532E-02 
1540	 8.34433266140158E-02 
1541	 8.41082285446817E-02 
1542	 0.084725745991085 
1543	 8.45906908015902E-02 
1544	 8.46469660157657E-02 
1545	 8.51956633087353E-02 
1546	 8.50737838838039E-02 
1547	 8.47555219986401E-02 
1548	 0.085415362184248 
1549	 8.57524119842065E-02 
1550	 8.55467437890431E-02 
1551	 8.59153607129987E-02 
1552	 0.086396282251575 
1553	 8.67129962750265E-02 
1554	 8.71980695817293E-02 
1555	 0.087670988560792 
1556	 8.77938141587037E-02 
1557	 0.087513024467294 
1558	 8.74574391203115E-02 
1559	 8.78658687788745E-02 
1560	 0.08834090383861 
1561	 8.87081602777177E-02 
1562	 0.088654883289567 
1563	 8.85457403695598E-02 
1564	 8.87834656828241E-02 
1565	 8.87783711762295E-02 
1566	 8.87386805825141E-02 
1567	 8.90757538272212E-02 
1568	 8.95629050012011E-02 
1569	 8.99267669211605E-02 
1570	 8.99159622246895E-02 
1571	 8.98600052274245E-02 
1572	 8.96792165883262E-02 
1573	 8.97825446869767E-02 
1574	 9.01625511891972E-02 
1575	 8.99316360856659E-02 
1576	 9.00817729347004E-02 
1577	 9.06980808826893E-02 
1578	 9.09087579776909E-02 
1579	 9.11031460368778E-02 
1580	 9.15367102606906E-02 
1581	 9.16112087329058E-02 
1582	 0.09124639692689 
1583	 9.15775160174424E-02 
1584	 9.21062830060063E-02 
1585	 9.17157524669137E-02 
1586	 9.14048575344314E-02 
1587	 9.20207550599917E-02 
1588	 9.27307529775786E-02 
1589	 0.092904128261216 
1590	 9.33817499551613E-02 
1591	 9.36527877742002E-02 
1592	 9.29310458303445E-02 
1593	 9.27712347269571E-02 
1594	 9.29545109623739E-02 
1595	 9.28437931292138E-02 
1596	 9.31635072686927E-02 
1597	 0.093320780470269 
1598	 9.31614225140553E-02 
1599	 9.30887345562333E-02 
1600	 9.29224096275739E-02 
1601	 9.28647490702843E-02 
1602	 9.31874704034791E-02 
1603	 9.33681042570863E-02 
1604	 9.33588329487425E-02 
1605	 9.35568255048745E-02 
1606	 9.38376456197291E-02 
1607	 9.39988823275458E-02 
1608	 9.40779006713314E-02 
1609	 9.45106216657472E-02 
1610	 9.45253277543363E-02 
1611	 9.41731610822787E-02 
1612	 9.46373771617829E-02 
1613	 9.49793576293191E-02 
1614	 9.52139820977802E-02 
1615	 9.58295365587648E-02 
1616	 9.55759650128955E-02 
1617	 0.094597576943081 
1618	 9.45160341345814E-02 
1619	 9.50269759105055E-02 
1620	 9.48771015761715E-02 
1621	 9.48033770508999E-02 
1622	 9.49242530334372E-02 
1623	 9.48060482846241E-02 
1624	 9.51252201787558E-02 
1625	 9.57078308021151E-02 
1626	 9.56163411205114E-02 
1627	 0.095252721106335 
1628	 9.54320165502878E-02 
1629	 9.58210521172999E-02 
1630	 0.096023867659424 
1631	 0.095763909621131 
1632	 9.56797740305386E-02 
1633	 9.59894509949029E-02 
1634	 9.60593572658294E-02 
1635	 9.60671029905341E-02 
1636	 9.60730492632757E-02 
1637	 9.63185478038429E-02 
1638	 9.66878710414397E-02 
1639	 9.66303104486471E-02 
1640	 9.65030445047215E-02 
1641	 9.63005979725405E-02 
1642	 9.58365530814805E-02 
1643	 9.58645986225479E-02 
1644	 9.66378000420847E-02 
1645	 9.71343699603867E-02 
1646	 9.64729485704113E-02 
1647	 0.095858435701546 
1648	 9.61743627960917E-02 
1649	 9.63258743494775E-02 
1650	 0.096320530908969 
1651	 9.66188069686037E-02 
1652	 9.66875411280548E-02 
1653	 9.64852007681776E-02 
1654	 9.63452774416914E-02 
1655	 9.66990895652289E-02 
1656	 9.67112720907769E-02 
1657	 9.58361376797701E-02 
1658	 0.095938746010686 
1659	 9.72272783357148E-02 
1660	 9.74282086141884E-02 
1661	 9.71586089969196E-02 
1662	 9.73469277107943E-02 
1663	 9.71404430945278E-02 
1664	 0.096866666162032 
1665	 9.71501505029887E-02 
1666	 9.71784301297039E-02 
1667	 0.096588736278341 
1668	 9.70424930827214E-02 
1669	 9.71039739471789E-02 
1670	 9.67964711163714E-02 
1671	 9.66381525965489E-02 
1672	 9.64298905860494E-02 
1673	 9.61525179692401E-02 
1674	 9.64089069322219E-02 
1675	 9.68613174077533E-02 
1676	 9.68275929415314E-02 
1677	 9.66411245693225E-02 
1678	 9.68193033013516E-02 
1679	 9.69372149748589E-02 
1680	 0.096602742277795 
1681	 9.65420190113574E-02 
1682	 9.63782202863117E-02 
1683	 9.62799714172869E-02 
1684	 9.70237606852268E-02 
1685	 9.75271794595814E-02 
1686	 9.75063953528377E-02 
1687	 9.65618186124554E-02 
1688	 9.54248388291353E-02 
1689	 9.59207934985075E-02 
1690	 0.096361733343 
1691	 9.65577573557495E-02 
1692	 9.76783656628832E-02 
1693	 9.75770549978636E-02 
1694	 9.65594738286312E-02 
1695	 0.096585264549089 
1696	 9.67491034794421E-02 
1697	 9.68883911845406E-02 
1698	 9.72162866680716E-02 
1699	 9.71459198762293E-02 
1700	 9.64317814716185E-02 
1701	 9.56260859240567E-02 
1702	 9.61027226009245E-02 
1703	 9.72945589429564E-02 
1704	 9.73951096715931E-02 
1705	 9.65584176278464E-02 
1706	 9.61022375766361E-02 
1707	 9.60494692122381E-02 
1708	 0.096065706709059 
1709	 9.59068574758455E-02 
1710	 9.56986094347064E-02 
1711	 0.095686015395036 
1712	 9.50172470411563E-02 
1713	 9.54794255751728E-02 
1714	 9.59920168996578E-02 
1715	 9.54885327138293E-02 
1716	 9.59142451526772E-02 
1717	 9.58900078748659E-02 
1718	 9.51439884076395E-02 
1719	 9.48990927940998E-02 
1720	 0.094930525957888 
1721	 9.53262579921918E-02 
1722	 9.55529344611827E-02 
1723	 9.56350774720235E-02 
1724	 9.55849317180996E-02 
1725	 9.49470989610068E-02 
1726	 9.48389753928054E-02 
1727	 0.094812912103591 
1728	 9.49023679436856E-02 
1729	 9.60129622427082E-02 
1730	 9.63180404999198E-02 
1731	 9.51163311161079E-02 
1732	 9.40723711818106E-02 
1733	 9.34052825662165E-02 
1734	 9.37578374662969E-02 
1735	 9.50222888463521E-02 
1736	 0.095076356332002 
1737	 0.094252976427899 
1738	 9.28605670762319E-02 
1739	 9.17199945486128E-02 
1740	 9.22223245037169E-02 
1741	 9.29838344558779E-02 
1742	 9.32212481782912E-02 
1743	 9.33186923826783E-02 
1744	 9.31534009904812E-02 
1745	 9.27690956749934E-02 
1746	 9.24111940973528E-02 
1747	 0.092513754230212 
1748	 9.33285159388423E-02 
1749	 0.093655465392888 
1750	 9.43622811376783E-02 
1751	 9.37343146986677E-02 
1752	 0.091606329417515 
1753	 9.08283322904271E-02 
1754	 8.93083771508498E-02 
1755	 8.95629342301295E-02 
1756	 9.26205479650701E-02 
1757	 9.19853595580071E-02 
1758	 9.15458683157175E-02 
1759	 9.12410661381065E-02 
1760	 8.91981534684292E-02 
1761	 8.89054952742417E-02 
1762	 8.99879166371437E-02 
1763	 8.90482829532527E-02 
1764	 8.91474248690801E-02 
1765	 8.93480804087274E-02 
1766	 8.84563903833852E-02 
1767	 8.92811451627211E-02 
1768	 8.88649726314434E-02 
1769	 8.88411947499698E-02 
1770	 8.99499211016467E-02 
1771	 8.89359125961733E-02 
1772	 8.88594848094852E-02 
1773	 8.83508399704691E-02 
1774	 8.65052397732016E-02 
1775	 8.34953552483086E-02 
1776	 8.32547402709167E-02 
1777	 8.67632426657288E-02 
1778	 8.69876921140691E-02 
1779	 8.81338929026725E-02 
1780	 8.84298084782502E-02 
1781	 8.28068079742826E-02 
1782	 8.19097479499423E-02 
1783	 8.61530113820316E-02 
1784	 8.61435192744183E-02 
1785	 8.52553215038721E-02 
1786	 8.58778259835751E-02 
1787	 8.42463877197983E-02 
1788	 8.39569450790796E-02 
1789	 8.67860101485465E-02 
1790	 8.69505182053513E-02 
1791	 8.89169562269733E-02 
1792	 8.92490838942226E-02 
1793	 8.63066480241066E-02 
1794	 8.74042114546483E-02 
1795	 8.52906977925607E-02 
1796	 8.26707593533779E-02 
1797	 8.45613505508577E-02 
1798	 8.23468638440855E-02 
1799	 8.24454840350086E-02 
1800	 0.099606908567076 
1801	 0.103383478681244 
1802	 8.52377815108704E-02 
1803	 8.14734433242376E-02 
1804	 7.50858991862403E-02 
1805	 6.79348222048033E-02 
1806	 8.83256976203323E-02 
1807	 8.76079882224014E-02 
1808	 2.92912452350368E-02 
1809	 1.71323707487141E-02 
1810	 5.72026957362686E-02 
1811	 0.102254057066241 
1812	 0.268634627572163 
1813	 0.265192657977078 
1814	 0.011912379828673 
1815	-4.31885187844547E-02 
1816	-0.38075291369628 
1817	 0.375146099831675 
1818	 2.01055445734902 
1819	 0.759326923091206 
1820	 0.154326142482177 
1821	-0.444106695588263 
1822	-0.897438896030481 
1823	-1.2652774546707 
1824	-0.790152502637676 
1825	 0.160518076350418 
1826	 0.105843189848484 
1827	-0.361067847292052 
1828	-0.419275629421148 
1829	-1.56744829148491 
1830	-3.46816536994783 
1831	-1.51594520126795 
1832	-1.4092465033331 
1833	-4.0357839880906 
1834	-15.5047316271072 
1835	-3.33227637372231 
1836	-4.72921265409859 
1837	 1.33318757608021 
1838	 0.840185131548602 
1839	 1.46047478907591 
1840	 1.14005456053436 
1841	 3.78972180819149 
1842	-13.8035559514608 
1843	-2.67145076741159 
1844	-1.11680118377443 
1845	-0.950787065793861 
1846	-0.663118448034735 
1847	-0.685187595989629 
1848	-1.0975308111916 
1849	 1.54945892522484 
1850	 6.95505904891018 
1851	 23.3357979799802 
1852	 161.279900944503 
1853	 69.4347649685407 
1854	 12.9405263500243 
1855	 0.918085055871657 
1856	 0.251500695155631 
1857	-0.76908969303813 
1858	-1.5797410124183 
1859	-4.30379396086502 
1860	 1.8406686547832 
1861	-0.205398815798266 
1862	-0.243245365171003 
1863	-0.689930446491264 
1864	-0.621420280621421 
1865	-1.23537184534592 
1866	-11.236294642954 
1867	 12.7029603947464 
1868	 7.21021850640066 
1869	 4.18193651908139 
1870	 2.7811816233398 
1871	 2.38903507721354 
1872	 1.67635276504381 
1873	 1.00290708855439 
1874	 0.686789988760276 
1875	 0.582104688053621 
1876	 0.476276462552109 
1877	 0.585162119587045 
1878	 0.985166980803809 
1879	 7.00940606609988 
1880	-3.83019454306513 
1881	-2.03140675989903 
1882	-1.28123015007061 
1883	-1.48787536749468 
1884	-6.01673609648608 
1885	 3.98989963597151 
1886	 1.53717704959012 
1887	 1.65211441527623 
1888	 3.03021809491431 
1889	 2.0325229695125 
1890	 0.602494396298975 
1891	 1.92685542088472 
1892	 5.61257294595097 
1893	 18.8171840825461 
1894	-1.8529849612825 
1895	-0.722397553342753 
1896	 15.6404561736714 
1897	-0.593386604558226 
1898	 0.462114667436251 
1899	 0.963096880713039 
1900	 1.02715272509666 
1901	 0.321424897921932 
1902	 0.261410440019492 
1903	 0.319665231079129 
1904	 0.830225727951788 
1905	-2.13912528098737 
1906	-1.20524501364464 
1907	-1.47182229362355 
1908	 1.10202900646895 
1909	 0.651204795718125 
1910	 0.421066618552293 
1911	 0.816887523508704 
1912	 1.19773234424342 
1913	 1.1200892919306 
1914	-0.796049480525165 
1915	-2.21883690253899 
1916	 24.0642093807023 
1917	 0.498711192032239 
1918	-6.29399844194042E-02 
1919	-0.118381655385074 
1920	 1.12624826755877E-02 
1921	-1.05888308379245E-02 
1922	-0.811454450790223 
1923	-16.0476416446661 
1924	-2.5931561094474 
1925	-1.05441263702751 
1926	-0.46128410294965 
1927	 0.487260286235197 
1928	 0.970238874160552 
1929	 0.154855249079137 
1930	-0.905834833930508 
1931	-1.80088653737717 
1932	-1.98930319053294 
1933	-1.63212116963674 
1934	-1.17753618261722 
1935	-0.847560284145886 
1936	-0.912597167566967 
1937	-0.884905890525894 
1938	-0.708085251034378 
1939	-0.665378447122768 
1940	-0.777136081105723 
1941	-0.700247191989704 
1942	-0.428207357892807 
1943	-0.308200016372985 
1944	-0.144823413300133 
1945	-3.35677221870574E-02 
1946	-6.80645977751495E-02 
1947	-0.117469380648449 
1948	-0.152964312008248 
1949	-0.189671450858877 
1950	-0.226206351363972 
1951	-0.211350167967634 
1952	-0.177427167640507 
1953	-0.138023708362907 
1954	-8.60682719059544E-02 
1955	 8.45006346141741E-03 
1956	 3.63780722876563E-02 
1957	 1.42895914336093E-02 
1958	 4.8608948523463E-03 
1959	-0.014540210637373 
1960	-1.40686327642557E-02 
1961	 9.14175424635451E-04 
1962	 4.60795373705496E-03 
1963	-1.49456778006222E-03 
1964	-3.53041537293192E-03 
1965	 1.09169430619575E-02 
1966	 0.015697022140074 
1967	 1.76380162405665E-02 
1968	 2.10189017337811E-02 
1969	 2.71274912331956E-02 
1970	 2.54641648559323E-02 
1971	 0.025355255487415 
1972	 2.35415798778697E-02 
1973	 2.00464936962099E-02 
1974	 1.54002584797628E-02 
1975	 1.65164522468169E-02 
1976	 0.024240450502351 
1977	 0.028689774119765 
1978	 2.98743500422155E-02 
1979	 3.22538067150161E-02 
1980	 3.27344481583766E-02 
1981	 3.45899166742828E-02 
1982	 3.68336603295249E-02 
1983	 4.03049966086112E-02 
1984	 4.12942466337816E-02 
1985	 3.68012360614117E-02 
1986	 3.58484434541751E-02 
1987	 0.038271977260888 
1988	 3.75151886108214E-02 
1989	 3.55528215050302E-02 
1990	 0.036164464658323 
1991	 3.33107842527523E-02 
1992	 2.75781202081113E-02 
1993	 2.84381858186726E-02 
1994	 2.92757944014635E-02 
1995	 2.97959000774704E-02 
1996	 2.82042297598075E-02 
1997	 3.14373833187876E-02 
1998	 3.11135477534313E-02 
1999	 2.69139968750839E-02 
2000	 0.022793776794226 
2001	 2.80911375636569E-02 
2002	 3.60394723073067E-02 
2003	 3.10662211065099E-02 
2004	 2.98608049004982E-02 
2005	 2.17976329824421E-02 
2006	 1.54057707719971E-02 
2007	 0.023824336946124 
2008	 2.44866434492574E-02 
2009	 2.54070381874718E-02 
2010	 0.027788554293119 
2011	 2.73315638910153E-02 
2012	 1.96364147479576E-02 
2013	 2.45988083304426E-02 
2014	 3.16439752071316E-02 
2015	 2.63585961908722E-02 
2016	 2.86110233443758E-02 
2017	 0.031805710796706 
2018	 2.78383280157423E-02 
2019	 3.30058984369154E-02 
2020	 3.77600158427752E-02 
2021	 3.36749857416569E-02 
2022	 3.23374220009224E-02 
2023	 3.35499370938947E-02 
2024	 3.47126587291407E-02 
2025	 3.61540491376275E-02 
2026	 3.80997886204175E-02 
2027	 4.13396036345264E-02 
2028	 0.042339056309944 
2029	 0.044691267762248 
2030	 4.71518424501644E-02 
2031	 4.71498073169863E-02 
2032	 4.82618220681136E-02 
2033	 4.62339386363154E-02 
2034	 4.23647790421762E-02 
2035	 4.22531900932448E-02 
2036	 4.10447429491535E-02 
2037	 3.94854713799202E-02 
2038	 4.13907341063897E-02 
2039	 4.26840765262381E-02 
2040	 4.46364260572434E-02 
2041	 4.48502067456982E-02 
2042	 4.45579569701529E-02 
2043	 4.49365280725495E-02 
2044	 4.42334976889161E-02 
2045	 4.39160605000831E-02 
2046	 4.56258910287473E-02 
2047	 4.66709786468841E-02 
2048	 4.70483123078246E-02 
2049	 4.81672711193019E-02 
2050	 4.85714321850363E-02 
2051	 4.77789912896802E-02 
2052	 4.98326391509078E-02 
2053	 5.33149698236045E-02 
2054	 5.47092324947194E-02 
2055	 5.70507433304708E-02 
2056	 5.62466531484031E-02 
2057	 4.84393143940338E-02 
2058	 4.47600793153953E-02 
2059	 4.34896713404141E-02 
2060	 4.09221665969565E-02 
2061	 3.68962514221538E-02 
2062	 3.66279594163444E-02 
2063	 3.96148041979614E-02 
2064	 3.81239350188383E-02 
2065	 0.038721835492667 
2066	 4.29928651956462E-02 
2067	 0.041411268458793 
2068	 3.93099661330118E-02 
2069	 4.23481111200635E-02 
2070	 4.32270030327515E-02 
2071	 4.48877016629409E-02 
2072	 5.02421932375442E-02 
2073	 0.053416956258197 
2074	 5.66776826175022E-02 
2075	 5.77472627930792E-02 
2076	 5.79319471977068E-02 
2077	 5.67637536871344E-02 
2078	 5.17263790747548E-02 
2079	 0.050989655780232 
2080	 5.21719589338356E-02 
2081	 5.23472536951652E-02 
2082	 5.21623038615006E-02 
2083	 5.43180667032858E-02 
2084	 5.42634107215777E-02 
2085	 5.26427209350529E-02 
2086	 5.45040347360282E-02 
2087	 5.53150125783949E-02 
2088	 5.25078638042856E-02 
2089	 5.17666167787019E-02 
2090	 5.05762468517265E-02 
2091	 4.75651267194849E-02 
2092	 4.67709783230881E-02 
2093	 4.83065704534425E-02 
2094	 4.71713532460165E-02 
2095	 0.044983811921446 
2096	 4.50734143299262E-02 
2097	 4.46178709871399E-02 
2098	 4.52310319310109E-02 
2099	 4.85724827641398E-02 
2100	 5.03997409066164E-02 
2101	 5.01424172154563E-02 
2102	 5.11018636965149E-02 
2103	 5.21195366784702E-02 
2104	 0.052619803004227 
2105	 5.48422656075715E-02 
2106	 5.63175675745013E-02 
2107	 5.55252216718766E-02 
2108	 5.50569549935624E-02 
2109	 5.39153500896119E-02 
2110	 5.13850916217016E-02 
2111	 5.11345298193816E-02 
2112	 5.24473586941928E-02 
2113	 5.32413137199356E-02 
2114	 5.52531145110985E-02 
2115	 5.53589695058719E-02 
2116	 5.41057706583976E-02 
2117	 5.40706588075184E-02 
2118	 5.24685489722146E-02 
2119	 5.30130865720684E-02 
2120	 5.66652828185744E-02 
2121	 5.75933299916681E-02 
2122	 5.63803361097131E-02 
2123	 5.70647828239822E-02 
2124	 0.056543540423191 
2125	 5.59374719289199E-02 
2126	 5.76586351002454E-02 
2127	 6.01350340014059E-02 
2128	 6.19155290040905E-02 
2129	 0.062442049018632 
2130	 6.30935946202487E-02 
2131	 6.28542991184464E-02 
2132	 6.15705370279882E-02 
2133	 6.19695308976623E-02 
2134	 6.13822283663912E-02 
2135	 5.97259045367963E-02 
2136	 5.97369736092088E-02 
2137	 6.07206830937585E-02 
2138	 6.11236031822114E-02 
2139	 6.21164803230566E-02 
2140	 6.24533628265573E-02 
2141	 6.19423147279558E-02 
2142	 6.16781517363529E-02 
2143	 6.07616539776876E-02 
2144	 6.28586850052393E-02 
2145	 6.22231579512928E-02 
2146	 6.07679779348052E-02 
2147	 5.99837726123548E-02 
2148	 5.88979186474058E-02 
2149	 5.96339384417475E-02 
2150	 6.04999099747777E-02 
2151	 5.98785842143736E-02 
2152	 5.94686883129667E-02 
2153	 6.09780568453315E-02 
2154	 6.02854730821215E-02 
2155	 5.80565621289858E-02 
2156	 5.72441433168706E-02 
2157	 5.67901092670978E-02 
2158	 5.47809964367347E-02 
2159	 5.53834800951076E-02 
2160	 5.93070718861485E-02 
2161	 6.01257249997377E-02 
2162	 6.02603734744647E-02 
2163	 6.05446438633196E-02 
2164	 0.059927120982743 
2165	 6.02311479108543E-02 
2166	 0.06064518739887 
2167	 0.060847696099434 
2168	 0.061778253299346 
2169	 6.16487048389008E-02 
2170	 0.060794587873541 
2171	 6.04788780899283E-02 
2172	 5.89488717480681E-02 
2173	 5.75077674456179E-02 
2174	 6.00992606224001E-02 
2175	 6.40006658630483E-02 
2176	 0.06614046722973 
2177	 6.71343089236212E-02 
2178	 6.77999373716656E-02 
2179	 6.74750266364849E-02 
2180	 6.74970521782773E-02 
2181	 6.85093061105096E-02 
2182	 6.63544655310646E-02 
2183	 6.15843299300625E-02 
2184	 5.95680988724486E-02 
2185	 5.72507388989577E-02 
2186	 5.45457375127515E-02 
2187	 5.15243627087616E-02 
2188	 5.05986074166425E-02 
2189	 4.96386263478008E-02 
2190	 4.96349999599325E-02 
2191	 0.053045616635919 
2192	 5.26744225198168E-02 
2193	 4.93996584598459E-02 
2194	 4.99745248785372E-02 
2195	 5.06039662546032E-02 
2196	 0.051291368968544 
2197	 0.055181419915638 
2198	 5.75658957696765E-02 
2199	 5.84823763720084E-02 
2200	 6.03203331935594E-02 
2201	 6.22766026105838E-02 
2202	 6.26703634282683E-02 
2203	 6.02176761243149E-02 
2204	 5.73137191633052E-02 
2205	 0.055333420124202 
2206	 5.24322121798551E-02 
2207	 5.32220089113464E-02 
2208	 0.056327009865681 
2209	 0.055598468757905 
2210	 5.68613572036973E-02 
2211	 0.057910602095557 
2212	 5.68200730071118E-02 
2213	 6.08614014828427E-02 
2214	 6.11059047527404E-02 
2215	 5.61717908246409E-02 
2216	 5.58018912053389E-02 
2217	 0.056388727452898 
2218	 5.80041100008821E-02 
2219	 5.90962391441805E-02 
2220	 6.24756479876629E-02 
2221	 6.17347779540353E-02 
2222	 0.057146049413134 
2223	 5.76631310973986E-02 
2224	 0.0611638124973 
2225	 6.11426594002455E-02 
2226	 6.10884662061509E-02 
2227	 5.98622926439039E-02 
2228	 5.33159427560005E-02 
2229	 5.21796682488933E-02 
2230	 5.73214797628594E-02 
2231	 5.66404602839987E-02 
2232	 5.15913973094404E-02 
2233	 5.30446103888124E-02 
2234	 5.71525198129942E-02 
2235	 0.05798774855093 
2236	 5.90849553967226E-02 
2237	 5.99166587936077E-02 
2238	 5.63918105872314E-02 
2239	 5.39649539023326E-02 
2240	 5.46266465326685E-02 
2241	 5.64751175288856E-02 
2242	 5.47458123785955E-02 
2243	 4.89551692020839E-02 
2244	 4.62951018301423E-02 
2245	 4.49880057164915E-02 
2246	 4.21813383488917E-02 
2247	 4.47650754515642E-02 
2248	 4.92891227051944E-02 
2249	 5.07330835068398E-02 
2250	 5.32858131675574E-02 
2251	 5.21641469659791E-02 
2252	 4.92803614350576E-02 
2253	 5.13279397043246E-02 
2254	 5.44987115824334E-02 
2255	 5.68068238067803E-02 
2256	 5.93638437093295E-02 
2257	 5.98417974520969E-02 
2258	 5.98046719081431E-02 
2259	 5.97829274270527E-02 
2260	 0.057820885725696 
2261	 5.27288876119562E-02 
2262	 5.21206452677994E-02 
2263	 5.24039292475159E-02 
2264	 5.30800229105543E-02 
2265	 6.00928092177655E-02 
2266	 5.85479552296088E-02 
2267	 4.94853845717506E-02 
2268	 0.045773584014514 
2269	 3.83893544115758E-02 
2270	 3.74369706383352E-02 
2271	 4.46435809230871E-02 
2272	 4.77368879837501E-02 
2273	 5.20346522749934E-02 
2274	 5.47761179359485E-02 
2275	 5.54541560983179E-02 
2276	 5.60781319429816E-02 
2277	 5.77062888798886E-02 
2278	 5.51895112777444E-02 
2279	 4.97913712827842E-02 
2280	 4.63378517128727E-02 
2281	 3.82505439967372E-02 
2282	 3.59069398508009E-02 
2283	 4.36928385849911E-02 
2284	 4.32212310860377E-02 
2285	 4.46306930756819E-02 
2286	 5.02460793194323E-02 
2287	 5.17265660716179E-02 
2288	 5.59787984914207E-02 
2289	 0.061091282912572 
2290	 5.71208890677406E-02 
2291	 4.93160960077891E-02 
2292	 4.32170193115342E-02 
2293	 4.02048508958026E-02 
2294	 4.42935052239498E-02 
2295	 4.18035357818038E-02 
2296	 0.038354463362121 
2297	 4.12546277970373E-02 
2298	 4.38974070126284E-02 
2299	 4.54193969910581E-02 
2300	 4.62323799266073E-02 
2301	 4.64211403902644E-02 
2302	 3.88217064860328E-02 
2303	 4.13369543398759E-02 
2304	 5.09330849839284E-02 
2305	 5.02348507182943E-02 
2306	 4.82735690773111E-02 
2307	 4.59621266299173E-02 
2308	 4.78351141296078E-02 
2309	 0.049084793158429 
2310	 4.59707918836113E-02 
2311	 4.70392996966082E-02 
2312	 4.34463726403383E-02 
2313	 3.44689776184767E-02 
2314	 3.57210528755772E-02 
2315	 3.72524289726628E-02 
2316	 0.032025874522514 
2317	 3.68566079004915E-02 
2318	 4.56084572594188E-02 
2319	 4.59562479057905E-02 
2320	 4.94025014241632E-02 
2321	 5.58140386326571E-02 
2322	 5.65598256693748E-02 
2323	 0.066891098550659 
2324	 0.068629922383183 
2325	 0.055210691994943 
2326	 5.01600137166433E-02 
2327	 0.031986281532258 
2328	 1.77815307704241E-02 
2329	 2.74734470015203E-02 
2330	 2.66077784039636E-02 
2331	 2.07677510148562E-02 
2332	 2.06991942405143E-02 
2333	 7.02165177428572E-03 
2334	-2.4601102605204E-03 
2335	-1.82059289580217E-03 
2336	-6.55502337270221E-03 
2337	 6.04146082960809E-03 
2338	 1.97005686165363E-02 
2339	 0.018083025384025 
2340	 2.31054843007327E-02 
2341	 1.55952764890806E-02 
2342	-6.8940846127306E-03 
2343	-1.71386875709292E-02 
2344	-2.15331186841002E-02 
2345	-3.52227739769281E-02 
2346	-4.45739672268961E-02 
2347	-4.18192707929079E-02 
2348	-0.031740037392305 
2349	-2.30893511427788E-02 
2350	-1.18562927505656E-02 
2351	-3.58288099444344E-03 
2352	 3.28256091269228E-03 
2353	 3.45740428370405E-02 
2354	 6.36850288161575E-02 
2355	 7.70801041293909E-02 
2356	 6.56073204344123E-02 
2357	 2.72946970617487E-02 
2358	-5.12133895539077E-03 
2359	-2.71944661179385E-02 
2360	-3.65769996671006E-02 
2361	-2.10712111184977E-02 
2362	 1.77479401050912E-02 
2363	 3.54008273451698E-02 
2364	 1.24718736075823E-02 
2365	 7.90233356963919E-03 
2366	 6.19440267745887E-03 
2367	 1.71329032621711E-04 
2368	 4.15338072933395E-02 
2369	 5.27293940607412E-02 
2370	 2.45859278649084E-02 
2371	 2.89358051278641E-02 
2372	 2.49370888775695E-02 
2373	 0.017245659094171 
2374	-9.33863092377234E-05 
2375	-6.15576836611605E-02 
2376	-0.105121856825427 
2377	-0.142618882171488 
2378	-0.17604254175017 
2379	-0.179007146134283 
2380	-0.162130730242611 
2381	-0.148592166509993 
2382	-0.128456114552328 
2383	-0.109769905351681 
2384	-8.46278786315485E-02 
2385	-5.48628895364301E-02 
2386	-6.80295572718146E-02 
2387	-6.77672164733562E-02 
2388	-0.105830202419759 
2389	-0.154474463419306 
2390	-7.44016012691645E-02 
2391	-6.04033647308506E-03 
2392	-5.38626038951957E-03 
2393	-2.20923952326682E-02 
2394	-9.33048525559783E-02 
2395	-0.148216768181304 
2396	-0.147097730755549 
2397	-0.142509863950376 
2398	-9.88094512389341E-02 
2399	-2.52804132815159E-02 
2400	 2.29910841898964E-02 
2401	 3.93535791126609E-02 
2402	-2.26707566672803E-02 
2403	-0.106693176476898 
2404	-0.187700279211324 
2405	-0.191999187042458 
2406	-0.124462983034022 
2407	-0.180853788655041 
2408	-0.321824557004962 
2409	-0.419737213379379 
2410	-0.438776302002255 
2411	-0.405219381713957 
2412	-0.315423871123421 
2413	-0.378140370084768 
2414	-0.462009238092619 
2415	-0.359107109089561 
2416	-0.260473522925112 
2417	-0.284715340933915 
2418	-0.477664284883691 
2419	-0.521988050210106 
2420	-0.506189542507515 
2421	-0.513763318045047 
2422	-0.366819799815601 
2423	-0.385085563463062 
2424	-0.503929119643269 
2425	-0.445159079714349 
2426	-0.542874486810397 
2427	-0.589464686631693 
2428	-0.403976300398407 
2429	-0.287919999193834 
2430	-0.342182515411813 
2431	-0.28955030168039 
2432	-0.287859687998586 
2433	-0.458802073197075 
2434	-0.288413184824406 
2435	-0.106597792788161 
2436	-7.99135131213943E-03 
2437	 9.92925677700964E-02 
2438	 5.56960288103441E-02 
2439	-0.141107090245812 
2440	-0.462215043537229 
2441	-0.887102945712501 
2442	-0.805490536823466 
2443	-0.41761087055766 
2444	-0.180868566081025 
2445	-3.58908957331216E-02 
2446	-0.244212524341662 
2447	-0.975827668247904 
2448	-1.40501861405951 
2449	-1.42977164448358 
2450	-1.65222474096816 
2451	-5.4773497162268 
2452	 48.3982013106454 
2453	-2.98500042533263 
2454	-2.77035978964288 
2455	-2.49618382157269 
2456	-3.30461108447794 
2457	 15.0584155671133 
2458	 9.02986083709235 
2459	 8.96323381837486 
2460	 32.6909554390483 
2461	-18.7493930471744 
2462	-8.09124105990872 
2463	-0.784808381626893 
2464	-0.315749206910234 
2465	 8.23859694617459E-03 
2466	-3.88769221248879E-02 
2467	-8.91113224332115 
2468	-75.5322234179192 
2469	-9.32923451802871 
2470	-17.1594901183254 
2471	-17.1963525462962 
2472	-7.9679152956063 
2473	 2.12137533979684 
2474	 1.84397683045249 
2475	 3.66266383332601 
2476	 2.82653790620554 
2477	 2.67993519248928 
2478	-4.01892328425481 
2479	-1.23027432970126 
2480	-0.664961134844154 
2481	-0.186913357861636 
2482	-0.431881251445688 
2483	 0.708560576609534 
2484	 0.544883468514149 
2485	 1.99655158547366 
2486	 1.89803522050571 
2487	 3.03750370442062 
2488	 19.8925619458211 
2489	 13.7052230781776 
2490	 57.6009377684119 
2491	-2.10875276614404 
2492	-1.38399613498696 
2493	-1.60208097655371 
2494	-0.664706434495588 
2495	-1.21830519822908 
2496	-0.887939206846821 
2497	-1.43466844056534 
2498	 4.10443532156818 
2499	 1.51502422487642 
2500	 1.21943350913006 
