Wavelength	rt0714yellow200001.asd
350	 6.04067996682376E-02 
351	 5.95149396194105E-02 
352	 5.91416906756671E-02 
353	 5.97346618856325E-02 
354	 6.07548680337278E-02 
355	 0.060094226002488 
356	 0.059470224811714 
357	 5.96476892592918E-02 
358	 6.05445321196052E-02 
359	 0.06003933766041 
360	 5.94739046484204E-02 
361	 5.93735233661139E-02 
362	 5.95643365695751E-02 
363	 5.97735362444236E-02 
364	 5.99361195829294E-02 
365	 6.00727277223938E-02 
366	 0.06029066327466 
367	 0.060033279321967 
368	 5.99791183054533E-02 
369	 6.05989087657268E-02 
370	 6.04373693565141E-02 
371	 0.060654524199955 
372	 6.09230516065925E-02 
373	 6.03239809513029E-02 
374	 6.09086918876135E-02 
375	 6.17636947187146E-02 
376	 6.21293041017834E-02 
377	 6.19339680272344E-02 
378	 6.16550331540183E-02 
379	 6.18006447164214E-02 
380	 6.25361457290866E-02 
381	 6.31249702013526E-02 
382	 6.33085449863573E-02 
383	 0.063499571601303 
384	 6.42429016355237E-02 
385	 6.44405034539414E-02 
386	 6.45934571246843E-02 
387	 6.50064616868512E-02 
388	 6.55926503429352E-02 
389	 6.59090298879444E-02 
390	 6.60384920357328E-02 
391	 6.62824901994098E-02 
392	 6.72174528756142E-02 
393	 6.79177335742907E-02 
394	 6.82764967314723E-02 
395	 6.85439451460349E-02 
396	 6.89018806628726E-02 
397	 6.93009250099754E-02 
398	 6.95932253040172E-02 
399	 6.95996145873481E-02 
400	 6.98990321700316E-02 
401	 7.02777089357016E-02 
402	 7.05592992835028E-02 
403	 7.09217854015526E-02 
404	 7.14594046810541E-02 
405	 7.18832785881207E-02 
406	 7.19485456747139E-02 
407	 7.25657465447796E-02 
408	 7.28939291615572E-02 
409	 7.29377508349929E-02 
410	 7.35711875036187E-02 
411	 0.074083386126521 
412	 7.43702273377449E-02 
413	 7.45783787374093E-02 
414	 7.51749795310441E-02 
415	 7.57985149438817E-02 
416	 7.63195679294345E-02 
417	 7.67193745146531E-02 
418	 7.69752326988908E-02 
419	 7.76046016817285E-02 
420	 7.84868805624089E-02 
421	 7.88238903616885E-02 
422	 7.92079453187557E-02 
423	 7.97933452972726E-02 
424	 0.080576241453718 
425	 8.14275971780328E-02 
426	 8.19839824785743E-02 
427	 8.25128261222213E-02 
428	 8.34797143419083E-02 
429	 8.43245792429129E-02 
430	 8.52139831631691E-02 
431	 8.61202259862866E-02 
432	 8.67270557695391E-02 
433	 0.087506189922351 
434	 8.83291533321752E-02 
435	 8.90474532440544E-02 
436	 0.089882294352498 
437	 9.06462902167885E-02 
438	 9.14357236177262E-02 
439	 9.24435774989551E-02 
440	 9.33144231710815E-02 
441	 9.40091530328066E-02 
442	 9.46265988943906E-02 
443	 9.54114967983582E-02 
444	 9.60745423126991E-02 
445	 9.66036872847704E-02 
446	 9.71018624918504E-02 
447	 9.77967967358917E-02 
448	 9.84614164520139E-02 
449	 9.89532599829166E-02 
450	 9.92418378076814E-02 
451	 0.099691761501372 
452	 0.100217523477279 
453	 0.100668930625989 
454	 0.10089649388008 
455	 0.101193530630564 
456	 0.101478409918373 
457	 0.101633522200671 
458	 0.102154124768323 
459	 0.102463874793179 
460	 0.102519211880619 
461	 0.102841470115714 
462	 0.103098421800507 
463	 0.10332429743705 
464	 0.103571381866468 
465	 0.103729526828544 
466	 0.104033381179894 
467	 0.10437239271148 
468	 0.104528093285106 
469	 0.104888103710341 
470	 0.105152814009514 
471	 0.105260438207748 
472	 0.105542282437037 
473	 0.105897622373722 
474	 0.106274310186899 
475	 0.106632718706898 
476	 0.106948878157573 
477	 0.107282712405742 
478	 0.107675352731553 
479	 0.108131889080581 
480	 0.108412824424685 
481	 0.108732435357234 
482	 0.109234445443773 
483	 0.109808449986574 
484	 0.1102722522573 
485	 0.110706546258919 
486	 0.111263906135198 
487	 0.111854380180356 
488	 0.112398106448687 
489	 0.112925573073308 
490	 0.11356979657489 
491	 0.114338574231362 
492	 0.115063370447385 
493	 0.115636921139745 
494	 0.116214491974896 
495	 0.11679740621507 
496	 0.117467726595862 
497	 0.118310872430147 
498	 0.119118932263193 
499	 0.11984634005113 
500	 0.120522463672973 
501	 0.12125716781753 
502	 0.122081712902067 
503	 0.122929292543059 
504	 0.123722233964775 
505	 0.124454666581402 
506	 0.125276107101016 
507	 0.126156543150398 
508	 0.126933639173104 
509	 0.127771851714177 
510	 0.12867536867339 
511	 0.129565770286833 
512	 0.130211572175314 
513	 0.131021084107936 
514	 0.13197143433156 
515	 0.132854314586165 
516	 0.133676880606338 
517	 0.134736803945276 
518	 0.13592057783742 
519	 0.136604869476708 
520	 0.13734823926921 
521	 0.138220012117532 
522	 0.139143970026284 
523	 0.139933160156447 
524	 0.140881730949258 
525	 0.141937240857815 
526	 0.142822712165485 
527	 0.143712607092869 
528	 0.14458504349208 
529	 0.145447629207299 
530	 0.146444178026332 
531	 0.14727818415808 
532	 0.148080739671402 
533	 0.149072081251663 
534	 0.149983111181035 
535	 0.150773901070869 
536	 0.151525712132155 
537	 0.152427144627617 
538	 0.153380599260643 
539	 0.154282078539865 
540	 0.155079408801857 
541	 0.155880630747319 
542	 0.15677851726654 
543	 0.157678964863844 
544	 0.158399004123246 
545	 0.159096002885225 
546	 0.159837806312275 
547	 0.160623245158725 
548	 0.161346159316099 
549	 0.162084375915007 
550	 0.162865999524676 
551	 0.163674194832972 
552	 0.1643486728367 
553	 0.164933955646299 
554	 0.165530896816857 
555	 0.166277195158188 
556	 0.166853929918853 
557	 0.167443282768878 
558	 0.168189967168908 
559	 0.168740165792751 
560	 0.169183521260518 
561	 0.169614049573602 
562	 0.170121462487529 
563	 0.17067408672853 
564	 0.171100576192827 
565	 0.171379159439046 
566	 0.171813682884026 
567	 0.17221431593184 
568	 0.172541499616576 
569	 0.172821917489595 
570	 0.173140756563155 
571	 0.17355269315703 
572	 0.173935597789263 
573	 0.173998782559364 
574	 0.174268879109043 
575	 0.174606781578627 
576	 0.17481592564079 
577	 0.175052992319709 
578	 0.175266961967165 
579	 0.175455168136538 
580	 0.175637526025422 
581	 0.175748373995161 
582	 0.175878793366202 
583	 0.176051362962687 
584	 0.176140594654983 
585	 0.176023784016206 
586	 0.175823822658407 
587	 0.175717195594253 
588	 0.175563986123601 
589	 0.175440964290835 
590	 0.175409640763919 
591	 0.175481094293737 
592	 0.175387324209462 
593	 0.175213552492033 
594	 0.175076523242948 
595	 0.174944464874397 
596	 0.174733828085205 
597	 0.174415900968057 
598	 0.174028739934354 
599	 0.173858236383044 
600	 0.173722603688738 
601	 0.173512396376355 
602	 0.17334537736624 
603	 0.173226535828583 
604	 0.173123624736128 
605	 0.172998351056688 
606	 0.172855289170807 
607	 0.172784866000957 
608	 0.172773054847049 
609	 0.172702614357662 
610	 0.172810758160902 
611	 0.172865992898573 
612	 0.172697213708667 
613	 0.172594921205289 
614	 0.172486497341212 
615	 0.172411177823019 
616	 0.172433492659521 
617	 0.172302203792284 
618	 0.172184925009269 
619	 0.17217521025258 
620	 0.172177542757708 
621	 0.172235298142408 
622	 0.172251835463823 
623	 0.172113911401832 
624	 0.171816448542879 
625	 0.171753471053387 
626	 0.171857759206285 
627	 0.171641813756742 
628	 0.171578635840768 
629	 0.171532059783429 
630	 0.171426689628821 
631	 0.171705741220444 
632	 0.171701299785499 
633	 0.171471420028766 
634	 0.171393114011268 
635	 0.171301581958781 
636	 0.171240255883525 
637	 0.17126550427946 
638	 0.171441939222585 
639	 0.17124053937778 
640	 0.170944699781358 
641	 0.170944679695925 
642	 0.171015502557371 
643	 0.17074688291969 
644	 0.170283179057353 
645	 0.170191538202725 
646	 0.169966745461396 
647	 0.169815072927996 
648	 0.16987046735654 
649	 0.169845301029863 
650	 0.169523999275672 
651	 0.169145284122525 
652	 0.16905206433202 
653	 0.168850470975221 
654	 0.168615270778659 
655	 0.168302780503741 
656	 0.167727056651763 
657	 0.167558229170698 
658	 0.16742988619105 
659	 0.166990924982668 
660	 0.166587939558923 
661	 0.166293747239315 
662	 0.166098376903568 
663	 0.165932936589751 
664	 0.165746701065664 
665	 0.165493935394281 
666	 0.165201088740645 
667	 0.165010864856259 
668	 0.165020140549775 
669	 0.16501304243172 
670	 0.164782445768571 
671	 0.164741352192681 
672	 0.164723752837603 
673	 0.164656547975879 
674	 0.16458076591664 
675	 0.164531584863739 
676	 0.164515991184858 
677	 0.164540649753046 
678	 0.164640564792999 
679	 0.164705437575503 
680	 0.164795457336983 
681	 0.165008788987098 
682	 0.165114776257117 
683	 0.16521707937431 
684	 0.165293975748385 
685	 0.165109596995118 
686	 0.165030926270191 
687	 0.165143202706368 
688	 0.16536950999315 
689	 0.165639660316392 
690	 0.165515716361545 
691	 0.165372367495972 
692	 0.165933274773431 
693	 0.165848722386252 
694	 0.165772808332328 
695	 0.166003423261901 
696	 0.165809915264251 
697	 0.165828212716113 
698	 0.165765657264458 
699	 0.165242999745858 
700	 0.164878670474239 
701	 0.164781825278332 
702	 0.164781269004976 
703	 0.164516971421177 
704	 0.163950987528065 
705	 0.163471512775589 
706	 0.163230640558954 
707	 0.162706365052631 
708	 0.162068375574458 
709	 0.161421136618623 
710	 0.160820477056389 
711	 0.160140685157709 
712	 0.15925043196525 
713	 0.158250852673652 
714	 0.157440340738736 
715	 0.156179051519589 
716	 0.154860661572391 
717	 0.153981065803451 
718	 0.152597670233357 
719	 0.151356277559045 
720	 0.150409675728746 
721	 0.149448546728186 
722	 0.148427057551533 
723	 0.1471116641053 
724	 0.145700589567701 
725	 0.144623331563642 
726	 0.14326175492887 
727	 0.141846852632421 
728	 0.140562316864731 
729	 0.1387915565775 
730	 0.137097668436991 
731	 0.135695685806718 
732	 0.134487221101074 
733	 0.133279736585441 
734	 0.132229422231328 
735	 0.131363080058379 
736	 0.130494361552856 
737	 0.129988206656425 
738	 0.12962768142463 
739	 0.12922342463965 
740	 0.129091135403334 
741	 0.129044004515917 
742	 0.128952080139389 
743	 0.128758136321544 
744	 0.128707248787653 
745	 0.128636924153173 
746	 0.128484529885102 
747	 0.128374315162695 
748	 0.128467825415737 
749	 0.128437541524387 
750	 0.128092115615973 
751	 0.128112783185688 
752	 0.128050765968837 
753	 0.127924118495518 
754	 0.127971005197878 
755	 0.127967861931765 
756	 0.127869491623613 
757	 0.127701404559687 
758	 0.127536029864594 
759	 0.127298482723829 
760	 0.126913606511582 
761	 0.126615880088121 
762	 0.126512754028634 
763	 0.126918591773644 
764	 0.127313213956917 
765	 0.127236371588315 
766	 0.127306280941132 
767	 0.12750708223209 
768	 0.127738270413922 
769	 0.127834767524197 
770	 0.12793057999196 
771	 0.128022048322711 
772	 0.128081591926113 
773	 0.128069375321033 
774	 0.128217853083751 
775	 0.128424079852317 
776	 0.128499249333179 
777	 0.128739050142345 
778	 0.128886383831507 
779	 0.128935395015633 
780	 0.129154004999626 
781	 0.129332967698099 
782	 0.129384943193506 
783	 0.12940359934974 
784	 0.129875285445843 
785	 0.129953847109562 
786	 0.129913973627596 
787	 0.13028002332959 
788	 0.130560432045476 
789	 0.130778214385608 
790	 0.131008692810738 
791	 0.131334338499169 
792	 0.131550382301917 
793	 0.131795479789986 
794	 0.132110954661446 
795	 0.132296532442993 
796	 0.132459911344081 
797	 0.132676392581199 
798	 0.132957110571459 
799	 0.133106184219393 
800	 0.133223087378943 
801	 0.133431611014594 
802	 0.133773710253904 
803	 0.133637714631706 
804	 0.133609404530974 
805	 0.133875746428778 
806	 0.134066362072919 
807	 0.133957049606389 
808	 0.133630443157968 
809	 0.133292197000221 
810	 0.133296565883688 
811	 0.132853425952052 
812	 0.132287523528082 
813	 0.132236132415047 
814	 0.131911610707564 
815	 0.131609782281417 
816	 0.131244359051005 
817	 0.130524255314175 
818	 0.130466505639645 
819	 0.130242706936987 
820	 0.129392912848495 
821	 0.128102016470076 
822	 0.127535740513395 
823	 0.127159632888956 
824	 0.126286127298207 
825	 0.125015721057326 
826	 0.123679882825725 
827	 0.122302984017831 
828	 0.120906644267935 
829	 0.119679844534443 
830	 0.118552911370777 
831	 0.117695802639347 
832	 0.117370727567359 
833	 0.116682154047376 
834	 0.115896014063583 
835	 0.11526175068725 
836	 0.114804619874695 
837	 0.114482326143435 
838	 0.114376610939875 
839	 0.11441023125508 
840	 0.114045907286352 
841	 0.113652447907244 
842	 0.113257538236389 
843	 0.112877432410248 
844	 0.113062462582698 
845	 0.11309529136324 
846	 0.112774872114781 
847	 0.112348439433841 
848	 0.112258867730318 
849	 0.112126324974712 
850	 0.111704127072095 
851	 0.111077198551381 
852	 0.110927128476957 
853	 0.110883948260249 
854	 0.11066007397155 
855	 0.110657013451901 
856	 0.110636849767856 
857	 0.110395926908601 
858	 0.109929690397606 
859	 0.109913262531933 
860	 0.109471987553478 
861	 0.109100756014993 
862	 0.109609404250382 
863	 0.109185532563161 
864	 0.108704307389379 
865	 0.10865480423411 
866	 0.108869566444353 
867	 0.10814635275115 
868	 0.107913048202249 
869	 0.108430225367319 
870	 0.108050605349836 
871	 0.107337198122296 
872	 0.106950597842525 
873	 0.107072346388731 
874	 0.106752775415596 
875	 0.106363832384067 
876	 0.106145933998514 
877	 0.106099522781705 
878	 0.105467836046319 
879	 0.105212959076915 
880	 0.105276690173989 
881	 0.105155328422838 
882	 0.1050831121845 
883	 0.104284493060993 
884	 0.103469222922651 
885	 0.104093732582379 
886	 0.1037759829486 
887	 0.103327137218739 
888	 0.103222157945648 
889	 0.103154766934572 
890	 0.103356869719879 
891	 0.10307245141254 
892	 0.102225130610478 
893	 0.102316342378262 
894	 0.102253507633069 
895	 0.101786143020171 
896	 0.101022123439256 
897	 0.100330476164309 
898	 0.10076599623722 
899	 0.101326340088364 
900	 0.100756191305029 
901	 9.96000091853721E-02 
902	 9.95777761406067E-02 
903	 9.99309586257265E-02 
904	 9.93894144848645E-02 
905	 9.93745582177858E-02 
906	 9.90129906673981E-02 
907	 9.87053665440819E-02 
908	 0.099422601687446 
909	 9.87222208489398E-02 
910	 9.84369385514381E-02 
911	 9.86595834500336E-02 
912	 9.78273878061438E-02 
913	 0.097720056992945 
914	 9.74741449891529E-02 
915	 9.69311336866226E-02 
916	 9.69594861038541E-02 
917	 9.64412416832397E-02 
918	 9.57567961690157E-02 
919	 0.095247276741873 
920	 9.49011465782072E-02 
921	 9.51829981755337E-02 
922	 9.55317918717907E-02 
923	 9.54197650938553E-02 
924	 9.48208773646376E-02 
925	 9.33351396701902E-02 
926	 9.26203029745352E-02 
927	 9.37627339635264E-02 
928	 9.31232683095484E-02 
929	 9.31427204630485E-02 
930	 9.32385817113796E-02 
931	 9.14576164401606E-02 
932	 8.90821204236585E-02 
933	 9.11273265710651E-02 
934	 9.41519477171266E-02 
935	 9.22835651197395E-02 
936	 9.11044500111454E-02 
937	 9.01806478911923E-02 
938	 8.99924248507716E-02 
939	 8.97815521532777E-02 
940	 0.082119444884669 
941	 8.45010766134433E-02 
942	 9.06683167814182E-02 
943	 8.64249158923681E-02 
944	 9.18652868854185E-02 
945	 0.093265411644059 
946	 9.13673857282731E-02 
947	 9.35473180867971E-02 
948	 8.20993547913352E-02 
949	 8.07483685930745E-02 
950	 8.86131580648968E-02 
951	 0.089551982088209 
952	 8.78397409263832E-02 
953	 8.71710287294222E-02 
954	 8.74989284637956E-02 
955	 8.67086227881404E-02 
956	 8.84180206655366E-02 
957	 9.00226163517022E-02 
958	 9.00807854428202E-02 
959	 8.88473084420745E-02 
960	 8.87505057486345E-02 
961	 8.68968799022981E-02 
962	 8.46334454565859E-02 
963	 8.57372865592332E-02 
964	 8.75995557458414E-02 
965	 8.83138053436448E-02 
966	 8.74832091265643E-02 
967	 8.61542527453925E-02 
968	 8.77729650513893E-02 
969	 8.85258719007211E-02 
970	 8.73063147037569E-02 
971	 8.62219352101169E-02 
972	 8.88823626090141E-02 
973	 8.89859917700793E-02 
974	 0.085186235782358 
975	 8.26052774514004E-02 
976	 8.67264963271407E-02 
977	 8.90333723890281E-02 
978	 8.74907888687653E-02 
979	 8.70727787658084E-02 
980	 8.78574762152243E-02 
981	 8.83120125539311E-02 
982	 8.81635339086761E-02 
983	 0.088147862856017 
984	 0.086916365858529 
985	 8.54090990420416E-02 
986	 8.46621186461015E-02 
987	 0.085507346383556 
988	 8.87652937975058E-02 
989	 8.94769158784729E-02 
990	 8.82176263822217E-02 
991	 8.89619520865868E-02 
992	 8.60654394930185E-02 
993	 8.42546891825275E-02 
994	 8.53145754330924E-02 
995	 8.74544083650738E-02 
996	 8.61134116257326E-02 
997	 8.32262023670413E-02 
998	 8.39088444322051E-02 
999	 9.11010218440197E-02 
1000	 8.94171671244537E-02 
1001	 8.57955104094644E-02 
1002	 8.55111881974316E-02 
1003	 8.55656093903085E-02 
1004	 0.086338761450925 
1005	 0.086396262967941 
1006	 0.08574703307126 
1007	 8.57522898085564E-02 
1008	 8.56421335150711E-02 
1009	 8.53421725638241E-02 
1010	 8.47838468671942E-02 
1011	 8.42338100835242E-02 
1012	 8.40615809309213E-02 
1013	 8.39371553126363E-02 
1014	 8.42800933167004E-02 
1015	 8.57356390542965E-02 
1016	 8.61760671984953E-02 
1017	 8.65098348738793E-02 
1018	 8.65125517399123E-02 
1019	 8.55326916027861E-02 
1020	 8.53931154502373E-02 
1021	 8.53881908092186E-02 
1022	 8.56738436675353E-02 
1023	 0.086279587386287 
1024	 8.69666189488857E-02 
1025	 8.61558487672621E-02 
1026	 8.51907502068687E-02 
1027	 8.48307114804442E-02 
1028	 8.39240573813797E-02 
1029	 8.40932389531852E-02 
1030	 8.54965281829737E-02 
1031	 8.60234140832154E-02 
1032	 8.66212840850029E-02 
1033	 8.70189357040541E-02 
1034	 8.72487772333748E-02 
1035	 8.72655212534391E-02 
1036	 8.69877957852266E-02 
1037	 8.68797084983967E-02 
1038	 8.63771116847372E-02 
1039	 8.64141586446303E-02 
1040	 8.66290730158954E-02 
1041	 8.65534797511163E-02 
1042	 8.66142622013813E-02 
1043	 8.67016639395456E-02 
1044	 8.66558077330362E-02 
1045	 8.65383573573061E-02 
1046	 8.65600342885098E-02 
1047	 8.65596683142496E-02 
1048	 8.65851395798519E-02 
1049	 8.67269374703165E-02 
1050	 8.68265846832049E-02 
1051	 8.71197176063539E-02 
1052	 8.69812551103311E-02 
1053	 0.086379114984488 
1054	 8.62207642180923E-02 
1055	 8.60112166798186E-02 
1056	 8.57689450572379E-02 
1057	 8.56440624004761E-02 
1058	 8.60461515855628E-02 
1059	 8.58218761578922E-02 
1060	 8.48591761371984E-02 
1061	 8.50111943696451E-02 
1062	 8.57493541314832E-02 
1063	 8.59465370558021E-02 
1064	 8.67075304548112E-02 
1065	 8.68154808295912E-02 
1066	 8.59221646967227E-02 
1067	 8.57038193622387E-02 
1068	 8.56068974715893E-02 
1069	 8.56740284081726E-02 
1070	 8.64425822444747E-02 
1071	 8.65020084284708E-02 
1072	 8.62014748187691E-02 
1073	 8.59700148014283E-02 
1074	 8.56432334667233E-02 
1075	 8.45755303699064E-02 
1076	 8.46370833087903E-02 
1077	 8.55236018775105E-02 
1078	 8.57332605722727E-02 
1079	 8.63468999835927E-02 
1080	 8.62182683995317E-02 
1081	 8.53183468422284E-02 
1082	 8.47558032000545E-02 
1083	 8.35268760699845E-02 
1084	 8.33875787338874E-02 
1085	 8.41446362388246E-02 
1086	 8.43529100552785E-02 
1087	 8.53729157186299E-02 
1088	 8.55973067591713E-02 
1089	 8.50069617442606E-02 
1090	 8.41689529935936E-02 
1091	 8.38095893391633E-02 
1092	 8.33085353252367E-02 
1093	 8.32715231826458E-02 
1094	 8.37353038749784E-02 
1095	 8.40329404261814E-02 
1096	 8.46055493998989E-02 
1097	 8.47006363578695E-02 
1098	 8.45684870027746E-02 
1099	 0.08464703280542 
1100	 0.084626591645811 
1101	 8.44806869754104E-02 
1102	 8.45497360003598E-02 
1103	 0.084216439343893 
1104	 8.32099723217948E-02 
1105	 8.26442348651736E-02 
1106	 8.13239749411075E-02 
1107	 8.04501365389371E-02 
1108	 8.09001973430899E-02 
1109	 8.13929977160815E-02 
1110	 8.18873126043897E-02 
1111	 8.42586346811249E-02 
1112	 8.41308167002861E-02 
1113	 8.10772104659639E-02 
1114	 8.04731968639339E-02 
1115	 7.99148380610192E-02 
1116	 7.97193946736558E-02 
1117	 8.27810586776138E-02 
1118	 0.083526420021193 
1119	 8.09576470783707E-02 
1120	 8.00519926461766E-02 
1121	 7.92100450273515E-02 
1122	 7.96568590322786E-02 
1123	 7.75670113514988E-02 
1124	 7.80647533486845E-02 
1125	 7.93961771592441E-02 
1126	 0.079407267957884 
1127	 8.20851667352396E-02 
1128	 8.36111339263432E-02 
1129	 8.46955051766776E-02 
1130	 8.43937888943142E-02 
1131	 8.32362377853031E-02 
1132	 0.082327792379465 
1133	 8.19990676038223E-02 
1134	 8.00257548475072E-02 
1135	 7.94467029540048E-02 
1136	 8.21132542911519E-02 
1137	 8.03051496860616E-02 
1138	 7.47497712663729E-02 
1139	 7.27689673713678E-02 
1140	 7.46629641051015E-02 
1141	 7.60851383067362E-02 
1142	 7.86524130045288E-02 
1143	 7.95138443335665E-02 
1144	 7.75141937645342E-02 
1145	 7.52222670524315E-02 
1146	 7.50665852691133E-02 
1147	 7.71611764796794E-02 
1148	 7.77846344959207E-02 
1149	 7.68223213241079E-02 
1150	 7.71493996552536E-02 
1151	 7.81741580770048E-02 
1152	 0.078949530534846 
1153	 8.03988363461628E-02 
1154	 8.00178498820623E-02 
1155	 7.89040434092419E-02 
1156	 7.76440304188904E-02 
1157	 7.75188513521087E-02 
1158	 7.87949332246481E-02 
1159	 7.91490970030705E-02 
1160	 7.87855936709594E-02 
1161	 7.88950067512558E-02 
1162	 7.83578927132209E-02 
1163	 7.78517008441638E-02 
1164	 7.84170728655819E-02 
1165	 7.85223853718436E-02 
1166	 7.80650530189229E-02 
1167	 7.84390001150147E-02 
1168	 0.078986409708129 
1169	 7.91117316999882E-02 
1170	 7.93754460009386E-02 
1171	 7.93731330545693E-02 
1172	 7.92355438648809E-02 
1173	 7.90164987022366E-02 
1174	 7.85869806756299E-02 
1175	 7.80844685835658E-02 
1176	 7.82666668475936E-02 
1177	 7.83268869610642E-02 
1178	 7.80966604766455E-02 
1179	 7.81268584955944E-02 
1180	 7.79643525418991E-02 
1181	 7.80673181518446E-02 
1182	 7.87878450327754E-02 
1183	 7.92560168138478E-02 
1184	 0.078955699596747 
1185	 7.84302624761218E-02 
1186	 7.82127737052292E-02 
1187	 7.81424709305339E-02 
1188	 7.83678148333531E-02 
1189	 7.87745259998938E-02 
1190	 7.85120217636481E-02 
1191	 7.81360698194961E-02 
1192	 7.81088959975331E-02 
1193	 7.82683672972274E-02 
1194	 7.82233420261438E-02 
1195	 7.83396836055317E-02 
1196	 7.85535090021816E-02 
1197	 7.83166964372182E-02 
1198	 7.79598823023937E-02 
1199	 7.78837936436781E-02 
1200	 7.77608410098505E-02 
1201	 7.75896732712778E-02 
1202	 0.077741209622643 
1203	 7.80908801727878E-02 
1204	 0.078209371503972 
1205	 0.07809240140302 
1206	 7.80559823735141E-02 
1207	 7.77655576778944E-02 
1208	 7.74853258892581E-02 
1209	 7.76198058681339E-02 
1210	 7.77473279993542E-02 
1211	 0.077893034789196 
1212	 7.81497437142124E-02 
1213	 7.82823243770243E-02 
1214	 7.82038853745994E-02 
1215	 7.79446928622469E-02 
1216	 7.76179427559547E-02 
1217	 7.74236344286115E-02 
1218	 0.077358495750721 
1219	 7.75274629021565E-02 
1220	 7.77399379752656E-02 
1221	 0.077792873686738 
1222	 7.76795727406289E-02 
1223	 0.077481731130696 
1224	 7.75551967710894E-02 
1225	 7.73408921838522E-02 
1226	 7.68528861077028E-02 
1227	 0.076967936764185 
1228	 7.71188950872014E-02 
1229	 7.72337791815742E-02 
1230	 7.76435576920741E-02 
1231	 7.74920676589658E-02 
1232	 7.69913813364659E-02 
1233	 7.69016980435348E-02 
1234	 7.71050051968929E-02 
1235	 7.71795261569608E-02 
1236	 7.75745186505755E-02 
1237	 7.75207446566224E-02 
1238	 0.077115553054936 
1239	 7.68218311488107E-02 
1240	 7.69710768182315E-02 
1241	 7.72982012050929E-02 
1242	 7.75532376975269E-02 
1243	 7.75387342425123E-02 
1244	 7.71812760601675E-02 
1245	 7.67441948472674E-02 
1246	 7.67649795121255E-02 
1247	 7.71252406023715E-02 
1248	 0.077130399779915 
1249	 7.69484373500726E-02 
1250	 7.67735152517205E-02 
1251	 7.66676868338983E-02 
1252	 7.68796689185662E-02 
1253	 7.70007626665573E-02 
1254	 7.67852592897454E-02 
1255	 7.65541030595546E-02 
1256	 7.64616255206258E-02 
1257	 0.076248992389078 
1258	 0.076218476952385 
1259	 7.65111642795628E-02 
1260	 7.63895426936636E-02 
1261	 7.59294356271734E-02 
1262	 0.075856865061195 
1263	 7.58529513660253E-02 
1264	 7.59113965171769E-02 
1265	 7.60883833182976E-02 
1266	 7.63244121181251E-02 
1267	 7.64711378149493E-02 
1268	 7.64636213961165E-02 
1269	 7.63285068954293E-02 
1270	 0.076165004188757 
1271	 7.59387129830392E-02 
1272	 7.59230689403432E-02 
1273	 7.60477263972038E-02 
1274	 7.58074502596821E-02 
1275	 7.58356571673244E-02 
1276	 0.076031245190964 
1277	 7.58739097014027E-02 
1278	 7.58564609263245E-02 
1279	 7.58661273867492E-02 
1280	 7.57136026621342E-02 
1281	 7.55712004175542E-02 
1282	 7.57177446963894E-02 
1283	 7.58796823909557E-02 
1284	 7.58343912460576E-02 
1285	 7.56654752694861E-02 
1286	 7.57659140495075E-02 
1287	 7.57058203313818E-02 
1288	 7.51616418097263E-02 
1289	 7.51091611993049E-02 
1290	 7.55829262200397E-02 
1291	 0.075395867966328 
1292	 0.075363662332165 
1293	 7.55074298941205E-02 
1294	 7.52633459168086E-02 
1295	 7.50114992125017E-02 
1296	 7.51573807051707E-02 
1297	 7.53084983992401E-02 
1298	 0.074961527022229 
1299	 7.46832089199331E-02 
1300	 7.43000957431126E-02 
1301	 7.40557849437561E-02 
1302	 7.42790274137783E-02 
1303	 0.074244807279001 
1304	 7.40769212044604E-02 
1305	 7.38763299547825E-02 
1306	 7.37799512697353E-02 
1307	 7.36386213618007E-02 
1308	 7.37400361346446E-02 
1309	 7.43248373046011E-02 
1310	 0.074241941177686 
1311	 7.36755555449554E-02 
1312	 0.073562216243954 
1313	 7.34232295457903E-02 
1314	 7.31824172101091E-02 
1315	 7.30493416667598E-02 
1316	 7.32003302008414E-02 
1317	 7.36187274795968E-02 
1318	 7.35084407044518E-02 
1319	 7.31179196701748E-02 
1320	 7.30872921986975E-02 
1321	 7.28249223725203E-02 
1322	 7.28421658938295E-02 
1323	 7.27194796410153E-02 
1324	 7.24941809357841E-02 
1325	 7.21139218472504E-02 
1326	 7.06794663038405E-02 
1327	 7.08732050978426E-02 
1328	 7.26512552539104E-02 
1329	 7.30972909721322E-02 
1330	 7.31751254897107E-02 
1331	 7.30339579959396E-02 
1332	 7.19974791971548E-02 
1333	 7.09790567228004E-02 
1334	 0.071605847439765 
1335	 7.17166630480124E-02 
1336	 7.13129826947645E-02 
1337	 7.09976088502371E-02 
1338	 7.15565054220093E-02 
1339	 7.14422511586041E-02 
1340	 7.02517984722651E-02 
1341	 6.95515328504825E-02 
1342	 6.89524160506551E-02 
1343	 6.85590872592766E-02 
1344	 6.79742904122794E-02 
1345	 6.80576809519816E-02 
1346	 7.19263751062212E-02 
1347	 7.10712448388771E-02 
1348	 6.14108533412032E-02 
1349	 5.75398034364841E-02 
1350	 5.57398188536522E-02 
1351	 0.045573407846737 
1352	 3.46018544550328E-02 
1353	 3.23110531335667E-02 
1354	 3.68271386285265E-02 
1355	 1.96318576769163E-02 
1356	 4.27247431166314E-02 
1357	 7.32158549602788E-02 
1358	 1.52510381186404E-02 
1359	-0.148060483377727 
1360	-0.413519404325296 
1361	-0.591189169202362 
1362	-0.655470099300641 
1363	-0.707838204937878 
1364	-0.486600234421723 
1365	-0.100720897751172 
1366	-0.243599194678734 
1367	-0.668376054905917 
1368	-0.590005660489104 
1369	-0.583740289458446 
1370	-0.6465078063788 
1371	-4.22314170103942E-02 
1372	-1.13535697186931E-02 
1373	-0.518740885903716 
1374	-0.618167301621805 
1375	-0.187800044669605 
1376	-0.238509320961757 
1377	-0.402692829733138 
1378	-0.412632352076388 
1379	-0.400154095941307 
1380	-0.464129969138892 
1381	-0.60388279072792 
1382	-0.652963060474336 
1383	-1.32204428663955 
1384	-1.29935791688883 
1385	 0.188948153955543 
1386	 0.331467542043869 
1387	-0.384308677002132 
1388	-0.453547692864985 
1389	-0.52413771519101 
1390	-1.01154728549056 
1391	-1.99491498134459 
1392	-1.76788331767041 
1393	-1.46233391336587 
1394	-0.93776329963325 
1395	-0.68660219144511 
1396	-0.719039621292807 
1397	-0.885841432322024 
1398	-1.19930447445745 
1399	-2.67570318886176 
1400	-3.90879915508073 
1401	-4.22356101866545 
1402	-17.0901953242207 
1403	-1.20018231924741 
1404	-0.641697007073771 
1405	-0.498848791044888 
1406	-0.57576564117018 
1407	-0.636614212797603 
1408	-0.62984422188865 
1409	-0.524727639090058 
1410	-0.624342983488886 
1411	-0.538998531525894 
1412	-0.194795473138684 
1413	-0.132890396865776 
1414	-0.248328633006525 
1415	-0.206084666028694 
1416	-9.22277436334781E-02 
1417	-7.26079595029018E-02 
1418	-8.46337271834268E-02 
1419	-0.057193224008884 
1420	-0.052454119391385 
1421	-3.30271864293418E-02 
1422	 0.025662006996229 
1423	 3.71200814798604E-02 
1424	 2.27484798921261E-02 
1425	 2.14978356938783E-02 
1426	 1.26834074979699E-02 
1427	 1.54649196204996E-02 
1428	 3.68191490847592E-02 
1429	 0.036678723744816 
1430	 1.49695471360012E-02 
1431	 1.66183103068183E-02 
1432	 2.84128987589161E-02 
1433	 3.11077237272052E-02 
1434	 4.45895603056796E-02 
1435	 5.16051314175632E-02 
1436	 5.25659065607738E-02 
1437	 4.42845676062073E-02 
1438	 1.83721642122213E-02 
1439	 1.46077608803216E-02 
1440	 2.52039268658889E-02 
1441	 1.80030519989674E-02 
1442	 1.66706057441847E-02 
1443	 0.022760244664877 
1444	 2.12786485868777E-02 
1445	 1.66557246454342E-02 
1446	 1.79493485351984E-02 
1447	 2.33402429744219E-02 
1448	 2.66239055923515E-02 
1449	 2.96764967341389E-02 
1450	 3.11237291054023E-02 
1451	 3.17987291611178E-02 
1452	 3.39831299431566E-02 
1453	 3.46143041945894E-02 
1454	 0.036651547709775 
1455	 4.13232108099735E-02 
1456	 4.26286371082645E-02 
1457	 4.24336903652943E-02 
1458	 4.32014400602386E-02 
1459	 4.39887047035095E-02 
1460	 4.44497943877899E-02 
1461	 4.54444766417013E-02 
1462	 4.46303142529864E-02 
1463	 4.19175079563282E-02 
1464	 4.11504342633931E-02 
1465	 3.94161342594894E-02 
1466	 3.97591222667034E-02 
1467	 4.34429153598041E-02 
1468	 4.49549009648791E-02 
1469	 4.68626931702148E-02 
1470	 4.74044763344161E-02 
1471	 4.63173069846908E-02 
1472	 4.48630065161952E-02 
1473	 4.08814043529648E-02 
1474	 4.19619063703172E-02 
1475	 4.55193662406954E-02 
1476	 0.046171001662632 
1477	 4.91609529043271E-02 
1478	 5.02975176766554E-02 
1479	 4.77041166721169E-02 
1480	 4.75487983290432E-02 
1481	 4.94830631153437E-02 
1482	 4.91607306287811E-02 
1483	 4.77640647791608E-02 
1484	 4.71067254627257E-02 
1485	 4.65910525772723E-02 
1486	 0.045969827689062 
1487	 4.45314121919775E-02 
1488	 4.49052507328493E-02 
1489	 4.64654227719693E-02 
1490	 4.65968267402028E-02 
1491	 4.67540659347157E-02 
1492	 4.71905962238732E-02 
1493	 4.67894510568213E-02 
1494	 4.70864678636944E-02 
1495	 4.87408481471263E-02 
1496	 4.90027690686524E-02 
1497	 4.79893828883274E-02 
1498	 4.82707388600019E-02 
1499	 4.89547257400427E-02 
1500	 4.90944015156858E-02 
1501	 4.99300660350639E-02 
1502	 5.04816220622071E-02 
1503	 0.050343349128249 
1504	 5.01240959152792E-02 
1505	 5.02366228484435E-02 
1506	 4.97170078305485E-02 
1507	 4.94091282713754E-02 
1508	 4.94429074181798E-02 
1509	 4.97303525958214E-02 
1510	 5.05811154575222E-02 
1511	 5.09810025259518E-02 
1512	 5.09167067773141E-02 
1513	 5.15327301302881E-02 
1514	 5.18597908655903E-02 
1515	 5.19311155025046E-02 
1516	 5.24379773250791E-02 
1517	 5.26868419996508E-02 
1518	 5.28439763618458E-02 
1519	 5.25983910747051E-02 
1520	 5.27474110223582E-02 
1521	 5.33282187793419E-02 
1522	 5.31314533776593E-02 
1523	 5.30460508177087E-02 
1524	 5.32451482448463E-02 
1525	 5.35334926057638E-02 
1526	 5.38296778443423E-02 
1527	 5.38679061048304E-02 
1528	 5.39289181115961E-02 
1529	 5.36578716747059E-02 
1530	 5.30973256812721E-02 
1531	 5.31408818847162E-02 
1532	 5.35947862091325E-02 
1533	 5.38042796534064E-02 
1534	 5.41064333958943E-02 
1535	 5.45626895225828E-02 
1536	 5.48485450123247E-02 
1537	 5.51811232216296E-02 
1538	 5.55878394810254E-02 
1539	 0.055960623557827 
1540	 5.62483449168645E-02 
1541	 5.62656255478747E-02 
1542	 5.61896284386042E-02 
1543	 5.64122454948651E-02 
1544	 5.64281975898277E-02 
1545	 5.59667158044301E-02 
1546	 0.056176409003727 
1547	 5.67688641192556E-02 
1548	 5.67900507058571E-02 
1549	 5.72465797084606E-02 
1550	 5.77937051165655E-02 
1551	 5.71659312497975E-02 
1552	 5.68557917125669E-02 
1553	 5.69730395836909E-02 
1554	 5.64823241344364E-02 
1555	 5.64775615739802E-02 
1556	 5.69000075761061E-02 
1557	 5.70898528364293E-02 
1558	 5.71991264937355E-02 
1559	 5.72454981085725E-02 
1560	 5.73152505261909E-02 
1561	 0.057340697471436 
1562	 5.73614556971721E-02 
1563	 5.75294023259077E-02 
1564	 5.75975594223671E-02 
1565	 5.75970395932925E-02 
1566	 5.77748511302002E-02 
1567	 5.81215368394863E-02 
1568	 5.81447968268391E-02 
1569	 5.80547556996121E-02 
1570	 5.86012422728248E-02 
1571	 5.86592338897973E-02 
1572	 5.79640547184589E-02 
1573	 5.82050812770086E-02 
1574	 0.05863121844002 
1575	 5.82896911978849E-02 
1576	 5.86164557255006E-02 
1577	 5.87839312089288E-02 
1578	 5.78801498558506E-02 
1579	 5.80075239887657E-02 
1580	 5.89916277705021E-02 
1581	 5.91904828732273E-02 
1582	 5.93452381126351E-02 
1583	 5.96354979305039E-02 
1584	 5.94644147732698E-02 
1585	 5.88775549344165E-02 
1586	 5.86440308786897E-02 
1587	 0.059022599712087 
1588	 5.94506278529792E-02 
1589	 6.02006712559737E-02 
1590	 6.04825010004873E-02 
1591	 6.02197118965945E-02 
1592	 5.99657834383915E-02 
1593	 5.96361350064265E-02 
1594	 5.96020277718689E-02 
1595	 0.059437421704488 
1596	 5.94695293262105E-02 
1597	 6.00137763124312E-02 
1598	 6.01535214666094E-02 
1599	 6.01251794060207E-02 
1600	 6.01549690854206E-02 
1601	 5.98269668274525E-02 
1602	 5.99202414142193E-02 
1603	 6.02934325585192E-02 
1604	 0.060078135103732 
1605	 5.94379982707609E-02 
1606	 5.89936323421376E-02 
1607	 5.93797979255132E-02 
1608	 5.95027714719045E-02 
1609	 5.86966728903988E-02 
1610	 5.84930915034619E-02 
1611	 5.90082364615471E-02 
1612	 5.94326077817363E-02 
1613	 6.00960576270935E-02 
1614	 6.06507059195148E-02 
1615	 6.02151173507913E-02 
1616	 5.94973733612838E-02 
1617	 5.96360492189205E-02 
1618	 6.01389874252015E-02 
1619	 6.03388689732562E-02 
1620	 6.01901399009695E-02 
1621	 6.02060495970723E-02 
1622	 6.08506356536135E-02 
1623	 6.11474032829732E-02 
1624	 6.07945070353876E-02 
1625	 6.04344978142245E-02 
1626	 6.02248967262108E-02 
1627	 6.03123423846624E-02 
1628	 6.05633014504985E-02 
1629	 6.08081208485762E-02 
1630	 6.07247703628198E-02 
1631	 6.03105654718787E-02 
1632	 6.05953199539322E-02 
1633	 6.13452576673467E-02 
1634	 0.060852954745886 
1635	 5.99547648501818E-02 
1636	 6.03030566157564E-02 
1637	 6.05323647845081E-02 
1638	 6.05892492848567E-02 
1639	 6.09859974030856E-02 
1640	 6.06810007156224E-02 
1641	 0.060448580186526 
1642	 6.05776803894009E-02 
1643	 6.06377886124863E-02 
1644	 6.07846561659085E-02 
1645	 6.04278074753786E-02 
1646	 6.00335827600246E-02 
1647	 6.04589684200891E-02 
1648	 6.06709075745624E-02 
1649	 6.01838530549822E-02 
1650	 6.02345891269212E-02 
1651	 6.06448181360994E-02 
1652	 0.060468079941828 
1653	 6.07622063028418E-02 
1654	 6.06648398918214E-02 
1655	 5.99326825030145E-02 
1656	 5.98985071766357E-02 
1657	 6.00501301494566E-02 
1658	 5.99323206864695E-02 
1659	 6.01206726246726E-02 
1660	 6.04705534703791E-02 
1661	 6.08403033867619E-02 
1662	 6.07467084716605E-02 
1663	 6.03746199457241E-02 
1664	 6.04938431350669E-02 
1665	 6.06362579646065E-02 
1666	 6.06730338041698E-02 
1667	 6.11502321266876E-02 
1668	 6.06572133698201E-02 
1669	 6.03974632946072E-02 
1670	 6.10113220013833E-02 
1671	 6.15968962172317E-02 
1672	 6.12918762372301E-02 
1673	 6.04628885464489E-02 
1674	 0.059824926478146 
1675	 6.01660781036893E-02 
1676	 0.061356618364513 
1677	 6.20484119527626E-02 
1678	 6.17666265604211E-02 
1679	 6.09376445442486E-02 
1680	 5.99670605153939E-02 
1681	 5.95828673116726E-02 
1682	 5.98006584274664E-02 
1683	 6.03401494374502E-02 
1684	 6.09279452381074E-02 
1685	 6.15270272526965E-02 
1686	 6.20589428157118E-02 
1687	 6.17819561610946E-02 
1688	 6.11532458494314E-02 
1689	 6.09318228611553E-02 
1690	 6.04071445274971E-02 
1691	 6.05298914554617E-02 
1692	 6.13756878602126E-02 
1693	 6.10083900262768E-02 
1694	 6.06634242424226E-02 
1695	 6.06430767666064E-02 
1696	 6.05013480398663E-02 
1697	 0.060981720699607 
1698	 6.13709900096185E-02 
1699	 6.07278073813724E-02 
1700	 6.01466464364081E-02 
1701	 0.06071384268535 
1702	 6.04806089338111E-02 
1703	 6.01019167751202E-02 
1704	 6.05207745296421E-02 
1705	 0.059734148240524 
1706	 5.95398384645045E-02 
1707	 6.09146055224883E-02 
1708	 6.12848097726792E-02 
1709	 6.09691475592524E-02 
1710	 6.09946801214625E-02 
1711	 6.06873288434868E-02 
1712	 0.060087638378863 
1713	 6.02379378805648E-02 
1714	 6.06489358220676E-02 
1715	 6.20016587678463E-02 
1716	 6.14423592128565E-02 
1717	 6.03791780554035E-02 
1718	 5.95990183140581E-02 
1719	 5.87994090191531E-02 
1720	 5.90775862801892E-02 
1721	 5.97615258890625E-02 
1722	 0.059439216762987 
1723	 5.98416121909641E-02 
1724	 6.03243494106725E-02 
1725	 0.059629342633027 
1726	 5.91803330540282E-02 
1727	 5.89720095549472E-02 
1728	 5.90531825398235E-02 
1729	 6.00267354597981E-02 
1730	 6.03620342777274E-02 
1731	 6.02386839292162E-02 
1732	 5.97941550490674E-02 
1733	 0.058462596509798 
1734	 0.058414536101226 
1735	 5.91192954845715E-02 
1736	 5.94949752642948E-02 
1737	 6.04119829360342E-02 
1738	 6.02049206344962E-02 
1739	 5.92088707827318E-02 
1740	 5.91004571555337E-02 
1741	 5.82161651533146E-02 
1742	 5.76048262016083E-02 
1743	 5.82877361633341E-02 
1744	 5.80817015410526E-02 
1745	 5.82650284037936E-02 
1746	 5.80627153871415E-02 
1747	 5.77377902803531E-02 
1748	 5.68497564284022E-02 
1749	 5.68777003428091E-02 
1750	 5.82208450505409E-02 
1751	 5.84286595564421E-02 
1752	 5.81226986411056E-02 
1753	 0.057846125479531 
1754	 5.68394218812802E-02 
1755	 5.67522034779541E-02 
1756	 5.73055046414146E-02 
1757	 5.71279727505637E-02 
1758	 0.057514944206815 
1759	 5.71742855409833E-02 
1760	 5.68635010610034E-02 
1761	 5.71322171044188E-02 
1762	 5.66650324260669E-02 
1763	 5.61929299130403E-02 
1764	 5.61766220348718E-02 
1765	 5.61703331001158E-02 
1766	 5.56066992644188E-02 
1767	 5.48338484141613E-02 
1768	 5.56772998852933E-02 
1769	 5.68090473455853E-02 
1770	 5.68213072114116E-02 
1771	 5.66470667556309E-02 
1772	 5.47915920241948E-02 
1773	 5.21097568259228E-02 
1774	 5.21506882782827E-02 
1775	 5.57406035943001E-02 
1776	 0.056319790026817 
1777	 5.53079127451115E-02 
1778	 5.50648082407369E-02 
1779	 5.30228052905529E-02 
1780	 5.17155465528375E-02 
1781	 5.15870844032484E-02 
1782	 5.25687916684832E-02 
1783	 5.48996652808279E-02 
1784	 5.51808589414928E-02 
1785	 5.65268721546888E-02 
1786	 0.054238101233022 
1787	 0.044888653954084 
1788	 4.32781472194881E-02 
1789	 4.58096317244378E-02 
1790	 4.89431323583716E-02 
1791	 5.20343720050843E-02 
1792	 4.66747266292734E-02 
1793	 3.87023131169998E-02 
1794	 0.035171467360084 
1795	 3.32921697743833E-02 
1796	 4.29440491725192E-02 
1797	 5.06067416139413E-02 
1798	 0.046568502764999 
1799	 5.19185682767964E-02 
1800	 4.36533931344177E-02 
1801	 0.035010949758208 
1802	 1.93751029808424E-02 
1803	 0.011706228206273 
1804	 1.39714839759713E-02 
1805	 1.90741869857326E-02 
1806	 7.39372013235263E-02 
1807	 8.67268238800751E-02 
1808	 2.87836952559335E-02 
1809	-1.00403291418136E-02 
1810	-0.117434132497472 
1811	-0.163421834405619 
1812	-4.42185986150569E-02 
1813	-7.10036765986093E-02 
1814	-0.165047358809622 
1815	-0.303676112299032 
1816	-1.06604747928873 
1817	-1.06416447022452 
1818	-1.6738788336545 
1819	-0.605371983639867 
1820	-0.283648687125685 
1821	-0.874428707535487 
1822	-1.17644827321198 
1823	-2.31315824242058 
1824	-2.47198203941375 
1825	-1.31756625560887 
1826	-1.16694854485589 
1827	-0.900063215672673 
1828	-1.00024693202624 
1829	-2.77449667784227 
1830	-4.62164842996699 
1831	 0.698560407548433 
1832	 0.709400778676363 
1833	 1.23082336152428 
1834	 3.73929911648601 
1835	-0.765956189100558 
1836	-1.92238650380138 
1837	 0.592488408208632 
1838	 0.157868457985732 
1839	-0.524022240847715 
1840	-1.38667455984707 
1841	-3.19021359385077 
1842	 10.7790130193698 
1843	 1.77865493799925 
1844	 0.261826611345848 
1845	 0.23669320341895 
1846	 0.429507446466231 
1847	 0.628080299870107 
1848	 3.65805814006374 
1849	-5.01983767272315 
1850	-3.36463014629217 
1851	-3.48288399720053 
1852	 7.48995093321834 
1853	 13.3124061657383 
1854	 4.07792597640225 
1855	 0.452293594394171 
1856	 0.319869221946721 
1857	 0.550254195086981 
1858	 0.890362340558005 
1859	 3.98361287898012 
1860	-1.11170207013073 
1861	-0.210875399795632 
1862	 0.765837589635526 
1863	 2.34613204827584 
1864	 1.54805577944863 
1865	 1.19809030167882 
1866	-4.95493158370282 
1867	 7.24817084631203 
1868	 4.06623176918482 
1869	 2.13115030988822 
1870	 1.10021333820716 
1871	 0.312299976986311 
1872	-0.185582471254495 
1873	 3.63203189442419E-02 
1874	 0.134538647312185 
1875	 0.15886794160411 
1876	 0.188118789513131 
1877	 0.40155831148547 
1878	 0.529871227858068 
1879	 1.06157131652156 
1880	 2.68577259867791E-02 
1881	-6.75547332128329E-02 
1882	 0.272528480820739 
1883	 1.18154714424363 
1884	 4.67979754421186 
1885	-1.78942400344868 
1886	-0.708543360098067 
1887	-1.36681637909824 
1888	-1.61624771127914 
1889	-0.77046197450703 
1890	-1.98906880694677 
1891	-3.26534267891114 
1892	-0.517184048153766 
1893	-3.57752478425656 
1894	 6.37200016237233 
1895	-1.7468588792434 
1896	-13.8105216721849 
1897	-0.716878765642613 
1898	-0.759946547396144 
1899	-1.11694460416616 
1900	-0.753819735835452 
1901	 0.208732647503077 
1902	 0.501771621057857 
1903	 1.13641923191214 
1904	 2.24351547788331 
1905	-4.3453733712489 
1906	-0.554312846631876 
1907	 0.184206776443928 
1908	 9.18840667050847 
1909	-4.46770964771303 
1910	-0.265778554028551 
1911	 0.30871290600778 
1912	 0.488308923197655 
1913	 0.506942525945116 
1914	-0.497129888286658 
1915	-1.7963541618524 
1916	 28.4998714998201 
1917	 1.4861181167603 
1918	 0.680968668397696 
1919	 0.73133682055842 
1920	 0.875224321606806 
1921	 0.483850594040405 
1922	-1.53593815773738 
1923	-28.2046798108962 
1924	-2.9709427538735 
1925	-0.672668562858474 
1926	-0.160889187220302 
1927	 0.315888397322004 
1928	 1.26128225982442 
1929	 1.27042635312528 
1930	 0.115839535157805 
1931	 0.262904639762702 
1932	 0.686100239192463 
1933	 0.57333571353676 
1934	 0.473041047631069 
1935	 0.825768023749802 
1936	 0.974415301260988 
1937	 0.774992865210929 
1938	 0.980716223405209 
1939	 0.915170068615139 
1940	 0.686916698493831 
1941	 0.261629410170609 
1942	 0.250733289767583 
1943	 0.264319043473325 
1944	 0.202078100159466 
1945	 0.174328742373374 
1946	 0.107819194078489 
1947	-1.37569546441073E-03 
1948	-6.32643507581725E-02 
1949	-6.61244713283502E-02 
1950	-0.013064078163253 
1951	 0.055117934761193 
1952	 8.60131749818711E-02 
1953	 0.133937547930041 
1954	 0.141743496401628 
1955	 9.29240724298812E-02 
1956	 4.87237791099807E-02 
1957	 0.042893387227705 
1958	 4.00498018939437E-02 
1959	 0.041253366226435 
1960	 3.42909019853673E-02 
1961	 1.35417297331899E-02 
1962	 1.96443004228061E-02 
1963	 3.14253212305562E-02 
1964	 2.89969895667931E-02 
1965	 3.41405982605221E-02 
1966	 3.85714662211718E-02 
1967	 0.039619582404415 
1968	 0.037370917882418 
1969	 4.00193193405948E-02 
1970	 3.90544433497561E-02 
1971	 3.65881256430915E-02 
1972	 2.95473008282031E-02 
1973	 2.33390420039688E-02 
1974	 2.56143562607709E-02 
1975	 2.59896667089924E-02 
1976	 2.68534710182838E-02 
1977	 3.20592308974864E-02 
1978	 3.77929598600188E-02 
1979	 3.97202566501469E-02 
1980	 0.039532281455989 
1981	 3.92954450969591E-02 
1982	 3.87330734581082E-02 
1983	 0.034173205996402 
1984	 3.16060939039858E-02 
1985	 3.17086958084562E-02 
1986	 2.90942686924923E-02 
1987	 2.79918750131954E-02 
1988	 2.97476506838388E-02 
1989	 2.96273741165202E-02 
1990	 2.98492523975899E-02 
1991	 3.17199537491451E-02 
1992	 3.39623164987228E-02 
1993	 3.75496888521142E-02 
1994	 3.80402952401394E-02 
1995	 3.88567852774305E-02 
1996	 0.038311812432652 
1997	 3.25595036126819E-02 
1998	 2.19884926515523E-02 
1999	 2.14516950022862E-02 
2000	 2.45343811235672E-02 
2001	 2.46827596155925E-02 
2002	 2.87516531138593E-02 
2003	 3.45787132139725E-02 
2004	 4.05734667863874E-02 
2005	 4.25282543506681E-02 
2006	 4.76631102813654E-02 
2007	 5.61287597850874E-02 
2008	 5.18720788107903E-02 
2009	 4.74211667997598E-02 
2010	 4.32018958425656E-02 
2011	 4.08281481992416E-02 
2012	 3.57308154103551E-02 
2013	 2.67439289994503E-02 
2014	 2.52469037158198E-02 
2015	 3.45290811586744E-02 
2016	 3.84494668956036E-02 
2017	 4.31055336365496E-02 
2018	 4.37623413891088E-02 
2019	 0.035075051839268 
2020	 3.05870580699713E-02 
2021	 2.84309675012442E-02 
2022	 2.92559916965645E-02 
2023	 3.44462037026884E-02 
2024	 3.61509545268105E-02 
2025	 3.63937300111007E-02 
2026	 3.52999987776432E-02 
2027	 3.34398655705159E-02 
2028	 3.19353683688505E-02 
2029	 2.99966929783128E-02 
2030	 3.04616362066467E-02 
2031	 3.19518767346318E-02 
2032	 3.16204361177935E-02 
2033	 3.20888478224142E-02 
2034	 0.033317589826165 
2035	 0.03290489904804 
2036	 3.29967120795019E-02 
2037	 3.51177761127898E-02 
2038	 3.59601538102765E-02 
2039	 3.63935343963477E-02 
2040	 3.83500493216318E-02 
2041	 3.87706129709786E-02 
2042	 3.64683616586959E-02 
2043	 3.58933454906872E-02 
2044	 3.59856718651401E-02 
2045	 3.70387965269165E-02 
2046	 3.54045382010467E-02 
2047	 3.32052956171656E-02 
2048	 3.17273588498771E-02 
2049	 3.07572670475658E-02 
2050	 3.47134373391652E-02 
2051	 3.82657170703745E-02 
2052	 3.96319083066045E-02 
2053	 3.92801500203353E-02 
2054	 3.58671237986575E-02 
2055	 3.50544794415519E-02 
2056	 3.35876065477482E-02 
2057	 3.25389910413738E-02 
2058	 3.23772864839593E-02 
2059	 0.032056903568995 
2060	 3.12182303299709E-02 
2061	 3.13474662476066E-02 
2062	 3.13675847581301E-02 
2063	 3.02250120833252E-02 
2064	 2.95069162657225E-02 
2065	 2.97080548019006E-02 
2066	 0.031139497029993 
2067	 3.00170318293601E-02 
2068	 2.86437640854524E-02 
2069	 3.03434113289685E-02 
2070	 3.09043911228344E-02 
2071	 3.19783771727066E-02 
2072	 3.62294744082829E-02 
2073	 3.72449370905049E-02 
2074	 3.51284733211274E-02 
2075	 3.51364566282604E-02 
2076	 3.61975732150298E-02 
2077	 3.57783404508544E-02 
2078	 3.41714751319138E-02 
2079	 3.40004605720023E-02 
2080	 3.40082216820017E-02 
2081	 3.37635612117927E-02 
2082	 3.29494156768814E-02 
2083	 3.52710206819848E-02 
2084	 3.83979001941125E-02 
2085	 3.84950989569651E-02 
2086	 3.94753342239658E-02 
2087	 4.12827250283029E-02 
2088	 0.040727450485332 
2089	 3.97857277873007E-02 
2090	 3.97239478950533E-02 
2091	 0.039812703875763 
2092	 4.04638754699265E-02 
2093	 4.25041640761165E-02 
2094	 4.28955127525067E-02 
2095	 4.30391912581724E-02 
2096	 4.24647006280345E-02 
2097	 3.86609742222069E-02 
2098	 3.83315639524272E-02 
2099	 0.039524928137736 
2100	 0.041872080761512 
2101	 4.21430926728692E-02 
2102	 4.46843846802595E-02 
2103	 4.57150307771789E-02 
2104	 4.38446497404341E-02 
2105	 4.35544980320495E-02 
2106	 4.23129579183175E-02 
2107	 4.07209163679744E-02 
2108	 4.21751877675849E-02 
2109	 4.13849755865807E-02 
2110	 3.84750679411735E-02 
2111	 3.87951625334437E-02 
2112	 3.78593448075291E-02 
2113	 0.037932497916295 
2114	 4.21873255491158E-02 
2115	 4.31606948033239E-02 
2116	 4.10243392325182E-02 
2117	 4.09999684280093E-02 
2118	 0.041504792258731 
2119	 4.19422484460998E-02 
2120	 4.27596962134896E-02 
2121	 4.42751782149751E-02 
2122	 4.49821446988926E-02 
2123	 4.40461645781639E-02 
2124	 0.04448368731547 
2125	 4.39046001259976E-02 
2126	 4.32597026450927E-02 
2127	 4.47777505840831E-02 
2128	 4.57112407949186E-02 
2129	 4.53907641374731E-02 
2130	 4.45808972679505E-02 
2131	 4.39184512421912E-02 
2132	 4.27716931079087E-02 
2133	 4.06290181088591E-02 
2134	 3.97393433819834E-02 
2135	 0.039140686498073 
2136	 3.86388967043861E-02 
2137	 3.82421467768699E-02 
2138	 3.95052963664069E-02 
2139	 4.27090839763505E-02 
2140	 0.043445644816476 
2141	 4.49512628382536E-02 
2142	 4.53331307003681E-02 
2143	 0.044046139822904 
2144	 0.040388980227192 
2145	 4.02229466265629E-02 
2146	 4.22573241826298E-02 
2147	 4.36150811449604E-02 
2148	 4.78100115017988E-02 
2149	 5.05321039056879E-02 
2150	 4.79689768391632E-02 
2151	 4.61756353708003E-02 
2152	 4.43787488251375E-02 
2153	 4.34240815670382E-02 
2154	 4.55611430466638E-02 
2155	 4.63609632023058E-02 
2156	 4.69063863858458E-02 
2157	 4.76504918002652E-02 
2158	 4.81649431747878E-02 
2159	 4.73425638929484E-02 
2160	 0.045508776173712 
2161	 4.60319580266415E-02 
2162	 4.73310692738027E-02 
2163	 4.73086746050018E-02 
2164	 4.84583936461352E-02 
2165	 4.94108889142237E-02 
2166	 4.73533860507414E-02 
2167	 4.76306480050948E-02 
2168	 5.20325353956626E-02 
2169	 5.24791127993069E-02 
2170	 5.00977295089271E-02 
2171	 5.05922880001394E-02 
2172	 4.92380384938586E-02 
2173	 4.74560741101092E-02 
2174	 5.03577699881922E-02 
2175	 5.10894231220957E-02 
2176	 5.13061883737544E-02 
2177	 5.43936121720841E-02 
2178	 5.23423741944357E-02 
2179	 5.03911850671704E-02 
2180	 5.02754760888272E-02 
2181	 4.53763217152152E-02 
2182	 4.28566375194288E-02 
2183	 4.43515051395148E-02 
2184	 4.80956697358898E-02 
2185	 5.21393683266642E-02 
2186	 5.27840763794993E-02 
2187	 5.26596149440973E-02 
2188	 5.17367442533413E-02 
2189	 4.49931805444898E-02 
2190	 4.39189945402161E-02 
2191	 4.66164034511248E-02 
2192	 4.75180044899024E-02 
2193	 5.07931568426224E-02 
2194	 0.051970432676337 
2195	 5.09109711832653E-02 
2196	 0.051288817052935 
2197	 0.050191515008124 
2198	 5.04300088983507E-02 
2199	 5.31297781694686E-02 
2200	 5.51082414009694E-02 
2201	 5.15738260149735E-02 
2202	 5.26763305549628E-02 
2203	 5.20083131615463E-02 
2204	 4.87173961891253E-02 
2205	 5.29226384258014E-02 
2206	 0.055293602309821 
2207	 5.58728054559606E-02 
2208	 5.60505843825063E-02 
2209	 5.16228955650905E-02 
2210	 4.83325238832429E-02 
2211	 4.56526612277792E-02 
2212	 4.41142972662696E-02 
2213	 4.43188359831575E-02 
2214	 0.044394762530863 
2215	 4.72322604518499E-02 
2216	 5.02549419819786E-02 
2217	 5.04195008721977E-02 
2218	 4.94464367672946E-02 
2219	 4.93599609879884E-02 
2220	 4.70790111027787E-02 
2221	 4.63531153571611E-02 
2222	 4.90736595461354E-02 
2223	 4.81003490883451E-02 
2224	 4.22146988920135E-02 
2225	 4.07317934770718E-02 
2226	 0.040792162528624 
2227	 4.11158791980861E-02 
2228	 4.52243447827239E-02 
2229	 0.047018460693166 
2230	 4.64975151383562E-02 
2231	 4.55266881477672E-02 
2232	 4.40431435318702E-02 
2233	 4.35844494199045E-02 
2234	 4.27153121650206E-02 
2235	 4.22362687897093E-02 
2236	 0.044515343874838 
2237	 4.50552402159922E-02 
2238	 4.52225581106363E-02 
2239	 4.63775181217327E-02 
2240	 4.31923106860717E-02 
2241	 4.15460385475544E-02 
2242	 4.41118015898079E-02 
2243	 4.65290945757084E-02 
2244	 5.07998297696504E-02 
2245	 0.056214315343174 
2246	 5.97035942958999E-02 
2247	 5.87779867223043E-02 
2248	 0.058138906999703 
2249	 6.13728574544992E-02 
2250	 5.99559099892498E-02 
2251	 5.64704814176044E-02 
2252	 5.55766652396535E-02 
2253	 5.44395596615952E-02 
2254	 5.39415576361229E-02 
2255	 0.053899377584161 
2256	 5.32121302067379E-02 
2257	 0.049213995705253 
2258	 4.25636201525989E-02 
2259	 4.05275857636357E-02 
2260	 3.92943025999399E-02 
2261	 4.07635620709975E-02 
2262	 4.08166627733242E-02 
2263	 4.20578388296758E-02 
2264	 4.19105178300864E-02 
2265	 4.26754190056818E-02 
2266	 4.13561544483941E-02 
2267	 3.69155902717226E-02 
2268	 3.52296279981256E-02 
2269	 3.30041057264322E-02 
2270	 3.33573057674358E-02 
2271	 3.82168919750054E-02 
2272	 3.73470490030692E-02 
2273	 3.15343892338033E-02 
2274	 3.34455921438925E-02 
2275	 3.69269968586808E-02 
2276	 4.03564983368072E-02 
2277	 5.28210798758462E-02 
2278	 5.56725587991678E-02 
2279	 5.02429630931592E-02 
2280	 4.88739921801946E-02 
2281	 4.71987811999333E-02 
2282	 4.37014277923348E-02 
2283	 4.02474307074329E-02 
2284	 4.03479186353348E-02 
2285	 4.04294041285125E-02 
2286	 3.92433093094778E-02 
2287	 4.30958754642163E-02 
2288	 4.76838124339985E-02 
2289	 4.37001995074619E-02 
2290	 3.96605897088121E-02 
2291	 3.69988217405181E-02 
2292	 2.89547847404565E-02 
2293	 2.68215534145185E-02 
2294	 3.09873930040449E-02 
2295	 3.12209724968733E-02 
2296	 2.72132774748819E-02 
2297	 2.26262985633822E-02 
2298	 1.99531683978663E-02 
2299	 1.99603908654329E-02 
2300	 2.29702573618568E-02 
2301	 2.72544243050053E-02 
2302	 0.034357230382985 
2303	 4.08488493982315E-02 
2304	 4.59956305317236E-02 
2305	 4.93428960391668E-02 
2306	 4.20155849288732E-02 
2307	 3.47013696498863E-02 
2308	 3.63459170487404E-02 
2309	 3.73309732755399E-02 
2310	 3.65286914396423E-02 
2311	 0.036057807573681 
2312	 3.54341208841526E-02 
2313	 4.13317358064323E-02 
2314	 5.08024112401842E-02 
2315	 5.48153979548237E-02 
2316	 4.98021071236786E-02 
2317	 3.77923397252447E-02 
2318	 3.60852459687915E-02 
2319	 4.67574308696217E-02 
2320	 5.05613699150618E-02 
2321	 4.56198555855381E-02 
2322	 0.038070624986912 
2323	 2.47444754313457E-02 
2324	 1.85723870383571E-02 
2325	 2.53822381783113E-02 
2326	 3.33772018987348E-02 
2327	 3.87824625563774E-02 
2328	 4.12684660588323E-02 
2329	 3.88039161638426E-02 
2330	 3.55586961326429E-02 
2331	 3.31941033276218E-02 
2332	 2.66686157045562E-02 
2333	 1.61805135647872E-02 
2334	-1.58143756283942E-03 
2335	-6.77192634290345E-03 
2336	 7.54112708091496E-03 
2337	 1.85825163273594E-03 
2338	 5.87959869137942E-04 
2339	 2.20546872053372E-02 
2340	 1.62199724183802E-02 
2341	 0.013428681641226 
2342	 3.81979306794371E-02 
2343	 2.99786500781521E-02 
2344	 0.013128613486343 
2345	 3.42396856758037E-02 
2346	 4.40930167518147E-02 
2347	 3.67909063629554E-02 
2348	 4.29060326129204E-02 
2349	 0.052759768748435 
2350	 5.27349077263411E-02 
2351	 0.057574433656074 
2352	 6.61376047613315E-02 
2353	 4.94220771621693E-02 
2354	 4.46716185686039E-02 
2355	 0.045999099434259 
2356	 3.51096177328138E-02 
2357	 4.29636813257213E-02 
2358	 4.17594310350137E-02 
2359	 2.71719086532265E-02 
2360	 0.019496839222815 
2361	 1.95405357446088E-02 
2362	 1.48139579247583E-02 
2363	 1.24366157025251E-02 
2364	 0.037074303345916 
2365	 4.61275813847513E-02 
2366	 3.49159072533294E-02 
2367	 3.74665121758659E-02 
2368	 0.03009889252651 
2369	 1.66120541935456E-02 
2370	 3.75287768154352E-02 
2371	 4.22048412196003E-02 
2372	-1.21576951106681E-02 
2373	-3.63079954551366E-02 
2374	-7.70396305920141E-02 
2375	-9.59197675436769E-02 
2376	-0.044834930801742 
2377	-3.52926820734767E-02 
2378	-2.66627568091262E-02 
2379	-3.17439936055374E-02 
2380	-4.42940599197146E-02 
2381	-1.72505200148193E-03 
2382	-1.45350401463152E-02 
2383	-4.95670162754522E-02 
2384	-7.31939150732161E-03 
2385	 9.72115133073057E-02 
2386	 0.223373835157783 
2387	 0.274497464645846 
2388	 0.275647667648703 
2389	 0.209535116014099 
2390	 4.85312913856119E-02 
2391	 5.01064420901608E-02 
2392	 4.72573807809567E-02 
2393	-2.47100261011127E-02 
2394	-1.41631880028961E-02 
2395	-3.85619539591153E-02 
2396	-1.48868098637256E-02 
2397	 2.64764212166137E-02 
2398	 1.17777207538676E-02 
2399	-7.8377605349609E-03 
2400	-6.13532517678305E-02 
2401	-4.19221291412852E-02 
2402	 1.08756858671833E-02 
2403	 3.34709625617742E-02 
2404	 8.41794772101557E-02 
2405	 4.38208598215402E-02 
2406	-7.48599149198457E-02 
2407	-0.113288547608997 
2408	-4.43938477155841E-02 
2409	 1.79388039171477E-02 
2410	 5.92814877426201E-02 
2411	 0.156632504078867 
2412	 4.46801255580269E-02 
2413	-3.99694776534406E-02 
2414	-3.32141835520368E-02 
2415	-7.06917193856843E-02 
2416	 5.61010772470821E-03 
2417	-7.38688949673547E-05 
2418	 8.32940338476337E-02 
2419	 7.61963384585179E-02 
2420	 6.79712825259939E-03 
2421	 2.97066110504624E-03 
2422	-7.71125833029232E-02 
2423	-3.57846784384969E-02 
2424	 5.28501785705862E-02 
2425	 8.48634617659278E-02 
2426	 0.244271225858443 
2427	 0.229322582447717 
2428	 0.133875504762668 
2429	-0.105079440668281 
2430	-0.213338246472957 
2431	-0.181298177876633 
2432	-0.26330304632452 
2433	-9.71705643495063E-02 
2434	 0.146740574619192 
2435	-4.33603476578965E-02 
2436	-8.89829891883667E-02 
2437	 0.172224972882973 
2438	 0.328219556415164 
2439	 0.36537166995504 
2440	 0.252993122820126 
2441	-0.222096495963792 
2442	-0.72282085862141 
2443	-0.684976578541899 
2444	-0.72247693220822 
2445	-1.0748127568664 
2446	-1.02838348529498 
2447	-0.819472328040737 
2448	-0.71930153472588 
2449	-0.313267587953236 
2450	-0.203184258685279 
2451	-0.255741203917469 
2452	-2.09209061260701 
2453	-0.52178900853868 
2454	-1.40307816174409 
2455	-1.51769341616747 
2456	-1.12679093289855 
2457	 2.09404232827398 
2458	 1.44617540587502 
2459	-0.586163879051993 
2460	-1.44662680876347 
2461	-9.44505042730534 
2462	-0.282679104919807 
2463	-0.123570957250834 
2464	-1.81610079278842 
2465	-0.579080331924731 
2466	-0.683354140106571 
2467	-13.3105058944078 
2468	-6.38115838817626 
2469	 1.09796627996114 
2470	 1.41519748869555 
2471	 6.80508422101528 
2472	 5.08257869854963 
2473	-0.405305259837947 
2474	-0.45321489466144 
2475	-1.63342983986904 
2476	-0.491330050832871 
2477	-8.71097459032018E-04 
2478	-1.25961732809045 
2479	-0.590573711354749 
2480	 0.211897964048785 
2481	 0.867230252931343 
2482	 1.517157731267 
2483	-1.05329082206046 
2484	 5.48543421679095E-02 
2485	 0.14728903261848 
2486	 0.171418065847497 
2487	 0.403728109066831 
2488	 5.1550518419089 
2489	 8.58988947280867 
2490	 57.68052363159 
2491	-3.06311021400224 
2492	-1.98416128508469 
2493	 0.468891639347899 
2494	 0.993972318307773 
2495	 1.4127437590837 
2496	 0.383879054277158 
2497	-1.43575380522857E-02 
2498	 1.0576277136453 
2499	 0.64345759358621 
2500	 0.670870393175168 
