Wavelength	rt0708a00003.asd
350	 8.17960694235238E-02 
351	 8.14587021221006E-02 
352	 8.16394328687503E-02 
353	 8.17621915840944E-02 
354	 8.15736286258731E-02 
355	 8.18319047020361E-02 
356	 8.21585141187399E-02 
357	 8.22448348273304E-02 
358	 0.08204372981806 
359	 8.25131057069717E-02 
360	 8.26324314052886E-02 
361	 8.24626349039273E-02 
362	 8.27458605708651E-02 
363	 8.27629525341383E-02 
364	 8.30158889381637E-02 
365	 8.35386819090146E-02 
366	 8.34624012976158E-02 
367	 8.33637196378754E-02 
368	 8.34664438180325E-02 
369	 8.37313479405028E-02 
370	 8.35011706839625E-02 
371	 8.37408542239201E-02 
372	 8.41559804756355E-02 
373	 8.38921677755292E-02 
374	 8.41742521091327E-02 
375	 8.46618962878732E-02 
376	 8.50203680845141E-02 
377	 8.51652468432223E-02 
378	 8.51960691298418E-02 
379	 8.51592652441607E-02 
380	 8.52190751754872E-02 
381	 8.59729920279404E-02 
382	 0.086492842598515 
383	 0.08659864981418 
384	 8.65664898660562E-02 
385	 8.69027222439299E-02 
386	 8.69641748077949E-02 
387	 8.67541281259249E-02 
388	 8.70478856867828E-02 
389	 8.71162277313922E-02 
390	 8.71997262206164E-02 
391	 8.74725530324718E-02 
392	 8.74532222227248E-02 
393	 8.77903592514409E-02 
394	 8.83229589447785E-02 
395	 8.85851299142793E-02 
396	 8.82650316951361E-02 
397	 8.78095040029641E-02 
398	 8.77382547542546E-02 
399	 8.84792458174481E-02 
400	 8.83408822731213E-02 
401	 8.81396270525837E-02 
402	 8.84744553858621E-02 
403	 8.85827613770321E-02 
404	 8.87665440050036E-02 
405	 8.88816568963852E-02 
406	 8.87392381902936E-02 
407	 8.88001181033767E-02 
408	 8.88715465398876E-02 
409	 8.88484245444574E-02 
410	 8.87642025736073E-02 
411	 8.88997972869061E-02 
412	 8.91175839086182E-02 
413	 8.92287455442671E-02 
414	 8.90889806396578E-02 
415	 8.90501602275721E-02 
416	 8.92185473583644E-02 
417	 8.95365172887424E-02 
418	 8.97210727787567E-02 
419	 0.089706168891341 
420	 0.089701384625732 
421	 0.090153301196878 
422	 9.02103108729121E-02 
423	 9.02749639621815E-02 
424	 9.06957755622259E-02 
425	 0.090906936271028 
426	 9.13721827592588E-02 
427	 9.17916670500452E-02 
428	 9.16996114304888E-02 
429	 9.22469293894533E-02 
430	 9.26146459961469E-02 
431	 9.26554974759719E-02 
432	 9.32009380487557E-02 
433	 0.093441347272131 
434	 9.35595294605933E-02 
435	 0.093838120131304 
436	 9.41847518370069E-02 
437	 9.46026678608552E-02 
438	 9.49130815194316E-02 
439	 0.094928582041601 
440	 9.52819160660318E-02 
441	 9.55817058854975E-02 
442	 9.56827562405071E-02 
443	 9.59655083692064E-02 
444	 9.61707010879543E-02 
445	 9.63020038175651E-02 
446	 9.64268380695816E-02 
447	 9.65849776133362E-02 
448	 9.66381189287192E-02 
449	 9.66468846621879E-02 
450	 0.096800656098312 
451	 9.69317433719969E-02 
452	 9.69806347374135E-02 
453	 9.69643447046784E-02 
454	 9.70164849364653E-02 
455	 9.70868893368078E-02 
456	 9.71070811933972E-02 
457	 9.70418778003376E-02 
458	 9.70805387690315E-02 
459	 9.70871314445619E-02 
460	 9.70151148961126E-02 
461	 9.69279032660181E-02 
462	 0.096921106582373 
463	 9.69480082671782E-02 
464	 0.096943851304794 
465	 9.68816021579551E-02 
466	 9.68177464885035E-02 
467	 9.67937701656958E-02 
468	 9.68143346111404E-02 
469	 9.66781496902816E-02 
470	 9.66575197061701E-02 
471	 9.67755831064739E-02 
472	 9.66725816803462E-02 
473	 9.67000606237409E-02 
474	 9.67696467976368E-02 
475	 9.67564006922687E-02 
476	 9.68329411171368E-02 
477	 0.096872409751084 
478	 9.68417460550272E-02 
479	 9.67879926894412E-02 
480	 9.68448587245793E-02 
481	 0.096955984079271 
482	 9.70662994381708E-02 
483	 9.71809131556686E-02 
484	 9.72884242742729E-02 
485	 9.73878347738208E-02 
486	 9.74945897108948E-02 
487	 0.097689068080264 
488	 9.77890574439111E-02 
489	 9.78481354714826E-02 
490	 9.81366500954616E-02 
491	 9.82754997046276E-02 
492	 9.84993886759898E-02 
493	 0.098938364225294 
494	 0.099115466403541 
495	 9.93066724993131E-02 
496	 9.95297852917405E-02 
497	 9.97028652391771E-02 
498	 0.100022332841372 
499	 0.10040959205602 
500	 0.100790342780913 
501	 0.101144764513715 
502	 0.10149644780679 
503	 0.101787061452764 
504	 0.102001929572659 
505	 0.102377393617595 
506	 0.102740784146557 
507	 0.103079086649223 
508	 0.103502838965938 
509	 0.103880149745783 
510	 0.104280739708277 
511	 0.104750319228201 
512	 0.105204553183863 
513	 0.105718202794899 
514	 0.106280040563216 
515	 0.106823432167944 
516	 0.107213056012482 
517	 0.107698599341175 
518	 0.108335424794513 
519	 0.108903846379985 
520	 0.109421006291936 
521	 0.109975203194382 
522	 0.11061614553449 
523	 0.111180243294369 
524	 0.111762068236479 
525	 0.112410992869176 
526	 0.113132001117303 
527	 0.113803912230642 
528	 0.114438793252107 
529	 0.115083293978207 
530	 0.115814769286868 
531	 0.116574268414349 
532	 0.117304621030848 
533	 0.117976259400355 
534	 0.118738214562746 
535	 0.119493118582177 
536	 0.120214797742676 
537	 0.120970536439912 
538	 0.121786445605201 
539	 0.122654236710306 
540	 0.123508267624428 
541	 0.124113426107355 
542	 0.124885324632922 
543	 0.125768300843963 
544	 0.126442184950078 
545	 0.127134786290656 
546	 0.127862578086402 
547	 0.128586396850926 
548	 0.129210528769585 
549	 0.129854490620227 
550	 0.130502201629775 
551	 0.131108098692756 
552	 0.131744233647515 
553	 0.132369192158548 
554	 0.13294756247099 
555	 0.133456692833081 
556	 0.134048827971451 
557	 0.134641474857534 
558	 0.135136434750609 
559	 0.135603093948884 
560	 0.136057758901139 
561	 0.136523496866832 
562	 0.137019965375528 
563	 0.13748256245023 
564	 0.137897499822048 
565	 0.138274705511629 
566	 0.138656769184417 
567	 0.139025639910579 
568	 0.139355619075634 
569	 0.139638519882834 
570	 0.139986175764985 
571	 0.140319886823334 
572	 0.140627847416282 
573	 0.140980406605291 
574	 0.141307306384349 
575	 0.141550730842038 
576	 0.141717308423088 
577	 0.142008463642879 
578	 0.142289979018846 
579	 0.142532439732208 
580	 0.142760753975125 
581	 0.14284222060456 
582	 0.142970337215463 
583	 0.143212985739562 
584	 0.14333580003859 
585	 0.143491007468799 
586	 0.143652547997042 
587	 0.143731492453211 
588	 0.143634250902052 
589	 0.143655287704495 
590	 0.143811723541952 
591	 0.143816342118231 
592	 0.143877978082663 
593	 0.143950418172684 
594	 0.143971959085529 
595	 0.143992391864439 
596	 0.14401480671065 
597	 0.144064911595361 
598	 0.144157330416965 
599	 0.144082258255295 
600	 0.144058174262824 
601	 0.144164867012653 
602	 0.144153801506965 
603	 0.144127225071079 
604	 0.144107324876533 
605	 0.144107632447871 
606	 0.14422745288994 
607	 0.144200637436652 
608	 0.144054844174179 
609	 0.144124285904293 
610	 0.144150302363911 
611	 0.144152650761602 
612	 0.144161077487825 
613	 0.144054263611207 
614	 0.143975002869327 
615	 0.143970891548211 
616	 0.144018553277322 
617	 0.144018774059429 
618	 0.143934079070535 
619	 0.143810219137477 
620	 0.143809708297145 
621	 0.143864388658691 
622	 0.143897343642877 
623	 0.143867151149766 
624	 0.143944135796892 
625	 0.143954329732278 
626	 0.14390543943505 
627	 0.143977692771491 
628	 0.144005853941004 
629	 0.14400600902912 
630	 0.144008631385465 
631	 0.143977385092168 
632	 0.144024917638558 
633	 0.144042695953847 
634	 0.143860935106313 
635	 0.14373753003297 
636	 0.143570756507017 
637	 0.1433748938884 
638	 0.143379130547098 
639	 0.143304033349343 
640	 0.143111118866908 
641	 0.142850165555679 
642	 0.142580290510627 
643	 0.142410637417298 
644	 0.142269449704599 
645	 0.141959762683875 
646	 0.141753428632228 
647	 0.141673725927083 
648	 0.141625255932317 
649	 0.141341752075854 
650	 0.141094811515552 
651	 0.1409802778176 
652	 0.140984022177729 
653	 0.140841171297756 
654	 0.140693608283104 
655	 0.140594061277292 
656	 0.140446663062153 
657	 0.140243673590869 
658	 0.139993801383532 
659	 0.139734701149137 
660	 0.139629533575462 
661	 0.139426348826172 
662	 0.139120458292596 
663	 0.138861306908974 
664	 0.138578337588317 
665	 0.13837744235371 
666	 0.138265645021924 
667	 0.138041638097028 
668	 0.137893409445391 
669	 0.137847642590609 
670	 0.137857530098902 
671	 0.137796278981121 
672	 0.13775489162389 
673	 0.137810226111718 
674	 0.138002732030505 
675	 0.138124004435214 
676	 0.138259523034323 
677	 0.138488234913607 
678	 0.138722829989079 
679	 0.138966972252727 
680	 0.139310696388718 
681	 0.139845466484453 
682	 0.140358264333389 
683	 0.14096390110255 
684	 0.141718963185553 
685	 0.142644205521754 
686	 0.143763039883125 
687	 0.14494709854405 
688	 0.146041549789106 
689	 0.14724287277101 
690	 0.148510788546399 
691	 0.149842843679641 
692	 0.151270327066357 
693	 0.152768944628627 
694	 0.154306801442328 
695	 0.155756633430325 
696	 0.156988776068024 
697	 0.158360993868603 
698	 0.159851489140657 
699	 0.161246073784642 
700	 0.162551813287876 
701	 0.163899670485854 
702	 0.165179758659942 
703	 0.166160512708981 
704	 0.16713793060911 
705	 0.168184062445594 
706	 0.169195237344743 
707	 0.169823436742258 
708	 0.170497510738719 
709	 0.171169697573072 
710	 0.171641717439786 
711	 0.1719180382715 
712	 0.172246648730585 
713	 0.172593988222311 
714	 0.172629571910171 
715	 0.172506743330236 
716	 0.1724026312027 
717	 0.172431963511816 
718	 0.172277915274246 
719	 0.172091384683096 
720	 0.171893589080666 
721	 0.171614335284604 
722	 0.171242882012422 
723	 0.170765811798166 
724	 0.170267836413588 
725	 0.16983658307141 
726	 0.169383210079569 
727	 0.168714707469258 
728	 0.16778386909462 
729	 0.166994821285936 
730	 0.166127220924838 
731	 0.165207495042884 
732	 0.164355482214148 
733	 0.16381595342987 
734	 0.163377994457793 
735	 0.162925988934093 
736	 0.162492337398919 
737	 0.162236577992065 
738	 0.162145904148433 
739	 0.162149805312464 
740	 0.16214741194794 
741	 0.162176145987648 
742	 0.162218610707484 
743	 0.162244028321431 
744	 0.162344764113764 
745	 0.16245708675604 
746	 0.162533270865504 
747	 0.162569613454036 
748	 0.162796736674286 
749	 0.163072200143521 
750	 0.163205871899673 
751	 0.163191734080201 
752	 0.163224479539596 
753	 0.163352622065674 
754	 0.163506805006034 
755	 0.163426680622571 
756	 0.163493755435951 
757	 0.163777774522112 
758	 0.163813846999659 
759	 0.163977197845358 
760	 0.16440800515086 
761	 0.164718835742988 
762	 0.164687689969218 
763	 0.164667227890842 
764	 0.164755156451778 
765	 0.164916469797516 
766	 0.165120218420478 
767	 0.165155604297573 
768	 0.1651464757362 
769	 0.165513395486404 
770	 0.165609852908774 
771	 0.165744472663384 
772	 0.166128181335859 
773	 0.166163444863932 
774	 0.166281063315215 
775	 0.166510437007231 
776	 0.16672796794471 
777	 0.167016698873747 
778	 0.167250759956577 
779	 0.167403121570953 
780	 0.167565536129119 
781	 0.167807034024636 
782	 0.168185494782498 
783	 0.168625836074909 
784	 0.168761721646188 
785	 0.168996294939799 
786	 0.169338612004198 
787	 0.169653101746058 
788	 0.169867018679643 
789	 0.170112726868763 
790	 0.170439578992289 
791	 0.170818086502686 
792	 0.171245099295994 
793	 0.171665842671685 
794	 0.171997110181402 
795	 0.172103108026606 
796	 0.17233215996309 
797	 0.172726524365137 
798	 0.173157929814692 
799	 0.173214017144363 
800	 0.17342658852076 
801	 0.173795115330715 
802	 0.174033286779109 
803	 0.174255377333168 
804	 0.17442428888264 
805	 0.174532805378582 
806	 0.174619780834526 
807	 0.174784349738406 
808	 0.174916891348066 
809	 0.174932885008185 
810	 0.174933606928165 
811	 0.17483789614707 
812	 0.174648361372101 
813	 0.17442587585751 
814	 0.17431230226695 
815	 0.174252773186083 
816	 0.174086486453582 
817	 0.173680699620525 
818	 0.173626320532767 
819	 0.173415081429741 
820	 0.172911702369383 
821	 0.172571720698206 
822	 0.171983776272065 
823	 0.171370791950894 
824	 0.170817240007152 
825	 0.169575571714164 
826	 0.168702851378109 
827	 0.167915521627587 
828	 0.16665932204883 
829	 0.165783980514355 
830	 0.164915682974187 
831	 0.164118105127691 
832	 0.163745042488061 
833	 0.163038046585023 
834	 0.162520318477662 
835	 0.16235787205087 
836	 0.16207214367902 
837	 0.161980339600769 
838	 0.161784261269416 
839	 0.161368343950273 
840	 0.161409806225542 
841	 0.161469104783163 
842	 0.161318546688244 
843	 0.160966195310617 
844	 0.161123569573202 
845	 0.161006705707476 
846	 0.160671957694701 
847	 0.160708676439372 
848	 0.16057637213838 
849	 0.160420813138718 
850	 0.160332338565472 
851	 0.160228182034655 
852	 0.159909878573583 
853	 0.159757678656919 
854	 0.159924681892181 
855	 0.159836681803907 
856	 0.159654119471125 
857	 0.159564399869171 
858	 0.159634808636109 
859	 0.159469356084655 
860	 0.159387712843423 
861	 0.159324961790696 
862	 0.159100414760807 
863	 0.159138525425483 
864	 0.159109989311438 
865	 0.158961518131652 
866	 0.158917392154944 
867	 0.158833513394388 
868	 0.158575490242256 
869	 0.1581810885778 
870	 0.157901472915935 
871	 0.1582124625624 
872	 0.158301914049628 
873	 0.15774539899046 
874	 0.15760800078912 
875	 0.157481482650404 
876	 0.157420613674414 
877	 0.157481541968474 
878	 0.157309613549575 
879	 0.156799926915698 
880	 0.15643507640584 
881	 0.156683837660424 
882	 0.156349049858262 
883	 0.155970329789419 
884	 0.155864893985877 
885	 0.156002087744953 
886	 0.155616534493161 
887	 0.155277736080039 
888	 0.155208914444406 
889	 0.155081661887067 
890	 0.15519920051659 
891	 0.155031238894278 
892	 0.154467932156603 
893	 0.154448920846611 
894	 0.153971463327875 
895	 0.153650991507637 
896	 0.154112560884896 
897	 0.154526119149008 
898	 0.153754801882576 
899	 0.152951348961633 
900	 0.153347335337956 
901	 0.153471603416716 
902	 0.152798124053 
903	 0.152303033608604 
904	 0.152875690644302 
905	 0.15190949036003 
906	 0.151589999713358 
907	 0.152137264525457 
908	 0.152193680286362 
909	 0.151338778130643 
910	 0.150677555602869 
911	 0.15049639790239 
912	 0.150196046075986 
913	 0.149883225041213 
914	 0.149657815245576 
915	 0.1497392154506 
916	 0.150273369875387 
917	 0.149137551421399 
918	 0.148236064702696 
919	 0.148446106947779 
920	 0.148540836860329 
921	 0.148348139879187 
922	 0.147466580195159 
923	 0.146087291046737 
924	 0.145647288326161 
925	 0.145872109980984 
926	 0.14620442860581 
927	 0.14593943194253 
928	 0.144463798607507 
929	 0.142374770278788 
930	 0.14091471906414 
931	 0.141735931431222 
932	 0.14441711543107 
933	 0.142462744888429 
934	 0.137373085456203 
935	 0.135526561083296 
936	 0.13740008004809 
937	 0.137076608184207 
938	 0.137860443741643 
939	 0.142051425659831 
940	 0.136858212186168 
941	 0.133199727076737 
942	 0.134156983806465 
943	 0.13755189722712 
944	 0.137468839540197 
945	 0.135633911426309 
946	 0.133641493046214 
947	 0.132344232084162 
948	 0.130784731474111 
949	 0.129915296245006 
950	 0.131163765368592 
951	 0.134064325458188 
952	 0.125747008705414 
953	 0.12434006240265 
954	 0.13017781449501 
955	 0.130596785845923 
956	 0.12435905978922 
957	 0.12471411677586 
958	 0.127995400147556 
959	 0.121797392965625 
960	 0.122737626373319 
961	 0.123391697892956 
962	 0.122853032044423 
963	 0.125096629828925 
964	 0.122842106763701 
965	 0.122873053459373 
966	 0.124909069706864 
967	 0.123716484535035 
968	 0.123323625333797 
969	 0.122814601594409 
970	 0.122523215871498 
971	 0.123716158950657 
972	 0.122975060738343 
973	 0.122904661206488 
974	 0.124170407884746 
975	 0.124687393196677 
976	 0.121493257438413 
977	 0.122038655831357 
978	 0.125556718488965 
979	 0.124452260609222 
980	 0.123154273382247 
981	 0.123503139934945 
982	 0.124958069251612 
983	 0.125396289383108 
984	 0.124323385511053 
985	 0.124789835593454 
986	 0.125998150562511 
987	 0.124607699667242 
988	 0.123748699893319 
989	 0.123813322511255 
990	 0.124990667006684 
991	 0.127022745876493 
992	 0.127159036645833 
993	 0.126232014744014 
994	 0.125538744591276 
995	 0.126235726204325 
996	 0.128779749935261 
997	 0.126610092181762 
998	 0.123901219790627 
999	 0.12868487838401 
1000	 0.129956688738841 
1001	 0.124794348838162 
1002	 0.124949334724737 
1003	 0.125114718516396 
1004	 0.125462980547547 
1005	 0.125626579795041 
1006	 0.125657531673124 
1007	 0.125809982381161 
1008	 0.125907431362221 
1009	 0.125863630716731 
1010	 0.126158900911988 
1011	 0.126779622512535 
1012	 0.127283521288736 
1013	 0.127766930115564 
1014	 0.128262587714156 
1015	 0.12881986491107 
1016	 0.129100024975644 
1017	 0.129301744618251 
1018	 0.129438671894684 
1019	 0.129189895700752 
1020	 0.129231877042444 
1021	 0.129237418077 
1022	 0.129637581614932 
1023	 0.130053659826547 
1024	 0.130461013531738 
1025	 0.131307098756804 
1026	 0.131946885438413 
1027	 0.132409841885023 
1028	 0.133053384868849 
1029	 0.133145285469462 
1030	 0.132448182755061 
1031	 0.132613884921794 
1032	 0.132944119484237 
1033	 0.133215969003258 
1034	 0.133997748499535 
1035	 0.134440654718544 
1036	 0.134617304580521 
1037	 0.134787088985638 
1038	 0.134827887198558 
1039	 0.135056340513629 
1040	 0.135180189995531 
1041	 0.135286111932234 
1042	 0.13570323615945 
1043	 0.136522691739064 
1044	 0.136855390779908 
1045	 0.137100306418215 
1046	 0.137460421956192 
1047	 0.137634090655834 
1048	 0.137907376420423 
1049	 0.138556695355273 
1050	 0.138731327603059 
1051	 0.138481832691421 
1052	 0.138471251334078 
1053	 0.138329316992419 
1054	 0.138309250217388 
1055	 0.138481328472107 
1056	 0.13860850395111 
1057	 0.138735935106195 
1058	 0.138865636800252 
1059	 0.138955987439376 
1060	 0.139090273661897 
1061	 0.139087762065017 
1062	 0.1388570564811 
1063	 0.138943816199314 
1064	 0.139064882574711 
1065	 0.139280255206904 
1066	 0.140035932014921 
1067	 0.140172365979536 
1068	 0.139937396454389 
1069	 0.139837979762083 
1070	 0.139189121467389 
1071	 0.139038595838259 
1072	 0.139214909545331 
1073	 0.139637765206246 
1074	 0.139701969182546 
1075	 0.139974564985165 
1076	 0.139789105618581 
1077	 0.138949888011581 
1078	 0.138811934440785 
1079	 0.138936170803618 
1080	 0.138849036056186 
1081	 0.139044633213528 
1082	 0.13899320654857 
1083	 0.138555683881595 
1084	 0.138287027958538 
1085	 0.138075912842749 
1086	 0.137950859376103 
1087	 0.137892617911737 
1088	 0.137776638080027 
1089	 0.137944628881063 
1090	 0.137614494824645 
1091	 0.137395346059281 
1092	 0.137030374146769 
1093	 0.136827195396167 
1094	 0.136742467595935 
1095	 0.136433413192394 
1096	 0.135898163920418 
1097	 0.135709051340373 
1098	 0.135561548302146 
1099	 0.135390654922888 
1100	 0.1357194113271 
1101	 0.135511196174122 
1102	 0.134660308378594 
1103	 0.134207720858719 
1104	 0.133505708806209 
1105	 0.133304473570206 
1106	 0.133871228508821 
1107	 0.133965069710696 
1108	 0.133500094855622 
1109	 0.133181176203001 
1110	 0.133097449418919 
1111	 0.132640560977896 
1112	 0.1326205500914 
1113	 0.133946502523916 
1114	 0.13386591160912 
1115	 0.131933904603763 
1116	 0.131357105851716 
1117	 0.131329969546625 
1118	 0.130869783318624 
1119	 0.132155319680634 
1120	 0.132259996773349 
1121	 0.130774655503045 
1122	 0.126818524331313 
1123	 0.127932282386596 
1124	 0.128622424926181 
1125	 0.129288216630399 
1126	 0.13135153833663 
1127	 0.127035156983487 
1128	 0.123680754840318 
1129	 0.122513265147721 
1130	 0.122145508826215 
1131	 0.120808283248677 
1132	 0.121172391181511 
1133	 0.12016000488488 
1134	 0.118213728451347 
1135	 0.117594518220887 
1136	 0.11638990473839 
1137	 0.115269298304548 
1138	 0.114324016244446 
1139	 0.115106117284154 
1140	 0.111899433413461 
1141	 0.109974017625624 
1142	 0.110219733718427 
1143	 0.107819798095692 
1144	 0.107298809620819 
1145	 0.109877270309086 
1146	 0.109737913266105 
1147	 0.107026518343194 
1148	 0.104752166130332 
1149	 0.102871056457441 
1150	 0.101289093936197 
1151	 0.100596714112182 
1152	 9.93936816666656E-02 
1153	 9.76778420898604E-02 
1154	 9.70135559763735E-02 
1155	 9.67867125605571E-02 
1156	 9.64864826538985E-02 
1157	 9.62594977584279E-02 
1158	 0.096268459904391 
1159	 9.60531425768166E-02 
1160	 9.56158952853411E-02 
1161	 0.095458639085158 
1162	 9.57800706445007E-02 
1163	 9.57314734818541E-02 
1164	 9.54006041684492E-02 
1165	 9.57170593000929E-02 
1166	 9.57973742039964E-02 
1167	 0.095203451117747 
1168	 9.50126946132362E-02 
1169	 9.49990564229699E-02 
1170	 9.47989087671492E-02 
1171	 9.47312403241462E-02 
1172	 0.09518030613394 
1173	 9.52045177461314E-02 
1174	 9.49547422029775E-02 
1175	 9.47800964073926E-02 
1176	 9.45322457883552E-02 
1177	 9.45848756043515E-02 
1178	 9.48739998580195E-02 
1179	 9.46773778819537E-02 
1180	 9.45237236360978E-02 
1181	 9.44650649189587E-02 
1182	 9.39979195920004E-02 
1183	 9.39303378982464E-02 
1184	 9.42967484940904E-02 
1185	 0.094179075609009 
1186	 9.38096890085751E-02 
1187	 9.37354467185507E-02 
1188	 9.37024841774322E-02 
1189	 9.36315186733794E-02 
1190	 9.38110034786905E-02 
1191	 9.38076033635721E-02 
1192	 9.37257738227079E-02 
1193	 9.33306605435307E-02 
1194	 9.32856989474894E-02 
1195	 9.34735602174366E-02 
1196	 0.093430036123093 
1197	 0.093233841434469 
1198	 9.32476127735526E-02 
1199	 9.30743662145003E-02 
1200	 9.28658788207574E-02 
1201	 9.31771381970397E-02 
1202	 9.33800696606035E-02 
1203	 9.33575592964016E-02 
1204	 9.36886801498857E-02 
1205	 9.39593962910084E-02 
1206	 9.38627032716652E-02 
1207	 9.37617434904688E-02 
1208	 9.36213441961467E-02 
1209	 9.35799663184536E-02 
1210	 0.093904691801653 
1211	 9.41779870504254E-02 
1212	 9.42019316085826E-02 
1213	 9.42608800583266E-02 
1214	 9.42598398957445E-02 
1215	 9.39787421743101E-02 
1216	 9.38939270696719E-02 
1217	 9.43193578647096E-02 
1218	 9.44721365364607E-02 
1219	 9.45546784531928E-02 
1220	 9.49246181422633E-02 
1221	 0.095035535086419 
1222	 0.094945006886923 
1223	 9.48855264858715E-02 
1224	 9.48467675692278E-02 
1225	 9.50010786151447E-02 
1226	 9.51816162396321E-02 
1227	 9.53914619234918E-02 
1228	 9.57393573926805E-02 
1229	 0.095889290124397 
1230	 9.59927822722922E-02 
1231	 9.60787677895855E-02 
1232	 9.60090808448688E-02 
1233	 9.59699505125709E-02 
1234	 9.60785901509129E-02 
1235	 9.62139083118888E-02 
1236	 0.096580375959064 
1237	 9.66752710044321E-02 
1238	 9.66090645253758E-02 
1239	 9.67698147256256E-02 
1240	 9.67127436744777E-02 
1241	 9.67035226126411E-02 
1242	 9.70645293573214E-02 
1243	 9.71767926543483E-02 
1244	 9.71489656119763E-02 
1245	 9.74234940039186E-02 
1246	 9.75683890310773E-02 
1247	 0.097341748509644 
1248	 9.73089533019201E-02 
1249	 9.76472173666955E-02 
1250	 0.097852717239324 
1251	 9.77536907806806E-02 
1252	 9.78874902245356E-02 
1253	 9.81556538866967E-02 
1254	 9.79152694984276E-02 
1255	 0.097763682861366 
1256	 9.77896486121003E-02 
1257	 9.76923731560866E-02 
1258	 9.76710229663025E-02 
1259	 9.80182888662377E-02 
1260	 9.81193636880643E-02 
1261	 9.80297981980284E-02 
1262	 9.80327195946395E-02 
1263	 9.79519273285679E-02 
1264	 9.81194258266288E-02 
1265	 9.82043638426138E-02 
1266	 9.80249053521282E-02 
1267	 9.80999156423108E-02 
1268	 9.83205932199162E-02 
1269	 9.83573368331666E-02 
1270	 9.83302225855251E-02 
1271	 9.82614578312537E-02 
1272	 9.79906052126931E-02 
1273	 9.76874403953478E-02 
1274	 9.75280069889904E-02 
1275	 9.75773894999765E-02 
1276	 9.76963091769666E-02 
1277	 9.77176258795025E-02 
1278	 9.77454832003396E-02 
1279	 9.74284839058407E-02 
1280	 9.68225970923552E-02 
1281	 9.67186903468382E-02 
1282	 9.72638506790465E-02 
1283	 9.70313265255082E-02 
1284	 9.63686296910719E-02 
1285	 9.62488859428844E-02 
1286	 9.60320640900936E-02 
1287	 9.57000508423602E-02 
1288	 9.58820692256376E-02 
1289	 9.58595379564017E-02 
1290	 9.55021714851325E-02 
1291	 0.094878040481538 
1292	 0.094756256357907 
1293	 9.46727192450214E-02 
1294	 9.43802309905001E-02 
1295	 9.38730410008114E-02 
1296	 9.33365316015336E-02 
1297	 9.32156766575619E-02 
1298	 9.30558122945479E-02 
1299	 9.25274221919041E-02 
1300	 9.20069959414588E-02 
1301	 9.15920647765174E-02 
1302	 9.14141690747078E-02 
1303	 9.13919092402248E-02 
1304	 9.11702631877781E-02 
1305	 9.06136426795224E-02 
1306	 9.01262397795456E-02 
1307	 8.90605820025343E-02 
1308	 8.85034532696966E-02 
1309	 8.85294048853694E-02 
1310	 8.81132546994103E-02 
1311	 8.73312899577189E-02 
1312	 8.68796217749207E-02 
1313	 0.086727368282976 
1314	 8.61955391990645E-02 
1315	 8.53757837153551E-02 
1316	 8.48959834500212E-02 
1317	 8.45500961860948E-02 
1318	 8.39844660852836E-02 
1319	 8.34744052686249E-02 
1320	 8.31119603534493E-02 
1321	 0.082740624393438 
1322	 0.081984960675198 
1323	 8.12843373801012E-02 
1324	 0.081184327833083 
1325	 8.04277173632588E-02 
1326	 7.89332790547475E-02 
1327	 7.85374589861642E-02 
1328	 7.87537687880811E-02 
1329	 7.85578195482434E-02 
1330	 7.79549483114649E-02 
1331	 7.68843927591173E-02 
1332	 7.63366613121362E-02 
1333	 7.65343794416794E-02 
1334	 7.63912184288462E-02 
1335	 7.57935010104423E-02 
1336	 7.45750078456193E-02 
1337	 7.35203287337452E-02 
1338	 7.19461311230212E-02 
1339	 7.14705843418748E-02 
1340	 7.13974137941793E-02 
1341	 7.15544977334104E-02 
1342	 7.32442665722941E-02 
1343	 7.33227717621335E-02 
1344	 7.23836816509605E-02 
1345	 0.072086522537382 
1346	 7.03860368020503E-02 
1347	 6.98825025503887E-02 
1348	 7.23849452443438E-02 
1349	 7.32007140109478E-02 
1350	 7.10047291927832E-02 
1351	 7.20778057909151E-02 
1352	 8.15741104010306E-02 
1353	 8.53724879030079E-02 
1354	 8.53581646031965E-02 
1355	 8.21649225022782E-02 
1356	 9.97001492458732E-02 
1357	 0.119956816660561 
1358	 0.123328028604017 
1359	 0.12619428060849 
1360	 0.116815789770274 
1361	 0.143598349618605 
1362	 0.350163613573963 
1363	 0.485782381223067 
1364	 0.258663184101586 
1365	 0.181690370845677 
1366	 0.236448354587241 
1367	 0.10747576920717 
1368	 7.02381277750175E-02 
1369	 6.86358981364992E-02 
1370	 5.53313630662526E-02 
1371	 3.24575391567532E-02 
1372	 0.168747860864275 
1373	 0.849331374029903 
1374	 0.968011943140957 
1375	 0.400983800592329 
1376	 0.508622620555488 
1377	 0.886243937264552 
1378	 0.797547892667982 
1379	 0.730365774507478 
1380	 0.758861284854589 
1381	 0.342295503675838 
1382	-5.08595768189739E-02 
1383	-0.527087056470108 
1384	-0.566914788036426 
1385	-0.321354908976653 
1386	-0.224086186408761 
1387	 0.515176813882437 
1388	 0.994821435919681 
1389	 1.05297324361597 
1390	 0.764171182484938 
1391	 0.333912000766825 
1392	 0.106069322498885 
1393	-0.18244616853082 
1394	-0.352604800917148 
1395	 0.53949435576972 
1396	 1.66640826365247 
1397	 0.984091591858083 
1398	 1.38395701096382 
1399	 2.28939853619839 
1400	 0.843678191200078 
1401	 0.67725250799703 
1402	 0.762459066397401 
1403	-0.766360440258062 
1404	-4.22563950140151E-02 
1405	 0.129272717264557 
1406	 0.32821564262315 
1407	 0.172558279335465 
1408	 5.07192273445053E-02 
1409	 0.106167410979553 
1410	 0.141086148270526 
1411	 0.095796802051892 
1412	 0.159029950600301 
1413	 0.178282560532882 
1414	 7.89456855479689E-02 
1415	 4.68564118170867E-02 
1416	 0.106013373710935 
1417	 0.106581825854885 
1418	 0.038601941311421 
1419	 4.08135422280171E-02 
1420	 9.29561703115837E-02 
1421	 8.49004700823557E-02 
1422	 5.83710087997659E-02 
1423	 5.96763366382086E-02 
1424	 6.63646667756023E-02 
1425	 5.14874381951724E-02 
1426	 3.12378885045719E-02 
1427	 2.95099217675973E-02 
1428	 2.00071267993455E-02 
1429	 0.016534486934266 
1430	 3.60866072321201E-02 
1431	 3.91934625850025E-02 
1432	 2.70130385393124E-02 
1433	 2.15687742604171E-02 
1434	 1.25706716798769E-02 
1435	 1.09620886800278E-02 
1436	 1.29005817778433E-02 
1437	 2.23340179256872E-02 
1438	 2.21878825487288E-02 
1439	 1.65904755692697E-02 
1440	 1.48529824560152E-02 
1441	 1.55929312857733E-02 
1442	 0.022072825840822 
1443	 2.58888917827087E-02 
1444	 2.08928432064938E-02 
1445	 1.63685503728878E-02 
1446	 1.76684476377595E-02 
1447	 2.09469223624015E-02 
1448	 2.02067800695506E-02 
1449	 1.80370243801468E-02 
1450	 1.80416759826151E-02 
1451	 1.79432102051538E-02 
1452	 1.81996513056156E-02 
1453	 1.95593813898986E-02 
1454	 2.07287767336813E-02 
1455	 2.10856378143854E-02 
1456	 2.01008585405937E-02 
1457	 1.90789891739644E-02 
1458	 1.96782781520776E-02 
1459	 2.00592234387112E-02 
1460	 1.90387722247083E-02 
1461	 1.82894280135972E-02 
1462	 1.89616160007753E-02 
1463	 1.88931354031411E-02 
1464	 0.017836051942552 
1465	 1.83463200602308E-02 
1466	 0.019350717649741 
1467	 1.76839345535138E-02 
1468	 0.017246016768536 
1469	 2.09060023856509E-02 
1470	 2.18290746205413E-02 
1471	 1.89959719900089E-02 
1472	 1.92166944597123E-02 
1473	 2.23589181302842E-02 
1474	 2.21228583780205E-02 
1475	 1.96848141516792E-02 
1476	 2.00208552695136E-02 
1477	 2.05301954863994E-02 
1478	 2.07729624119265E-02 
1479	 2.29475827797115E-02 
1480	 2.32957074975997E-02 
1481	 2.19585635248034E-02 
1482	 2.11874775637908E-02 
1483	 2.02114539185922E-02 
1484	 2.02160501210278E-02 
1485	 2.02327224631281E-02 
1486	 0.020613780971275 
1487	 2.18345434245074E-02 
1488	 2.24918108885481E-02 
1489	 2.30474196597424E-02 
1490	 2.33215164900131E-02 
1491	 2.32168336683613E-02 
1492	 2.34701944649342E-02 
1493	 0.023946609403224 
1494	 2.40626988088326E-02 
1495	 2.40956076381687E-02 
1496	 2.42447523813775E-02 
1497	 2.41607046464745E-02 
1498	 2.41987133123853E-02 
1499	 2.45504849014668E-02 
1500	 2.47561946451803E-02 
1501	 2.47787128206326E-02 
1502	 0.024913960502726 
1503	 2.49924835205907E-02 
1504	 0.025230097591446 
1505	 0.025660851882164 
1506	 2.59960762381305E-02 
1507	 0.025949072823147 
1508	 2.64321898948452E-02 
1509	 2.68866801787015E-02 
1510	 2.68296012965898E-02 
1511	 2.69012102640395E-02 
1512	 2.72143072601972E-02 
1513	 2.74805074684996E-02 
1514	 2.74896431153404E-02 
1515	 2.75663120342052E-02 
1516	 2.79763324446449E-02 
1517	 2.82796986600721E-02 
1518	 2.84166996860093E-02 
1519	 2.85914007339321E-02 
1520	 2.86427423097039E-02 
1521	 2.86892287619836E-02 
1522	 2.90805925277097E-02 
1523	 2.94427277706796E-02 
1524	 2.94332308609739E-02 
1525	 2.95160819488524E-02 
1526	 2.97729921085521E-02 
1527	 3.01593041915074E-02 
1528	 3.05989490355547E-02 
1529	 3.07054609888922E-02 
1530	 3.08892816749367E-02 
1531	 3.12364665728229E-02 
1532	 3.14097451179469E-02 
1533	 3.17375530432366E-02 
1534	 3.19596881580095E-02 
1535	 3.20508945415553E-02 
1536	 3.24858864957197E-02 
1537	 3.27630147116155E-02 
1538	 3.27256692924324E-02 
1539	 3.29471321886729E-02 
1540	 3.33098589441744E-02 
1541	 0.033564831036803 
1542	 3.38246783073691E-02 
1543	 3.39356874812926E-02 
1544	 3.39107807337128E-02 
1545	 3.41262829797932E-02 
1546	 3.45395295758126E-02 
1547	 3.48709927281643E-02 
1548	 3.50661336104649E-02 
1549	 3.51984950341965E-02 
1550	 3.53172265910177E-02 
1551	 0.035362433918908 
1552	 3.55031738921029E-02 
1553	 3.58022353892302E-02 
1554	 3.60255408060214E-02 
1555	 3.62349543586338E-02 
1556	 0.036490740018663 
1557	 3.67300455655286E-02 
1558	 3.68933958689038E-02 
1559	 3.70184323275788E-02 
1560	 3.73017117319309E-02 
1561	 3.74887499999796E-02 
1562	 3.76182084486325E-02 
1563	 3.79432999505515E-02 
1564	 3.80620761630823E-02 
1565	 3.80842931305208E-02 
1566	 3.83714038583283E-02 
1567	 3.86484003524696E-02 
1568	 3.88158172012766E-02 
1569	 3.90502806274168E-02 
1570	 3.91993703052346E-02 
1571	 3.92601264349173E-02 
1572	 3.94854815976921E-02 
1573	 3.97979950407654E-02 
1574	 0.040039462021577 
1575	 4.01884151335728E-02 
1576	 4.03176042248885E-02 
1577	 4.03414074847649E-02 
1578	 4.03536916621457E-02 
1579	 4.07813355381545E-02 
1580	 4.11928074890191E-02 
1581	 4.11759706531514E-02 
1582	 4.11471151448111E-02 
1583	 0.041409966799205 
1584	 4.16856579669299E-02 
1585	 4.16285532184728E-02 
1586	 4.18069159642557E-02 
1587	 4.20473406399141E-02 
1588	 4.20124509217722E-02 
1589	 4.23878671978752E-02 
1590	 4.27505181216735E-02 
1591	 4.26228796083097E-02 
1592	 4.25903741411604E-02 
1593	 4.28359477206024E-02 
1594	 4.30489360778946E-02 
1595	 4.31952518244951E-02 
1596	 4.32898404849218E-02 
1597	 0.043366941266027 
1598	 4.35348816483891E-02 
1599	 4.36951728396942E-02 
1600	 4.37711509025259E-02 
1601	 4.37814944719436E-02 
1602	 4.39926637279101E-02 
1603	 4.43487301705467E-02 
1604	 4.44894748422407E-02 
1605	 0.044493195609813 
1606	 4.46001861735503E-02 
1607	 4.48592510439755E-02 
1608	 4.50848091268335E-02 
1609	 4.53913776678051E-02 
1610	 4.54868339876841E-02 
1611	 0.045121669811073 
1612	 4.51326205179392E-02 
1613	 4.54558786938996E-02 
1614	 4.54733756796097E-02 
1615	 4.55015284356876E-02 
1616	 0.045667869708104 
1617	 4.56877942842988E-02 
1618	 4.56526362104082E-02 
1619	 4.58821508299835E-02 
1620	 4.61589889969853E-02 
1621	 4.62460811186168E-02 
1622	 4.65097379321592E-02 
1623	 4.66493460622284E-02 
1624	 4.64385247332998E-02 
1625	 4.63712465823694E-02 
1626	 4.65029202440251E-02 
1627	 4.65785214519453E-02 
1628	 4.66148816628522E-02 
1629	 4.69701233895274E-02 
1630	 4.72702244907768E-02 
1631	 4.72268483160267E-02 
1632	 0.047319704206246 
1633	 4.73668826901077E-02 
1634	 4.70970640041567E-02 
1635	 4.71072050774972E-02 
1636	 4.73652973049362E-02 
1637	 4.71669277550147E-02 
1638	 4.70138728112637E-02 
1639	 4.72115990206057E-02 
1640	 4.74274297110643E-02 
1641	 4.77584951434725E-02 
1642	 4.80652003005112E-02 
1643	 0.048331306037963 
1644	 4.86254747772752E-02 
1645	 4.86946978735068E-02 
1646	 4.85453780683075E-02 
1647	 4.83485097258555E-02 
1648	 4.83069380788456E-02 
1649	 4.85804762461743E-02 
1650	 4.86738722136248E-02 
1651	 0.048640289253899 
1652	 4.88280839605655E-02 
1653	 4.88840961371815E-02 
1654	 4.87934201538215E-02 
1655	 4.84777109708999E-02 
1656	 4.84474477956417E-02 
1657	 4.83700851073692E-02 
1658	 4.84497299691255E-02 
1659	 4.89588408325696E-02 
1660	 4.91289210859219E-02 
1661	 4.92326116745178E-02 
1662	 4.91588700355402E-02 
1663	 0.048820394161068 
1664	 4.88552873827566E-02 
1665	 4.88923716531785E-02 
1666	 4.87938371706969E-02 
1667	 4.89012733980264E-02 
1668	 4.85524663335388E-02 
1669	 4.85413586273567E-02 
1670	 4.91662106945543E-02 
1671	 4.93797937960732E-02 
1672	 4.91051628757085E-02 
1673	 0.048830347913362 
1674	 4.86284130293328E-02 
1675	 4.87972676906833E-02 
1676	 4.92257172877675E-02 
1677	 4.91643485641949E-02 
1678	 4.88061407317826E-02 
1679	 4.88342823443326E-02 
1680	 0.048887712394429 
1681	 4.87548199218575E-02 
1682	 4.89948775918099E-02 
1683	 4.90088562846416E-02 
1684	 0.048424428278356 
1685	 0.048568222346454 
1686	 4.89988493841325E-02 
1687	 4.89124381044995E-02 
1688	 4.91747216843678E-02 
1689	 0.049305556216162 
1690	 4.90041798412344E-02 
1691	 4.91665788153126E-02 
1692	 4.91391950314576E-02 
1693	 0.048813489760393 
1694	 4.88643550775179E-02 
1695	 4.86605514729467E-02 
1696	 4.85294236149094E-02 
1697	 4.86287246076956E-02 
1698	 4.84643584427426E-02 
1699	 4.84158555539084E-02 
1700	 4.80849019318919E-02 
1701	 4.79881824406545E-02 
1702	 4.85323956742445E-02 
1703	 4.83384053024628E-02 
1704	 4.80274862883254E-02 
1705	 4.82029399972779E-02 
1706	 4.79397239495404E-02 
1707	 4.75465104131544E-02 
1708	 4.76873733436429E-02 
1709	 4.77983185361528E-02 
1710	 4.75111793808319E-02 
1711	 4.75858340743125E-02 
1712	 0.047879563179442 
1713	 0.047494563672188 
1714	 4.73338135318503E-02 
1715	 4.72968908267516E-02 
1716	 4.74106521355864E-02 
1717	 4.73747677125137E-02 
1718	 0.047507004833058 
1719	 4.70309458128638E-02 
1720	 4.64196100550042E-02 
1721	 4.69803345599896E-02 
1722	 4.72440891202051E-02 
1723	 4.65342509166381E-02 
1724	 4.60972647079172E-02 
1725	 0.045752718575876 
1726	 4.55683094424221E-02 
1727	 4.63260428609567E-02 
1728	 4.67945521602466E-02 
1729	 4.61958496308679E-02 
1730	 4.58970464544063E-02 
1731	 4.57750136441834E-02 
1732	 4.52797203407184E-02 
1733	 4.49999637261702E-02 
1734	 4.49591570011178E-02 
1735	 4.50988197016393E-02 
1736	 4.54683164499587E-02 
1737	 4.55188594677726E-02 
1738	 0.04487772135573 
1739	 4.41013828668982E-02 
1740	 4.43061375942188E-02 
1741	 4.49795664869996E-02 
1742	 4.47754701590856E-02 
1743	 4.42747518362707E-02 
1744	 4.36174572566394E-02 
1745	 4.29769842555679E-02 
1746	 4.37380563964423E-02 
1747	 4.37727834310371E-02 
1748	 4.28992699688175E-02 
1749	 4.25902929586019E-02 
1750	 4.27657958142892E-02 
1751	 4.26082642024879E-02 
1752	 4.23989778775332E-02 
1753	 4.21833457785274E-02 
1754	 4.15663328528429E-02 
1755	 4.13323530084211E-02 
1756	 4.15903049085265E-02 
1757	 4.19948935939077E-02 
1758	 4.15236473559081E-02 
1759	 4.09024693503337E-02 
1760	 4.05174964687634E-02 
1761	 0.040238219328658 
1762	 4.01364547618305E-02 
1763	 3.98650502872585E-02 
1764	 3.97452006975162E-02 
1765	 3.92983469753523E-02 
1766	 3.87720305765097E-02 
1767	 3.91785303474875E-02 
1768	 3.95373902643838E-02 
1769	 3.96944114923582E-02 
1770	 4.01291748476608E-02 
1771	 4.03182531409371E-02 
1772	 3.98459964185982E-02 
1773	 0.038622312977071 
1774	 3.76829437986987E-02 
1775	 0.037268235315472 
1776	 3.76466444801534E-02 
1777	 4.06733621325402E-02 
1778	 0.041312105460916 
1779	 4.08074247538843E-02 
1780	 4.05371489372977E-02 
1781	 3.79460983167619E-02 
1782	 3.70115053472888E-02 
1783	 3.78892534491942E-02 
1784	 3.76865906820809E-02 
1785	 3.77373519735824E-02 
1786	 3.74773800583266E-02 
1787	 3.55815948861093E-02 
1788	 3.59041575782044E-02 
1789	 3.71588817283171E-02 
1790	 3.65953947628186E-02 
1791	 4.13008353819508E-02 
1792	 4.12129503486097E-02 
1793	 4.12702166860734E-02 
1794	 4.43420104991016E-02 
1795	 4.14642273247044E-02 
1796	 4.20361801539389E-02 
1797	 0.041809447891635 
1798	 3.50977791009975E-02 
1799	 3.95165758009224E-02 
1800	 4.83123463089878E-02 
1801	 4.84232030069794E-02 
1802	 4.18635552529044E-02 
1803	 3.85643243489384E-02 
1804	 1.72137609062522E-02 
1805	 0.013871793923321 
1806	 5.37587929697923E-02 
1807	 6.92783922989643E-02 
1808	 8.24118469956676E-02 
1809	 0.091804200892949 
1810	 4.88207853612223E-02 
1811	 4.58621885245367E-02 
1812	 8.57504959578561E-02 
1813	 7.72533963702284E-02 
1814	 2.19595297034509E-02 
1815	 5.97961730359241E-02 
1816	 0.17397538852441 
1817	 0.19790441793973 
1818	 0.535019932447866 
1819	 0.480032305052711 
1820	 0.107209612020637 
1821	 0.311659803391713 
1822	 0.357504075701408 
1823	 0.146276380103714 
1824	 0.266302560447567 
1825	 0.566244703837542 
1826	 0.679181043686639 
1827	 1.24558955930495 
1828	 1.19943491340745 
1829	 0.370951485731587 
1830	-6.55902658609923E-02 
1831	-1.03580359509483 
1832	-0.988238741831572 
1833	-1.13250123683753 
1834	-1.03585823909852 
1835	 0.886029396256302 
1836	 64.0645890703287 
1837	 7.0150723412004 
1838	 5.79796555495105 
1839	 2.7384100685479 
1840	 1.45601730526474 
1841	 0.141283015767516 
1842	-0.147182227673642 
1843	-0.377509083469494 
1844	-0.310477607308011 
1845	-0.39510874282521 
1846	-0.863792988453494 
1847	-1.29749210935319 
1848	-15.5538251944539 
1849	 2.67132132609036 
1850	-0.258995883912614 
1851	 7.90106012167251E-02 
1852	 0.182515640697276 
1853	 0.25308714777329 
1854	 0.174543446609553 
1855	-0.488721869524886 
1856	-2.00851439537954 
1857	-1.52453283476068 
1858	-1.12656230078901 
1859	-0.362333734489704 
1860	-0.125710093955503 
1861	 2.57229296832328E-02 
1862	 0.316854667573045 
1863	-0.485597880708473 
1864	 0.847515103391934 
1865	 0.704925976796983 
1866	 1.6831309813685 
1867	 2.2921352136438 
1868	 1.52706475893509 
1869	 1.45004062571964 
1870	 1.12909069643175 
1871	 0.730097103639602 
1872	-9.53800515618858 
1873	 2.16454965446252 
1874	-11.771544132686 
1875	 4.98577204592018 
1876	-5.32846095094037 
1877	-0.752783581362375 
1878	-0.631314645345972 
1879	 2.25534800614474 
1880	 1.68197921021557 
1881	 1.97891891264706 
1882	-0.301822612287587 
1883	 0.373959066434282 
1884	-0.222904810977264 
1885	 0.373310043369199 
1886	 0.980966540594609 
1887	 0.784985466818753 
1888	 3.19247673670125 
1889	 4.00287005249478 
1890	 0.380136096129007 
1891	 0.242035448886114 
1892	 0.766734472173119 
1893	 1.32426964264334 
1894	 0.183336793030602 
1895	 0.830472734149266 
1896	-0.886331765516653 
1897	 5.84189704862808 
1898	 4.12842197011695 
1899	 0.569430459376962 
1900	 1.07220486904185 
1901	-2.54295517811431 
1902	-1.94128806094839 
1903	-6.03610513800858 
1904	 15.6517637446349 
1905	-5.47611281510051 
1906	-43.5176084441267 
1907	 6.81184236086716 
1908	-3.48817945070274 
1909	-5.2158042418133 
1910	-4.89682238303793 
1911	 1.66331638041548 
1912	-5.5423519888391 
1913	-4.0118020360793 
1914	-0.702148766192335 
1915	-1.21424030004313 
1916	-451.773811139613 
1917	 1.08228462586434 
1918	 0.383924008696414 
1919	-6.17506721950296E-02 
1920	-0.253248118295834 
1921	-0.579446216195532 
1922	-0.250807687507807 
1923	 0.113243949879687 
1924	-99.4186931766154 
1925	-6.90996988008565 
1926	-5.12262212290656 
1927	-0.679973020018623 
1928	-1.01295105886299 
1929	 4.90973648976423 
1930	-7.64865410090636 
1931	-1.06743768294131 
1932	-1.13166311687914 
1933	-0.565577897809943 
1934	-0.378550774641553 
1935	-0.139455718721547 
1936	 4.21877819185946E-02 
1937	 3.35394225881141E-02 
1938	 2.06353316005199E-02 
1939	-1.22419170011182E-02 
1940	-0.165435681440939 
1941	-0.157762991493555 
1942	-4.70162372345052E-02 
1943	-2.76013586116781E-02 
1944	-3.40465225135215E-02 
1945	-4.79258630410457E-03 
1946	 3.50228412761851E-03 
1947	 3.02237855455429E-03 
1948	 4.18559348408653E-02 
1949	 3.14395629554746E-02 
1950	-1.47982789288986E-02 
1951	-3.96980461020812E-02 
1952	-0.047395537016199 
1953	-5.91344419848712E-02 
1954	-4.74750708466849E-02 
1955	-0.015891259509927 
1956	 2.09167110557249E-03 
1957	 4.87446572790395E-03 
1958	 5.76133892992752E-03 
1959	-1.07636470865357E-04 
1960	-3.95307288751718E-03 
1961	-4.60894153161328E-04 
1962	-6.05457181117152E-03 
1963	-4.24253402156665E-03 
1964	 1.90326148271228E-03 
1965	 4.84431709626275E-04 
1966	 1.28089707598055E-03 
1967	 4.43117255652539E-03 
1968	 4.40917600954271E-03 
1969	 7.79376707764552E-04 
1970	 1.58427751217072E-03 
1971	 3.85525967679797E-03 
1972	 3.22298580291017E-03 
1973	 3.01843478666343E-03 
1974	 4.12021267899596E-03 
1975	 2.33599837350366E-03 
1976	 1.87086888104848E-03 
1977	 4.42817649987798E-03 
1978	 5.70156661066029E-03 
1979	 6.51998266888706E-03 
1980	 7.37545432194865E-03 
1981	 8.41769326226003E-03 
1982	 8.59499186900868E-03 
1983	 8.80400040903172E-03 
1984	 7.97320931236669E-03 
1985	 6.44901299193647E-03 
1986	 6.40170986692649E-03 
1987	 5.93085808641852E-03 
1988	 5.72211515747205E-03 
1989	 7.30184808128475E-03 
1990	 7.68453903473627E-03 
1991	 7.07435054075759E-03 
1992	 7.39161547195182E-03 
1993	 7.9742340205217E-03 
1994	 8.08277409649509E-03 
1995	 7.63022671860247E-03 
1996	 7.44710318482362E-03 
1997	 6.92434236254301E-03 
1998	 6.27892259107602E-03 
1999	 8.16839517572898E-03 
2000	 1.14970051638219E-02 
2001	 1.34312214286926E-02 
2002	 1.12486179724912E-02 
2003	 5.27477827571672E-03 
2004	 2.61496254133938E-03 
2005	 4.79951909614436E-03 
2006	 6.14241740834623E-03 
2007	 8.40900027817993E-03 
2008	 1.13765877874502E-02 
2009	 1.18102652298667E-02 
2010	 9.13576797374617E-03 
2011	 8.6688646603392E-03 
2012	 8.82611496966655E-03 
2013	 7.38272201543947E-03 
2014	 7.62999304919313E-03 
2015	 9.72042797716783E-03 
2016	 1.33428630585015E-02 
2017	 1.30790005851681E-02 
2018	 1.14997268336372E-02 
2019	 1.12795929935855E-02 
2020	 1.02906552912202E-02 
2021	 1.04406690447599E-02 
2022	 0.011753397258417 
2023	 1.20482214839813E-02 
2024	 1.13114096781152E-02 
2025	 9.46106187171881E-03 
2026	 9.22754572705797E-03 
2027	 8.98623672423376E-03 
2028	 8.51238777630403E-03 
2029	 8.68857644612764E-03 
2030	 9.03806488042496E-03 
2031	 8.37021420533908E-03 
2032	 8.45960157853752E-03 
2033	 9.13078304699518E-03 
2034	 9.70794318756977E-03 
2035	 1.02752838782184E-02 
2036	 0.010489930801427 
2037	 1.08815389816973E-02 
2038	 1.15988381417899E-02 
2039	 1.17737105759279E-02 
2040	 1.13046080271133E-02 
2041	 0.011363164893586 
2042	 1.14771587921661E-02 
2043	 1.15150699348828E-02 
2044	 1.15885560880339E-02 
2045	 1.24722994353342E-02 
2046	 1.27752860631283E-02 
2047	 1.16276199946041E-02 
2048	 1.16836754818007E-02 
2049	 1.18469231213522E-02 
2050	 1.08265273210907E-02 
2051	 1.20899909099902E-02 
2052	 0.013342774466333 
2053	 1.33178244697403E-02 
2054	 1.45154270642097E-02 
2055	 1.46502535372887E-02 
2056	 1.44526906338368E-02 
2057	 1.31015569674769E-02 
2058	 1.29478963428521E-02 
2059	 1.27574472809019E-02 
2060	 1.33538290746809E-02 
2061	 0.015212441245317 
2062	 1.62550613445488E-02 
2063	 1.58391961401661E-02 
2064	 0.014294559245885 
2065	 1.23433062982849E-02 
2066	 1.15312367957852E-02 
2067	 1.17583221831901E-02 
2068	 1.22534217170886E-02 
2069	 1.27620970264363E-02 
2070	 1.23585353764156E-02 
2071	 0.012412644649512 
2072	 1.38289063961567E-02 
2073	 0.01392741990684 
2074	 1.31533682592614E-02 
2075	 1.36265235426936E-02 
2076	 1.43839548781393E-02 
2077	 1.41526477448333E-02 
2078	 1.44559417523562E-02 
2079	 1.45094781033888E-02 
2080	 1.35489910569055E-02 
2081	 1.27972015498534E-02 
2082	 1.31608285912091E-02 
2083	 1.35738189554731E-02 
2084	 1.40433290711359E-02 
2085	 1.46153211864764E-02 
2086	 1.46987112898371E-02 
2087	 1.48567672443658E-02 
2088	 1.53725772475896E-02 
2089	 1.54011873455106E-02 
2090	 1.52372616184519E-02 
2091	 1.53081860651778E-02 
2092	 1.55878538295977E-02 
2093	 1.55068354058761E-02 
2094	 1.58743237601455E-02 
2095	 0.017411498901953 
2096	 0.01764500989106 
2097	 1.70418781386114E-02 
2098	 1.68781059118544E-02 
2099	 1.63438751888579E-02 
2100	 1.58507175297039E-02 
2101	 1.63760015350652E-02 
2102	 1.72801798180618E-02 
2103	 1.77662004517798E-02 
2104	 1.80019191527205E-02 
2105	 1.79595950549834E-02 
2106	 1.77159564068157E-02 
2107	 1.78481715453801E-02 
2108	 1.77881438307064E-02 
2109	 1.74871326372202E-02 
2110	 1.74673759943028E-02 
2111	 1.82621797744634E-02 
2112	 0.019321463353605 
2113	 1.92482542059446E-02 
2114	 1.86069756116393E-02 
2115	 1.87509632540594E-02 
2116	 1.79202457045756E-02 
2117	 1.78727742546286E-02 
2118	 1.97932051688968E-02 
2119	 2.02105540131864E-02 
2120	 1.96482412386522E-02 
2121	 1.90917668837532E-02 
2122	 1.93496343989917E-02 
2123	 1.96751121309054E-02 
2124	 0.019717495270694 
2125	 1.97503798295604E-02 
2126	 1.96664381267109E-02 
2127	 1.92475678534953E-02 
2128	 1.84776731993149E-02 
2129	 1.88760562255268E-02 
2130	 2.01625749784307E-02 
2131	 2.01497005111056E-02 
2132	 2.02649187705732E-02 
2133	 2.08014264411888E-02 
2134	 2.05985417967127E-02 
2135	 1.88190468348007E-02 
2136	 1.90116091615775E-02 
2137	 2.05149019800804E-02 
2138	 0.020476549131208 
2139	 2.03731292262755E-02 
2140	 2.03345901661998E-02 
2141	 0.019065014339758 
2142	 1.87370078300132E-02 
2143	 1.88980990164459E-02 
2144	 2.02158374192156E-02 
2145	 0.020710273722385 
2146	 2.07075370474437E-02 
2147	 2.14528188734851E-02 
2148	 2.11193660445182E-02 
2149	 2.02717145113929E-02 
2150	 2.03271543866048E-02 
2151	 0.019653948291718 
2152	 1.84533511127237E-02 
2153	 1.77020706724969E-02 
2154	 1.75484890635844E-02 
2155	 1.83676424002356E-02 
2156	 1.95353408802142E-02 
2157	 2.02967124396052E-02 
2158	 2.12954439984092E-02 
2159	 2.19636243454763E-02 
2160	 2.21984445692898E-02 
2161	 2.24647138350901E-02 
2162	 2.31458431579859E-02 
2163	 2.31980052130847E-02 
2164	 2.24136763862609E-02 
2165	 2.20717032466672E-02 
2166	 2.18417989186924E-02 
2167	 2.12712346324629E-02 
2168	 1.99847492238079E-02 
2169	 2.01183925255108E-02 
2170	 2.15894900636952E-02 
2171	 2.11041590462696E-02 
2172	 2.10913860752077E-02 
2173	 2.16703709421433E-02 
2174	 1.96691265793429E-02 
2175	 1.92517086304225E-02 
2176	 0.020321837038742 
2177	 2.03040324782981E-02 
2178	 2.16365363089774E-02 
2179	 2.28127811518652E-02 
2180	 2.27639686871225E-02 
2181	 2.31916708814129E-02 
2182	 2.32353123619331E-02 
2183	 2.21802203986684E-02 
2184	 2.17402289517947E-02 
2185	 2.18027177976899E-02 
2186	 2.17394867396417E-02 
2187	 2.13784850589991E-02 
2188	 2.21852423812532E-02 
2189	 2.46052614302961E-02 
2190	 2.49340510033349E-02 
2191	 2.46324453455442E-02 
2192	 2.45571214889594E-02 
2193	 2.25568581868479E-02 
2194	 2.20687565248713E-02 
2195	 2.39191214404125E-02 
2196	 2.41032850511895E-02 
2197	 2.36189465094362E-02 
2198	 2.29580848388487E-02 
2199	 2.13944698967556E-02 
2200	 0.019901598091708 
2201	 1.84156747370269E-02 
2202	 1.73785525085942E-02 
2203	 0.018616595189522 
2204	 1.85918449207757E-02 
2205	 0.018552787827067 
2206	 2.03289551808437E-02 
2207	 2.04034561559401E-02 
2208	 2.09303969693743E-02 
2209	 2.20688608857587E-02 
2210	 2.29706891974069E-02 
2211	 2.40464920290072E-02 
2212	 2.30486561486817E-02 
2213	 2.18846815529879E-02 
2214	 2.16634112668266E-02 
2215	 2.04380413961955E-02 
2216	 1.95696223670043E-02 
2217	 1.96617782329682E-02 
2218	 2.07558687693709E-02 
2219	 2.12504350956585E-02 
2220	 2.26845282497727E-02 
2221	 2.31363489244407E-02 
2222	 2.24929812015546E-02 
2223	 2.26824823903872E-02 
2224	 2.31426262747643E-02 
2225	 2.29335468060401E-02 
2226	 2.32616432851786E-02 
2227	 2.26679942994259E-02 
2228	 2.03586503661538E-02 
2229	 1.89881412696444E-02 
2230	 1.77130335296363E-02 
2231	 1.67387691013242E-02 
2232	 0.015512865593329 
2233	 1.58003482201248E-02 
2234	 1.71732807215929E-02 
2235	 0.019046252796101 
2236	 2.02652878902115E-02 
2237	 0.020823094240332 
2238	 2.03559542984949E-02 
2239	 1.86409197257191E-02 
2240	 1.71625316270571E-02 
2241	 1.80400264800808E-02 
2242	 1.85999102418993E-02 
2243	 1.85971964034201E-02 
2244	 1.84980842381828E-02 
2245	 1.73195964563014E-02 
2246	 1.75689157740878E-02 
2247	 1.80509781389421E-02 
2248	 1.86864253384138E-02 
2249	 1.98891506878012E-02 
2250	 2.04968998739772E-02 
2251	 2.19536646104663E-02 
2252	 0.02325322087018 
2253	 2.33194382379537E-02 
2254	 2.31864621195341E-02 
2255	 2.13520061761221E-02 
2256	 0.018818590846249 
2257	 1.90709120164844E-02 
2258	 1.91060699531661E-02 
2259	 1.85951716539782E-02 
2260	 1.88638008705729E-02 
2261	 0.019713572405327 
2262	 1.98960748502213E-02 
2263	 2.09773893664986E-02 
2264	 2.08789239579318E-02 
2265	 1.98274392034598E-02 
2266	 1.96540254048925E-02 
2267	 1.80328791908739E-02 
2268	 1.85116756715207E-02 
2269	 2.16166758151491E-02 
2270	 2.15581767753433E-02 
2271	 2.06478391878826E-02 
2272	 2.15979803519528E-02 
2273	 2.19981971535634E-02 
2274	 2.18557051218209E-02 
2275	 2.28498113906365E-02 
2276	 2.36425594768052E-02 
2277	 2.32352180388939E-02 
2278	 2.28882760977505E-02 
2279	 2.44232923490697E-02 
2280	 2.36180307289755E-02 
2281	 1.99702803358837E-02 
2282	 1.74930404695423E-02 
2283	 1.57470580192481E-02 
2284	 1.46174661493862E-02 
2285	 0.016318130330951 
2286	 1.73063250755103E-02 
2287	 1.82069291233853E-02 
2288	 1.91857912922708E-02 
2289	 1.79695298234437E-02 
2290	 1.71129061872458E-02 
2291	 1.70095952918806E-02 
2292	 1.82832798777935E-02 
2293	 2.08192808153935E-02 
2294	 2.03406959585784E-02 
2295	 1.81183279403078E-02 
2296	 0.017688925898185 
2297	 1.69804831411628E-02 
2298	 1.65855739298743E-02 
2299	 1.82890156310541E-02 
2300	 1.76156741266219E-02 
2301	 1.60844077747985E-02 
2302	 1.55588744038455E-02 
2303	 1.46828425285079E-02 
2304	 1.60964493737147E-02 
2305	 1.89586487177991E-02 
2306	 2.08945186002959E-02 
2307	 1.80947005321523E-02 
2308	 1.54389553807664E-02 
2309	 1.29558928130704E-02 
2310	 8.75876753048751E-03 
2311	 1.21236919834783E-02 
2312	 1.48786490948731E-02 
2313	 1.46772202729833E-02 
2314	 1.40336205009267E-02 
2315	 8.05176317557564E-03 
2316	 7.10317739087059E-03 
2317	 4.9943242680223E-03 
2318	 5.96595757997241E-04 
2319	 6.27302248581297E-03 
2320	 6.41680004367738E-03 
2321	 4.73583322901429E-03 
2322	 1.22079000649415E-02 
2323	 1.27317902293757E-02 
2324	 1.18914939570465E-02 
2325	 1.54062782427359E-02 
2326	 0.014275803677104 
2327	 1.40595066507698E-02 
2328	 1.57610367746613E-02 
2329	 1.81413565190173E-02 
2330	 2.02612408978659E-02 
2331	 1.69468644710553E-02 
2332	 0.012717779044834 
2333	 9.2629467161615E-03 
2334	 2.2345378881057E-03 
2335	 1.49816173809478E-03 
2336	 6.4105631458193E-03 
2337	 3.85212883588517E-03 
2338	 2.10260509140489E-03 
2339	 3.01295387001736E-03 
2340	 9.89979908336197E-04 
2341	-1.8807044273583E-03 
2342	-1.31615288743511E-03 
2343	 3.7487114538919E-03 
2344	 7.50225057410619E-03 
2345	 9.67771474456026E-03 
2346	 1.10881147765263E-02 
2347	 1.23352992654631E-02 
2348	 1.17304155408553E-02 
2349	 1.02043877538381E-02 
2350	 1.50525510464829E-02 
2351	 1.97804870638706E-02 
2352	 1.77056833731232E-02 
2353	 2.34287739535655E-02 
2354	 2.90167683959433E-02 
2355	 2.26437108517141E-02 
2356	 1.18916560447787E-02 
2357	 5.89114156964994E-03 
2358	 1.04797674648123E-02 
2359	 8.49749499026114E-03 
2360	 2.61604107542421E-03 
2361	 4.91501835645989E-03 
2362	 5.21038681074474E-04 
2363	-1.25064086416472E-02 
2364	-1.35009155528787E-02 
2365	-1.40921358287511E-02 
2366	-2.52790870807096E-02 
2367	-1.43418588279735E-02 
2368	 7.69583962333649E-03 
2369	 8.28155464830894E-03 
2370	-1.10468784829977E-03 
2371	-1.85945087834547E-03 
2372	-8.76250254549225E-03 
2373	-2.93357151520506E-02 
2374	-2.84490162813797E-02 
2375	-1.96770601155384E-02 
2376	-2.13646936506757E-02 
2377	-4.53899244834007E-04 
2378	 6.98190017667271E-03 
2379	-9.32571019913246E-03 
2380	-1.70431685719147E-02 
2381	-2.79614462561422E-02 
2382	-2.30324948617459E-02 
2383	-2.42198220442066E-02 
2384	-3.95801474331548E-02 
2385	-3.28191329619139E-02 
2386	-3.87903667964281E-02 
2387	-0.047077137104149 
2388	-4.11458950037349E-02 
2389	-3.40725844921424E-02 
2390	-8.1883830902152E-03 
2391	 6.10577683292189E-03 
2392	 4.12248598775729E-03 
2393	-2.49968960661589E-03 
2394	-0.028401731096351 
2395	-3.56308761139578E-02 
2396	-1.55222078934767E-02 
2397	-1.45545759173774E-02 
2398	-2.92399221284788E-02 
2399	-2.28634658756099E-02 
2400	-1.15352541939924E-02 
2401	 1.5591694363643E-04 
2402	 1.16330062226042E-02 
2403	 3.9927335069841E-03 
2404	-2.59015806369841E-02 
2405	-4.39965080574742E-02 
2406	-0.022080330280066 
2407	-3.37795273053319E-02 
2408	-5.46711511090769E-02 
2409	-3.75607332885812E-02 
2410	-8.04794809972731E-02 
2411	-0.120246956470523 
2412	-9.62713147892608E-02 
2413	-0.166884184890327 
2414	-0.213414725994773 
2415	-0.11059885093578 
2416	-0.106022676060669 
2417	-3.17038737441354E-02 
2418	 0.095151401239038 
2419	 5.18591989297367E-02 
2420	 2.13366768186366E-02 
2421	 3.48803272027517E-02 
2422	-5.87909119244745E-02 
2423	-0.063354232712001 
2424	 5.00393952174536E-02 
2425	 5.86703201715023E-02 
2426	 1.02640606516117E-02 
2427	 3.08181861760978E-02 
2428	 0.014270697975692 
2429	-0.055004837983086 
2430	-3.18684694098259E-02 
2431	-0.079763539396007 
2432	-0.163619224188261 
2433	-0.167930182992022 
2434	-0.159564057620759 
2435	-5.31906484172605E-02 
2436	 2.12604661908486E-02 
2437	 6.05596588530474E-02 
2438	 8.29993293674654E-02 
2439	 9.43441492208554E-03 
2440	-1.59125328811732E-02 
2441	 7.09151144486659E-02 
2442	 9.08743417191948E-04 
2443	-2.58303476231026E-02 
2444	 1.95896603452103E-03 
2445	-0.145942216927387 
2446	-0.077940362865428 
2447	 2.87572198849932E-02 
2448	-0.035663026933205 
2449	-0.104852170135717 
2450	-0.169271959467264 
2451	-0.38088915854566 
2452	-0.686016048479733 
2453	-0.696002237209155 
2454	-0.703555135831896 
2455	-0.567223392479191 
2456	-0.393538142112543 
2457	-0.327053956021277 
2458	-0.301524429332206 
2459	-0.336612962628442 
2460	-0.336929870245545 
2461	-0.199295695751915 
2462	-1.64572490645815E-02 
2463	 0.517189930257192 
2464	 0.637901629911301 
2465	 1.69742923301892 
2466	 0.731649149920478 
2467	 0.198027083440616 
2468	 0.118797289863447 
2469	 0.253132519538699 
2470	-0.506639110435917 
2471	-2.56186631000729 
2472	-5.66630378599991 
2473	-4.60462714135232 
2474	-4.37072599346516 
2475	-6.12760370950059 
2476	-2.85070624501785 
2477	-1.4185054296974 
2478	-0.467382953667801 
2479	-0.392559670850063 
2480	-1.12129285622692 
2481	-1.83726605011865 
2482	-25.9355620097469 
2483	-2.08793698610824 
2484	 20.7070320099166 
2485	 0.815297705880505 
2486	 0.739711442674368 
2487	 1.92928359412119 
2488	 2.20271603935476 
2489	 1.44900670652092 
2490	 1.20536737490955 
2491	 0.751084036748951 
2492	 0.419283130392418 
2493	 2.63539473473149 
2494	-2.32450195780585 
2495	 1.88446949008747 
2496	 1.65051297967796 
2497	 2.48996807835784 
2498	 0.891193713576112 
2499	 34.9932166795999 
2500	 0.273480965109059 
