Wavelength	rt0708c00004.asd
350	 6.79110567179151E-02 
351	 6.80674813165639E-02 
352	 6.83241596255917E-02 
353	 0.068344875695606 
354	 6.80429213051934E-02 
355	 6.76873705654371E-02 
356	 6.83960558717902E-02 
357	 6.86937983605493E-02 
358	 6.73728334720955E-02 
359	 6.78606103581379E-02 
360	 6.84456791186737E-02 
361	 0.06829851515781 
362	 6.75251513675565E-02 
363	 6.79393678651159E-02 
364	 6.81511889433779E-02 
365	 6.77268659808481E-02 
366	 6.82718882571034E-02 
367	 6.83095037156132E-02 
368	 6.78373290351587E-02 
369	 6.73648444955355E-02 
370	 6.77394439899494E-02 
371	 6.79062544087542E-02 
372	 6.78578938455055E-02 
373	 6.81277543012672E-02 
374	 6.80314289824406E-02 
375	 0.068009016787599 
376	 6.83695965420712E-02 
377	 6.90681688252729E-02 
378	 6.87273771391736E-02 
379	 6.82321604654827E-02 
380	 6.85544307955658E-02 
381	 6.91781340913787E-02 
382	 6.95418123633906E-02 
383	 6.96222809897509E-02 
384	 6.96647317166395E-02 
385	 6.95344295337676E-02 
386	 6.93816999958976E-02 
387	 6.95792426877792E-02 
388	 7.06180678191733E-02 
389	 7.01155079941843E-02 
390	 6.94936178127891E-02 
391	 6.98892451649985E-02 
392	 6.98975859132204E-02 
393	 6.99851841419161E-02 
394	 0.070299286517185 
395	 0.070719673320371 
396	 7.03651666523231E-02 
397	 7.01234005092759E-02 
398	 7.02249838654573E-02 
399	 7.02572670158765E-02 
400	 7.01623425605138E-02 
401	 7.02317623013054E-02 
402	 7.04895993319464E-02 
403	 7.01966109740978E-02 
404	 7.03261789732306E-02 
405	 7.06811740798357E-02 
406	 7.07272686593598E-02 
407	 7.07424763479502E-02 
408	 7.06319822482075E-02 
409	 7.05008239217411E-02 
410	 7.06388519670749E-02 
411	 7.07050552815409E-02 
412	 7.08319761442635E-02 
413	 7.10572541999028E-02 
414	 7.09824370755872E-02 
415	 7.08643464911503E-02 
416	 7.08844719651112E-02 
417	 7.11084538469038E-02 
418	 7.11079855992593E-02 
419	 7.11910610626638E-02 
420	 7.14106126964906E-02 
421	 7.14999367224376E-02 
422	 7.15307778840247E-02 
423	 7.15949950811812E-02 
424	 0.071754428317079 
425	 7.19835263993267E-02 
426	 0.072176694017807 
427	 7.22608863070098E-02 
428	 7.22297213848616E-02 
429	 7.23545804743777E-02 
430	 7.25382414312236E-02 
431	 7.26945871866134E-02 
432	 7.27984366059702E-02 
433	 7.29465039960604E-02 
434	 7.30504846374827E-02 
435	 7.30807635875734E-02 
436	 7.33002590283778E-02 
437	 7.35769916551899E-02 
438	 7.37623610174839E-02 
439	 0.073755475519857 
440	 7.39270556976816E-02 
441	 7.41701955514864E-02 
442	 7.43683610821289E-02 
443	 7.44717719751189E-02 
444	 7.46174982707147E-02 
445	 7.47454228652297E-02 
446	 7.47891378848102E-02 
447	 7.48736803398399E-02 
448	 7.49904752095922E-02 
449	 7.51537699855654E-02 
450	 7.53774185563628E-02 
451	 0.075448831164206 
452	 7.54645072449933E-02 
453	 7.55273763830377E-02 
454	 7.56589093762601E-02 
455	 7.57965083541593E-02 
456	 7.58215282384133E-02 
457	 7.56917754515792E-02 
458	 0.075851146063844 
459	 7.59366268890202E-02 
460	 7.58699734677804E-02 
461	 7.58958192549755E-02 
462	 7.60309769759004E-02 
463	 7.60775310332984E-02 
464	 7.59637553298751E-02 
465	 7.60882751048617E-02 
466	 7.62056473893077E-02 
467	 7.62350526072643E-02 
468	 7.62009649746624E-02 
469	 7.62767283650519E-02 
470	 7.63568366565475E-02 
471	 7.63947064776899E-02 
472	 7.64575188392201E-02 
473	 7.65383007317341E-02 
474	 7.65955311303974E-02 
475	 7.66110202660311E-02 
476	 7.66704640614819E-02 
477	 7.68443659828523E-02 
478	 7.69703745597582E-02 
479	 7.68040753790482E-02 
480	 7.70652926471411E-02 
481	 7.73079975428004E-02 
482	 7.72903770711102E-02 
483	 7.75095255224613E-02 
484	 7.76320474193607E-02 
485	 7.76632975727864E-02 
486	 0.07773684411058 
487	 7.79806968674352E-02 
488	 7.80981504878168E-02 
489	 7.81117872169639E-02 
490	 7.83521475374073E-02 
491	 7.85130102133388E-02 
492	 7.87052284942709E-02 
493	 7.90224831430291E-02 
494	 7.93181476864354E-02 
495	 7.94599595471033E-02 
496	 7.95708796308457E-02 
497	 7.98699038298717E-02 
498	 8.01221867334067E-02 
499	 8.04121969733398E-02 
500	 0.080713266443355 
501	 8.07734367660883E-02 
502	 0.081133534363423 
503	 8.15023480503822E-02 
504	 8.15605961923608E-02 
505	 8.18925531749552E-02 
506	 8.22145222831225E-02 
507	 8.24245116467485E-02 
508	 8.25909541351657E-02 
509	 8.28491336063543E-02 
510	 8.31269339129371E-02 
511	 8.33926357604905E-02 
512	 8.38158184745632E-02 
513	 8.41608358874231E-02 
514	 8.44724827268665E-02 
515	 8.48900611195859E-02 
516	 8.53086712795093E-02 
517	 8.55783694002395E-02 
518	 8.57607354098889E-02 
519	 8.61699883619797E-02 
520	 8.65403902864371E-02 
521	 8.69104343008575E-02 
522	 8.73512493012931E-02 
523	 8.77916109691678E-02 
524	 8.82397115608566E-02 
525	 8.86889810254984E-02 
526	 8.91178053768362E-02 
527	 8.94037016295323E-02 
528	 8.97796896286577E-02 
529	 9.03345164695357E-02 
530	 9.07901307901984E-02 
531	 9.12380616030918E-02 
532	 9.17082438660882E-02 
533	 9.22032400873233E-02 
534	 9.26666504261627E-02 
535	 0.093155122504554 
536	 9.36871806381607E-02 
537	 9.42279754367722E-02 
538	 9.47573701143081E-02 
539	 9.53498591404643E-02 
540	 9.59887111645314E-02 
541	 9.62588787622833E-02 
542	 9.67219668580167E-02 
543	 9.73611264456359E-02 
544	 9.78179656701314E-02 
545	 9.82680821468371E-02 
546	 9.87042512677221E-02 
547	 9.91124426629897E-02 
548	 9.95003376649223E-02 
549	 9.99498774387701E-02 
550	 0.100447527542407 
551	 0.100937263976079 
552	 0.101344230996028 
553	 0.101811578076182 
554	 0.102328092160217 
555	 0.102696743464472 
556	 0.103076613970141 
557	 0.103465038546994 
558	 0.103817001984007 
559	 0.104096440016602 
560	 0.104315905042559 
561	 0.104468711230026 
562	 0.104550212621514 
563	 0.104684189748822 
564	 0.104855225821083 
565	 0.104997156612409 
566	 0.104968476542098 
567	 0.105099903456834 
568	 0.105375765437791 
569	 0.105639912964614 
570	 0.105774013501401 
571	 0.105963886454557 
572	 0.106316823316265 
573	 0.106826026183016 
574	 0.107134582868028 
575	 0.107271409485578 
576	 0.107360861384033 
577	 0.107503425461848 
578	 0.107572175880112 
579	 0.107536527340646 
580	 0.107440488341883 
581	 0.10739203715158 
582	 0.107347633747018 
583	 0.107299413857007 
584	 0.107358001036334 
585	 0.107266245098654 
586	 0.107100726415833 
587	 0.106995592871461 
588	 0.106667765234763 
589	 0.106235814913285 
590	 0.10581094513934 
591	 0.1054235554865 
592	 0.105041898033733 
593	 0.104599330677887 
594	 0.104056041504666 
595	 0.103442711476894 
596	 0.102745313804213 
597	 0.101985426811585 
598	 0.10121120290961 
599	 0.100449786235508 
600	 9.97684109490293E-02 
601	 9.92013304896737E-02 
602	 9.87181648484121E-02 
603	 9.83324455271649E-02 
604	 9.80731787147166E-02 
605	 9.79595063786252E-02 
606	 9.79432362060106E-02 
607	 9.78578126853182E-02 
608	 9.76935935155629E-02 
609	 9.76065098106259E-02 
610	 9.75723153028207E-02 
611	 9.75177374464758E-02 
612	 9.73957174705098E-02 
613	 9.72595756069406E-02 
614	 9.72157966573164E-02 
615	 9.72056947085055E-02 
616	 9.70908365444051E-02 
617	 9.69705079725712E-02 
618	 9.68394203952287E-02 
619	 0.096715015385871 
620	 9.66773885432747E-02 
621	 9.65775146694696E-02 
622	 9.64585072944752E-02 
623	 9.64158485583524E-02 
624	 9.64820826240996E-02 
625	 9.64010339934467E-02 
626	 9.62039879363322E-02 
627	 9.61858213324232E-02 
628	 9.60508983177522E-02 
629	 0.095910427939216 
630	 9.58496226147323E-02 
631	 9.56580678784242E-02 
632	 9.56908776020834E-02 
633	 9.57788772656761E-02 
634	 9.55542539504258E-02 
635	 9.52413548943423E-02 
636	 9.50512924419943E-02 
637	 9.50177345448475E-02 
638	 9.49305246045744E-02 
639	 9.47946454642273E-02 
640	 9.46427412585431E-02 
641	 9.45076053542204E-02 
642	 0.094362399617393 
643	 9.40958441780869E-02 
644	 0.093811971345948 
645	 0.093766770466085 
646	 9.35977792313226E-02 
647	 0.093353616619598 
648	 9.31331644739421E-02 
649	 9.29751397712407E-02 
650	 9.27005638002454E-02 
651	 9.23641218301424E-02 
652	 9.20922180478223E-02 
653	 9.17500092715286E-02 
654	 9.13591349747296E-02 
655	 9.08576867145784E-02 
656	 9.01407354614208E-02 
657	 8.95519361698705E-02 
658	 8.91091690834735E-02 
659	 8.87439180546297E-02 
660	 8.84261432854744E-02 
661	 8.81330426737284E-02 
662	 8.78762101002771E-02 
663	 8.76768196443455E-02 
664	 8.73450567187194E-02 
665	 8.71182923847159E-02 
666	 8.70454584873984E-02 
667	 8.67431439393121E-02 
668	 8.65651888735453E-02 
669	 8.64805904498737E-02 
670	 8.63639075208809E-02 
671	 8.62919363156767E-02 
672	 0.08619335415891 
673	 8.60662878398352E-02 
674	 8.59781599862763E-02 
675	 8.59375034223478E-02 
676	 8.59246207403663E-02 
677	 8.59002764817544E-02 
678	 8.57853153559276E-02 
679	 8.57139137426183E-02 
680	 8.56806045959499E-02 
681	 8.56326717233564E-02 
682	 0.085681206611694 
683	 8.57481720610165E-02 
684	 8.58333196637121E-02 
685	 8.60785803874239E-02 
686	 8.60958272277354E-02 
687	 8.59181361171078E-02 
688	 0.085793941504421 
689	 8.60161993124225E-02 
690	 8.59641387437639E-02 
691	 8.57178406929207E-02 
692	 8.57232991788522E-02 
693	 0.085500639571347 
694	 8.51689103988843E-02 
695	 8.48355351949904E-02 
696	 8.43990357758331E-02 
697	 8.40464085813745E-02 
698	 8.36839169770683E-02 
699	 8.31849729231899E-02 
700	 8.26268376545251E-02 
701	 8.19329540626625E-02 
702	 8.11496370970267E-02 
703	 8.03973077615982E-02 
704	 7.97270241324325E-02 
705	 7.89930456771754E-02 
706	 7.81047040998898E-02 
707	 7.70942072379709E-02 
708	 7.60990349753185E-02 
709	 7.50591886077002E-02 
710	 7.38650826882324E-02 
711	 7.26008448954597E-02 
712	 7.14230752692955E-02 
713	 7.02486230754589E-02 
714	 6.87236357399024E-02 
715	 6.75102769269423E-02 
716	 6.63310454101329E-02 
717	 6.49043823890347E-02 
718	 6.35637642255148E-02 
719	 6.20118959966425E-02 
720	 6.05419938559251E-02 
721	 5.92887837798297E-02 
722	 5.83590250383086E-02 
723	 5.71987501804852E-02 
724	 5.57629474351021E-02 
725	 5.44665059759552E-02 
726	 5.32525528133365E-02 
727	 5.19577899429906E-02 
728	 5.05137736245183E-02 
729	 4.91327773064539E-02 
730	 4.77758498652012E-02 
731	 0.046497199378249 
732	 4.53295705043488E-02 
733	 4.43951066922183E-02 
734	 4.37375401117646E-02 
735	 4.32480966667882E-02 
736	 4.26041868796831E-02 
737	 4.22896783586682E-02 
738	 4.20515155391003E-02 
739	 4.16727795231444E-02 
740	 4.15953325313267E-02 
741	 4.14476499624797E-02 
742	 4.12624576189407E-02 
743	 4.12413794003175E-02 
744	 4.10950106300949E-02 
745	 4.09219126535795E-02 
746	 4.08204307103733E-02 
747	 4.08318351278842E-02 
748	 4.07896760317902E-02 
749	 4.07621203102319E-02 
750	 4.08064429875838E-02 
751	 0.040742569528635 
752	 4.05973414800153E-02 
753	 4.04856270108667E-02 
754	 4.05146601634194E-02 
755	 4.03233515403185E-02 
756	 4.00945108770616E-02 
757	 0.039989033583354 
758	 4.01192789495229E-02 
759	 0.040796186629028 
760	 4.16424353966284E-02 
761	 4.15111464747536E-02 
762	 4.11605421350914E-02 
763	 4.08612857988328E-02 
764	 4.08207468506173E-02 
765	 4.09676350791842E-02 
766	 4.05086206924634E-02 
767	 4.02228851171902E-02 
768	 4.02755631691934E-02 
769	 4.02732919790263E-02 
770	 4.01969286176835E-02 
771	 4.01156316559847E-02 
772	 0.040111809513051 
773	 4.02496529842258E-02 
774	 4.02615721642218E-02 
775	 0.040264911756697 
776	 4.04628697619038E-02 
777	 4.04404702353485E-02 
778	 4.04941981634176E-02 
779	 4.06368014047679E-02 
780	 4.05743854297564E-02 
781	 4.07119281576364E-02 
782	 4.08502181368082E-02 
783	 4.08612915796736E-02 
784	 4.10291138911584E-02 
785	 4.12049732986935E-02 
786	 4.13953258233683E-02 
787	 4.16135518587134E-02 
788	 4.16440483949627E-02 
789	 4.16868488869538E-02 
790	 4.18753594028239E-02 
791	 4.22215135021409E-02 
792	 4.22840309234575E-02 
793	 4.24331513916629E-02 
794	 4.27509764630814E-02 
795	 4.26591242408668E-02 
796	 4.26306493432027E-02 
797	 0.042850669970022 
798	 4.32337573673939E-02 
799	 0.043053166155434 
800	 0.04314333777729 
801	 4.34283461849001E-02 
802	 0.043393804179511 
803	 4.35386086194615E-02 
804	 4.35655644848068E-02 
805	 4.34428063990731E-02 
806	 4.34798611149002E-02 
807	 4.33443447587028E-02 
808	 4.32887496599508E-02 
809	 4.34449603963429E-02 
810	 4.33567204097414E-02 
811	 4.30412502969566E-02 
812	 4.27187730766095E-02 
813	 4.26786895184543E-02 
814	 4.27898959015442E-02 
815	 4.29117257922786E-02 
816	 4.26901399829969E-02 
817	 4.18642998124938E-02 
818	 4.18094707894697E-02 
819	 4.15238608371294E-02 
820	 4.07957676705628E-02 
821	 4.06936356884124E-02 
822	 4.03619869428553E-02 
823	 3.97031212842546E-02 
824	 3.88669846202513E-02 
825	 3.78585659719301E-02 
826	 3.72488069715545E-02 
827	 3.69038831256681E-02 
828	 3.64211420529147E-02 
829	 3.56449262153615E-02 
830	 3.50346810987256E-02 
831	 3.47200987879307E-02 
832	 3.45048838465827E-02 
833	 3.37379659215497E-02 
834	 3.33097342936695E-02 
835	 3.34555972375918E-02 
836	 3.33517739815652E-02 
837	 3.30913407194271E-02 
838	 3.27554798544904E-02 
839	 3.25028563566927E-02 
840	 3.26942735810359E-02 
841	 3.26314648874296E-02 
842	 3.22685244540764E-02 
843	 3.18957831177885E-02 
844	 3.20386509010694E-02 
845	 3.19824435907847E-02 
846	 3.17175811663631E-02 
847	 3.17046037870234E-02 
848	 0.03162831127266 
849	 3.14651854509863E-02 
850	 3.13121282391251E-02 
851	 0.031357486463526 
852	 0.031368285469119 
853	 3.12632909185783E-02 
854	 3.10731794846114E-02 
855	 0.030972695555257 
856	 3.09158824887371E-02 
857	 3.08576867638552E-02 
858	 3.07807449200155E-02 
859	 3.07877868146937E-02 
860	 3.06518464545633E-02 
861	 3.04584175800458E-02 
862	 3.04337094314835E-02 
863	 3.06264306392635E-02 
864	 3.04085192016693E-02 
865	 3.01067741465574E-02 
866	 3.07096784137559E-02 
867	 3.02502555193034E-02 
868	 0.029737223624253 
869	 2.96681995848903E-02 
870	 2.93646518678433E-02 
871	 2.97527919886165E-02 
872	 2.99008132802957E-02 
873	 2.93242197516237E-02 
874	 2.94180805904079E-02 
875	 2.93331562946958E-02 
876	 2.92234884338742E-02 
877	 2.93555432649576E-02 
878	 2.93141390278906E-02 
879	 2.89882198632089E-02 
880	 2.87852932104679E-02 
881	 2.90748957458319E-02 
882	 2.85746055198956E-02 
883	 2.83772557520427E-02 
884	 2.84998259694345E-02 
885	 2.81777314883159E-02 
886	 2.81686418168464E-02 
887	 2.81050866943777E-02 
888	 2.78646513386152E-02 
889	 2.77412566282902E-02 
890	 2.79852628032009E-02 
891	 2.79109123173007E-02 
892	 2.73529811217653E-02 
893	 2.74369638458775E-02 
894	 2.75351652733542E-02 
895	 2.77836782253222E-02 
896	 2.83071105149195E-02 
897	 2.86125310966989E-02 
898	 2.81505652925534E-02 
899	 2.77924424811759E-02 
900	 2.82350667516205E-02 
901	 0.027872529825699 
902	 2.72019429121665E-02 
903	 2.66527332905645E-02 
904	 2.65152476543758E-02 
905	 2.66043159571528E-02 
906	 2.66795942871177E-02 
907	 2.68148462460526E-02 
908	 2.72045094258862E-02 
909	 2.71935748903727E-02 
910	 2.68814395566481E-02 
911	 2.65576499917981E-02 
912	 2.65457742755928E-02 
913	 2.66444557925971E-02 
914	 2.68608010667711E-02 
915	 2.69316659015632E-02 
916	 2.63991310926506E-02 
917	 2.59819176335099E-02 
918	 2.59420922042443E-02 
919	 2.61568670497811E-02 
920	 2.61464452123179E-02 
921	 2.56886069757067E-02 
922	 2.52110691392413E-02 
923	 2.50776901808672E-02 
924	 2.52451988443224E-02 
925	 2.53576375275087E-02 
926	 2.51808615885075E-02 
927	 2.49026706532919E-02 
928	 2.61464447962109E-02 
929	 2.60433444838242E-02 
930	 2.54577381595624E-02 
931	 2.76154937247203E-02 
932	 3.36797515065935E-02 
933	 3.01570717792064E-02 
934	 2.37325860933047E-02 
935	 0.027462282514825 
936	 2.69470599724615E-02 
937	 2.43573581866434E-02 
938	 2.53041145225208E-02 
939	 3.13852460989233E-02 
940	 2.70451192245784E-02 
941	 2.04506081110947E-02 
942	 2.07771159974575E-02 
943	 0.032631606168965 
944	 0.032549120315826 
945	 2.64269869961592E-02 
946	 2.29047987794613E-02 
947	 2.71810942524054E-02 
948	 2.53616434457937E-02 
949	 0.023702788527276 
950	 2.57763267466675E-02 
951	 3.04692184504493E-02 
952	 0.025686119773246 
953	 2.45703714031599E-02 
954	 2.72943642542747E-02 
955	 2.52426125989111E-02 
956	 0.023618492054768 
957	 2.38728285027831E-02 
958	 2.40815544468791E-02 
959	 2.17817163037081E-02 
960	 2.55459091195524E-02 
961	 0.026257375944174 
962	 2.39158078728235E-02 
963	 2.47883432829968E-02 
964	 2.31259263673343E-02 
965	 2.20206599470765E-02 
966	 2.28817646190607E-02 
967	 2.46207387429747E-02 
968	 2.10080181569134E-02 
969	 2.05354380094818E-02 
970	 2.32211455650128E-02 
971	 2.17773027791609E-02 
972	 2.11024660895275E-02 
973	 2.12439027665117E-02 
974	 0.02152020752381 
975	 2.12517088520649E-02 
976	 2.17958827443872E-02 
977	 2.19349609580856E-02 
978	 2.23510104339419E-02 
979	 2.45647306481881E-02 
980	 2.15286102964882E-02 
981	 2.00856948823855E-02 
982	 2.20027902184249E-02 
983	 2.36330272478708E-02 
984	 2.35121774752632E-02 
985	 0.022255135390762 
986	 2.12988706153965E-02 
987	 2.19246974192525E-02 
988	 2.16775118944806E-02 
989	 2.12888339443001E-02 
990	 0.021411963127056 
991	 2.21430260934495E-02 
992	 2.22351759405263E-02 
993	 2.08843234477668E-02 
994	 2.01319229895017E-02 
995	 2.25652474471682E-02 
996	 2.25436534985347E-02 
997	 0.02097080288246 
998	 2.06440168040813E-02 
999	 2.35458868998742E-02 
1000	 2.31184045352276E-02 
1001	 1.36871376013622E-02 
1002	 1.39410617684237E-02 
1003	 0.014262436137548 
1004	 1.45436597050706E-02 
1005	 1.47312006807168E-02 
1006	 1.50454334640251E-02 
1007	 1.52563693739071E-02 
1008	 1.50980203069218E-02 
1009	 1.50106803524139E-02 
1010	 1.47781901648868E-02 
1011	 1.45364057004107E-02 
1012	 1.44813005897558E-02 
1013	 1.45022346881221E-02 
1014	 1.44959736790624E-02 
1015	 1.45447643656811E-02 
1016	 1.46479246984113E-02 
1017	 1.48269774186678E-02 
1018	 1.48785687653214E-02 
1019	 1.49908128557082E-02 
1020	 0.014977813604057 
1021	 0.014727719921299 
1022	 1.45610378217518E-02 
1023	 0.014672866740788 
1024	 1.49795525980694E-02 
1025	 1.53366775809554E-02 
1026	 1.52307041105381E-02 
1027	 1.50932457220036E-02 
1028	 1.45859456441613E-02 
1029	 1.44544178381856E-02 
1030	 1.43511610166466E-02 
1031	 1.44105784588012E-02 
1032	 1.47407560699705E-02 
1033	 1.48870141792151E-02 
1034	 0.015083654861008 
1035	 1.51069528385653E-02 
1036	 1.48838309509129E-02 
1037	 1.48593365346846E-02 
1038	 1.48318190109894E-02 
1039	 1.49372217114361E-02 
1040	 1.47303657534639E-02 
1041	 1.46698956001048E-02 
1042	 1.47834216154177E-02 
1043	 1.47976896512818E-02 
1044	 1.49811413833712E-02 
1045	 1.56794806610558E-02 
1046	 1.58405639602441E-02 
1047	 1.57279184756594E-02 
1048	 1.56439133924189E-02 
1049	 1.53742891878404E-02 
1050	 1.52033107611245E-02 
1051	 0.014800013039432 
1052	 1.48040118885347E-02 
1053	 1.51711174562523E-02 
1054	 1.53493813493861E-02 
1055	 1.59599929758683E-02 
1056	 1.61240374316107E-02 
1057	 1.60413080211784E-02 
1058	 1.55389226476026E-02 
1059	 1.53434938951392E-02 
1060	 1.48842499720595E-02 
1061	 1.48422201940963E-02 
1062	 1.51424144319121E-02 
1063	 1.52635721991939E-02 
1064	 1.56608346077635E-02 
1065	 1.56210960722147E-02 
1066	 1.51721382233018E-02 
1067	 1.50345919177471E-02 
1068	 1.46263783891407E-02 
1069	 1.46138225754737E-02 
1070	 1.52162313458012E-02 
1071	 1.54448236832623E-02 
1072	 1.58102939630843E-02 
1073	 1.58621543351701E-02 
1074	 1.57699639554153E-02 
1075	 1.53369613648686E-02 
1076	 1.51117513882699E-02 
1077	 1.47738937046301E-02 
1078	 1.46349786772094E-02 
1079	 1.45941031631967E-02 
1080	 1.45787542761228E-02 
1081	 1.45202579988768E-02 
1082	 1.46872215981311E-02 
1083	 1.52922788760923E-02 
1084	 0.015419451701732 
1085	 1.55544858172003E-02 
1086	 1.55345797810287E-02 
1087	 0.0145389188715 
1088	 1.44278579525506E-02 
1089	 1.50082064990086E-02 
1090	 1.55938829196017E-02 
1091	 0.015542584794688 
1092	 1.56855500244706E-02 
1093	 1.54216738447424E-02 
1094	 1.38620825059836E-02 
1095	 1.37940951064686E-02 
1096	 1.49089470989553E-02 
1097	 1.50595650617931E-02 
1098	 1.51169975609897E-02 
1099	 1.52977900577031E-02 
1100	 1.51537033745918E-02 
1101	 0.015019656776504 
1102	 1.52255493800538E-02 
1103	 1.53465845681405E-02 
1104	 1.52620355264256E-02 
1105	 1.47090675133403E-02 
1106	 1.49234530491049E-02 
1107	 1.55338089707801E-02 
1108	 1.55672438965954E-02 
1109	 1.54072769675962E-02 
1110	 1.53122245817535E-02 
1111	 1.46669328364689E-02 
1112	 1.45493007165112E-02 
1113	 1.50806876604203E-02 
1114	 1.52154350925629E-02 
1115	 1.51687283190969E-02 
1116	 1.54633139504012E-02 
1117	 1.59580932668062E-02 
1118	 1.60822731279885E-02 
1119	 1.65691662689726E-02 
1120	 1.68292412887375E-02 
1121	 1.58380028034809E-02 
1122	 1.53087560085719E-02 
1123	 1.84945566347779E-02 
1124	 1.90350157610211E-02 
1125	 1.44338676679112E-02 
1126	 1.24186478963078E-02 
1127	 9.53284996970687E-03 
1128	 7.26467357681899E-03 
1129	 9.13453718645187E-03 
1130	 1.85471612310671E-02 
1131	 1.88380421047533E-02 
1132	 1.52160843631729E-02 
1133	 1.48902293024881E-02 
1134	 1.38369449207176E-02 
1135	 0.013642621505376 
1136	 1.51850986477529E-02 
1137	 1.64322015422645E-02 
1138	 1.86359227541815E-02 
1139	 1.68473217358768E-02 
1140	 1.53697749349023E-02 
1141	 1.52928474679988E-02 
1142	 1.42057695152121E-02 
1143	 1.40768652491772E-02 
1144	 0.015570554005492 
1145	 1.56000061112394E-02 
1146	 1.33713982893303E-02 
1147	 1.23162053840727E-02 
1148	 1.19254334841845E-02 
1149	 1.13636323030039E-02 
1150	 1.19790451039751E-02 
1151	 1.47381182979184E-02 
1152	 1.46060710257494E-02 
1153	 1.35003498783134E-02 
1154	 0.013604106065457 
1155	 1.34181686837614E-02 
1156	 1.28573040353019E-02 
1157	 1.41219335257486E-02 
1158	 1.48503687201079E-02 
1159	 1.39227313774186E-02 
1160	 1.35444530889048E-02 
1161	 1.37902425150619E-02 
1162	 1.36514686501791E-02 
1163	 1.37834677306986E-02 
1164	 1.40347317105466E-02 
1165	 1.37108586792516E-02 
1166	 1.33506515310168E-02 
1167	 1.33324069504345E-02 
1168	 1.37832840210639E-02 
1169	 1.43494695904012E-02 
1170	 1.43706424780157E-02 
1171	 1.42501941016399E-02 
1172	 1.38432898820502E-02 
1173	 1.37089298231222E-02 
1174	 1.33398684618539E-02 
1175	 1.33833893422236E-02 
1176	 1.38226081343635E-02 
1177	 1.41394685656268E-02 
1178	 1.41620252517389E-02 
1179	 1.39176982852006E-02 
1180	 1.36474655726743E-02 
1181	 1.36971260513486E-02 
1182	 1.38012017809824E-02 
1183	 1.38097834614921E-02 
1184	 1.39032075917983E-02 
1185	 1.38098121679338E-02 
1186	 1.36515458428306E-02 
1187	 1.38082627520983E-02 
1188	 1.38981879760816E-02 
1189	 1.37047549790349E-02 
1190	 1.37178287029177E-02 
1191	 1.38382067826641E-02 
1192	 1.38071662606114E-02 
1193	 1.37454692098707E-02 
1194	 1.37910098831479E-02 
1195	 0.013665300352657 
1196	 1.35710888789161E-02 
1197	 1.37447483200311E-02 
1198	 1.37928274551122E-02 
1199	 1.37830367812307E-02 
1200	 1.37079769267926E-02 
1201	 1.35671766291963E-02 
1202	 1.36737412223348E-02 
1203	 1.39651224042758E-02 
1204	 1.40490920156566E-02 
1205	 1.39155656074853E-02 
1206	 1.37782788680941E-02 
1207	 1.36257648251037E-02 
1208	 1.36542719493257E-02 
1209	 1.38188247018232E-02 
1210	 1.38950415978355E-02 
1211	 1.39417342838578E-02 
1212	 1.39375999189479E-02 
1213	 0.013903649481551 
1214	 1.38755084887951E-02 
1215	 1.38426218489269E-02 
1216	 1.39340525115286E-02 
1217	 1.39100836595871E-02 
1218	 1.36029631043283E-02 
1219	 1.36676781866765E-02 
1220	 1.36756363220443E-02 
1221	 1.34775597643843E-02 
1222	 1.36448115119741E-02 
1223	 1.35704327048363E-02 
1224	 0.013417021197074 
1225	 1.35517455967784E-02 
1226	 1.35489589852212E-02 
1227	 1.36128330427871E-02 
1228	 1.37153210939624E-02 
1229	 0.013516056663002 
1230	 1.33582375493041E-02 
1231	 1.34521930506202E-02 
1232	 1.35432934657312E-02 
1233	 1.37112016045286E-02 
1234	 1.38198268134154E-02 
1235	 1.38147667555409E-02 
1236	 1.35816719585911E-02 
1237	 0.013533259517317 
1238	 0.013489301807256 
1239	 1.34415842871042E-02 
1240	 1.34640867570956E-02 
1241	 1.34242336237769E-02 
1242	 1.32973883148433E-02 
1243	 1.32998204294133E-02 
1244	 1.33976515229552E-02 
1245	 1.34364359178628E-02 
1246	 1.34585971647208E-02 
1247	 1.34512442715656E-02 
1248	 1.34788613735861E-02 
1249	 0.013519334078731 
1250	 1.34544417762372E-02 
1251	 1.33709619479307E-02 
1252	 1.33453585756826E-02 
1253	 1.32999327935845E-02 
1254	 1.34115310581034E-02 
1255	 1.36905862336111E-02 
1256	 1.36881475524222E-02 
1257	 0.013496649159281 
1258	 1.34156148117097E-02 
1259	 1.30976672036443E-02 
1260	 1.31107969920404E-02 
1261	 1.36207583065652E-02 
1262	 1.37105517204225E-02 
1263	 1.37440497524105E-02 
1264	 1.35055010755885E-02 
1265	 1.33455951792622E-02 
1266	 1.34230961439799E-02 
1267	 1.35658094816257E-02 
1268	 0.013634761118524 
1269	 0.013590655707445 
1270	 1.33839702511995E-02 
1271	 1.32064782607579E-02 
1272	 1.32461917857025E-02 
1273	 1.33531225965567E-02 
1274	 1.33453128863351E-02 
1275	 1.33434457280054E-02 
1276	 1.34267678161445E-02 
1277	 1.34891785599236E-02 
1278	 1.33715855766131E-02 
1279	 0.01332929921194 
1280	 1.34431773620536E-02 
1281	 1.34484716570866E-02 
1282	 1.33953531600587E-02 
1283	 1.33946249766221E-02 
1284	 1.33636347492824E-02 
1285	 1.33540124126864E-02 
1286	 1.33862886762969E-02 
1287	 1.34536679328798E-02 
1288	 1.36085191946029E-02 
1289	 1.35355878748178E-02 
1290	 1.32984374963868E-02 
1291	 1.32668234981824E-02 
1292	 1.31025359953286E-02 
1293	 1.31179864469996E-02 
1294	 0.013517406318927 
1295	 1.34402326737651E-02 
1296	 1.30613031190574E-02 
1297	 1.32593568661013E-02 
1298	 1.34631675402465E-02 
1299	 1.33046551577143E-02 
1300	 1.32111338294657E-02 
1301	 1.31277608458454E-02 
1302	 1.31331252646497E-02 
1303	 1.31468294529615E-02 
1304	 0.013132338536228 
1305	 0.013390951056688 
1306	 1.34270869438818E-02 
1307	 1.29971736183916E-02 
1308	 1.29961964895037E-02 
1309	 1.33748237656097E-02 
1310	 1.33498313110903E-02 
1311	 1.31840354190546E-02 
1312	 1.33177659904891E-02 
1313	 1.34989651478527E-02 
1314	 1.34286165839433E-02 
1315	 1.33164763860509E-02 
1316	 1.34042743189711E-02 
1317	 0.013485342965548 
1318	 1.34590924295507E-02 
1319	 1.36179003900256E-02 
1320	 1.36836394602655E-02 
1321	 1.36398021703074E-02 
1322	 1.30637694044772E-02 
1323	 1.30217735972823E-02 
1324	 1.35427729869208E-02 
1325	 1.35515548343176E-02 
1326	 1.37584956941137E-02 
1327	 0.014059718109348 
1328	 1.36303076578696E-02 
1329	 1.33709841428355E-02 
1330	 1.39900181753513E-02 
1331	 0.013962755348162 
1332	 1.34022243754517E-02 
1333	 1.38911752924659E-02 
1334	 1.43691409966775E-02 
1335	 1.43287817203793E-02 
1336	 1.44850598371593E-02 
1337	 1.47339063086116E-02 
1338	 1.44036041531249E-02 
1339	 1.40428994298434E-02 
1340	 0.014012652223857 
1341	 1.42698183248274E-02 
1342	 1.42182292251463E-02 
1343	 1.38575574915631E-02 
1344	 1.36408280361451E-02 
1345	 1.42251956415105E-02 
1346	 1.56597588521776E-02 
1347	 1.53803666867695E-02 
1348	 1.39718999494137E-02 
1349	 1.52095653350789E-02 
1350	 1.53907914675245E-02 
1351	 1.48271741442631E-02 
1352	 2.22206632472457E-02 
1353	 3.26978842263796E-02 
1354	 3.95212920226649E-02 
1355	 5.22665681140654E-02 
1356	 6.83329137109517E-02 
1357	 8.51570197401434E-02 
1358	 0.056278719394414 
1359	-1.73521177295521E-02 
1360	-1.86177649543477E-02 
1361	-3.76862578269667E-02 
1362	-5.52844295038896E-02 
1363	-2.37893577677345E-02 
1364	-5.20732385889359E-02 
1365	-3.95942733371333E-02 
1366	-0.125647175706566 
1367	-0.350126847530577 
1368	-0.252264190676414 
1369	 3.50343474155908E-02 
1370	 5.93045233917941E-02 
1371	 0.127325427614585 
1372	 0.171315441663151 
1373	-7.14355988501624E-02 
1374	-0.325343624373057 
1375	-0.221246992811273 
1376	-7.62705262897175E-02 
1377	 0.29904277726252 
1378	 0.235328165379641 
1379	 0.229554391491465 
1380	 0.313822087684311 
1381	-0.388091291658475 
1382	-0.562667466986637 
1383	 6.85678878907718E-02 
1384	 0.404047382889526 
1385	 0.433435328701445 
1386	 0.32376722637382 
1387	-0.190217253458018 
1388	-0.316502354049875 
1389	 8.96204712631509E-02 
1390	-2.45181376379492E-02 
1391	-9.73858024250772E-02 
1392	-0.150001769705415 
1393	-3.07983371473397E-02 
1394	 0.107729977897718 
1395	 0.548402537618702 
1396	 1.09404870836639 
1397	 0.256340487683802 
1398	 3.25156875847489E-03 
1399	-0.254542655552916 
1400	-0.427688175870027 
1401	 0.142082435956829 
1402	 0.802113811402 
1403	 1.36029116792791 
1404	 0.761099021808957 
1405	 0.463459236208413 
1406	-0.184504955197515 
1407	-0.318974369274368 
1408	-0.174705755554682 
1409	-0.118666340977917 
1410	-0.107967015070904 
1411	-9.18258034655304E-02 
1412	-1.82676160840961E-02 
1413	 1.34721351680425E-05 
1414	-4.64284840282997E-02 
1415	-5.13059515554931E-02 
1416	-1.65711199080988E-02 
1417	-5.48410658703818E-03 
1418	-0.032298718329606 
1419	-0.017362529714289 
1420	 4.04337612753514E-02 
1421	 3.38966885671521E-02 
1422	-1.44002387442475E-05 
1423	 2.0124664437978E-03 
1424	-3.20096744704987E-03 
1425	-3.65443012314283E-03 
1426	 1.63540909614788E-02 
1427	 2.09072164438295E-02 
1428	 1.33667623124019E-02 
1429	 0.012288651101833 
1430	 1.29397555452474E-02 
1431	 1.25521862622106E-02 
1432	 1.26309603397195E-02 
1433	 1.49020929026449E-02 
1434	 0.017221908803726 
1435	 1.83160414772787E-02 
1436	 2.11088669285249E-02 
1437	 2.63311798236524E-02 
1438	 2.64487045537162E-02 
1439	 1.76673591671783E-02 
1440	 1.25733681376246E-02 
1441	 1.22095119483217E-02 
1442	 8.54523947149637E-03 
1443	 1.18055534301254E-02 
1444	 2.02705946475035E-02 
1445	 2.02766654819945E-02 
1446	 1.55970561306296E-02 
1447	 1.47056563934746E-02 
1448	 1.57893119397056E-02 
1449	 1.43146689194705E-02 
1450	 1.57323769584832E-02 
1451	 1.90216616751181E-02 
1452	 1.71791174230841E-02 
1453	 1.48936546447294E-02 
1454	 0.014063393745864 
1455	 1.28006010557755E-02 
1456	 1.23903569705177E-02 
1457	 1.27900361324271E-02 
1458	 1.31775353217122E-02 
1459	 1.38755495523237E-02 
1460	 0.013829421664342 
1461	 1.37100803234698E-02 
1462	 1.39976374284711E-02 
1463	 1.38141800715905E-02 
1464	 1.37196934639295E-02 
1465	 1.46530583814709E-02 
1466	 0.014598697421676 
1467	 1.28125395973355E-02 
1468	 1.32244638465874E-02 
1469	 1.61924651375812E-02 
1470	 1.54121996751068E-02 
1471	 1.21487564134302E-02 
1472	 1.21940776061681E-02 
1473	 1.20359194639705E-02 
1474	 0.011847850507033 
1475	 1.44955421713303E-02 
1476	 1.47435875711027E-02 
1477	 1.20138982821054E-02 
1478	 1.20081887692161E-02 
1479	 1.39198963945254E-02 
1480	 1.40486784553996E-02 
1481	 1.34631856730882E-02 
1482	 1.37348084014227E-02 
1483	 1.40911407106264E-02 
1484	 0.013834742096319 
1485	 1.39370481486631E-02 
1486	 1.39478659072773E-02 
1487	 1.30886384916638E-02 
1488	 1.28939648669575E-02 
1489	 1.36176344826633E-02 
1490	 1.34815578558397E-02 
1491	 1.26771217827878E-02 
1492	 0.01256130649139 
1493	 0.012641090841558 
1494	 1.25312349202768E-02 
1495	 1.26722851008867E-02 
1496	 1.26543332321005E-02 
1497	 1.24339362873985E-02 
1498	 1.22194554602842E-02 
1499	 1.15385546651066E-02 
1500	 1.16925911033519E-02 
1501	 0.012790858188323 
1502	 1.28236665372745E-02 
1503	 1.26345078400237E-02 
1504	 0.012743242069785 
1505	 1.24296703417123E-02 
1506	 1.19338932773223E-02 
1507	 1.20150158145239E-02 
1508	 1.21484833105746E-02 
1509	 1.19879783790791E-02 
1510	 1.18143776295849E-02 
1511	 1.17789426969439E-02 
1512	 1.19737868581514E-02 
1513	 1.20649135415206E-02 
1514	 1.19754367802518E-02 
1515	 0.012052690616969 
1516	 1.21000380373623E-02 
1517	 1.21667326646727E-02 
1518	 1.21845896920056E-02 
1519	 0.011988006336849 
1520	 1.19811534106663E-02 
1521	 0.012057987361866 
1522	 1.19483517958271E-02 
1523	 1.19250039413052E-02 
1524	 1.20614072703958E-02 
1525	 1.19794696929069E-02 
1526	 1.18008163618701E-02 
1527	 1.18908093500496E-02 
1528	 1.19984317541861E-02 
1529	 1.20672972333765E-02 
1530	 1.20392624440508E-02 
1531	 1.18262883017166E-02 
1532	 1.17593198564725E-02 
1533	 1.17934189910121E-02 
1534	 1.18042125889566E-02 
1535	 1.18505695606683E-02 
1536	 1.18212037069053E-02 
1537	 1.17182456320171E-02 
1538	 1.16375206409998E-02 
1539	 1.16277593166941E-02 
1540	 1.16772394972877E-02 
1541	 1.16564588697574E-02 
1542	 1.15880278345142E-02 
1543	 1.16572101607689E-02 
1544	 1.18023682627251E-02 
1545	 1.17824090088063E-02 
1546	 1.16529245346732E-02 
1547	 1.15656525625065E-02 
1548	 1.16205741332554E-02 
1549	 1.17047012688346E-02 
1550	 1.15405642914462E-02 
1551	 1.15075058881905E-02 
1552	 0.01174251775603 
1553	 1.17187432769304E-02 
1554	 1.15239748128838E-02 
1555	 0.011517735357544 
1556	 1.16293897782111E-02 
1557	 0.011702327987574 
1558	 1.17538397165139E-02 
1559	 1.18475483159498E-02 
1560	 1.18583465926863E-02 
1561	 1.17049580131472E-02 
1562	 1.16852183504691E-02 
1563	 1.18694422130882E-02 
1564	 1.17300085439773E-02 
1565	 0.01147736467043 
1566	 1.17108296823077E-02 
1567	 1.18644937181863E-02 
1568	 1.16878954900498E-02 
1569	 1.16567533702827E-02 
1570	 1.16700359314521E-02 
1571	 1.15694666445736E-02 
1572	 0.011599214130965 
1573	 1.17298810614491E-02 
1574	 0.011763300391858 
1575	 1.15949655426892E-02 
1576	 0.011332085438129 
1577	 1.15430043784263E-02 
1578	 1.18435004601883E-02 
1579	 1.17181238169583E-02 
1580	 1.16762732772169E-02 
1581	 1.16014919832646E-02 
1582	 1.14638201079051E-02 
1583	 1.16801091677621E-02 
1584	 1.17951334421172E-02 
1585	 1.15120254016443E-02 
1586	 0.011369948832902 
1587	 1.14622113565156E-02 
1588	 1.15369916517872E-02 
1589	 1.16648478027133E-02 
1590	 1.18343678399794E-02 
1591	 0.011995111892041 
1592	 1.18679582092028E-02 
1593	 1.16020495193724E-02 
1594	 1.16424102275946E-02 
1595	 1.15902837942019E-02 
1596	 1.16334541745966E-02 
1597	 1.18586289938302E-02 
1598	 1.16727049305279E-02 
1599	 1.15668220910403E-02 
1600	 1.17187818625395E-02 
1601	 1.17493389924757E-02 
1602	 1.17766560525563E-02 
1603	 1.16389969697388E-02 
1604	 1.14671812393073E-02 
1605	 1.16074665431772E-02 
1606	 1.17709579382871E-02 
1607	 1.16301239420348E-02 
1608	 1.15451841290251E-02 
1609	 1.17216973200632E-02 
1610	 0.011672603218085 
1611	 1.16723986358328E-02 
1612	 1.17531620626151E-02 
1613	 1.14180630968107E-02 
1614	 1.13504255624252E-02 
1615	 1.16741469509621E-02 
1616	 1.15876132200415E-02 
1617	 1.13087365028581E-02 
1618	 1.12543200238408E-02 
1619	 1.09973312044505E-02 
1620	 1.09534543021411E-02 
1621	 1.16021677043445E-02 
1622	 1.17314294095409E-02 
1623	 1.13001323260708E-02 
1624	 1.13832645952209E-02 
1625	 1.16832573627652E-02 
1626	 1.16365614202355E-02 
1627	 1.16146223415708E-02 
1628	 1.17473628521434E-02 
1629	 1.13885714177736E-02 
1630	 1.10198066855177E-02 
1631	 0.011320651966838 
1632	 0.011601841613423 
1633	 0.011488136228671 
1634	 1.16205727772947E-02 
1635	 1.20047259850943E-02 
1636	 1.18313724257677E-02 
1637	 1.16215604455199E-02 
1638	 1.17979355250423E-02 
1639	 1.15228905789324E-02 
1640	 1.12298050487302E-02 
1641	 1.15376487295452E-02 
1642	 1.15555150035549E-02 
1643	 1.09812789063185E-02 
1644	 1.08609303086921E-02 
1645	 1.12216781073504E-02 
1646	 1.11475676656114E-02 
1647	 1.12764234256652E-02 
1648	 1.17215799441456E-02 
1649	 1.14059346242462E-02 
1650	 1.09549238050531E-02 
1651	 1.12275075286955E-02 
1652	 1.17242405711364E-02 
1653	 1.18625269747913E-02 
1654	 1.17923163057554E-02 
1655	 1.13785568316257E-02 
1656	 1.12925264041468E-02 
1657	 1.11814283058424E-02 
1658	 0.0112047739798 
1659	 1.16551233569006E-02 
1660	 1.15592649123316E-02 
1661	 1.10794761937813E-02 
1662	 1.11536102874284E-02 
1663	 1.13382775396028E-02 
1664	 1.12568482973608E-02 
1665	 1.13284666133312E-02 
1666	 1.12735727670176E-02 
1667	 1.10028768130712E-02 
1668	 1.11899242988042E-02 
1669	 1.08697215466263E-02 
1670	 0.011137861815773 
1671	 1.17682988321838E-02 
1672	 0.011602226148192 
1673	 1.16109021884215E-02 
1674	 1.20070494863556E-02 
1675	 1.15772375960079E-02 
1676	 1.11540147928893E-02 
1677	 1.13934949486555E-02 
1678	 1.13310233560836E-02 
1679	 1.11218352887501E-02 
1680	 1.13120148034557E-02 
1681	 1.13461488102713E-02 
1682	 1.10664560607145E-02 
1683	 1.10436834767215E-02 
1684	 1.11671994192588E-02 
1685	 1.12650698933764E-02 
1686	 1.12766596910219E-02 
1687	 1.09212970734883E-02 
1688	 1.06093727551704E-02 
1689	 1.07578049341011E-02 
1690	 1.11614387654121E-02 
1691	 1.14169090873901E-02 
1692	 1.15135147140819E-02 
1693	 1.12590838449394E-02 
1694	 1.07012564396228E-02 
1695	 1.08206549018588E-02 
1696	 1.12045156406986E-02 
1697	 1.11246979770972E-02 
1698	 0.01111158463775 
1699	 1.12192084159549E-02 
1700	 1.11045710670183E-02 
1701	 1.11524941244655E-02 
1702	 1.15379478860487E-02 
1703	 1.14041641454024E-02 
1704	 1.09449407154999E-02 
1705	 1.09129073318057E-02 
1706	 1.10370237725327E-02 
1707	 1.10784222459162E-02 
1708	 1.12355649610571E-02 
1709	 1.13167443690356E-02 
1710	 1.10004914831863E-02 
1711	 1.09580544878888E-02 
1712	 1.12590101520407E-02 
1713	 1.14820667927078E-02 
1714	 1.15051131184298E-02 
1715	 1.12129446300419E-02 
1716	 1.16981619800586E-02 
1717	 1.17933259267016E-02 
1718	 1.16168004815758E-02 
1719	 1.15707722949381E-02 
1720	 1.11130804412842E-02 
1721	 1.08264313653653E-02 
1722	 1.12690951456531E-02 
1723	 1.13864254366823E-02 
1724	 1.11964300038847E-02 
1725	 1.11986681802653E-02 
1726	 0.010937300948025 
1727	 1.10332366166853E-02 
1728	 1.14761422263277E-02 
1729	 1.15860187034917E-02 
1730	 1.14432930292356E-02 
1731	 1.07980630947109E-02 
1732	 1.06948370606716E-02 
1733	 0.011002110536753 
1734	 1.10203085807438E-02 
1735	 1.15351281896728E-02 
1736	 1.14522400901653E-02 
1737	 1.09021101016767E-02 
1738	 1.08897841456407E-02 
1739	 1.07702555317024E-02 
1740	 1.10330580014906E-02 
1741	 1.10785162284632E-02 
1742	 1.06367514037459E-02 
1743	 1.12447918255107E-02 
1744	 1.13265260140767E-02 
1745	 0.010365250671758 
1746	 1.09437469791421E-02 
1747	 1.12068112650702E-02 
1748	 0.011536544316225 
1749	 1.15063646151726E-02 
1750	 1.08458951015672E-02 
1751	 1.05949356435557E-02 
1752	 1.05270542304694E-02 
1753	 1.06055069016105E-02 
1754	 1.13048785599987E-02 
1755	 0.011254251100884 
1756	 1.00109447291132E-02 
1757	 9.86079919484986E-03 
1758	 1.04855683262241E-02 
1759	 1.09100966462456E-02 
1760	 0.011628070501888 
1761	 1.13863500282232E-02 
1762	 1.08586729771113E-02 
1763	 0.010790097368569 
1764	 1.03527430672049E-02 
1765	 1.03251851567231E-02 
1766	 1.03192511664668E-02 
1767	 9.72876246538208E-03 
1768	 0.010399219369401 
1769	 1.14612987506139E-02 
1770	 1.15354185801868E-02 
1771	 1.19208798822747E-02 
1772	 0.011287030965882 
1773	 1.01178880988984E-02 
1774	 1.03328672672569E-02 
1775	 1.19638889843248E-02 
1776	 1.21942802073261E-02 
1777	 1.13767265132415E-02 
1778	 1.12457515671238E-02 
1779	 0.010335348604369 
1780	 9.86086485582006E-03 
1781	 1.07409393215258E-02 
1782	 1.09691296977158E-02 
1783	 1.04979910239835E-02 
1784	 1.05443339666719E-02 
1785	 1.10517722172916E-02 
1786	 1.08838825714538E-02 
1787	 0.010393865309981 
1788	 1.04458947983791E-02 
1789	 1.07867347338773E-02 
1790	 9.21973440279814E-03 
1791	 7.2474867197702E-03 
1792	 8.44087994987995E-03 
1793	 9.44090969996115E-03 
1794	 1.06631551587518E-02 
1795	 1.41407383402902E-02 
1796	 9.14837148249045E-03 
1797	 2.6740900102097E-03 
1798	 3.28689522150016E-03 
1799	 1.55812880455349E-03 
1800	-1.15502556841415E-04 
1801	 1.12849287633481E-03 
1802	 5.2059843136431E-03 
1803	 8.88327548522176E-03 
1804	 2.43502657423061E-02 
1805	 3.20258116009574E-02 
1806	 2.60625296128462E-02 
1807	 1.64005098275452E-02 
1808	-2.66296188185923E-02 
1809	-4.43217103395465E-02 
1810	-3.63255847061914E-02 
1811	-0.028203814200295 
1812	 8.48034585428621E-02 
1813	 7.66870038555879E-02 
1814	-8.71867427757273E-02 
1815	-0.176842793820236 
1816	-0.45215697052208 
1817	-0.315026805775891 
1818	 0.236539426128508 
1819	 0.695336238120436 
1820	 0.93404926846051 
1821	 0.322706518306007 
1822	-7.23061280651052E-02 
1823	-1.04736735291916 
1824	-1.373191080303 
1825	-0.538315598735774 
1826	-0.388347883649906 
1827	-0.105236507385657 
1828	 0.168703296097404 
1829	 0.439427367101438 
1830	 0.308932819175028 
1831	 0.567031009084246 
1832	 0.636785184908598 
1833	 0.5380875208755 
1834	 0.629133639970756 
1835	 5.71492821250171 
1836	 11.1919953418011 
1837	-3.78969393643713 
1838	-3.04012848285092 
1839	-0.589366559730088 
1840	-0.614348968127149 
1841	-0.481896365146807 
1842	-0.506324935030812 
1843	-0.315163892862074 
1844	-0.193275656541635 
1845	-0.180287892675579 
1846	 0.790715218217877 
1847	 2.04248231338866 
1848	 3.2768963818426 
1849	 8.24530495536878 
1850	-0.556442354081356 
1851	-0.209808616574789 
1852	-0.120506252784722 
1853	-0.121526174787451 
1854	-0.135948750393586 
1855	-1.71934149045186 
1856	-2.30995657640925 
1857	 0.192711188841148 
1858	 0.605321936569273 
1859	 1.02568589738066 
1860	 0.684702898173315 
1861	 1.09736471500854 
1862	 1.82396391112203 
1863	 1.8543410234501 
1864	 1.17428461245981E-02 
1865	 0.194792843236973 
1866	 0.887248907204308 
1867	 2.18431790499246 
1868	-1.83495035617731 
1869	-0.136806582453121 
1870	 0.669873802851749 
1871	-0.35300154214309 
1872	-6.08050611270218 
1873	-2.87657604094444 
1874	 9.07727560105932 
1875	-9.86168408807246 
1876	 8.59203732924818 
1877	 0.217630239089725 
1878	 8.70100178506435E-02 
1879	-0.875041742203163 
1880	-0.811526164077586 
1881	-1.18998418747473 
1882	-1.83720867464684 
1883	 1.27362112169995 
1884	-5.59561948988243E-02 
1885	-0.466475823902215 
1886	-1.22773792619062 
1887	-1.70299840862549 
1888	-1.21656922078231 
1889	-0.986264632672163 
1890	-0.266149538717926 
1891	-0.393394687479433 
1892	-1.06629573027909 
1893	-4.15039085592287 
1894	-2.05194717826507 
1895	-2.61874604589079 
1896	 3.10391040423063 
1897	 4.08444052847173 
1898	 0.863887727222591 
1899	 0.835798499549169 
1900	 0.9909955278097 
1901	-2.49384651825729 
1902	-1.56321174111727 
1903	-1.64284440352792 
1904	-3.11158044614206 
1905	 0.748872656568782 
1906	 13.0953173935683 
1907	-1.81874105124476 
1908	-0.549946292987922 
1909	 1.18689379097138 
1910	 11.4934720483774 
1911	 2.31658176103277 
1912	-3.13763493745917 
1913	-2.18426989972237 
1914	-0.143292925354224 
1915	-0.229837947128649 
1916	-72.3952552640635 
1917	-0.222945095250173 
1918	-0.513951031057278 
1919	-0.310979905766458 
1920	-0.124850894694758 
1921	 0.69914817867656 
1922	 1.17551158803354 
1923	 0.950219014272972 
1924	-68.2360701630192 
1925	-7.19188965201908 
1926	-4.21754199823836 
1927	-0.965272902911261 
1928	-0.420193688345774 
1929	-2.21371457878967 
1930	 15.4025277574036 
1931	 0.893405367800807 
1932	-0.176406576845107 
1933	-0.17086773567378 
1934	-0.154310140109481 
1935	-0.130542211231751 
1936	-3.49474052537218E-02 
1937	-6.00145141335375E-02 
1938	-0.112643273427864 
1939	-8.88249688726669E-02 
1940	-2.21215313986471E-02 
1941	 6.05184657498108E-03 
1942	 7.48928745760354E-03 
1943	 5.16919431180741E-02 
1944	 6.07982617040202E-02 
1945	 5.50927663137258E-02 
1946	 5.04974235484511E-02 
1947	 1.48938665874001E-02 
1948	 1.97008073972847E-04 
1949	-1.38399724643831E-03 
1950	-1.37253409497942E-03 
1951	 1.27492031207432E-02 
1952	 2.49645060312338E-02 
1953	 4.07380302828197E-02 
1954	 4.24961104636281E-02 
1955	 0.026093376238406 
1956	 1.71050526042183E-02 
1957	 2.9011066415157E-03 
1958	-4.78481205072368E-03 
1959	 8.82983786922151E-03 
1960	 1.85882900980234E-02 
1961	 1.66248640806201E-02 
1962	 8.33423757981903E-03 
1963	 3.31736242469728E-03 
1964	 2.10869704223023E-03 
1965	 4.13708982881311E-03 
1966	 6.50082023184904E-03 
1967	 1.22124114225016E-02 
1968	 1.39098640760746E-02 
1969	 0.012522659558326 
1970	 1.30845843485751E-02 
1971	 1.31824801342661E-02 
1972	 0.010839121692052 
1973	 1.00888435611495E-02 
1974	 1.01691755654291E-02 
1975	 9.87569825934835E-03 
1976	 1.03207283232944E-02 
1977	 1.00337971538666E-02 
1978	 9.02406620348106E-03 
1979	 8.67786097281324E-03 
1980	 7.88068560902466E-03 
1981	 7.67144822349687E-03 
1982	 8.14095098241744E-03 
1983	 8.44775968384479E-03 
1984	 8.55433020374288E-03 
1985	 8.5781538614302E-03 
1986	 8.93150468434752E-03 
1987	 1.01125114097858E-02 
1988	 0.010233957318942 
1989	 1.01107722233726E-02 
1990	 1.05317400173099E-02 
1991	 9.9199993747031E-03 
1992	 9.22819943034791E-03 
1993	 9.10512791365809E-03 
1994	 8.85025652967435E-03 
1995	 8.45185123086288E-03 
1996	 8.28769511583826E-03 
1997	 8.01767724775597E-03 
1998	 7.45638922000227E-03 
1999	 7.36660716421779E-03 
2000	 7.33638394523252E-03 
2001	 7.95849156640746E-03 
2002	 1.00745553822031E-02 
2003	 0.011972660848776 
2004	 0.011040756153225 
2005	 1.06235915334225E-02 
2006	 8.50836345700748E-03 
2007	 3.54627222708124E-03 
2008	 1.78134176096731E-03 
2009	 1.33308571843497E-03 
2010	 1.43393136459413E-03 
2011	 3.24666152241761E-03 
2012	 8.30921218505406E-03 
2013	 0.011126368491984 
2014	 1.12981855535077E-02 
2015	 0.011007537262742 
2016	 1.01853690627577E-02 
2017	 9.4136358288461E-03 
2018	 1.10843762826361E-02 
2019	 1.28984179132479E-02 
2020	 1.30687932276018E-02 
2021	 1.14049800826033E-02 
2022	 9.72185453157397E-03 
2023	 9.0814277343419E-03 
2024	 8.30141273429683E-03 
2025	 7.21057765668653E-03 
2026	 7.40457033934533E-03 
2027	 8.15854473892176E-03 
2028	 8.86847538835594E-03 
2029	 9.54952242016174E-03 
2030	 1.02035525472765E-02 
2031	 1.07550415189805E-02 
2032	 9.56366096847648E-03 
2033	 8.30141591016901E-03 
2034	 8.98260423394429E-03 
2035	 9.24833576062159E-03 
2036	 8.94093026216791E-03 
2037	 9.16294927889263E-03 
2038	 8.85505353361415E-03 
2039	 8.76559768981629E-03 
2040	 9.01271481759108E-03 
2041	 8.98575260394921E-03 
2042	 8.54421678346268E-03 
2043	 8.37397089451007E-03 
2044	 8.05931021647406E-03 
2045	 7.68955680678631E-03 
2046	 8.60691868860692E-03 
2047	 9.40706393437286E-03 
2048	 9.76101845897106E-03 
2049	 9.81754070462076E-03 
2050	 7.84887232514046E-03 
2051	 7.47749049465548E-03 
2052	 8.27490597156917E-03 
2053	 7.68337600956935E-03 
2054	 7.44362466995289E-03 
2055	 8.05510509813662E-03 
2056	 8.88563155290323E-03 
2057	 1.01190233364851E-02 
2058	 1.03798152944776E-02 
2059	 1.11593065983308E-02 
2060	 1.08870628721211E-02 
2061	 8.88410839559916E-03 
2062	 7.58997080828738E-03 
2063	 6.8895352692002E-03 
2064	 6.40503004640643E-03 
2065	 6.69259196995812E-03 
2066	 7.39957120640435E-03 
2067	 8.51762543266038E-03 
2068	 8.42096573682253E-03 
2069	 0.008559498610142 
2070	 9.06876068468178E-03 
2071	 8.15844018218463E-03 
2072	 8.63753926662795E-03 
2073	 8.93349001148402E-03 
2074	 8.63768846034321E-03 
2075	 8.52819722384295E-03 
2076	 8.88231703908941E-03 
2077	 9.15245219514722E-03 
2078	 9.54721850115278E-03 
2079	 9.85172704120768E-03 
2080	 1.07004059030844E-02 
2081	 1.02271974915973E-02 
2082	 9.63625162601946E-03 
2083	 9.20011252359329E-03 
2084	 8.65236907348403E-03 
2085	 9.05104605935188E-03 
2086	 9.51156968240435E-03 
2087	 9.04002098195632E-03 
2088	 8.81308499095408E-03 
2089	 9.22408204440125E-03 
2090	 9.32464273139793E-03 
2091	 9.36812898006811E-03 
2092	 9.4705300125693E-03 
2093	 9.53952222378527E-03 
2094	 9.1644346255768E-03 
2095	 8.41551306986798E-03 
2096	 8.06548697640872E-03 
2097	 7.38285698216822E-03 
2098	 7.08501254911219E-03 
2099	 7.04946317988544E-03 
2100	 7.84182692829778E-03 
2101	 8.21676796564725E-03 
2102	 8.26060479008658E-03 
2103	 8.29144080279342E-03 
2104	 8.53660519938691E-03 
2105	 9.67828218494247E-03 
2106	 0.010047853137936 
2107	 9.63606932287135E-03 
2108	 9.26726639372378E-03 
2109	 8.53345100474721E-03 
2110	 7.67531853569008E-03 
2111	 7.45763118491249E-03 
2112	 8.55612341018571E-03 
2113	 8.69682394093058E-03 
2114	 7.6886596852055E-03 
2115	 7.79824907392741E-03 
2116	 8.76888051623876E-03 
2117	 8.9373947170413E-03 
2118	 9.36006434138383E-03 
2119	 9.86364587765274E-03 
2120	 1.03612827709272E-02 
2121	 9.61074218530149E-03 
2122	 9.33200927212057E-03 
2123	 9.59288523902595E-03 
2124	 9.29943981336957E-03 
2125	 8.61573859623225E-03 
2126	 8.45411052718836E-03 
2127	 8.30100843709448E-03 
2128	 8.25066238758936E-03 
2129	 8.26325957419167E-03 
2130	 7.67417644754723E-03 
2131	 7.50265791396826E-03 
2132	 8.10257555717007E-03 
2133	 8.48571827129651E-03 
2134	 8.5738560589974E-03 
2135	 9.23871066930129E-03 
2136	 8.82115027374581E-03 
2137	 6.90375380859693E-03 
2138	 6.41971250752718E-03 
2139	 5.89591671092606E-03 
2140	 6.01413865756596E-03 
2141	 7.8947409579649E-03 
2142	 8.22212896902688E-03 
2143	 7.64915024422119E-03 
2144	 8.00649516979169E-03 
2145	 8.20922051549763E-03 
2146	 7.68867106356367E-03 
2147	 8.31418546783901E-03 
2148	 8.60685779145225E-03 
2149	 8.5645030023009E-03 
2150	 9.02608707903194E-03 
2151	 9.16593328647087E-03 
2152	 8.88468516442038E-03 
2153	 8.74096220672984E-03 
2154	 8.37838948312976E-03 
2155	 7.67349069971643E-03 
2156	 8.40023629676958E-03 
2157	 8.73875292905465E-03 
2158	 8.98481940426989E-03 
2159	 9.04669476878441E-03 
2160	 9.04890569429702E-03 
2161	 9.23208915600983E-03 
2162	 9.55784365321147E-03 
2163	 9.75617143822961E-03 
2164	 1.04439022077244E-02 
2165	 1.03463092273262E-02 
2166	 9.28464489728066E-03 
2167	 8.73291038107693E-03 
2168	 8.12909197486025E-03 
2169	 7.81928918313274E-03 
2170	 7.58950754003573E-03 
2171	 7.79342543307915E-03 
2172	 8.70695722878442E-03 
2173	 8.78868332857497E-03 
2174	 9.66035079726924E-03 
2175	 9.90784563522062E-03 
2176	 8.50269728763545E-03 
2177	 7.94230017716972E-03 
2178	 8.05756628961871E-03 
2179	 7.48839012219149E-03 
2180	 7.39131986176365E-03 
2181	 7.39429046375581E-03 
2182	 6.46859120417651E-03 
2183	 7.06671146915199E-03 
2184	 9.17187520063364E-03 
2185	 9.86046004448356E-03 
2186	 0.010131794483026 
2187	 1.00963669000459E-02 
2188	 0.01004680931711 
2189	 8.80335652069811E-03 
2190	 8.55425799932684E-03 
2191	 8.61826240331793E-03 
2192	 8.39725255909455E-03 
2193	 8.98520531685512E-03 
2194	 8.95660789503912E-03 
2195	 8.37451354783344E-03 
2196	 8.04831146651224E-03 
2197	 5.98405783013682E-03 
2198	 6.09576323917452E-03 
2199	 7.41249435412005E-03 
2200	 0.010671847528385 
2201	 1.25936237663628E-02 
2202	 1.22292722584825E-02 
2203	 1.15392910925163E-02 
2204	 1.01226757698199E-02 
2205	 7.91425705098115E-03 
2206	 7.77035746082502E-03 
2207	 6.89724668558604E-03 
2208	 5.54930620162535E-03 
2209	 8.05400444074589E-03 
2210	 9.82634127007638E-03 
2211	 9.79626194625212E-03 
2212	 9.50233657847302E-03 
2213	 7.43169230070441E-03 
2214	 8.14883487919421E-03 
2215	 1.06269049654441E-02 
2216	 1.10344987544443E-02 
2217	 1.08069405773478E-02 
2218	 9.19550960577191E-03 
2219	 8.5341941109581E-03 
2220	 7.09263749839961E-03 
2221	 6.5227129289361E-03 
2222	 7.26282432406412E-03 
2223	 7.18177676921433E-03 
2224	 7.02249452655972E-03 
2225	 6.76702300096961E-03 
2226	 5.11221156969152E-03 
2227	 5.39287201640658E-03 
2228	 7.33747769449878E-03 
2229	 8.15910120325583E-03 
2230	 1.01718034573447E-02 
2231	 1.09826550749361E-02 
2232	 9.66992439623866E-03 
2233	 8.93813680673641E-03 
2234	 7.69154330247638E-03 
2235	 8.63527341207497E-03 
2236	 8.83343251168732E-03 
2237	 8.11463790859529E-03 
2238	 8.03530692640408E-03 
2239	 6.66685469847768E-03 
2240	 5.70460609353987E-03 
2241	 6.54364709916736E-03 
2242	 6.7269372402243E-03 
2243	 8.87725141785787E-03 
2244	 1.02133197222377E-02 
2245	 9.35861989961985E-03 
2246	 1.04647024677762E-02 
2247	 8.33341739648826E-03 
2248	 5.6873163609536E-03 
2249	 6.04487561079157E-03 
2250	 6.07452181877989E-03 
2251	 7.64568094838503E-03 
2252	 8.5819572478183E-03 
2253	 8.23628525875887E-03 
2254	 7.76163132397126E-03 
2255	 7.03821848210848E-03 
2256	 8.25720334705679E-03 
2257	 9.12588012076402E-03 
2258	 7.78081455591784E-03 
2259	 6.41224570316639E-03 
2260	 6.49957705947083E-03 
2261	 7.71216418303505E-03 
2262	 7.41985314286625E-03 
2263	 8.87667901083096E-03 
2264	 8.02410814649966E-03 
2265	 2.18760135445268E-03 
2266	 5.3593811142752E-04 
2267	-5.25174250103248E-05 
2268	-3.45645415206165E-04 
2269	 3.03536671313731E-03 
2270	 4.86295543247781E-03 
2271	 0.005491334691221 
2272	 6.95389905450471E-03 
2273	 8.01745067118975E-03 
2274	 9.64976895694364E-03 
2275	 1.30987380203034E-02 
2276	 1.45179396830173E-02 
2277	 0.015727438317604 
2278	 1.59753846356161E-02 
2279	 1.40722728895299E-02 
2280	 1.26605083488744E-02 
2281	 0.011326850802675 
2282	 8.88056269822985E-03 
2283	 7.55793150776107E-03 
2284	 7.67320585929908E-03 
2285	 8.42925685732477E-03 
2286	 8.46510734441965E-03 
2287	 6.63575565846489E-03 
2288	 6.99123783683975E-03 
2289	 7.06371412340881E-03 
2290	 4.22777680637354E-03 
2291	 2.53381471392226E-03 
2292	 2.1446889013637E-03 
2293	 4.30165805437436E-03 
2294	 5.17422360350751E-03 
2295	 6.2888008234373E-03 
2296	 9.19942992099347E-03 
2297	 7.40378603478303E-03 
2298	 9.66174474244928E-03 
2299	 1.21287210319149E-02 
2300	 4.5771485632084E-03 
2301	 1.76029330582478E-03 
2302	 5.51004032664668E-03 
2303	 6.86380438826078E-03 
2304	 0.012930051368148 
2305	 1.78539981468032E-02 
2306	 1.43377685263018E-02 
2307	 1.01524617896779E-02 
2308	 7.12255856130352E-03 
2309	 5.01319888418263E-03 
2310	 2.91182542746766E-03 
2311	 3.22831440302492E-03 
2312	 3.88695262121164E-03 
2313	 3.06042302191086E-03 
2314	 3.48091168864259E-03 
2315	 3.60546329059364E-03 
2316	 4.89554621004783E-03 
2317	 4.84595348961739E-03 
2318	 4.86103441186157E-03 
2319	 3.84342212312561E-03 
2320	 2.09201987395948E-03 
2321	 4.3624751346573E-03 
2322	 3.6874245220221E-03 
2323	 7.30992708730212E-05 
2324	 2.45558359364935E-03 
2325	 7.02317160282826E-03 
2326	 5.07301669593882E-03 
2327	 8.56869298677184E-03 
2328	 0.011230344131816 
2329	 1.70069312528144E-03 
2330	 5.2706871297168E-04 
2331	 3.85013689606407E-03 
2332	 3.25588723930466E-03 
2333	 8.90959613619249E-03 
2334	 1.20001706537734E-02 
2335	 9.95045768585606E-03 
2336	 8.98975092327506E-03 
2337	 5.80024058792804E-03 
2338	 4.99135380752499E-03 
2339	 2.00940469041539E-03 
2340	-5.71553479976151E-03 
2341	-3.3801458616568E-03 
2342	 3.49595314495857E-03 
2343	 0.010881588851683 
2344	 2.02089473122826E-02 
2345	 1.78812204493101E-02 
2346	 5.2888447548424E-03 
2347	-7.46127771386483E-04 
2348	-1.61122413728356E-03 
2349	-8.13225003788963E-03 
2350	-1.43329845974779E-02 
2351	-2.25027728900417E-02 
2352	-2.69415288058056E-02 
2353	-1.12941271143738E-02 
2354	 2.10731247221508E-04 
2355	 2.26164432354001E-04 
2356	 5.87492199657359E-03 
2357	 3.6651993098087E-03 
2358	-3.97559963232114E-03 
2359	-6.69146011876815E-04 
2360	 1.46141640433931E-03 
2361	-1.10824526216593E-02 
2362	-1.34324761479125E-02 
2363	-7.21704424941343E-03 
2364	-1.44089512383425E-02 
2365	-0.014599035983168 
2366	-1.71619380835066E-02 
2367	-2.51036826630544E-02 
2368	-1.41153318619655E-02 
2369	 4.76595417580597E-04 
2370	 0.011428504485771 
2371	 3.19699639076855E-02 
2372	 3.48252248382224E-02 
2373	 7.99626001905323E-03 
2374	-6.16601102840375E-03 
2375	 1.01066752286573E-03 
2376	 1.64694532693262E-02 
2377	 2.82118378687853E-02 
2378	 3.85538874399681E-02 
2379	 2.38186821774177E-02 
2380	-1.76399287830614E-02 
2381	-2.43227781340489E-02 
2382	-2.5737587399612E-03 
2383	 1.54789715756434E-02 
2384	 2.28166468400473E-02 
2385	 1.82407178128755E-02 
2386	-0.012727753657397 
2387	-0.033300437437026 
2388	-1.97743118198647E-02 
2389	-1.67241341631675E-02 
2390	-0.011341252274031 
2391	-2.65844084294714E-03 
2392	-1.26414218362278E-02 
2393	-0.012838702329134 
2394	-4.60040140823463E-03 
2395	-2.97698606848244E-03 
2396	-6.52868008509007E-03 
2397	-2.20482635412542E-02 
2398	-0.02395360103226 
2399	-8.3970170141912E-03 
2400	-3.31192553468806E-03 
2401	-1.61898233813555E-02 
2402	-2.86378369701657E-02 
2403	-3.36192404228859E-02 
2404	-5.49070515692722E-02 
2405	-3.36505165279856E-02 
2406	 3.5622641316746E-04 
2407	-1.60404895460974E-02 
2408	 1.79539246843189E-02 
2409	 4.09997138917283E-02 
2410	-4.25521316479732E-03 
2411	 1.04023365458427E-02 
2412	-1.73228186122702E-03 
2413	-0.114885716691555 
2414	-0.137067143547925 
2415	-0.145101006339013 
2416	-0.187307145527028 
2417	-0.12967484312739 
2418	-0.093577150057268 
2419	-0.105974395231156 
2420	-0.12618717698124 
2421	-0.185788157522917 
2422	-0.163885019219237 
2423	-0.047914769497832 
2424	 2.45608567691223E-02 
2425	 4.62711570593557E-02 
2426	 6.59405748393888E-02 
2427	-1.44012429705941E-02 
2428	-7.02250559784381E-02 
2429	-0.027023727046824 
2430	-2.05275166941461E-02 
2431	 6.02184295326613E-02 
2432	 0.106847833044085 
2433	 7.08808524862038E-02 
2434	 7.77331727455769E-02 
2435	 0.044044667337119 
2436	 7.63918980421927E-02 
2437	 0.119835689100435 
2438	 0.121311324591249 
2439	 3.51362606904445E-02 
2440	-0.127841745917228 
2441	-0.142219786374781 
2442	-0.088836431302643 
2443	-4.6469393179659E-04 
2444	-4.45479656884186E-02 
2445	-0.202465038564015 
2446	-0.33263154387168 
2447	-0.212574846680009 
2448	-9.18656106499521E-02 
2449	 0.184541385288122 
2450	 0.274355464258945 
2451	 0.220108671967873 
2452	 0.177517266384488 
2453	-8.96106481021197E-02 
2454	-0.260356053857197 
2455	-0.277648171203939 
2456	-0.221144361681135 
2457	-0.289316560424602 
2458	-0.250955705690335 
2459	-0.423460734841799 
2460	-0.621185598549488 
2461	-0.256258752281904 
2462	-3.91658153900085E-02 
2463	 0.364799182545306 
2464	 0.794361481989124 
2465	 0.540191763868945 
2466	-0.840822320147873 
2467	-0.262622519896439 
2468	 0.181244508158277 
2469	 0.261907807696147 
2470	 0.64603142742992 
2471	 1.91531667511247 
2472	 1.75433244054775 
2473	 0.407587141805913 
2474	 0.530584541864536 
2475	-0.31442731763141 
2476	 0.420144576029986 
2477	 0.520071745386689 
2478	 0.134797820850666 
2479	 1.30994589636672 
2480	 2.4500949654165 
2481	 0.895244348919053 
2482	 13.980041250059 
2483	 0.498848521780154 
2484	 8.81888754836001 
2485	 0.196692618293394 
2486	-2.70631265835414E-03 
2487	-4.44004933577092E-02 
2488	-0.618825019310489 
2489	-1.10198359143634 
2490	-0.722448502399502 
2491	-0.541445124216384 
2492	-0.573752747013663 
2493	-5.45426079233247 
2494	 5.91364084633082 
2495	-1.46537370716836 
2496	-2.06316735682864E-03 
2497	-0.469490732742824 
2498	-0.633568130908258 
2499	 96.4697250262438 
2500	-0.895544589736883 
