Wavelength	rt0708a00006.asd
350	 7.48536480565153E-02 
351	 7.42617228214065E-02 
352	 7.49185714062325E-02 
353	 7.56245987073729E-02 
354	 7.55051118947367E-02 
355	 7.52019388721375E-02 
356	 7.54853159693279E-02 
357	 0.075632696423804 
358	 7.50444638944873E-02 
359	 7.58072766438985E-02 
360	 7.63337516796244E-02 
361	 7.62253238196619E-02 
362	 0.076053132007473 
363	 7.66596168844766E-02 
364	 7.68016548273428E-02 
365	 7.62276015089872E-02 
366	 7.65354783251302E-02 
367	 0.076680607556708 
368	 7.67502045698436E-02 
369	 7.69426179826468E-02 
370	 7.67831108864352E-02 
371	 7.68444369410971E-02 
372	 7.71040737628648E-02 
373	 7.72115089889271E-02 
374	 7.73402791539131E-02 
375	 0.077469916018896 
376	 7.76549604236461E-02 
377	 7.80648183825384E-02 
378	 7.84828228934011E-02 
379	 0.078494097451657 
380	 7.81222486803856E-02 
381	 7.88295269555506E-02 
382	 7.92933309868429E-02 
383	 7.96374575446248E-02 
384	 8.04186941669216E-02 
385	 8.00501408722636E-02 
386	 7.93518483579875E-02 
387	 7.90967098388822E-02 
388	 7.96921488763064E-02 
389	 0.079928019068435 
390	 8.01675827651157E-02 
391	 8.06308010674998E-02 
392	 8.03340464505434E-02 
393	 8.04672613986844E-02 
394	 8.10353111891755E-02 
395	 8.14991161462039E-02 
396	 8.11512585980779E-02 
397	 8.07087232340677E-02 
398	 8.06253196975199E-02 
399	 8.09888599941709E-02 
400	 0.080766722517347 
401	 8.08785077393875E-02 
402	 8.16748870886738E-02 
403	 8.15948071452339E-02 
404	 8.15168641250838E-02 
405	 8.15469130765781E-02 
406	 8.15413622142985E-02 
407	 8.15974419966283E-02 
408	 8.15660035724151E-02 
409	 8.15283907025382E-02 
410	 8.17676108987687E-02 
411	 8.16603348824057E-02 
412	 8.15849514551631E-02 
413	 0.081818423118973 
414	 8.19786266045893E-02 
415	 0.08208059848368 
416	 8.21813631303104E-02 
417	 0.082332931159255 
418	 0.082377468577632 
419	 8.24343798374636E-02 
420	 0.082586796298578 
421	 8.28505879430994E-02 
422	 8.29676089918428E-02 
423	 8.30305488289493E-02 
424	 8.32049924947164E-02 
425	 8.36610128389144E-02 
426	 8.40311107174727E-02 
427	 8.42108758690968E-02 
428	 8.43010994721862E-02 
429	 8.47980428624588E-02 
430	 8.51365686470293E-02 
431	 8.52323699742572E-02 
432	 0.085666442197075 
433	 0.085889534437844 
434	 8.60649988171328E-02 
435	 8.63938036427715E-02 
436	 8.67094883097563E-02 
437	 8.71333185660238E-02 
438	 8.74742854051023E-02 
439	 8.74663776863999E-02 
440	 8.77612468606394E-02 
441	 8.80363550789351E-02 
442	 8.81607537083417E-02 
443	 8.84415426376964E-02 
444	 8.87118586090925E-02 
445	 8.88643061992904E-02 
446	 8.88775971489931E-02 
447	 8.89760922311221E-02 
448	 8.91701191451793E-02 
449	 8.93576791855766E-02 
450	 8.93858474967768E-02 
451	 8.95318600776239E-02 
452	 8.96189403614355E-02 
453	 8.95856501916268E-02 
454	 8.97474590463551E-02 
455	 0.089821550986555 
456	 8.97459255727934E-02 
457	 8.95990221309454E-02 
458	 8.97231093065844E-02 
459	 8.98411743828981E-02 
460	 8.98044864748822E-02 
461	 8.96404581798018E-02 
462	 8.96277728135557E-02 
463	 8.96784571596757E-02 
464	 8.96735338761514E-02 
465	 8.96285674018399E-02 
466	 8.96136379335637E-02 
467	 8.96553223584023E-02 
468	 8.97184724675272E-02 
469	 8.95082955588439E-02 
470	 8.94468943874023E-02 
471	 8.96035170301889E-02 
472	 8.94975163005728E-02 
473	 8.96122760515539E-02 
474	 8.97536613742909E-02 
475	 8.96798941607363E-02 
476	 8.95972256634587E-02 
477	 8.96924146149138E-02 
478	 8.98265750473795E-02 
479	 8.96948636250293E-02 
480	 0.089828889918922 
481	 8.99780918955756E-02 
482	 8.99823679676223E-02 
483	 9.00660994533592E-02 
484	 9.03073427832692E-02 
485	 9.05227921343905E-02 
486	 9.05233682479411E-02 
487	 9.06798460947985E-02 
488	 9.08696177746321E-02 
489	 9.10421931555226E-02 
490	 9.12410168306816E-02 
491	 9.13913937727785E-02 
492	 0.091621739516537 
493	 9.19792301390561E-02 
494	 0.092187392898116 
495	 9.24401583277673E-02 
496	 9.27471734060549E-02 
497	 9.30308576974271E-02 
498	 9.33051344931504E-02 
499	 9.36163744699102E-02 
500	 9.39605004390182E-02 
501	 9.42481360756145E-02 
502	 9.46857297604015E-02 
503	 9.51300468359027E-02 
504	 9.54348314391594E-02 
505	 9.58655989314134E-02 
506	 9.62415448046349E-02 
507	 9.65778153395085E-02 
508	 9.70383084437637E-02 
509	 9.74813650250207E-02 
510	 9.79088934692279E-02 
511	 9.83515478339288E-02 
512	 9.88541730691735E-02 
513	 9.94104524395223E-02 
514	 9.99901233591085E-02 
515	 0.100541913408693 
516	 0.101008835058734 
517	 0.101496785860005 
518	 0.10206709288198 
519	 0.102707372338535 
520	 0.10330217114238 
521	 0.103879379369589 
522	 0.104491956943813 
523	 0.105136540830705 
524	 0.105779290021255 
525	 0.106412174182601 
526	 0.107052431386022 
527	 0.1077368630704 
528	 0.108402562830509 
529	 0.109045352980801 
530	 0.109819318028441 
531	 0.110527540720478 
532	 0.111213485736727 
533	 0.111979509891212 
534	 0.112719058775521 
535	 0.113442653484102 
536	 0.114171030855158 
537	 0.114923037561588 
538	 0.115732390563045 
539	 0.116555777258247 
540	 0.117329495363525 
541	 0.117976772915812 
542	 0.118701884443734 
543	 0.119494905766683 
544	 0.120219039399194 
545	 0.12091709288311 
546	 0.121589130080299 
547	 0.122231734946799 
548	 0.12283491206935 
549	 0.123528719410183 
550	 0.124227832729533 
551	 0.12480695132211 
552	 0.125395608624634 
553	 0.125968438021461 
554	 0.126515958156901 
555	 0.127052358205635 
556	 0.127600999581412 
557	 0.128125120734191 
558	 0.128587601976606 
559	 0.128998923629645 
560	 0.12955990957995 
561	 0.130118834715891 
562	 0.13036433208664 
563	 0.130778602660635 
564	 0.131221485418612 
565	 0.13157105908816 
566	 0.131899975281028 
567	 0.132263013906582 
568	 0.132592924835426 
569	 0.132820834627064 
570	 0.133165962215717 
571	 0.133469068137918 
572	 0.133711578550425 
573	 0.134044751112049 
574	 0.134307929605962 
575	 0.134506783332122 
576	 0.13469700136237 
577	 0.134965060459589 
578	 0.13526619432038 
579	 0.135522552180868 
580	 0.135650832151696 
581	 0.13570863047275 
582	 0.135814928533197 
583	 0.136020300148475 
584	 0.136254131333215 
585	 0.136374112864944 
586	 0.136402904494342 
587	 0.136423280134351 
588	 0.136430990788802 
589	 0.136460619116058 
590	 0.136528837633618 
591	 0.136628576665851 
592	 0.136598018863725 
593	 0.13658326779763 
594	 0.136695960024505 
595	 0.136750803461175 
596	 0.136740744725301 
597	 0.136717741809886 
598	 0.136754113015829 
599	 0.136730321069231 
600	 0.136667899674612 
601	 0.13662721862283 
602	 0.136712134872146 
603	 0.136710031839419 
604	 0.136638146222593 
605	 0.136600368569511 
606	 0.136724122641988 
607	 0.13676187628783 
608	 0.136660079771115 
609	 0.136587246341146 
610	 0.136651550808105 
611	 0.136660030870441 
612	 0.136506954392706 
613	 0.136548665971685 
614	 0.136534653844073 
615	 0.136474205051482 
616	 0.1364992503185 
617	 0.136449179326475 
618	 0.136377159673082 
619	 0.13632466252889 
620	 0.136278704685554 
621	 0.136212945599331 
622	 0.136211652970542 
623	 0.136343622190735 
624	 0.1364434983829 
625	 0.136431794060475 
626	 0.136362550922566 
627	 0.136400286354936 
628	 0.136357585819457 
629	 0.136350335973532 
630	 0.136430555196549 
631	 0.136312305104792 
632	 0.136377179459569 
633	 0.136460336827717 
634	 0.136205154874577 
635	 0.135982303325022 
636	 0.135726049782322 
637	 0.135463418494343 
638	 0.135412422836956 
639	 0.135295404461724 
640	 0.135094440378046 
641	 0.134871255002395 
642	 0.134674010411048 
643	 0.134344080068686 
644	 0.13398219842766 
645	 0.133876537957306 
646	 0.133613360034887 
647	 0.133313509476588 
648	 0.133112355123921 
649	 0.132938049936406 
650	 0.132783189837162 
651	 0.132658983739665 
652	 0.132573299286109 
653	 0.132410611076587 
654	 0.13231383110938 
655	 0.1322653892768 
656	 0.132017444170661 
657	 0.131777962733153 
658	 0.131554142789628 
659	 0.131324362989913 
660	 0.131160631460666 
661	 0.130929129335721 
662	 0.130672357617792 
663	 0.130516323472839 
664	 0.130151496036014 
665	 0.129875075324794 
666	 0.129784477247055 
667	 0.129485760707058 
668	 0.129325248533598 
669	 0.129305742391957 
670	 0.129307317015933 
671	 0.129201957775138 
672	 0.129114005425478 
673	 0.129134541640756 
674	 0.129297726757821 
675	 0.129393311702422 
676	 0.129511368880877 
677	 0.129725399602768 
678	 0.129904042612404 
679	 0.130171328583019 
680	 0.130592286875996 
681	 0.131162024337451 
682	 0.131592786553222 
683	 0.13221488166266 
684	 0.133094587577277 
685	 0.133957937432207 
686	 0.135219577292586 
687	 0.136523795338011 
688	 0.13749914178683 
689	 0.138875653376636 
690	 0.140295721065208 
691	 0.141666571270901 
692	 0.14308792637643 
693	 0.144810771591787 
694	 0.146537640653519 
695	 0.148051825699388 
696	 0.149560038637044 
697	 0.151047753911685 
698	 0.152616633967945 
699	 0.154238460894002 
700	 0.155652630644053 
701	 0.157147404553739 
702	 0.158637228403814 
703	 0.159797694242525 
704	 0.160886400009765 
705	 0.162023316297575 
706	 0.163137139215576 
707	 0.163849089131817 
708	 0.164661346089709 
709	 0.165399680538309 
710	 0.165770887468377 
711	 0.166312787329102 
712	 0.16669937220953 
713	 0.16685579838109 
714	 0.167020567925201 
715	 0.167062765422665 
716	 0.167034850762108 
717	 0.167014239723141 
718	 0.167054133639025 
719	 0.166651729608464 
720	 0.166177272923825 
721	 0.166040240670448 
722	 0.165748602544204 
723	 0.16522128868778 
724	 0.164553082336157 
725	 0.163950065804102 
726	 0.163285124655973 
727	 0.162508146528029 
728	 0.161611669885811 
729	 0.16063135027372 
730	 0.15958608619016 
731	 0.158526709860839 
732	 0.157497303853295 
733	 0.156783786764606 
734	 0.156148150558483 
735	 0.155529966846956 
736	 0.155124866607778 
737	 0.154876975543341 
738	 0.154680429875674 
739	 0.15450587464001 
740	 0.154604786154547 
741	 0.154592137037497 
742	 0.154529616078163 
743	 0.154671577475239 
744	 0.154725814809422 
745	 0.154768652549706 
746	 0.154843114853321 
747	 0.15489815635524 
748	 0.155148780707034 
749	 0.155333621007889 
750	 0.155263444424536 
751	 0.155397053719484 
752	 0.155506376772892 
753	 0.155583486401964 
754	 0.155718283514349 
755	 0.15574397812127 
756	 0.155752278921937 
757	 0.155841425173667 
758	 0.156159082710064 
759	 0.156399068200551 
760	 0.15664416463767 
761	 0.156960976353405 
762	 0.156899724653523 
763	 0.156706002014962 
764	 0.15681875891018 
765	 0.157374686475634 
766	 0.157369288855608 
767	 0.157357088701682 
768	 0.157520947135526 
769	 0.157681686776966 
770	 0.15785077549551 
771	 0.158032281136702 
772	 0.158232128380726 
773	 0.158456802941706 
774	 0.158704051577152 
775	 0.158949993414997 
776	 0.15917270988019 
777	 0.159405168484899 
778	 0.15963521271582 
779	 0.159859759081485 
780	 0.160091690909667 
781	 0.160373863796962 
782	 0.160715315229158 
783	 0.161077488348594 
784	 0.161332862123811 
785	 0.161584541069313 
786	 0.161919770363753 
787	 0.162361852956476 
788	 0.162669092449963 
789	 0.162865355549854 
790	 0.163135603664636 
791	 0.163718864459324 
792	 0.164105755057779 
793	 0.16447444474269 
794	 0.164886515191785 
795	 0.165039866372014 
796	 0.165256860506761 
797	 0.16564714430776 
798	 0.166128420680048 
799	 0.166146003910532 
800	 0.166396630289832 
801	 0.166831707634514 
802	 0.167029857674594 
803	 0.167295408204456 
804	 0.167549298635321 
805	 0.16770500899245 
806	 0.167711868001231 
807	 0.16766093091215 
808	 0.167777775358885 
809	 0.168074419776349 
810	 0.1679630091865 
811	 0.167813993304371 
812	 0.167649819271242 
813	 0.167382048020055 
814	 0.167064287013678 
815	 0.167018368759028 
816	 0.167015214107478 
817	 0.166520063460814 
818	 0.166426143894081 
819	 0.166117089508905 
820	 0.165441773942967 
821	 0.165006859154491 
822	 0.164375621522075 
823	 0.163679488429855 
824	 0.162966044893063 
825	 0.161611810173731 
826	 0.16047524902362 
827	 0.15945522542078 
828	 0.158229095352699 
829	 0.157162311149988 
830	 0.156018112905296 
831	 0.155099184792206 
832	 0.154951773576987 
833	 0.154097150883471 
834	 0.153309549203432 
835	 0.153049358988275 
836	 0.153000650448046 
837	 0.152606974610569 
838	 0.152229029057507 
839	 0.152145461663457 
840	 0.151838118226876 
841	 0.151837457824489 
842	 0.151761711625145 
843	 0.1511986865401 
844	 0.151225471191738 
845	 0.151221615078577 
846	 0.151030256642973 
847	 0.15086451482832 
848	 0.15079633755952 
849	 0.150697235035881 
850	 0.150495524680399 
851	 0.150235622492462 
852	 0.150184184704624 
853	 0.150123773349956 
854	 0.149907073111613 
855	 0.149752598085373 
856	 0.149766733776724 
857	 0.14979278573741 
858	 0.149661714194858 
859	 0.149422119937502 
860	 0.149406806099549 
861	 0.149393878769387 
862	 0.149035962613259 
863	 0.149147704975777 
864	 0.148939107907877 
865	 0.148507397009004 
866	 0.14871786790727 
867	 0.148603374978203 
868	 0.148216872647386 
869	 0.147815512988451 
870	 0.147706694720708 
871	 0.147832304740611 
872	 0.14774710927398 
873	 0.14731222098324 
874	 0.147250744617657 
875	 0.147116174660937 
876	 0.146861722057572 
877	 0.146605634769878 
878	 0.146622780302722 
879	 0.14630931073868 
880	 0.145939569596954 
881	 0.145963942801792 
882	 0.145199841362964 
883	 0.144995456327224 
884	 0.145297533478752 
885	 0.145019968797913 
886	 0.144774036945834 
887	 0.144482003567008 
888	 0.144173726241186 
889	 0.144055940103818 
890	 0.14407786322075 
891	 0.144051160761099 
892	 0.143780952074586 
893	 0.143121764114316 
894	 0.142976514298065 
895	 0.142895942954059 
896	 0.142479508589416 
897	 0.142892964952875 
898	 0.142398025425225 
899	 0.141746369400491 
900	 0.141997835289754 
901	 0.142043850996566 
902	 0.141561062594658 
903	 0.141001494037377 
904	 0.140937023087454 
905	 0.140928789369243 
906	 0.140852362070804 
907	 0.140554622110247 
908	 0.139998018538224 
909	 0.140050965454194 
910	 0.139346630884193 
911	 0.138529880208884 
912	 0.139632668549383 
913	 0.13851631676825 
914	 0.137714656334465 
915	 0.138186857360982 
916	 0.138110455220005 
917	 0.136706708465939 
918	 0.136146616404431 
919	 0.136585658282549 
920	 0.135208011959324 
921	 0.135680698123636 
922	 0.135908944519257 
923	 0.134616641287629 
924	 0.134575068106971 
925	 0.134160103046388 
926	 0.13346618852625 
927	 0.133087677562891 
928	 0.133690342080089 
929	 0.131516790469589 
930	 0.129437326048456 
931	 0.132860782076587 
932	 0.131929796026967 
933	 0.129586138989279 
934	 0.126436091676002 
935	 0.123355832401309 
936	 0.126139294499375 
937	 0.125905923327266 
938	 0.124659434318426 
939	 0.126091369329873 
940	 0.126778479791043 
941	 0.122206442130902 
942	 0.118963233662719 
943	 0.125285102571859 
944	 0.122168385816133 
945	 0.12045725562364 
946	 0.120989022273273 
947	 0.11868274342304 
948	 0.120088278136392 
949	 0.118505046102835 
950	 0.116315586256849 
951	 0.119466565809139 
952	 0.116006890221197 
953	 0.116128688974975 
954	 0.118924509677161 
955	 0.116368703857611 
956	 0.113565485082728 
957	 0.113117556921366 
958	 0.113066998904934 
959	 0.110039831405301 
960	 0.111794199773571 
961	 0.111911782221055 
962	 0.110345843280966 
963	 0.111434341391578 
964	 0.110325604136078 
965	 0.110561612225454 
966	 0.111878948385585 
967	 0.11129710422844 
968	 0.110650140490734 
969	 0.110332721930438 
970	 0.110434603007237 
971	 0.110725578344249 
972	 0.109510046478544 
973	 0.109975887923812 
974	 0.111618803701559 
975	 0.110509315927939 
976	 0.109617288215226 
977	 0.110131958681731 
978	 0.111631962572592 
979	 0.112504593247922 
980	 0.111348332413301 
981	 0.110435757888174 
982	 0.110860893833764 
983	 0.11206505765673 
984	 0.111898701348022 
985	 0.11225955488643 
986	 0.112696207242704 
987	 0.111258457116121 
988	 0.111410139551992 
989	 0.111340828302216 
990	 0.11131251263424 
991	 0.112856836683556 
992	 0.112692775984067 
993	 0.112255633614185 
994	 0.112362384457629 
995	 0.113126665006558 
996	 0.115580321448355 
997	 0.11431049537221 
998	 0.112052511917061 
999	 0.11490139191204 
1000	 0.116267626852877 
1001	 0.11301076742098 
1002	 0.113632356131674 
1003	 0.113874901245714 
1004	 0.113478905373644 
1005	 0.113598827979535 
1006	 0.11374863534667 
1007	 0.114184947306347 
1008	 0.114935968738622 
1009	 0.115958675459554 
1010	 0.116255985336603 
1011	 0.116589846461162 
1012	 0.116914991653261 
1013	 0.11702278291501 
1014	 0.117523381095619 
1015	 0.118507433873262 
1016	 0.119008583586223 
1017	 0.119518335962073 
1018	 0.119892503276069 
1019	 0.119966362189609 
1020	 0.120126221942366 
1021	 0.120159025464018 
1022	 0.120438911379618 
1023	 0.120644851529344 
1024	 0.120614919495302 
1025	 0.120974969987808 
1026	 0.121175614328972 
1027	 0.121447937199478 
1028	 0.121849895386311 
1029	 0.122197616514929 
1030	 0.122541159001929 
1031	 0.122788399085787 
1032	 0.122929248856321 
1033	 0.123201261166518 
1034	 0.123484590148286 
1035	 0.123768085547755 
1036	 0.124167312800017 
1037	 0.124536185163617 
1038	 0.125022414643522 
1039	 0.125109498984265 
1040	 0.125260231253814 
1041	 0.125523310821662 
1042	 0.125633941700572 
1043	 0.125475837282727 
1044	 0.125694683670788 
1045	 0.126057389453501 
1046	 0.126361809678899 
1047	 0.12692061209529 
1048	 0.127246278431534 
1049	 0.127457629086709 
1050	 0.127615219682468 
1051	 0.127682231090925 
1052	 0.127700343612104 
1053	 0.127403316682255 
1054	 0.127478839737834 
1055	 0.127852389948482 
1056	 0.128071293301186 
1057	 0.128317759124503 
1058	 0.128903821714761 
1059	 0.1288804504631 
1060	 0.128344645904974 
1061	 0.12827327435166 
1062	 0.12809677572451 
1063	 0.12811590782697 
1064	 0.128530194820879 
1065	 0.128666336184157 
1066	 0.128718670676415 
1067	 0.128730481313519 
1068	 0.128595186410721 
1069	 0.128593643939794 
1070	 0.128684733035112 
1071	 0.128663933582157 
1072	 0.128557637407706 
1073	 0.128646028475753 
1074	 0.12858203630381 
1075	 0.128298543054348 
1076	 0.128347987649791 
1077	 0.128666040400703 
1078	 0.128603580752518 
1079	 0.128552328348153 
1080	 0.128384041234082 
1081	 0.12782838554076 
1082	 0.127589656939074 
1083	 0.127368871536808 
1084	 0.127342034275112 
1085	 0.127842260561326 
1086	 0.127748549334537 
1087	 0.127381997433509 
1088	 0.127185791519302 
1089	 0.126656597725726 
1090	 0.126007369200142 
1091	 0.126002174212562 
1092	 0.126634744960664 
1093	 0.12672946304917 
1094	 0.127128421855954 
1095	 0.126904957310273 
1096	 0.125994055213752 
1097	 0.125491484838546 
1098	 0.12474911740035 
1099	 0.124358583364648 
1100	 0.124414459767587 
1101	 0.124195658421285 
1102	 0.123721758087388 
1103	 0.123557878255697 
1104	 0.123500102335007 
1105	 0.123728992156989 
1106	 0.12299829363079 
1107	 0.12297456668848 
1108	 0.123364948217549 
1109	 0.122818641289818 
1110	 0.122848477962746 
1111	 0.124265585955373 
1112	 0.124207087064058 
1113	 0.122596342039923 
1114	 0.122371137515915 
1115	 0.122432397931494 
1116	 0.122402353030976 
1117	 0.124057592415253 
1118	 0.123760061273511 
1119	 0.120522276005507 
1120	 0.118793831913194 
1121	 0.116603152582293 
1122	 0.113769069721614 
1123	 0.115761377355875 
1124	 0.119313000136192 
1125	 0.117741120482821 
1126	 0.120029290811871 
1127	 0.120947141929521 
1128	 0.115264371933733 
1129	 0.113677003624256 
1130	 0.115062911338526 
1131	 0.112708069192728 
1132	 0.108509508105679 
1133	 0.107784862864836 
1134	 0.106992235670585 
1135	 0.105771516457629 
1136	 0.106613560846181 
1137	 0.106458873117239 
1138	 0.105277667808213 
1139	 0.103749645284562 
1140	 0.103943982054114 
1141	 0.10320582216082 
1142	 0.100172820607628 
1143	 9.84988884998809E-02 
1144	 9.70998664937527E-02 
1145	 9.50391144070143E-02 
1146	 9.56038564839562E-02 
1147	 0.095811572262527 
1148	 9.50323419677065E-02 
1149	 9.35875454950337E-02 
1150	 9.21692215058642E-02 
1151	 8.98509629786299E-02 
1152	 8.93190005063244E-02 
1153	 8.93610412694448E-02 
1154	 0.089448530660631 
1155	 0.090407879031164 
1156	 9.04940379071306E-02 
1157	 8.88791082460846E-02 
1158	 8.77616992776473E-02 
1159	 8.71590119837977E-02 
1160	 0.086257659493215 
1161	 8.68716492786993E-02 
1162	 8.78681592398368E-02 
1163	 8.70564517882815E-02 
1164	 8.60569747018081E-02 
1165	 8.57633659245408E-02 
1166	 8.56056003799957E-02 
1167	 8.57673193308526E-02 
1168	 8.60983568527495E-02 
1169	 8.59494721909851E-02 
1170	 8.55801867329879E-02 
1171	 0.085436050514554 
1172	 8.55232123091776E-02 
1173	 8.55603634917939E-02 
1174	 8.56983492113335E-02 
1175	 8.55409082805636E-02 
1176	 8.56226111417133E-02 
1177	 8.58148994508616E-02 
1178	 8.54652776407524E-02 
1179	 8.52172132988653E-02 
1180	 8.51724291337256E-02 
1181	 8.49607461404799E-02 
1182	 8.51200955848206E-02 
1183	 8.53969896865266E-02 
1184	 8.51949177863408E-02 
1185	 8.48262986549726E-02 
1186	 8.47155708082592E-02 
1187	 8.48506023348394E-02 
1188	 8.49518457363366E-02 
1189	 8.49191009849005E-02 
1190	 8.49472131090272E-02 
1191	 8.48277088570356E-02 
1192	 0.084637415028528 
1193	 0.084299526382748 
1194	 8.43659334947422E-02 
1195	 8.43708746513848E-02 
1196	 8.41151906962294E-02 
1197	 8.42291845990089E-02 
1198	 8.43599161233395E-02 
1199	 8.42811742184053E-02 
1200	 8.43468691244413E-02 
1201	 0.084451471646603 
1202	 8.45237023626079E-02 
1203	 8.44585776179638E-02 
1204	 8.43988214501725E-02 
1205	 8.46356950238013E-02 
1206	 0.084536671418238 
1207	 8.42021811496676E-02 
1208	 8.44062176097856E-02 
1209	 8.44793283022239E-02 
1210	 8.44087365733478E-02 
1211	 8.47164065533283E-02 
1212	 8.48399752108801E-02 
1213	 8.46655330423546E-02 
1214	 8.46549165790699E-02 
1215	 8.46694195502762E-02 
1216	 8.49311690418353E-02 
1217	 8.51941543314707E-02 
1218	 8.52249005351773E-02 
1219	 8.52718688475952E-02 
1220	 8.52861345101675E-02 
1221	 8.52486651553602E-02 
1222	 8.54641301567005E-02 
1223	 8.57590854449957E-02 
1224	 8.57908844499468E-02 
1225	 0.085619321439777 
1226	 8.58159209365863E-02 
1227	 8.62655346642482E-02 
1228	 8.63051399765522E-02 
1229	 8.62533121048625E-02 
1230	 8.63297068884781E-02 
1231	 8.62472545587215E-02 
1232	 8.62686103767484E-02 
1233	 8.66016215684116E-02 
1234	 8.67679784046231E-02 
1235	 8.68704301176886E-02 
1236	 8.68771070343504E-02 
1237	 8.69826426298611E-02 
1238	 8.70952973619156E-02 
1239	 8.71618126001316E-02 
1240	 8.72429063040196E-02 
1241	 8.72358900154848E-02 
1242	 8.73316981083796E-02 
1243	 8.74960408633422E-02 
1244	 8.75702842554926E-02 
1245	 8.76418291939469E-02 
1246	 8.78149272838782E-02 
1247	 8.79492844884392E-02 
1248	 8.79572839933902E-02 
1249	 8.79370721536502E-02 
1250	 8.79610186548474E-02 
1251	 8.81194897472246E-02 
1252	 8.82622655645546E-02 
1253	 8.82640304351667E-02 
1254	 8.83217872390802E-02 
1255	 8.83064158084907E-02 
1256	 8.83436872835656E-02 
1257	 0.088634373209524 
1258	 0.088702421596708 
1259	 8.85413630514867E-02 
1260	 8.84377719423922E-02 
1261	 8.82604434531877E-02 
1262	 8.82479203003458E-02 
1263	 8.83610400718702E-02 
1264	 8.83498294608597E-02 
1265	 8.85672506645405E-02 
1266	 8.86670763083976E-02 
1267	 8.85278565617474E-02 
1268	 8.84790989437475E-02 
1269	 8.84077336896327E-02 
1270	 8.83168959437998E-02 
1271	 8.82730955895417E-02 
1272	 8.82970291133827E-02 
1273	 8.81861709573015E-02 
1274	 8.78181036694756E-02 
1275	 8.76736431523523E-02 
1276	 8.76862766348585E-02 
1277	 8.76217192613378E-02 
1278	 8.76320425903454E-02 
1279	 8.74792060882939E-02 
1280	 0.08723801044431 
1281	 8.71250171027472E-02 
1282	 8.71517466067182E-02 
1283	 8.70003452660471E-02 
1284	 8.67669483327567E-02 
1285	 8.66828497093884E-02 
1286	 8.67108227625258E-02 
1287	 8.65019243278064E-02 
1288	 8.62046854835073E-02 
1289	 8.59546488406893E-02 
1290	 8.55895162764038E-02 
1291	 8.50933362033519E-02 
1292	 8.47498488986445E-02 
1293	 8.47795584534405E-02 
1294	 8.46648403977478E-02 
1295	 8.43795789388767E-02 
1296	 8.42696053873292E-02 
1297	 8.39878391542565E-02 
1298	 8.34159975586893E-02 
1299	 8.29206619088274E-02 
1300	 8.24321062278269E-02 
1301	 8.19286677719788E-02 
1302	 8.18729979164184E-02 
1303	 8.19582256517213E-02 
1304	 8.16429301386507E-02 
1305	 8.11577698197242E-02 
1306	 8.07591573330976E-02 
1307	 7.99608513036799E-02 
1308	 7.94233948443525E-02 
1309	 0.079261231877212 
1310	 7.89353048445752E-02 
1311	 7.83110890398811E-02 
1312	 0.077942797866436 
1313	 7.80253576122013E-02 
1314	 7.76708370044933E-02 
1315	 7.71419871845038E-02 
1316	 0.076579917248839 
1317	 7.55786959803621E-02 
1318	 7.50056148682091E-02 
1319	 7.46913165815396E-02 
1320	 7.42604935445451E-02 
1321	 7.40173680387095E-02 
1322	 7.38269046290695E-02 
1323	 7.29832869336423E-02 
1324	 7.21814682601796E-02 
1325	 7.20770373186061E-02 
1326	 7.17849476726975E-02 
1327	 0.071615277713149 
1328	 0.072105130332345 
1329	 7.18425088928778E-02 
1330	 7.03252195658816E-02 
1331	 6.88000291295204E-02 
1332	 6.81693559479081E-02 
1333	 6.78410921905757E-02 
1334	 6.77224622199044E-02 
1335	 0.06760166324212 
1336	 6.79571857226058E-02 
1337	 6.74506559608478E-02 
1338	 0.066356014361303 
1339	 6.58400059841653E-02 
1340	 6.50734852422752E-02 
1341	 6.45929093075736E-02 
1342	 6.43927038044219E-02 
1343	 6.44301389936082E-02 
1344	 6.54948779324742E-02 
1345	 6.53947048214411E-02 
1346	 6.34211849564041E-02 
1347	 6.39178468076307E-02 
1348	 6.82479523118791E-02 
1349	 0.067820715870687 
1350	 0.061801045034591 
1351	 6.40722839262544E-02 
1352	 7.06634139972131E-02 
1353	 6.80767059461939E-02 
1354	 0.073607295625431 
1355	 9.82370289370576E-02 
1356	 7.70742094416859E-02 
1357	 0.019546282866391 
1358	-4.0466343297564E-03 
1359	 0.037873694524102 
1360	 0.116253722185154 
1361	 0.093035883698313 
1362	 0.175175061950428 
1363	 0.392796942250669 
1364	 0.21518761467818 
1365	-0.12228762814442 
1366	-0.235686388890582 
1367	-0.117527880735725 
1368	-0.1111940342716 
1369	 0.151572616968501 
1370	 0.254373962644685 
1371	 2.66183317907727E-02 
1372	-5.17018192563439E-02 
1373	 8.74628109950088E-02 
1374	 0.191782002967016 
1375	 3.34487407528681E-02 
1376	 3.91046451480377E-02 
1377	 0.102982058442986 
1378	 0.259749995872924 
1379	 0.757162601480519 
1380	 0.748785289628888 
1381	 0.126960723722986 
1382	 3.59418309235995E-02 
1383	-0.319525719186565 
1384	-0.484454423736598 
1385	 0.279752469872413 
1386	 0.460019538288566 
1387	 0.442287986465782 
1388	 0.240960055302624 
1389	-0.327653067998698 
1390	-0.371020146128168 
1391	-0.292787857795001 
1392	-0.322498208552105 
1393	 0.214354891512823 
1394	 0.347332142950213 
1395	 0.100340625575284 
1396	 0.330833230558375 
1397	 7.29011039965256E-02 
1398	-2.07003348011635E-02 
1399	 0.107979030942341 
1400	 9.31750337224725E-02 
1401	 9.30185968334804E-02 
1402	 0.532122265629739 
1403	 1.39560047926698 
1404	 0.105337550916079 
1405	-4.59535264176319E-02 
1406	-0.23878732467264 
1407	-0.157248536094895 
1408	 5.14999998964951E-02 
1409	 4.49532946661081E-02 
1410	 1.76240884540444E-02 
1411	 7.98233213354303E-03 
1412	-8.08883879567635E-02 
1413	-6.80837778221596E-02 
1414	 2.75173259009085E-02 
1415	 3.86169118829597E-02 
1416	 1.72450966138859E-03 
1417	 2.74761716340208E-02 
1418	 8.83688371403227E-02 
1419	 7.72726661330894E-02 
1420	 5.48272519577083E-02 
1421	 4.65891678488229E-02 
1422	 1.19398881284132E-02 
1423	 0.013482617580064 
1424	 5.33622011455524E-02 
1425	 4.80666404373241E-02 
1426	 1.39406355974313E-02 
1427	 1.69372935418761E-02 
1428	 3.31564470335005E-02 
1429	 2.80449341885018E-02 
1430	 2.71314525028643E-02 
1431	 3.08944481659445E-02 
1432	 1.69103889616049E-02 
1433	 1.03603759861833E-02 
1434	 2.40119838775908E-02 
1435	 3.00552326026325E-02 
1436	 3.10198145732534E-02 
1437	 2.17750804917946E-02 
1438	 1.90393133916914E-02 
1439	 2.40430264862448E-02 
1440	 2.19128723705409E-02 
1441	 1.80193933087677E-02 
1442	 2.45593721120366E-02 
1443	 0.025205635380593 
1444	 0.019247857566274 
1445	 1.80552415586214E-02 
1446	 1.84344842639276E-02 
1447	 1.73372328561998E-02 
1448	 1.40892690788793E-02 
1449	 1.46455385581715E-02 
1450	 1.79833327886809E-02 
1451	 1.83198453256374E-02 
1452	 1.81842829335846E-02 
1453	 1.85305532148091E-02 
1454	 1.90135148765609E-02 
1455	 0.017537498935584 
1456	 1.70889269245543E-02 
1457	 1.82581324687985E-02 
1458	 1.86342246663378E-02 
1459	 1.81673021850038E-02 
1460	 0.017519252754272 
1461	 0.0171167404354 
1462	 1.71365387409623E-02 
1463	 0.01614135550426 
1464	 1.57055342902012E-02 
1465	 1.67842546451357E-02 
1466	 1.72590480725283E-02 
1467	 1.70557125480566E-02 
1468	 1.70142019519888E-02 
1469	 1.68795594607067E-02 
1470	 1.78789589070382E-02 
1471	 2.00095837937637E-02 
1472	 0.019836678547367 
1473	 1.89118966342918E-02 
1474	 1.92478582999084E-02 
1475	 1.88813663577087E-02 
1476	 1.86549277166836E-02 
1477	 1.93336359412958E-02 
1478	 0.019823189478272 
1479	 1.98087710351946E-02 
1480	 1.93499754532248E-02 
1481	 1.91910764508124E-02 
1482	 1.95662344297583E-02 
1483	 0.019451120947064 
1484	 1.92306135968085E-02 
1485	 0.019668196594103 
1486	 1.97967966218085E-02 
1487	 1.89450174112302E-02 
1488	 1.92702073944606E-02 
1489	 2.05863130182189E-02 
1490	 2.09395008212535E-02 
1491	 2.11668436276411E-02 
1492	 2.13388307511286E-02 
1493	 2.10455317197266E-02 
1494	 0.021095711975235 
1495	 2.14408518640461E-02 
1496	 2.15994329781364E-02 
1497	 2.17834730711844E-02 
1498	 2.18034506659412E-02 
1499	 2.16138707810438E-02 
1500	 0.021660379795187 
1501	 2.16061952668264E-02 
1502	 2.17247531584785E-02 
1503	 0.022143683078695 
1504	 2.24319898002054E-02 
1505	 2.26428585070172E-02 
1506	 2.30466153226537E-02 
1507	 2.34017325411479E-02 
1508	 2.36231341613509E-02 
1509	 2.37220224960884E-02 
1510	 0.023893443523689 
1511	 2.40871610484692E-02 
1512	 0.024022826702901 
1513	 0.024154160891799 
1514	 2.44755483093162E-02 
1515	 2.46014433136259E-02 
1516	 2.48033165067922E-02 
1517	 2.50570867245084E-02 
1518	 2.52788082013622E-02 
1519	 0.025479431043162 
1520	 2.56056911389195E-02 
1521	 2.58394624448858E-02 
1522	 2.59517733440484E-02 
1523	 2.60561322699863E-02 
1524	 2.64572040876861E-02 
1525	 2.68485040403282E-02 
1526	 2.70113190445147E-02 
1527	 2.68292454828418E-02 
1528	 2.67204745954373E-02 
1529	 2.70545263986579E-02 
1530	 2.74029066067817E-02 
1531	 0.027682066612871 
1532	 2.81143455707632E-02 
1533	 2.83797807708451E-02 
1534	 2.83026784615517E-02 
1535	 2.84904002920075E-02 
1536	 2.88754570159841E-02 
1537	 2.88205049490685E-02 
1538	 2.87381591806115E-02 
1539	 2.90061414730094E-02 
1540	 2.92072496095779E-02 
1541	 2.93513837732455E-02 
1542	 2.98279254527393E-02 
1543	 3.02872306737386E-02 
1544	 3.03857186470318E-02 
1545	 3.03973889487764E-02 
1546	 0.030521353030555 
1547	 3.07623294398823E-02 
1548	 3.09589068065271E-02 
1549	 3.09762847345119E-02 
1550	 3.10328078533752E-02 
1551	 0.031269602680405 
1552	 3.13873461165978E-02 
1553	 3.15487213438369E-02 
1554	 3.19359594186684E-02 
1555	 3.20468076010331E-02 
1556	 3.19927413169723E-02 
1557	 3.22821155809657E-02 
1558	 0.032469159545833 
1559	 3.23139423173016E-02 
1560	 3.24797188482137E-02 
1561	 3.30342608188007E-02 
1562	 3.34380048328572E-02 
1563	 3.34457949735558E-02 
1564	 0.033435841137651 
1565	 3.36280068347201E-02 
1566	 3.37410389468423E-02 
1567	 3.39321778088001E-02 
1568	 3.42977289364275E-02 
1569	 0.034440011784004 
1570	 3.44587312020899E-02 
1571	 3.48615728661697E-02 
1572	 3.51958124717773E-02 
1573	 3.50567762965831E-02 
1574	 3.50673648160648E-02 
1575	 3.53375146589793E-02 
1576	 3.55534495127452E-02 
1577	 3.57456279256373E-02 
1578	 3.59496315072308E-02 
1579	 3.60488363202984E-02 
1580	 3.61046127041766E-02 
1581	 3.63020585991379E-02 
1582	 3.65879155068889E-02 
1583	 3.67043959000494E-02 
1584	 0.03670453287346 
1585	 3.68566736901238E-02 
1586	 3.68913959264974E-02 
1587	 3.69017024679267E-02 
1588	 0.037333101195709 
1589	 3.77775297581626E-02 
1590	 3.78168498155301E-02 
1591	 3.76623425476813E-02 
1592	 3.76870601406431E-02 
1593	 0.038046899260969 
1594	 3.82980147593235E-02 
1595	 3.81719259963943E-02 
1596	 3.82725201797049E-02 
1597	 3.83107716296744E-02 
1598	 3.80713641546866E-02 
1599	 3.85933590180065E-02 
1600	 3.90465375706953E-02 
1601	 0.038580830057307 
1602	 3.85475652435458E-02 
1603	 3.89809448958936E-02 
1604	 3.90904245141277E-02 
1605	 3.93110466259437E-02 
1606	 3.95432114740996E-02 
1607	 3.94057760718028E-02 
1608	 0.03929474539897 
1609	 3.93916605677051E-02 
1610	 3.96321247867858E-02 
1611	 3.99595475831686E-02 
1612	 4.01212269491292E-02 
1613	 4.00898442129019E-02 
1614	 4.00870895116788E-02 
1615	 4.01872789735756E-02 
1616	 4.03508148405928E-02 
1617	 4.05564235052952E-02 
1618	 4.06336427136511E-02 
1619	 4.04401144905439E-02 
1620	 4.04844018188213E-02 
1621	 4.08608052365607E-02 
1622	 4.09446368928621E-02 
1623	 4.08567808533516E-02 
1624	 4.09448899099551E-02 
1625	 0.041008874456072 
1626	 4.10571151508849E-02 
1627	 4.14442718693975E-02 
1628	 4.15793528076986E-02 
1629	 4.10983061966635E-02 
1630	 0.041210091264538 
1631	 4.17521669311289E-02 
1632	 4.15530733348418E-02 
1633	 4.11837544456572E-02 
1634	 0.041331477850871 
1635	 4.16796434494606E-02 
1636	 4.19655794150494E-02 
1637	 4.22838164266956E-02 
1638	 0.042408568940048 
1639	 4.18978528122395E-02 
1640	 4.15724934153721E-02 
1641	 0.041973245855215 
1642	 4.23025073557742E-02 
1643	 4.25686200355162E-02 
1644	 0.042869757575174 
1645	 4.28182772988202E-02 
1646	 4.26046464231202E-02 
1647	 4.26442574239971E-02 
1648	 4.29223749346535E-02 
1649	 4.31327102373599E-02 
1650	 4.30790030414246E-02 
1651	 4.28855808610029E-02 
1652	 4.28913759910717E-02 
1653	 4.32646913407546E-02 
1654	 0.043282253158273 
1655	 0.043016646027768 
1656	 4.29150353903712E-02 
1657	 4.25708687442311E-02 
1658	 4.26613579877243E-02 
1659	 4.34961358460453E-02 
1660	 4.35181944302749E-02 
1661	 4.30055896339394E-02 
1662	 4.30399082723445E-02 
1663	 4.29918465048143E-02 
1664	 4.30567460037048E-02 
1665	 4.36157434492138E-02 
1666	 4.36436702390875E-02 
1667	 0.043228749746691 
1668	 4.33429205026502E-02 
1669	 0.043610541978319 
1670	 0.043684726418072 
1671	 4.34248126612392E-02 
1672	 4.32210054213981E-02 
1673	 0.043188584960121 
1674	 4.34427336903601E-02 
1675	 4.37982099398254E-02 
1676	 4.36658598306163E-02 
1677	 4.34285420529262E-02 
1678	 4.34153181594722E-02 
1679	 4.31435940342473E-02 
1680	 4.31323758876635E-02 
1681	 4.33459470417555E-02 
1682	 4.32609265206592E-02 
1683	 4.34078156091679E-02 
1684	 4.35559940853484E-02 
1685	 4.34048836771176E-02 
1686	 4.30951627316154E-02 
1687	 0.04298628218968 
1688	 0.043347963969938 
1689	 4.32769889487103E-02 
1690	 4.28719124700738E-02 
1691	 4.29253765002721E-02 
1692	 4.27831138019175E-02 
1693	 4.26293582284283E-02 
1694	 4.29828292763286E-02 
1695	 4.29588243671942E-02 
1696	 4.26199495679823E-02 
1697	 4.25545278512857E-02 
1698	 4.26690618182571E-02 
1699	 4.27441451138155E-02 
1700	 0.042567931842701 
1701	 4.24532495359812E-02 
1702	 4.26227403642258E-02 
1703	 4.28063148202063E-02 
1704	 4.28384035733852E-02 
1705	 4.28257214619667E-02 
1706	 4.26824906955679E-02 
1707	 4.22968410783624E-02 
1708	 4.20682811024109E-02 
1709	 4.19665084425294E-02 
1710	 4.16571292819921E-02 
1711	 4.17693719579882E-02 
1712	 4.22477415341219E-02 
1713	 4.24233897508958E-02 
1714	 4.24725617286352E-02 
1715	 4.20530347677919E-02 
1716	 4.16997877205099E-02 
1717	 4.14446450642194E-02 
1718	 4.11971032878746E-02 
1719	 4.12807399178169E-02 
1720	 4.14870053047443E-02 
1721	 4.16160988471291E-02 
1722	 4.11286090852537E-02 
1723	 4.06782648105014E-02 
1724	 4.09182995101642E-02 
1725	 4.08070791621463E-02 
1726	 4.06401223492347E-02 
1727	 4.08257186712936E-02 
1728	 4.03990574363095E-02 
1729	 4.00332223445907E-02 
1730	 4.04361494364214E-02 
1731	 4.04020644767997E-02 
1732	 4.00276875368297E-02 
1733	 4.01929393925352E-02 
1734	 4.01502841356584E-02 
1735	 3.97168550917847E-02 
1736	 3.92981896981894E-02 
1737	 3.90720926680374E-02 
1738	 0.039055980197864 
1739	 3.87994945230905E-02 
1740	 3.88220873361271E-02 
1741	 3.89929690001805E-02 
1742	 3.86813682986811E-02 
1743	 3.86357016211021E-02 
1744	 3.88135339100319E-02 
1745	 0.038476233897175 
1746	 3.75047082813008E-02 
1747	 3.72932387487605E-02 
1748	 3.81881995209775E-02 
1749	 3.80258285582948E-02 
1750	 3.71652277645711E-02 
1751	 0.037108405059542 
1752	 3.64346519019356E-02 
1753	 3.61580883357086E-02 
1754	 3.76408326361424E-02 
1755	 3.75843271405355E-02 
1756	 3.61585749214497E-02 
1757	 0.035604899001502 
1758	 3.49739583368535E-02 
1759	 3.51737380937392E-02 
1760	 3.63445650488401E-02 
1761	 3.62890315116573E-02 
1762	 3.55727620549181E-02 
1763	 3.50734579892609E-02 
1764	 3.40916685615647E-02 
1765	 3.41973637281802E-02 
1766	 3.51241665704632E-02 
1767	 3.48541739797895E-02 
1768	 3.49798013887363E-02 
1769	 3.52140809570636E-02 
1770	 0.033363074357006 
1771	 3.23353986090215E-02 
1772	 0.033021697376856 
1773	 3.40038669061065E-02 
1774	 3.59334992621711E-02 
1775	 3.55933149638024E-02 
1776	 3.51777772236852E-02 
1777	 3.14349703299491E-02 
1778	 3.07325353345259E-02 
1779	 3.42879315269504E-02 
1780	 3.44609976707849E-02 
1781	 3.41875665979426E-02 
1782	 3.35835111950132E-02 
1783	 2.88856654862533E-02 
1784	 2.82315753759411E-02 
1785	 3.06037905955353E-02 
1786	 0.031950991612469 
1787	 3.64290774174197E-02 
1788	 3.72725090728943E-02 
1789	 3.49134256330243E-02 
1790	 3.69368164727557E-02 
1791	 3.32897287736725E-02 
1792	 0.029796574081244 
1793	 0.032034214093445 
1794	 3.26184527807898E-02 
1795	 3.54352969063681E-02 
1796	 4.35265114924098E-02 
1797	 0.047368021712316 
1798	 3.86522316568468E-02 
1799	 2.98936147961023E-02 
1800	 2.64292438362248E-02 
1801	 2.06209279009003E-02 
1802	 2.31436247592206E-02 
1803	 2.71523934038231E-02 
1804	 3.21866463749766E-02 
1805	 3.02791306603099E-02 
1806	 3.74426494258967E-02 
1807	 2.78100199224617E-02 
1808	-5.64194935897861E-02 
1809	-0.083315368269308 
1810	-3.98867460618697E-02 
1811	-1.56085551910532E-02 
1812	 0.132602302168962 
1813	 0.231546973610424 
1814	 0.209347026848782 
1815	 0.263195065190369 
1816	 0.33424772586221 
1817	 0.38305169659195 
1818	 0.285494010319527 
1819	-0.153675827928538 
1820	-5.81385160933616E-02 
1821	 0.42150407890669 
1822	 0.609131433589404 
1823	 1.19482298608072 
1824	 1.18115723127691 
1825	 0.157672058777363 
1826	-6.97112152956915E-02 
1827	-0.442342511901585 
1828	-0.564883077246286 
1829	-3.73677803423629E-02 
1830	 0.118386016373503 
1831	-0.21948759735196 
1832	-0.41704064342654 
1833	-0.813159642650337 
1834	-0.811737584946504 
1835	-2.47306502832499 
1836	-13.9658771961315 
1837	 1.89554769368006 
1838	 1.95972681824401 
1839	 0.341890194344767 
1840	-0.141413307157887 
1841	 0.21149295398154 
1842	 0.723699573768103 
1843	 0.864159766828677 
1844	 0.795537741910855 
1845	 0.818166771880842 
1846	 1.4295596738192 
1847	 0.752072578508924 
1848	-79.0756983077195 
1849	 15.4785262123875 
1850	-1.46541359133384 
1851	-0.764826134463711 
1852	-0.22888518600124 
1853	 0.157391077894819 
1854	 0.225764671930889 
1855	-0.174411166836507 
1856	-1.42313787298508 
1857	-1.4838706559959 
1858	-1.38631727201146 
1859	-1.03971131267541 
1860	-0.652971295239667 
1861	-0.310085786829892 
1862	-0.454830830975408 
1863	-1.27442454771303 
1864	 0.33354039086856 
1865	 0.223445225271469 
1866	 1.22916007580293 
1867	 2.2471735142289 
1868	-3.62712166981122 
1869	-1.48220184089981 
1870	-1.47368178058681 
1871	-0.385355733321505 
1872	-15.1161506068668 
1873	-1.40544474406237 
1874	 5.9262758929468 
1875	-12.3906759135343 
1876	 9.639585405383 
1877	 0.135462544361907 
1878	-5.63669656263866E-02 
1879	 3.83516690377522 
1880	 2.77990459148249 
1881	 1.20602801031759 
1882	 1.52642676400979 
1883	-2.02465341153713 
1884	-0.587993428891812 
1885	-1.06249474668056 
1886	-1.98039390500735 
1887	-1.44842037560422 
1888	-2.83771705416771 
1889	-2.76254010274549 
1890	-0.27750672540597 
1891	-0.107961538453014 
1892	-0.603421145196146 
1893	-0.457942434651267 
1894	 0.186213273035319 
1895	-0.202117734892158 
1896	-0.97466100344171 
1897	 0.214068695968019 
1898	 2.91360232875812 
1899	 1.14664249720855 
1900	 1.50113282512999 
1901	-2.81612031596091 
1902	-2.18010980229053 
1903	-5.082715150437 
1904	 11.5814152399706 
1905	-5.03004241935746 
1906	-47.9000524372855 
1907	 7.0581198038689 
1908	-2.09989682004707 
1909	-2.52783306235198 
1910	-11.2063225119751 
1911	-3.83306296498016 
1912	 9.66133422568289 
1913	 14.5874446187785 
1914	-2.17075335154047 
1915	-2.59374263973127 
1916	-604.082962669482 
1917	 1.02840830274033 
1918	 0.241868198240564 
1919	-1.52023601855857E-02 
1920	-1.55658462009071E-02 
1921	 0.176151402244763 
1922	 0.34169199045487 
1923	-3.74185287238417E-02 
1924	 31.2387087960885 
1925	 2.62863305262406 
1926	 2.57207053900199 
1927	 0.515362819060414 
1928	 1.24801484224825 
1929	-6.83147551663065 
1930	 5.77778207002206 
1931	-0.633044984474452 
1932	-0.702647691468442 
1933	-0.370891219250399 
1934	-0.187189237816676 
1935	 1.93155399999952E-02 
1936	 8.75384218756856E-02 
1937	 4.69318541846652E-02 
1938	 0.044727221526304 
1939	 1.86632193305422E-02 
1940	-1.21056628431114E-02 
1941	-0.033455602997116 
1942	-0.054213533435487 
1943	-7.23809491062499E-02 
1944	-7.87332205059758E-02 
1945	-7.14558065459167E-02 
1946	-5.71518681533909E-02 
1947	-5.73907562927431E-02 
1948	-1.65315141435418E-02 
1949	-9.24962035918295E-04 
1950	 4.06346246161835E-04 
1951	 1.41598977323573E-02 
1952	 1.01775039370021E-02 
1953	-1.32393023940397E-02 
1954	-1.86925283695439E-02 
1955	-2.49442630269573E-02 
1956	-2.36963093407637E-02 
1957	-1.93563413937837E-02 
1958	-1.52217844780997E-02 
1959	-8.10653082490235E-03 
1960	 2.88958440485393E-04 
1961	 1.54141290409519E-02 
1962	 1.17739744683175E-02 
1963	 8.18487606907939E-03 
1964	 1.07121002926629E-02 
1965	 5.45169138075521E-03 
1966	 3.87006241879006E-03 
1967	 5.46282027293131E-03 
1968	 8.30067673720691E-03 
1969	 6.96571595936384E-03 
1970	 7.32106830417593E-03 
1971	 9.33420435800995E-03 
1972	 9.96330052449509E-03 
1973	 8.63120808000244E-03 
1974	 8.29757630338885E-03 
1975	 7.68749245565305E-03 
1976	 4.80595357810059E-03 
1977	 4.05966261142738E-03 
1978	 4.97403363021605E-03 
1979	 5.25251489682712E-03 
1980	 5.1678597797334E-03 
1981	 6.88521370600564E-03 
1982	 7.53594929744525E-03 
1983	 6.72599418060525E-03 
1984	 6.19890235711733E-03 
1985	 5.29346478691298E-03 
1986	 5.65583255627651E-03 
1987	 5.95745618040345E-03 
1988	 6.76262331905972E-03 
1989	 7.98146396535129E-03 
1990	 6.98441287330206E-03 
1991	 6.1217586091156E-03 
1992	 5.75102048541054E-03 
1993	 5.01950661188873E-03 
1994	 4.66118128305876E-03 
1995	 5.61955456557838E-03 
1996	 6.29500560344266E-03 
1997	 5.48888673760354E-03 
1998	 6.15868503843229E-03 
1999	 8.44006780046382E-03 
2000	 8.77611304418582E-03 
2001	 7.08614153162913E-03 
2002	 5.7300875814693E-03 
2003	 4.31465900182198E-03 
2004	 2.21098346760849E-03 
2005	 4.23864437335053E-03 
2006	 5.11052505715652E-03 
2007	 2.5235247128484E-03 
2008	 5.02133450079569E-03 
2009	 5.16003729720434E-03 
2010	 3.74273454586715E-03 
2011	 4.05628276919993E-03 
2012	 5.26611693834723E-03 
2013	 4.45450355860776E-03 
2014	 4.6829174254065E-03 
2015	 4.88984552619917E-03 
2016	 3.33705131693583E-03 
2017	 2.40578078468605E-03 
2018	 0.003034067455342 
2019	 4.31269321771567E-03 
2020	 7.87243406956718E-03 
2021	 9.12449582830631E-03 
2022	 7.2570062833088E-03 
2023	 8.3138072690768E-03 
2024	 8.96003495164091E-03 
2025	 8.73919575322796E-03 
2026	 8.65913906828227E-03 
2027	 9.76480851273202E-03 
2028	 9.5231057491898E-03 
2029	 8.38488654434113E-03 
2030	 8.5250311785624E-03 
2031	 8.22492443254441E-03 
2032	 7.84658546010464E-03 
2033	 7.99262420978549E-03 
2034	 7.99098563261255E-03 
2035	 8.9346642989425E-03 
2036	 9.95105705403357E-03 
2037	 1.00120116126743E-02 
2038	 9.82759296781804E-03 
2039	 9.85312682547485E-03 
2040	 9.70761018841125E-03 
2041	 9.67734583662081E-03 
2042	 9.78963886713132E-03 
2043	 9.96425766450742E-03 
2044	 1.03619352806723E-02 
2045	 1.00077923206423E-02 
2046	 9.47958526597197E-03 
2047	 9.99860022839565E-03 
2048	 1.10429063042872E-02 
2049	 1.16814964508775E-02 
2050	 1.15382303428389E-02 
2051	 1.09085331995874E-02 
2052	 9.79282172049264E-03 
2053	 8.44085076445178E-03 
2054	 8.59499971019247E-03 
2055	 8.96478160975578E-03 
2056	 9.23457964619261E-03 
2057	 9.49660885101497E-03 
2058	 9.9465024920635E-03 
2059	 1.05166217214092E-02 
2060	 1.09008914313014E-02 
2061	 1.13331910398615E-02 
2062	 1.15388014410825E-02 
2063	 1.04723822508367E-02 
2064	 1.07303948142953E-02 
2065	 1.17890476458481E-02 
2066	 1.05709091423948E-02 
2067	 1.14212207350048E-02 
2068	 1.32628892434069E-02 
2069	 1.27226915524718E-02 
2070	 1.27531734523987E-02 
2071	 1.30102251238319E-02 
2072	 1.26951211359199E-02 
2073	 0.012450651853328 
2074	 1.24814361007015E-02 
2075	 0.012775677168715 
2076	 1.29315016357761E-02 
2077	 1.27423673356298E-02 
2078	 1.28538854839113E-02 
2079	 1.30670486425132E-02 
2080	 1.30204773269972E-02 
2081	 1.27507916262448E-02 
2082	 1.28803364116205E-02 
2083	 1.32271235679967E-02 
2084	 1.32623202841795E-02 
2085	 1.33386278539124E-02 
2086	 1.32839662071194E-02 
2087	 1.28126981970757E-02 
2088	 1.22733967785652E-02 
2089	 1.22855432009002E-02 
2090	 1.27729831641011E-02 
2091	 1.31221929163041E-02 
2092	 1.37299954640656E-02 
2093	 1.46695187924687E-02 
2094	 1.47587439492119E-02 
2095	 0.014767809823983 
2096	 1.47292577996704E-02 
2097	 1.38936691394916E-02 
2098	 1.38758679406339E-02 
2099	 0.014288464114504 
2100	 1.46281849063565E-02 
2101	 1.53762052520605E-02 
2102	 1.52984474045102E-02 
2103	 1.49882907530158E-02 
2104	 0.015659298023498 
2105	 1.59100545892069E-02 
2106	 1.59702934496063E-02 
2107	 1.62899915807057E-02 
2108	 1.59095695197351E-02 
2109	 0.015712742050948 
2110	 1.59613224220333E-02 
2111	 0.016312577450353 
2112	 1.66855711165651E-02 
2113	 1.67268375448154E-02 
2114	 1.63923274740423E-02 
2115	 1.61326314271553E-02 
2116	 1.54471955438426E-02 
2117	 1.56977428188309E-02 
2118	 1.68578188261623E-02 
2119	 1.69309818515177E-02 
2120	 1.69023472963162E-02 
2121	 1.67939812650464E-02 
2122	 1.64381473753184E-02 
2123	 1.69142653793202E-02 
2124	 1.79298840480387E-02 
2125	 1.83708256364788E-02 
2126	 1.75584194252953E-02 
2127	 1.68000622985279E-02 
2128	 1.70943040141526E-02 
2129	 0.01696347886857 
2130	 1.80379984947562E-02 
2131	 1.94563344325346E-02 
2132	 1.96365258495009E-02 
2133	 2.05738387422236E-02 
2134	 2.02350287833185E-02 
2135	 1.82508267396975E-02 
2136	 1.74430093988261E-02 
2137	 0.016201459806439 
2138	 1.56501752698881E-02 
2139	 1.62318969059024E-02 
2140	 1.62251418442158E-02 
2141	 1.61322566951579E-02 
2142	 0.01631595556042 
2143	 1.67634437468726E-02 
2144	 1.63962163802183E-02 
2145	 1.64343768976365E-02 
2146	 1.70598997745571E-02 
2147	 1.80042582169426E-02 
2148	 0.019422700465879 
2149	 1.99497437600773E-02 
2150	 2.00767813174323E-02 
2151	 2.02160104633399E-02 
2152	 2.02547579334027E-02 
2153	 2.01165320570192E-02 
2154	 1.96774886936739E-02 
2155	 1.88800898903578E-02 
2156	 1.79821787304007E-02 
2157	 1.78686825391717E-02 
2158	 1.91640351688348E-02 
2159	 1.92683887807042E-02 
2160	 1.90201920254818E-02 
2161	 1.88942996704802E-02 
2162	 1.82770276057969E-02 
2163	 1.80312281401766E-02 
2164	 0.018149631659811 
2165	 1.81654233890095E-02 
2166	 1.80033323786864E-02 
2167	 1.82565778308702E-02 
2168	 1.88758939933293E-02 
2169	 1.91532219028177E-02 
2170	 1.94717579740479E-02 
2171	 1.98577395899777E-02 
2172	 1.92434043424448E-02 
2173	 2.00835506371349E-02 
2174	 2.04262963638677E-02 
2175	 1.96988503265435E-02 
2176	 0.019852822650363 
2177	 1.93495625415475E-02 
2178	 1.94855471195814E-02 
2179	 0.020427926130438 
2180	 2.12909226887775E-02 
2181	 2.19492747584108E-02 
2182	 2.18486391686592E-02 
2183	 2.12255625091177E-02 
2184	 2.02128624915785E-02 
2185	 1.99901910670944E-02 
2186	 1.98115758946852E-02 
2187	 1.97256573176263E-02 
2188	 0.019688645552292 
2189	 1.99740165300972E-02 
2190	 2.00552454441493E-02 
2191	 2.01152263336664E-02 
2192	 2.00598025653737E-02 
2193	 0.020491688284722 
2194	 2.02588845630314E-02 
2195	 1.85788120189132E-02 
2196	 1.84683235178345E-02 
2197	 1.85871524746297E-02 
2198	 1.90013460250152E-02 
2199	 2.09866659424783E-02 
2200	 2.24311078388231E-02 
2201	 2.11551379765634E-02 
2202	 2.12099650323272E-02 
2203	 2.11025261718871E-02 
2204	 2.16313981025895E-02 
2205	 0.021412249834419 
2206	 2.10897744638187E-02 
2207	 2.16815003756838E-02 
2208	 1.92125295234545E-02 
2209	 0.018342015356457 
2210	 1.88902346800032E-02 
2211	 1.79665320273976E-02 
2212	 1.83540809961782E-02 
2213	 1.87902586744979E-02 
2214	 0.019556900499517 
2215	 1.94492240605652E-02 
2216	 1.79914806665931E-02 
2217	 1.71538746563016E-02 
2218	 0.015714304629988 
2219	 0.015704489382671 
2220	 1.72385538663782E-02 
2221	 1.78892614518277E-02 
2222	 1.91043015965711E-02 
2223	 1.95050953004617E-02 
2224	 1.82886573689114E-02 
2225	 1.78552744392728E-02 
2226	 1.76820511988241E-02 
2227	 1.80870591190883E-02 
2228	 0.019786247833657 
2229	 2.03484866617635E-02 
2230	 2.03534562151358E-02 
2231	 2.07893011231747E-02 
2232	 2.06754988500223E-02 
2233	 1.97616004272137E-02 
2234	 1.75279942209189E-02 
2235	 1.92734657361802E-02 
2236	 1.90021901654938E-02 
2237	 1.71856863563912E-02 
2238	 1.81848932767334E-02 
2239	 1.85006348533007E-02 
2240	 0.018483622264093 
2241	 2.10722291871712E-02 
2242	 2.10410631108562E-02 
2243	 1.82592412418698E-02 
2244	 1.79156445191557E-02 
2245	 1.90189651255449E-02 
2246	 2.00923948671504E-02 
2247	 2.10053482052042E-02 
2248	 2.01445979064629E-02 
2249	 1.73114237707776E-02 
2250	 1.69540734574545E-02 
2251	 1.92666968698311E-02 
2252	 2.01741217123956E-02 
2253	 2.11745927015569E-02 
2254	 2.21521708826719E-02 
2255	 2.10536119207582E-02 
2256	 2.06321105222638E-02 
2257	 1.97312109779591E-02 
2258	 0.01688682288 
2259	 1.60623731209692E-02 
2260	 0.015465499447799 
2261	 1.50272986284354E-02 
2262	 1.55596523095567E-02 
2263	 1.78353523758182E-02 
2264	 1.75576466537171E-02 
2265	 1.64430822376653E-02 
2266	 1.68216012042176E-02 
2267	 1.65906159997224E-02 
2268	 1.65779301196872E-02 
2269	 1.77442167781815E-02 
2270	 0.018261215385784 
2271	 1.84406652111726E-02 
2272	 0.018561888916501 
2273	 1.95401309003829E-02 
2274	 1.95996376657274E-02 
2275	 0.016165877360058 
2276	 1.59728883841539E-02 
2277	 1.96052135056617E-02 
2278	 1.95520104899983E-02 
2279	 1.89833197404486E-02 
2280	 1.94165019857134E-02 
2281	 1.88624714637055E-02 
2282	 1.66364531134337E-02 
2283	 1.46826275860205E-02 
2284	 1.33651821561886E-02 
2285	 1.18178629286798E-02 
2286	 9.3871311086736E-03 
2287	 1.17156553423163E-02 
2288	 1.50263139015424E-02 
2289	 1.57333055707857E-02 
2290	 1.45780517647152E-02 
2291	 1.23166217094677E-02 
2292	 1.24484151969534E-02 
2293	 1.10698441177128E-02 
2294	 1.16483871620698E-02 
2295	 1.52559845130043E-02 
2296	 1.34337487037952E-02 
2297	 1.01935004910904E-02 
2298	 9.82068195595406E-03 
2299	 1.10147286165546E-02 
2300	 1.07309644691446E-02 
2301	 1.02178713870766E-02 
2302	 1.00156410440403E-02 
2303	 0.007105738264584 
2304	 7.99443421215655E-03 
2305	 1.30130255850814E-02 
2306	 1.28535560833186E-02 
2307	 1.01625687514072E-02 
2308	 9.12784024390665E-03 
2309	 9.10403049015967E-03 
2310	 1.24222944375686E-02 
2311	 1.17686675965824E-02 
2312	 1.10929182336811E-02 
2313	 1.18384610240334E-02 
2314	 7.77511408308524E-03 
2315	 1.18086322952471E-02 
2316	 1.35333183691773E-02 
2317	 7.77983778862593E-03 
2318	 1.01177317002776E-02 
2319	 1.11146372645284E-02 
2320	 1.01285309616971E-02 
2321	 1.19426735135582E-02 
2322	 1.24963031564767E-02 
2323	 1.25167556683411E-02 
2324	 1.28129413221164E-02 
2325	 1.36664959577067E-02 
2326	 7.93910105158278E-03 
2327	 2.39891925766311E-03 
2328	 2.23619154166736E-03 
2329	 1.40738488743329E-03 
2330	 9.40770751932067E-03 
2331	 2.02829625327787E-02 
2332	 1.97778629387418E-02 
2333	 0.015992103222363 
2334	 1.54572959323288E-02 
2335	 1.70247874773425E-02 
2336	 1.70545080359409E-02 
2337	 1.73440068297242E-02 
2338	 2.10293303451166E-02 
2339	 1.72409201165527E-02 
2340	 0.015931806628921 
2341	 1.89896870677354E-02 
2342	 1.09098912106463E-02 
2343	 1.31914270093931E-02 
2344	 1.88723394581954E-02 
2345	 1.40506928095246E-02 
2346	 1.75833982251181E-02 
2347	 1.21961489915423E-02 
2348	 2.78177571987415E-03 
2349	 2.80711085724613E-05 
2350	-1.19692723648969E-02 
2351	-1.18650299988612E-02 
2352	-1.23990153052276E-03 
2353	-7.67460846230217E-04 
2354	 1.85907192170249E-03 
2355	 6.41489417657812E-03 
2356	 4.98707735006677E-03 
2357	 6.35436504400366E-03 
2358	 9.51235803752879E-03 
2359	-6.70112839028586E-04 
2360	-2.34020932173986E-02 
2361	-3.19183510948453E-02 
2362	-2.09494962266139E-02 
2363	-1.29763297840469E-02 
2364	 4.28341707472117E-03 
2365	 2.65436503393831E-02 
2366	 2.01555544118628E-02 
2367	 1.64403206624373E-02 
2368	 3.42367461746837E-02 
2369	 2.85681577971789E-02 
2370	 1.95524294352942E-02 
2371	 3.81201117319133E-02 
2372	 2.42597386815166E-02 
2373	-2.13924056923866E-04 
2374	 1.00767159323959E-02 
2375	-2.40490839944573E-03 
2376	-1.99634217540519E-02 
2377	-1.21380974722327E-02 
2378	-1.39252944388165E-02 
2379	-2.88906212467662E-02 
2380	-4.80515667833536E-02 
2381	-0.059108469609365 
2382	-5.94596547667852E-02 
2383	-5.27644635683288E-02 
2384	-5.35257998921882E-02 
2385	-5.12189634855482E-02 
2386	-4.04499782328891E-02 
2387	-4.94742029579595E-02 
2388	-5.94062147596092E-02 
2389	-5.45036413658782E-02 
2390	-4.23929616357506E-02 
2391	-2.95513842482904E-02 
2392	 8.30193984589374E-03 
2393	 4.63943834724026E-02 
2394	 4.97712216818483E-02 
2395	 5.05520390827245E-02 
2396	 3.20896767420303E-02 
2397	-2.09531298321512E-03 
2398	-2.60020566305782E-02 
2399	-3.68366418959272E-02 
2400	-1.10169260098662E-02 
2401	 1.70780370753271E-02 
2402	-1.47034209133138E-02 
2403	-4.92047597988658E-02 
2404	-4.91695426755183E-02 
2405	-0.045241437845733 
2406	-3.77664988657617E-03 
2407	-8.42265606478737E-03 
2408	-0.023611071790459 
2409	 2.43459369270628E-02 
2410	 1.96268949200536E-02 
2411	 4.06616678763138E-02 
2412	 1.13492589221539E-02 
2413	-0.148894710494056 
2414	-0.193595069778243 
2415	-8.80359119183774E-02 
2416	-5.08759725691148E-02 
2417	-7.15626560729864E-02 
2418	-0.098014502186002 
2419	-0.173001163342334 
2420	-0.137489643006201 
2421	-4.28278913800729E-02 
2422	-4.98217787096002E-02 
2423	-1.43600250295295E-02 
2424	-3.82479620656951E-02 
2425	-8.92215661071818E-02 
2426	-5.46630714179027E-02 
2427	-9.18640804884945E-02 
2428	-0.177977364806213 
2429	-0.129440379907858 
2430	-9.46100490127063E-02 
2431	-7.49095175496878E-02 
2432	 7.32426160933699E-02 
2433	 4.70963941407113E-02 
2434	-4.15947582539459E-02 
2435	-6.49682962345198E-02 
2436	-0.134396731032703 
2437	-0.147530450634952 
2438	-0.137966824923935 
2439	-0.125977534014018 
2440	 0.011937976765056 
2441	 6.37845981727145E-02 
2442	 0.109284039217149 
2443	 0.191534266953242 
2444	 0.117808501351447 
2445	 0.116951094291765 
2446	 0.163858170896739 
2447	-0.107039467130157 
2448	-0.15571216063037 
2449	-9.87090139321647E-02 
2450	-7.00764193476709E-02 
2451	 0.205202879525102 
2452	 0.104989085040412 
2453	 8.36882354644678E-02 
2454	 0.159323468385968 
2455	 0.174596480628423 
2456	 0.134077875857911 
2457	 0.154332083980328 
2458	 0.246836208416759 
2459	 0.125679076305361 
2460	-4.43821973445044E-03 
2461	-9.74589381888825E-02 
2462	-0.623927343708299 
2463	-1.84794473803617 
2464	-2.56421262525155 
2465	-9.46259208880367 
2466	-2.62389098518147 
2467	-0.951372863093667 
2468	-0.525365502056925 
2469	 0.072595147973927 
2470	 4.00480729197561E-02 
2471	 0.590802410043284 
2472	 1.01246961421635 
2473	 0.339363978631669 
2474	-0.231188524102714 
2475	-1.20591743655571 
2476	-0.471963500152369 
2477	-4.16083620322378E-02 
2478	 0.477217635283496 
2479	 1.79284254072623 
2480	 1.47689787049242 
2481	 1.30195597892961 
2482	 20.1048022133951 
2483	 1.07544130821367 
2484	-6.98552717715264 
2485	-0.424115952215892 
2486	 0.149676260147748 
2487	 0.719492325171206 
2488	 0.93218165914742 
2489	 1.46268817262927 
2490	 1.33850431991486 
2491	 0.818966584760778 
2492	 1.06753826692551 
2493	 9.99331234686036 
2494	-5.76018761595583 
2495	 3.22781649682993 
2496	 2.8231669632771 
2497	 2.7554661855472 
2498	 1.93792611745685 
2499	-371.189788842434 
2500	-0.696107374198783 
