Wavelength	rt0708c00006.asd
350	 8.79395225388919E-02 
351	 8.71577710531228E-02 
352	 0.087215433235359 
353	 8.75540701540977E-02 
354	 8.74969785389882E-02 
355	 8.68073428888267E-02 
356	 8.73768749965865E-02 
357	 8.75528233510854E-02 
358	 8.59732996516672E-02 
359	 0.087482764725605 
360	 8.78153116100492E-02 
361	 8.68330382416997E-02 
362	 8.71625244741746E-02 
363	 8.72630011889545E-02 
364	 8.70289356574866E-02 
365	 8.67699677616684E-02 
366	 0.087163436516223 
367	 8.71640197122803E-02 
368	 8.70103790240793E-02 
369	 8.71026150259635E-02 
370	 8.71277430872952E-02 
371	 8.72044691159651E-02 
372	 8.73140994549856E-02 
373	 8.74125825005493E-02 
374	 8.79700264182432E-02 
375	 8.83537824864896E-02 
376	 8.85270288761113E-02 
377	 8.93806759431287E-02 
378	 8.91436679981381E-02 
379	 8.86874683515826E-02 
380	 8.90471495790887E-02 
381	 8.97854194042614E-02 
382	 8.99263644039212E-02 
383	 9.00358521484801E-02 
384	 9.10800596266382E-02 
385	 9.11196598807894E-02 
386	 9.08969958694517E-02 
387	 9.09084574635343E-02 
388	 9.11036320146803E-02 
389	 9.12704909290339E-02 
390	 9.14075596331673E-02 
391	 9.14913212775516E-02 
392	 9.12243384242595E-02 
393	 9.17813093737392E-02 
394	 9.24979908387121E-02 
395	 9.23543535044296E-02 
396	 9.23624827449348E-02 
397	 9.20649201819108E-02 
398	 9.16145863120497E-02 
399	 9.16826315700509E-02 
400	 0.091440914492864 
401	 9.14084089695748E-02 
402	 9.17854167137467E-02 
403	 9.15696547091506E-02 
404	 0.09180957686877 
405	 9.22989387474671E-02 
406	 9.24707758256561E-02 
407	 9.26001375859529E-02 
408	 9.26018007756754E-02 
409	 9.25047580087573E-02 
410	 0.092462376914986 
411	 0.092558517055561 
412	 9.27989453949069E-02 
413	 9.30421398715131E-02 
414	 9.28014354364027E-02 
415	 0.09281234089393 
416	 9.30360677860741E-02 
417	 9.31500007254014E-02 
418	 9.32619622629349E-02 
419	 9.32328220113963E-02 
420	 9.31900973149993E-02 
421	 9.35306589615205E-02 
422	 9.35426287983897E-02 
423	 0.093569939600017 
424	 9.39237050915072E-02 
425	 9.42161237611107E-02 
426	 0.094471391447474 
427	 9.45628594648791E-02 
428	 9.44016688941569E-02 
429	 9.45910481483406E-02 
430	 9.47839509212141E-02 
431	 9.48307556555158E-02 
432	 9.49203746059783E-02 
433	 9.48306385650135E-02 
434	 9.46828712006483E-02 
435	 9.46421726271499E-02 
436	 9.47613983305255E-02 
437	 9.50724705174864E-02 
438	 0.095409815974676 
439	 9.55515775138562E-02 
440	 9.58221360373514E-02 
441	 0.096028932621506 
442	 0.096074163253376 
443	 9.60716207608225E-02 
444	 9.61766348256431E-02 
445	 9.63108489569633E-02 
446	 9.63737502300545E-02 
447	 0.096458739409359 
448	 9.66440500200255E-02 
449	 9.68602262330668E-02 
450	 9.69445400113155E-02 
451	 9.70034302429974E-02 
452	 9.70762779009709E-02 
453	 9.72121665324232E-02 
454	 9.75204573875823E-02 
455	 9.77061133928044E-02 
456	 9.76441286555817E-02 
457	 9.74027782906325E-02 
458	 9.76266725716653E-02 
459	 9.77596426874221E-02 
460	 9.76725326857417E-02 
461	 9.77192342247739E-02 
462	 0.097837210544017 
463	 9.79590735428395E-02 
464	 9.80411086955039E-02 
465	 9.81114019542386E-02 
466	 9.82851011559066E-02 
467	 9.84149619248677E-02 
468	 9.82957219606882E-02 
469	 9.83239721660811E-02 
470	 9.84484536153277E-02 
471	 0.098551105251703 
472	 9.84853927975513E-02 
473	 0.098635972976476 
474	 9.88605582034868E-02 
475	 9.89398809952054E-02 
476	 9.88877722780178E-02 
477	 9.90201649489805E-02 
478	 9.92007291447231E-02 
479	 9.90531594122956E-02 
480	 0.099237194765227 
481	 9.95588058968491E-02 
482	 9.98318390353533E-02 
483	 0.100131066983573 
484	 0.100362130987679 
485	 0.100464585621131 
486	 0.10043973281561 
487	 0.100487267967441 
488	 0.100532692970179 
489	 0.100583383898796 
490	 0.100735795861107 
491	 0.100951155275233 
492	 0.101256207849373 
493	 0.1016007008076 
494	 0.101681866931982 
495	 0.101866091926685 
496	 0.102157526147885 
497	 0.102399725239035 
498	 0.102778500124388 
499	 0.103154235439547 
500	 0.103398823182059 
501	 0.103444926932137 
502	 0.103704893819771 
503	 0.104015845565897 
504	 0.10415432500799 
505	 0.104379330921226 
506	 0.104651154726794 
507	 0.10494068792044 
508	 0.10523031905825 
509	 0.105492714017669 
510	 0.105722798840193 
511	 0.105958367622858 
512	 0.106325231323225 
513	 0.106774207635932 
514	 0.107308868473901 
515	 0.107889049927763 
516	 0.108130770050137 
517	 0.108204660983879 
518	 0.10826781685322 
519	 0.108382090622695 
520	 0.108707363158093 
521	 0.109168723606564 
522	 0.109650005463073 
523	 0.110096291743154 
524	 0.110607131690359 
525	 0.111138546228571 
526	 0.111546857731226 
527	 0.111756154282497 
528	 0.11196025779508 
529	 0.112337285645958 
530	 0.113000829732462 
531	 0.113556290721384 
532	 0.113990448238445 
533	 0.114426643664231 
534	 0.114808731003544 
535	 0.11534797787004 
536	 0.116025317417883 
537	 0.116551475492822 
538	 0.117184268228884 
539	 0.117846793159611 
540	 0.118382327825361 
541	 0.118605875171149 
542	 0.119019522292752 
543	 0.119620881571692 
544	 0.120101833374246 
545	 0.120576226754476 
546	 0.12099218605471 
547	 0.121317373755256 
548	 0.121575953781299 
549	 0.121928675265604 
550	 0.122340393850223 
551	 0.122721817165061 
552	 0.123144223832314 
553	 0.123565925779757 
554	 0.123962474835434 
555	 0.12433451957773 
556	 0.124809053441066 
557	 0.125166378016517 
558	 0.125241117087046 
559	 0.125340703213595 
560	 0.125267047049535 
561	 0.125136718787783 
562	 0.125227077073021 
563	 0.125334311154547 
564	 0.125370944241511 
565	 0.125296008837166 
566	 0.125105205967391 
567	 0.125085290028092 
568	 0.12522241395069 
569	 0.125374862279177 
570	 0.125442830334243 
571	 0.125511634580878 
572	 0.125714786402258 
573	 0.126208184807349 
574	 0.126461803289668 
575	 0.126565857381413 
576	 0.126702945473927 
577	 0.126859963958081 
578	 0.126832891714743 
579	 0.126708693454715 
580	 0.126749340063927 
581	 0.12695413685181 
582	 0.127264513515336 
583	 0.127589774371264 
584	 0.127799989978248 
585	 0.127918340472708 
586	 0.128093845806484 
587	 0.128388813194581 
588	 0.128121026936909 
589	 0.127391347801977 
590	 0.126564127148452 
591	 0.126106167616566 
592	 0.125727075176582 
593	 0.125256869047973 
594	 0.124611013302875 
595	 0.123834229959471 
596	 0.123149104861865 
597	 0.122508439600819 
598	 0.121736513792393 
599	 0.121045282113834 
600	 0.120358136373956 
601	 0.119674273876476 
602	 0.119177624590752 
603	 0.11879117835613 
604	 0.118523268750562 
605	 0.118397721868425 
606	 0.11839904196509 
607	 0.118356596186988 
608	 0.11822077909648 
609	 0.118078524791903 
610	 0.118014872228029 
611	 0.117934173107903 
612	 0.11778907512493 
613	 0.117806454100769 
614	 0.117785830481813 
615	 0.117665506120763 
616	 0.117475112348561 
617	 0.117269145038378 
618	 0.117091737245424 
619	 0.116971965238788 
620	 0.116929423942914 
621	 0.116922930243795 
622	 0.116882754562779 
623	 0.116765155788542 
624	 0.116684724397998 
625	 0.116625010813665 
626	 0.116598346207753 
627	 0.116634187635742 
628	 0.11643033987635 
629	 0.116185249431816 
630	 0.116070352473133 
631	 0.115904676271985 
632	 0.115919537585471 
633	 0.115934061241208 
634	 0.115650605855996 
635	 0.115528793449747 
636	 0.115380719008811 
637	 0.115173567036236 
638	 0.115186599019417 
639	 0.115027474088725 
640	 0.114790470642353 
641	 0.114649880435876 
642	 0.114462706960415 
643	 0.114311163630547 
644	 0.114219582184364 
645	 0.114150607816574 
646	 0.11389341781202 
647	 0.113602604822399 
648	 0.113374073579169 
649	 0.112969976284131 
650	 0.11270530083303 
651	 0.112511844245682 
652	 0.11220584937004 
653	 0.111846935899202 
654	 0.111621709843215 
655	 0.111306226398553 
656	 0.110196040593595 
657	 0.109499645750037 
658	 0.109091637929096 
659	 0.108675901991827 
660	 0.108425776549063 
661	 0.108246238069115 
662	 0.108013991867313 
663	 0.107630395997321 
664	 0.107402452734725 
665	 0.107197682473548 
666	 0.106913897282418 
667	 0.106602976836183 
668	 0.106409336245846 
669	 0.106331546164713 
670	 0.106293561149035 
671	 0.10614362828512 
672	 0.106078624922462 
673	 0.106083721901199 
674	 0.105944916453188 
675	 0.105804983257192 
676	 0.105781166167361 
677	 0.105848551163179 
678	 0.105635484853107 
679	 0.105405066825172 
680	 0.105346951202312 
681	 0.105532552880933 
682	 0.105473026569683 
683	 0.105401025558718 
684	 0.105509581508612 
685	 0.105882244369537 
686	 0.106045022663107 
687	 0.105861468070559 
688	 0.105536944223302 
689	 0.105703809390466 
690	 0.105597272535777 
691	 0.105291166134923 
692	 0.105316173119159 
693	 0.105354083874589 
694	 0.105037424722768 
695	 0.104415276880649 
696	 0.104111834876957 
697	 0.103729430897651 
698	 0.103325783725077 
699	 0.10301425449734 
700	 0.102400464537207 
701	 0.101728078148616 
702	 0.10105670099328 
703	 0.100265293015717 
704	 9.95428297454473E-02 
705	 9.88220995321075E-02 
706	 9.80127162568443E-02 
707	 9.70034761690885E-02 
708	 9.59727927340763E-02 
709	 9.49134950508814E-02 
710	 9.37742369550027E-02 
711	 9.26956454814913E-02 
712	 9.15599808852602E-02 
713	 9.02873671660972E-02 
714	 8.88305749739769E-02 
715	 8.76964048754768E-02 
716	 8.67457181340975E-02 
717	 0.085757926223893 
718	 8.45430562258301E-02 
719	 8.29386478851238E-02 
720	 8.13480557331565E-02 
721	 7.99812632830384E-02 
722	 7.91556727150492E-02 
723	 7.82085881389729E-02 
724	 7.69736782321962E-02 
725	 7.58028785715517E-02 
726	 7.46725630748271E-02 
727	 7.34419229618978E-02 
728	 7.20856897663845E-02 
729	 7.09453560386099E-02 
730	 6.97731786697728E-02 
731	 6.85123550029421E-02 
732	 6.72174355403776E-02 
733	 6.63390691636738E-02 
734	 6.57714775582822E-02 
735	 6.53106693875477E-02 
736	 6.46500991715812E-02 
737	 6.42831597521587E-02 
738	 6.40717206730108E-02 
739	 6.38206546658079E-02 
740	 6.36438123539662E-02 
741	 0.063396752161176 
742	 6.31535894114922E-02 
743	 6.30592441507317E-02 
744	 6.28509026977764E-02 
745	 6.26607889282663E-02 
746	 6.25874013865923E-02 
747	 6.26278168534452E-02 
748	 6.25128750801607E-02 
749	 6.23479934404182E-02 
750	 6.22813115824293E-02 
751	 6.22615609090491E-02 
752	 6.21062808302185E-02 
753	 6.19143826867775E-02 
754	 6.18862646380369E-02 
755	 6.17025254777055E-02 
756	 6.11789603966951E-02 
757	 0.060463099969745 
758	 0.060139944396709 
759	 6.19230314198526E-02 
760	 0.06439290714113 
761	 6.35599919137154E-02 
762	 6.36310525573625E-02 
763	 0.063485608035315 
764	 6.31486103316122E-02 
765	 6.28700320152414E-02 
766	 6.22233118856736E-02 
767	 6.16781180114747E-02 
768	 6.14055042004943E-02 
769	 6.13303027080311E-02 
770	 6.12420977911351E-02 
771	 6.10952328604639E-02 
772	 6.09416954075629E-02 
773	 6.09857663397967E-02 
774	 6.10421488975101E-02 
775	 6.10337000143246E-02 
776	 6.09699426572223E-02 
777	 0.061058564966314 
778	 6.11243863764433E-02 
779	 6.11087238519551E-02 
780	 6.10999058955648E-02 
781	 6.11000361997226E-02 
782	 6.12070063521604E-02 
783	 0.061397158379928 
784	 6.13295484154053E-02 
785	 0.061424303224073 
786	 6.15834949220214E-02 
787	 6.15891068344518E-02 
788	 6.16406895326311E-02 
789	 6.17861992523597E-02 
790	 6.20021041056172E-02 
791	 6.21937139220332E-02 
792	 6.21076835349998E-02 
793	 6.20890454866422E-02 
794	 6.22965246660884E-02 
795	 6.24525812349467E-02 
796	 6.25400239311513E-02 
797	 6.25411491360693E-02 
798	 6.24812906321699E-02 
799	 6.24594137384887E-02 
800	 6.26003836105719E-02 
801	 0.062832356189553 
802	 6.29577584003699E-02 
803	 6.28215137958658E-02 
804	 6.26899959754881E-02 
805	 6.26234486950653E-02 
806	 6.24161838512709E-02 
807	 6.21034643548097E-02 
808	 0.062030355469367 
809	 6.22476500179242E-02 
810	 6.18959795159453E-02 
811	 6.14078611368759E-02 
812	 6.12216941432012E-02 
813	 6.16470393224289E-02 
814	 0.061883935482314 
815	 6.21582713696744E-02 
816	 0.062232288386548 
817	 6.16285083679753E-02 
818	 6.10734248053339E-02 
819	 6.01697591767516E-02 
820	 5.92317891809313E-02 
821	 5.96938197617379E-02 
822	 6.01051235262029E-02 
823	 0.059538619093117 
824	 5.79832282530311E-02 
825	 5.65185426205414E-02 
826	 5.61438043147183E-02 
827	 5.62657938066835E-02 
828	 5.57393000376345E-02 
829	 5.48268910267246E-02 
830	 5.42059699625186E-02 
831	 5.40825002912001E-02 
832	 5.41810002627184E-02 
833	 5.34745675804888E-02 
834	 5.28230893850729E-02 
835	 5.26460400902277E-02 
836	 5.24833211439418E-02 
837	 5.22391188225015E-02 
838	 5.19711122850723E-02 
839	 5.17432954960522E-02 
840	 5.14865973928953E-02 
841	 5.15406522265596E-02 
842	 5.15440461008868E-02 
843	 5.10652011696518E-02 
844	 5.06265011433471E-02 
845	 5.04208233468316E-02 
846	 5.03463015344801E-02 
847	 5.01514058334719E-02 
848	 5.02045409822094E-02 
849	 0.050175081680268 
850	 4.99072862782346E-02 
851	 4.95912323883833E-02 
852	 4.99335155900688E-02 
853	 5.01906898346934E-02 
854	 4.98980776767439E-02 
855	 4.98892793658579E-02 
856	 0.049447159599634 
857	 4.90310744001686E-02 
858	 4.91063227612831E-02 
859	 4.90210166790574E-02 
860	 4.89410135012177E-02 
861	 4.86764878093018E-02 
862	 4.80965661710312E-02 
863	 4.85042120144308E-02 
864	 4.87424136235304E-02 
865	 4.86341778942162E-02 
866	 4.89135619667559E-02 
867	 4.83064156248951E-02 
868	 4.76094110102987E-02 
869	 4.73855436695118E-02 
870	 0.047501640427982 
871	 4.76311222841036E-02 
872	 4.76058236675484E-02 
873	 4.73616627664906E-02 
874	 4.69258676285368E-02 
875	 4.68376220906835E-02 
876	 4.69748050160533E-02 
877	 4.70048626807125E-02 
878	 4.67436043892653E-02 
879	 4.63551785596953E-02 
880	 4.61297662692404E-02 
881	 4.62317438000447E-02 
882	 4.58864434534324E-02 
883	 4.56238456632199E-02 
884	 4.56284758139128E-02 
885	 0.045696426339624 
886	 4.52319692441573E-02 
887	 4.47640135046347E-02 
888	 0.044587447008698 
889	 4.45447735787795E-02 
890	 4.41776553069907E-02 
891	 4.40134541462715E-02 
892	 4.41600753168023E-02 
893	 0.043606668473442 
894	 4.38865946918566E-02 
895	 4.45163920828935E-02 
896	 4.48030385705116E-02 
897	 4.54684813282712E-02 
898	 4.57445115721262E-02 
899	 4.55038613815484E-02 
900	 4.49699640994177E-02 
901	 4.45160681908125E-02 
902	 4.34363618486835E-02 
903	 4.24393864659501E-02 
904	 4.24675399674134E-02 
905	 4.28495989891293E-02 
906	 0.043146772154304 
907	 4.34341533268323E-02 
908	 4.39182872380232E-02 
909	 4.28603890075875E-02 
910	 0.04212005942655 
911	 4.25563023422834E-02 
912	 4.35682520609569E-02 
913	 4.36103479850016E-02 
914	 4.35050319330442E-02 
915	 4.36500824303837E-02 
916	 0.043537191278525 
917	 4.22522573434435E-02 
918	 4.15115842683842E-02 
919	 4.16489330862696E-02 
920	 4.08196583683351E-02 
921	 4.05305564594775E-02 
922	 4.01413991864913E-02 
923	 3.92410858043671E-02 
924	 3.87458037593627E-02 
925	 3.89775649787014E-02 
926	 3.90199310966639E-02 
927	 3.84255763909629E-02 
928	 4.03111219684607E-02 
929	 4.01045414332726E-02 
930	 3.99665990790365E-02 
931	 0.045139197620124 
932	 5.04298015498669E-02 
933	 4.95066530737464E-02 
934	 4.42025828223069E-02 
935	 4.17893334730634E-02 
936	 4.39235945138016E-02 
937	 4.10602543734024E-02 
938	 3.99887055794164E-02 
939	 4.62632527931489E-02 
940	 4.16088235169111E-02 
941	 0.036835722205408 
942	 3.70724471252435E-02 
943	 4.27231066958195E-02 
944	 4.63996492582257E-02 
945	 4.33487310241073E-02 
946	 3.78685472008205E-02 
947	 3.80936801640121E-02 
948	 3.96324127265834E-02 
949	 4.06617861424814E-02 
950	 4.12926046613929E-02 
951	 4.21662581940917E-02 
952	 3.91000823476063E-02 
953	 3.93678507205548E-02 
954	 4.28356410436883E-02 
955	 4.37033433413989E-02 
956	 3.77308238023316E-02 
957	 3.90667292547826E-02 
958	 4.38184055727128E-02 
959	 3.84836123842161E-02 
960	 3.94963369764557E-02 
961	 4.02113176042609E-02 
962	 3.88330770031317E-02 
963	 3.82102218361129E-02 
964	 3.63734065872438E-02 
965	 3.71101124150823E-02 
966	 3.88410813109978E-02 
967	 0.036908551093972 
968	 3.55064516617863E-02 
969	 3.52210660208355E-02 
970	 3.55964660866585E-02 
971	 3.56724954390496E-02 
972	 3.56324301336053E-02 
973	 3.54497439073501E-02 
974	 3.57075702770884E-02 
975	 3.70336783805732E-02 
976	 3.53857506201236E-02 
977	 3.59055302426374E-02 
978	 3.76068861735196E-02 
979	 0.034873162993697 
980	 3.54178871644998E-02 
981	 3.60480617062577E-02 
982	 3.59522322526601E-02 
983	 3.66390873674011E-02 
984	 3.43066390418923E-02 
985	 3.34883715516209E-02 
986	 3.48941109615135E-02 
987	 3.55254564232096E-02 
988	 3.38848526628305E-02 
989	 3.28228480844904E-02 
990	 3.36511737515258E-02 
991	 3.55833160985534E-02 
992	 3.53397246645957E-02 
993	 3.50805239614635E-02 
994	 3.50802382012856E-02 
995	 3.43474760558949E-02 
996	 3.48674197588891E-02 
997	 3.50578416379959E-02 
998	 3.50580028192973E-02 
999	 3.58266770953037E-02 
1000	 3.56829858561494E-02 
1001	 1.85329725400488E-02 
1002	 1.81820796744431E-02 
1003	 1.80807223389158E-02 
1004	 1.81955117690093E-02 
1005	 1.81685092428284E-02 
1006	 1.80561180885276E-02 
1007	 1.81872681263683E-02 
1008	 1.81576046895523E-02 
1009	 1.83170805833097E-02 
1010	 1.87370596913403E-02 
1011	 1.88844690759332E-02 
1012	 1.90215248000363E-02 
1013	 1.91622835282519E-02 
1014	 1.91016921018801E-02 
1015	 1.87525523926175E-02 
1016	 1.86153312669243E-02 
1017	 1.83030919165264E-02 
1018	 0.018307273929981 
1019	 1.86465659794305E-02 
1020	 1.87092015654816E-02 
1021	 1.88740003400424E-02 
1022	 1.88832043123599E-02 
1023	 1.86419237294561E-02 
1024	 1.86625182189037E-02 
1025	 1.89919423321812E-02 
1026	 1.94432215873637E-02 
1027	 1.95607529731871E-02 
1028	 1.96785473060945E-02 
1029	 1.96738469743583E-02 
1030	 1.93289836160107E-02 
1031	 1.91824384239592E-02 
1032	 1.91259100535047E-02 
1033	 1.90531708951465E-02 
1034	 0.018967743018125 
1035	 1.88745571434847E-02 
1036	 1.86725711037026E-02 
1037	 0.018716537399723 
1038	 1.88784851742064E-02 
1039	 1.89999331805481E-02 
1040	 1.96270111007018E-02 
1041	 2.00569897448574E-02 
1042	 2.00073687106892E-02 
1043	 1.95579648173549E-02 
1044	 1.95328334525119E-02 
1045	 1.92381892595557E-02 
1046	 1.92034594142396E-02 
1047	 0.019612607967291 
1048	 1.97780890113854E-02 
1049	 1.97920423977469E-02 
1050	 1.98689225813188E-02 
1051	 2.01332450490496E-02 
1052	 0.020147024445843 
1053	 1.99322008685883E-02 
1054	 1.98011261328959E-02 
1055	 0.019450758692434 
1056	 1.93448329124966E-02 
1057	 1.93589682111135E-02 
1058	 1.95480220946244E-02 
1059	 1.96338993667048E-02 
1060	 1.98863283789878E-02 
1061	 1.99267214192093E-02 
1062	 1.97819175370871E-02 
1063	 1.97841574869997E-02 
1064	 1.97525265271941E-02 
1065	 0.019808572678491 
1066	 2.00500357027722E-02 
1067	 2.01104988201801E-02 
1068	 2.01470074194769E-02 
1069	 2.01053034212025E-02 
1070	 1.98093301067062E-02 
1071	 0.01972229384955 
1072	 1.94249801821394E-02 
1073	 1.97501161423769E-02 
1074	 1.98141301057915E-02 
1075	 0.020009681717065 
1076	 2.00562081934646E-02 
1077	 1.99720685377823E-02 
1078	 0.020031779312451 
1079	 2.01522014162456E-02 
1080	 2.02688200843381E-02 
1081	 2.05052987685537E-02 
1082	 2.06138619387405E-02 
1083	 2.06441965130506E-02 
1084	 2.06526154189469E-02 
1085	 2.06838256761445E-02 
1086	 2.06088526781351E-02 
1087	 2.04245135180582E-02 
1088	 2.02225580487578E-02 
1089	 1.97521481901096E-02 
1090	 1.94385387144433E-02 
1091	 1.95818273860565E-02 
1092	 2.01794958479864E-02 
1093	 2.03487437495929E-02 
1094	 2.08476615219748E-02 
1095	 2.07967416739328E-02 
1096	 1.97591870564806E-02 
1097	 1.97108193644184E-02 
1098	 2.04483597532089E-02 
1099	 2.04769639825425E-02 
1100	 2.02806383283039E-02 
1101	 2.04864626959437E-02 
1102	 2.04925109124772E-02 
1103	 2.04659210091309E-02 
1104	 2.08871799232576E-02 
1105	 2.15224357954458E-02 
1106	 2.12189829910987E-02 
1107	 2.03524654317067E-02 
1108	 1.99445263066423E-02 
1109	 2.01979999014298E-02 
1110	 2.02524460145423E-02 
1111	 2.07704816280838E-02 
1112	 2.07217036338919E-02 
1113	 0.020135805541816 
1114	 1.99584920767593E-02 
1115	 1.95743805401298E-02 
1116	 1.98700988836674E-02 
1117	 2.16065843602994E-02 
1118	 2.22240290143067E-02 
1119	 2.30952073078996E-02 
1120	 2.28429255825514E-02 
1121	 1.92910488204237E-02 
1122	 1.68779829107639E-02 
1123	 1.95259861188672E-02 
1124	 2.00406999769652E-02 
1125	 0.016992322282591 
1126	 1.89277848922368E-02 
1127	 1.92135517275302E-02 
1128	 1.69691419062433E-02 
1129	 1.80111122898703E-02 
1130	 2.35544816095498E-02 
1131	 2.47988447331005E-02 
1132	 2.57623807585627E-02 
1133	 2.48680392726898E-02 
1134	 0.021323796685638 
1135	 2.11269449866987E-02 
1136	 2.13101866785113E-02 
1137	 2.07217560008425E-02 
1138	 2.15367057367222E-02 
1139	 0.021935761875255 
1140	 2.02358602111296E-02 
1141	 1.95322215345812E-02 
1142	 1.91041112995307E-02 
1143	 1.96498529739914E-02 
1144	 2.17272864685351E-02 
1145	 2.20947369674927E-02 
1146	 2.15983637644192E-02 
1147	 2.24144182156971E-02 
1148	 2.34763109337123E-02 
1149	 2.29769023557015E-02 
1150	 2.25438074485006E-02 
1151	 0.022588247357656 
1152	 2.24287264624115E-02 
1153	 2.12941517702913E-02 
1154	 2.11462882230693E-02 
1155	 2.17115892390798E-02 
1156	 2.17309807413626E-02 
1157	 2.16970940170216E-02 
1158	 2.16280240735055E-02 
1159	 2.09484599477014E-02 
1160	 2.08438678056608E-02 
1161	 2.07928724411408E-02 
1162	 0.020301096126462 
1163	 0.020273808673688 
1164	 2.03879716620202E-02 
1165	 2.01300531083108E-02 
1166	 2.01794452816972E-02 
1167	 2.03853462885042E-02 
1168	 0.020279146305857 
1169	 2.02205756478349E-02 
1170	 2.04124508421578E-02 
1171	 2.05551091455144E-02 
1172	 2.08098347996151E-02 
1173	 2.07857881353555E-02 
1174	 0.020602013314071 
1175	 2.05617323492488E-02 
1176	 2.07656361088474E-02 
1177	 2.11363331521264E-02 
1178	 2.14778328614167E-02 
1179	 2.14945158274799E-02 
1180	 2.11831210688772E-02 
1181	 2.10841330765139E-02 
1182	 0.021061338082653 
1183	 2.09628021300703E-02 
1184	 2.10852708201736E-02 
1185	 2.09553415873691E-02 
1186	 2.08767137903314E-02 
1187	 2.10811460643115E-02 
1188	 2.11314570134328E-02 
1189	 2.11419669447073E-02 
1190	 0.02109904452939 
1191	 2.11440077918276E-02 
1192	 2.11015943022877E-02 
1193	 2.10118807447332E-02 
1194	 2.07783880155234E-02 
1195	 2.08672310100363E-02 
1196	 2.11763745571052E-02 
1197	 2.12987842936256E-02 
1198	 2.14101275914304E-02 
1199	 2.16828776311294E-02 
1200	 2.16375602024695E-02 
1201	 2.15664562677246E-02 
1202	 2.16955659550477E-02 
1203	 2.13865180889993E-02 
1204	 2.11871988886758E-02 
1205	 2.15158682624777E-02 
1206	 2.15529979217469E-02 
1207	 2.15505218791064E-02 
1208	 2.17464794119291E-02 
1209	 2.16521941625687E-02 
1210	 2.17033944548958E-02 
1211	 2.20672569784574E-02 
1212	 0.022140054566303 
1213	 2.19563626708364E-02 
1214	 0.021922457207484 
1215	 2.19010220818864E-02 
1216	 2.20404290278802E-02 
1217	 2.20944518695272E-02 
1218	 2.19809033198309E-02 
1219	 0.022043301192608 
1220	 2.20920118889789E-02 
1221	 2.20738745765948E-02 
1222	 2.21427611937309E-02 
1223	 2.21635236117731E-02 
1224	 0.022165971261735 
1225	 2.20752769369909E-02 
1226	 0.022013253967919 
1227	 2.21628566645795E-02 
1228	 2.22920020992008E-02 
1229	 2.23232475379525E-02 
1230	 2.22899843927196E-02 
1231	 2.22203519276888E-02 
1232	 2.21888476814966E-02 
1233	 2.22487091397811E-02 
1234	 2.23765705849416E-02 
1235	 0.022429739959335 
1236	 2.24590490314214E-02 
1237	 2.24791964429131E-02 
1238	 2.24185781124278E-02 
1239	 2.23784094173232E-02 
1240	 2.24177776548947E-02 
1241	 2.24901543357064E-02 
1242	 0.022492918356149 
1243	 2.25168845468265E-02 
1244	 2.25280319484741E-02 
1245	 2.24231681215776E-02 
1246	 2.23003261938023E-02 
1247	 2.22275583683638E-02 
1248	 2.23302986041997E-02 
1249	 2.25258966704764E-02 
1250	 2.26228041414956E-02 
1251	 2.27279347109938E-02 
1252	 2.27871068398145E-02 
1253	 2.27076816940357E-02 
1254	 2.27018624619654E-02 
1255	 2.27805494672857E-02 
1256	 2.27986901845735E-02 
1257	 2.28593926303964E-02 
1258	 0.022848328388138 
1259	 0.022706430038657 
1260	 2.28044586805834E-02 
1261	 2.31609414730838E-02 
1262	 2.30832019062179E-02 
1263	 2.28453435718293E-02 
1264	 2.27090841037955E-02 
1265	 2.25464528002249E-02 
1266	 2.25975436710734E-02 
1267	 2.28558145226152E-02 
1268	 2.29441359679586E-02 
1269	 2.28311271861309E-02 
1270	 2.28567577057645E-02 
1271	 2.31399455930058E-02 
1272	 2.31957041179878E-02 
1273	 2.29587478243142E-02 
1274	 2.28246466989952E-02 
1275	 2.29223288652616E-02 
1276	 2.28732264481643E-02 
1277	 2.27158430055197E-02 
1278	 2.28314837701387E-02 
1279	 2.28909739150572E-02 
1280	 2.28552176725396E-02 
1281	 2.29160481362034E-02 
1282	 2.31695247960735E-02 
1283	 2.32278715198421E-02 
1284	 2.32047432885596E-02 
1285	 2.32597847200705E-02 
1286	 2.32857223304138E-02 
1287	 2.32149462421492E-02 
1288	 2.31077730890312E-02 
1289	 0.023118804782752 
1290	 2.30966057591445E-02 
1291	 2.31492105235899E-02 
1292	 2.34536150977975E-02 
1293	 0.023518368273893 
1294	 2.34144769921019E-02 
1295	 2.33814279743007E-02 
1296	 2.35344431119039E-02 
1297	 2.38907898508176E-02 
1298	 2.38307718056595E-02 
1299	 2.37406355871536E-02 
1300	 2.41790477361062E-02 
1301	 2.40480631445809E-02 
1302	 2.36791957197222E-02 
1303	 2.43422310356558E-02 
1304	 2.49902002208841E-02 
1305	 2.49191749835965E-02 
1306	 2.49344758422875E-02 
1307	 2.52483131230825E-02 
1308	 0.02526643671673 
1309	 2.45125155447571E-02 
1310	 0.024564291746232 
1311	 0.025531129888321 
1312	 2.56412675418266E-02 
1313	 2.52082375843784E-02 
1314	 2.53297956452087E-02 
1315	 2.54716071728592E-02 
1316	 2.52938800418932E-02 
1317	 2.51149200864522E-02 
1318	 2.54324742826514E-02 
1319	 2.60780521649713E-02 
1320	 2.59850661472069E-02 
1321	 2.58005170348724E-02 
1322	 2.59573747529227E-02 
1323	 2.58017706572375E-02 
1324	 2.52296897787856E-02 
1325	 2.53630714374235E-02 
1326	 2.59928598755984E-02 
1327	 2.61790202373897E-02 
1328	 2.59473780548056E-02 
1329	 2.60667729407488E-02 
1330	 0.026686431877464 
1331	 2.66645119652741E-02 
1332	 2.66176216263949E-02 
1333	 2.65339164602006E-02 
1334	 2.58756261158116E-02 
1335	 2.58980695920934E-02 
1336	 2.60667918470194E-02 
1337	 2.58885007350885E-02 
1338	 2.60961805759391E-02 
1339	 2.63263318428074E-02 
1340	 2.57095048070029E-02 
1341	 2.58419135249806E-02 
1342	 2.76571583779335E-02 
1343	 2.78869229514099E-02 
1344	 2.70358460273241E-02 
1345	 0.026875233110688 
1346	 2.54242479901716E-02 
1347	 0.024609385240353 
1348	 2.44614536061932E-02 
1349	 2.46545561333306E-02 
1350	 2.81523486749702E-02 
1351	 3.06263880173172E-02 
1352	 3.44338998573552E-02 
1353	 3.84664178044676E-02 
1354	 4.16212874615136E-02 
1355	 2.29231836122229E-02 
1356	-6.83219041204532E-03 
1357	-1.29119672434359E-02 
1358	 2.22911635188433E-03 
1359	 1.51820600754876E-02 
1360	 3.23388774333088E-02 
1361	-1.70637882987313E-02 
1362	-0.100083605135716 
1363	-4.00162713199539E-02 
1364	-6.85961807404403E-02 
1365	-0.181338287170912 
1366	-1.58447743885666E-02 
1367	 7.02702662039554E-02 
1368	 2.87942864511565E-02 
1369	 3.27724321732894E-02 
1370	 8.14792963446737E-02 
1371	-0.122251952394784 
1372	-0.125646609573161 
1373	 0.411800855185575 
1374	 0.473046116113072 
1375	-4.69695968912056E-02 
1376	-7.2654658593509E-03 
1377	 0.189175114093494 
1378	 0.161533899770563 
1379	 0.272884040514876 
1380	 0.377198275057968 
1381	 0.16646046518489 
1382	-6.66964051709961E-03 
1383	-0.117683305513008 
1384	-7.98598429744337E-02 
1385	-0.082319434893032 
1386	-9.71783509593269E-02 
1387	 0.303754928599138 
1388	 0.444664870440273 
1389	-0.062709405851049 
1390	-0.126442556131839 
1391	 2.60452370636485E-02 
1392	 9.45596825375689E-02 
1393	 0.189330927352452 
1394	 2.95085758981122E-02 
1395	-0.104128948275699 
1396	-6.11689257279306E-02 
1397	-0.159672149441162 
1398	-0.144198144075843 
1399	-0.132026762074058 
1400	-0.413489206030346 
1401	-0.474234196892432 
1402	-0.51958212177187 
1403	 5.42525489916383E-03 
1404	 8.10526474981484E-03 
1405	-1.63992450031086E-03 
1406	 8.47703257434834E-02 
1407	 6.52652423116195E-02 
1408	-0.142407693458238 
1409	-0.110994828696881 
1410	 0.106093882803674 
1411	 0.116918415220232 
1412	 6.18222584395512E-02 
1413	 6.94510235174721E-02 
1414	 6.34284435244822E-02 
1415	 2.38245609980379E-02 
1416	-0.01570515508833 
1417	-4.28908208749006E-03 
1418	 7.20432116843219E-03 
1419	-9.39907735515747E-04 
1420	 7.54941614710994E-03 
1421	 1.12438039236902E-02 
1422	-1.10755740032113E-02 
1423	-8.94148301360301E-03 
1424	 1.42570913813979E-02 
1425	 2.02707512240188E-02 
1426	 2.31222293376063E-02 
1427	 0.025992011722031 
1428	 1.97943353472895E-02 
1429	 0.0235488105037 
1430	 0.039193932784953 
1431	 4.07667603579837E-02 
1432	 3.72972240917759E-02 
1433	 3.88931394291809E-02 
1434	 3.88557421469965E-02 
1435	 3.37427969680606E-02 
1436	 2.72398206530343E-02 
1437	 2.42389317533769E-02 
1438	 2.20546960096325E-02 
1439	 2.59852182085671E-02 
1440	 3.40825727243013E-02 
1441	 3.51806450645721E-02 
1442	 3.18389975356459E-02 
1443	 2.90678896495553E-02 
1444	 2.92547393671859E-02 
1445	 2.90250317217407E-02 
1446	 0.028182174864493 
1447	 2.70118541896238E-02 
1448	 2.45231537255975E-02 
1449	 2.65122026321092E-02 
1450	 3.00565080239821E-02 
1451	 2.87789265538188E-02 
1452	 2.72132474265902E-02 
1453	 2.70831729515548E-02 
1454	 2.68826652836991E-02 
1455	 2.61837118890441E-02 
1456	 2.56882083619559E-02 
1457	 2.53317093996501E-02 
1458	 2.57482176354961E-02 
1459	 2.69153059037222E-02 
1460	 2.64383951589609E-02 
1461	 2.49569328572636E-02 
1462	 2.56707699134454E-02 
1463	 2.69321440450112E-02 
1464	 2.65973029950874E-02 
1465	 2.75504023137151E-02 
1466	 2.79709018703199E-02 
1467	 2.56804719475459E-02 
1468	 2.47025075242347E-02 
1469	 2.53313818908704E-02 
1470	 2.61831281296369E-02 
1471	 2.67766232613637E-02 
1472	 2.64979258319555E-02 
1473	 2.64988834323162E-02 
1474	 2.74163892005558E-02 
1475	 2.77844261770209E-02 
1476	 2.81399884502625E-02 
1477	 3.04994238024341E-02 
1478	 3.01605559076112E-02 
1479	 2.68793428185172E-02 
1480	 2.65313213905327E-02 
1481	 0.027251439239012 
1482	 2.71670971120256E-02 
1483	 2.80342305027879E-02 
1484	 2.79945152150112E-02 
1485	 2.65306383193494E-02 
1486	 0.026241236470855 
1487	 2.68966303660362E-02 
1488	 2.67591067844638E-02 
1489	 2.64621466078257E-02 
1490	 2.61382780798599E-02 
1491	 2.55378959336437E-02 
1492	 2.51568802927002E-02 
1493	 2.45670464697444E-02 
1494	 2.46129102595519E-02 
1495	 2.53099482806243E-02 
1496	 2.52481699790597E-02 
1497	 2.48137729021454E-02 
1498	 2.50726685872154E-02 
1499	 2.56905021303798E-02 
1500	 2.55260728013469E-02 
1501	 2.51436849060233E-02 
1502	 2.53054598114496E-02 
1503	 2.51690614313304E-02 
1504	 2.49911171088874E-02 
1505	 2.52352741662673E-02 
1506	 0.025711497924021 
1507	 2.57627365947821E-02 
1508	 2.56145552580677E-02 
1509	 2.56464547419882E-02 
1510	 2.56074611588157E-02 
1511	 2.52456819600891E-02 
1512	 2.51963293245877E-02 
1513	 2.54932961562932E-02 
1514	 2.53499443954479E-02 
1515	 2.52241649060013E-02 
1516	 0.025411221318896 
1517	 2.53865685504404E-02 
1518	 2.51967222952971E-02 
1519	 2.50636246748961E-02 
1520	 2.49743065561345E-02 
1521	 2.48629873625724E-02 
1522	 2.49323481449965E-02 
1523	 2.51956062697646E-02 
1524	 2.52073339400548E-02 
1525	 2.51332307696974E-02 
1526	 2.52692104064472E-02 
1527	 2.52409543219527E-02 
1528	 2.51224837907587E-02 
1529	 2.52036338803916E-02 
1530	 2.53446797371861E-02 
1531	 0.025431877916703 
1532	 2.52689345904512E-02 
1533	 2.49314361612286E-02 
1534	 2.48233679496508E-02 
1535	 2.49735971746424E-02 
1536	 2.51120022879892E-02 
1537	 2.51006304580754E-02 
1538	 0.025163630950971 
1539	 2.52262082999235E-02 
1540	 2.50638061863021E-02 
1541	 2.50562083348545E-02 
1542	 2.51597505278767E-02 
1543	 2.49504797387339E-02 
1544	 2.47366827301887E-02 
1545	 2.48234952683839E-02 
1546	 2.47977440125514E-02 
1547	 2.45640571108888E-02 
1548	 2.45220540764868E-02 
1549	 2.46581695064367E-02 
1550	 2.47728686600132E-02 
1551	 2.47760668472607E-02 
1552	 2.47026064429848E-02 
1553	 2.46849442499909E-02 
1554	 2.46520005174194E-02 
1555	 2.46417874245149E-02 
1556	 2.46199270547128E-02 
1557	 2.44859914533226E-02 
1558	 2.44310695576827E-02 
1559	 0.024348038077345 
1560	 2.42681336945627E-02 
1561	 2.43761974796061E-02 
1562	 2.43195624828139E-02 
1563	 2.40806909086503E-02 
1564	 0.024179209963078 
1565	 0.024440624811968 
1566	 2.43689368734404E-02 
1567	 2.41206076475609E-02 
1568	 2.41060307677817E-02 
1569	 2.41212099980337E-02 
1570	 2.37934288534898E-02 
1571	 2.36526857554647E-02 
1572	 2.39735429641229E-02 
1573	 2.41852648464269E-02 
1574	 2.41308872389429E-02 
1575	 2.40643381116268E-02 
1576	 2.40213625009768E-02 
1577	 2.38342988201219E-02 
1578	 2.37064340267075E-02 
1579	 2.37896053361482E-02 
1580	 2.38159930057111E-02 
1581	 2.36186959858466E-02 
1582	 2.33849173684839E-02 
1583	 2.33282688507313E-02 
1584	 2.33402249183857E-02 
1585	 0.023253411637044 
1586	 0.023167409825503 
1587	 2.32803867478919E-02 
1588	 2.32617377483673E-02 
1589	 2.31629102151911E-02 
1590	 2.32074972174274E-02 
1591	 2.29886868971237E-02 
1592	 2.27102130644103E-02 
1593	 2.28027150341951E-02 
1594	 2.29804933452195E-02 
1595	 2.29618941984863E-02 
1596	 2.29149202011645E-02 
1597	 2.29744967459676E-02 
1598	 2.30538524808088E-02 
1599	 0.023130395581522 
1600	 2.31818182642235E-02 
1601	 2.30898264392333E-02 
1602	 2.28114959470312E-02 
1603	 2.27153547524086E-02 
1604	 2.30789787771919E-02 
1605	 2.33914144812713E-02 
1606	 2.32527974870519E-02 
1607	 2.28788683504138E-02 
1608	 2.26284824389095E-02 
1609	 2.26146518315427E-02 
1610	 0.022702775005025 
1611	 2.29808784665785E-02 
1612	 2.31942635826051E-02 
1613	 2.29880312059348E-02 
1614	 2.27474502377404E-02 
1615	 0.022758543208404 
1616	 2.28286398301592E-02 
1617	 2.27142104299106E-02 
1618	 2.27708697115002E-02 
1619	 2.28910420303688E-02 
1620	 2.27034393341126E-02 
1621	 2.27997169961437E-02 
1622	 2.29831865045034E-02 
1623	 2.27624979844931E-02 
1624	 2.24629559654409E-02 
1625	 2.24122108123976E-02 
1626	 0.022483912219434 
1627	 2.25518562538861E-02 
1628	 2.27279374896826E-02 
1629	 0.022866867152909 
1630	 2.27628089017006E-02 
1631	 2.25886656947179E-02 
1632	 2.26444048828528E-02 
1633	 2.25750318883255E-02 
1634	 2.23052991002165E-02 
1635	 2.22258314020773E-02 
1636	 2.21512145887995E-02 
1637	 2.21765610167756E-02 
1638	 2.23638358761568E-02 
1639	 2.23028894529256E-02 
1640	 2.21109220927102E-02 
1641	 2.20957572334606E-02 
1642	 2.20427308039109E-02 
1643	 2.19173897620651E-02 
1644	 2.20754443325118E-02 
1645	 2.21638757310903E-02 
1646	 2.20560124685138E-02 
1647	 2.20970240785151E-02 
1648	 2.20923285929412E-02 
1649	 2.20230397699864E-02 
1650	 2.18859706695105E-02 
1651	 2.17564542999677E-02 
1652	 2.18838883177685E-02 
1653	 2.19423781110294E-02 
1654	 2.17550475790968E-02 
1655	 0.021603977571497 
1656	 2.15483617981936E-02 
1657	 0.021036047165056 
1658	 0.02096984031917 
1659	 0.021692404269091 
1660	 2.16860608090277E-02 
1661	 2.12611489907679E-02 
1662	 2.12103197867724E-02 
1663	 2.08352599957938E-02 
1664	 2.06988499949023E-02 
1665	 2.11901049596861E-02 
1666	 2.13115956081351E-02 
1667	 2.10707180481977E-02 
1668	 2.12259669453363E-02 
1669	 2.14575088063926E-02 
1670	 2.14476540126056E-02 
1671	 2.12673405956616E-02 
1672	 2.10534556429821E-02 
1673	 2.10446151686147E-02 
1674	 2.12043213251674E-02 
1675	 2.10907954520557E-02 
1676	 2.09628144169623E-02 
1677	 2.10805236646027E-02 
1678	 2.09509913559802E-02 
1679	 2.10019866716936E-02 
1680	 2.12298921106711E-02 
1681	 0.020708095557621 
1682	 2.02344052988783E-02 
1683	 2.05263235629147E-02 
1684	 2.04867268522946E-02 
1685	 2.02154442875779E-02 
1686	 2.03525498001217E-02 
1687	 2.02483217802637E-02 
1688	 0.020130199657029 
1689	 2.03556039570176E-02 
1690	 2.05480765882657E-02 
1691	 2.05413492976694E-02 
1692	 2.04240071808493E-02 
1693	 2.02959323352144E-02 
1694	 1.99488500912555E-02 
1695	 1.97573259901858E-02 
1696	 2.00686642493448E-02 
1697	 2.02466302451678E-02 
1698	 2.01319896653454E-02 
1699	 2.00187982095717E-02 
1700	 1.97733658691471E-02 
1701	 1.97786117724471E-02 
1702	 2.03255120137628E-02 
1703	 2.02291334244683E-02 
1704	 1.94081134400101E-02 
1705	 1.94298464754423E-02 
1706	 1.96306228498414E-02 
1707	 1.96565927015068E-02 
1708	 2.02253239891699E-02 
1709	 1.99332254164098E-02 
1710	 0.019007967106091 
1711	 1.89342662229298E-02 
1712	 1.91398720452604E-02 
1713	 1.91889658181927E-02 
1714	 1.91546800794288E-02 
1715	 1.87063661907161E-02 
1716	 1.89949827600496E-02 
1717	 1.94013100704629E-02 
1718	 1.96477486974497E-02 
1719	 1.96714737436246E-02 
1720	 1.89878175330342E-02 
1721	 1.85680772009532E-02 
1722	 1.92310523017122E-02 
1723	 1.96340267832354E-02 
1724	 1.91161368098665E-02 
1725	 1.91142180426924E-02 
1726	 1.93837376765176E-02 
1727	 1.87023470040626E-02 
1728	 0.018517799569142 
1729	 1.89821399437634E-02 
1730	 1.87519598524597E-02 
1731	 1.87700604717517E-02 
1732	 1.94075610017197E-02 
1733	 0.019400022333487 
1734	 1.85099813948936E-02 
1735	 1.82174493064845E-02 
1736	 1.86212581569943E-02 
1737	 1.83102059894403E-02 
1738	 1.78547065291775E-02 
1739	 1.79698410188912E-02 
1740	 1.81692874586645E-02 
1741	 1.83823126369212E-02 
1742	 0.018633461873443 
1743	 1.86005753362067E-02 
1744	 1.82027213225972E-02 
1745	 1.80290822680343E-02 
1746	 1.83303318130799E-02 
1747	 1.85118638325708E-02 
1748	 1.89066536613497E-02 
1749	 1.87573422006794E-02 
1750	 0.018030724922097 
1751	 1.79562406463878E-02 
1752	 1.78009678927599E-02 
1753	 1.75780369133056E-02 
1754	 1.81971858428662E-02 
1755	 1.81593439113836E-02 
1756	 1.70761683063939E-02 
1757	 1.74711643464951E-02 
1758	 1.75443374198069E-02 
1759	 1.75167727000127E-02 
1760	 0.018092008263634 
1761	 1.79714901054338E-02 
1762	 1.80068613647339E-02 
1763	 1.83641976845953E-02 
1764	 1.76606740697443E-02 
1765	 1.77897479236654E-02 
1766	 1.82095852263282E-02 
1767	 1.79662977773194E-02 
1768	 1.87422202454032E-02 
1769	 1.79398402995575E-02 
1770	 0.016513418079728 
1771	 1.72915515073504E-02 
1772	 1.68912519764504E-02 
1773	 1.62206395170773E-02 
1774	 1.72858737081447E-02 
1775	 1.65516897768089E-02 
1776	 0.01644378713739 
1777	 1.76178542902466E-02 
1778	 1.78589361649353E-02 
1779	 1.83396758422973E-02 
1780	 1.78770159171803E-02 
1781	 1.53760645815691E-02 
1782	 1.55195848563044E-02 
1783	 0.016337171200269 
1784	 1.59128912894551E-02 
1785	 1.75243598880481E-02 
1786	 1.81490683142497E-02 
1787	 1.57417867379805E-02 
1788	 1.64072770041121E-02 
1789	 2.04195815481578E-02 
1790	 0.018688169588491 
1791	 1.95923811684515E-02 
1792	 1.69228883961775E-02 
1793	 1.27750004322832E-02 
1794	 1.57155373780575E-02 
1795	 1.63319956492716E-02 
1796	 1.51716731408021E-02 
1797	 1.83750497036672E-02 
1798	 1.49008815069217E-02 
1799	 1.07398817362311E-02 
1800	 1.60664958546752E-02 
1801	 1.57214515424394E-02 
1802	 1.07984954543025E-02 
1803	 8.28468171471653E-03 
1804	-8.41693201378312E-04 
1805	-1.26533996590446E-03 
1806	 2.36914276927746E-02 
1807	 2.92530379291044E-02 
1808	 1.86605221042866E-02 
1809	 1.14130179005479E-02 
1810	-3.07636648787699E-02 
1811	-3.92731566920052E-02 
1812	-1.08524498971448E-03 
1813	 3.20351324628452E-02 
1814	 0.109268250008797 
1815	 0.164237102857829 
1816	 0.197211317477731 
1817	 0.456245405826929 
1818	 0.665238624129536 
1819	 0.56988577826454 
1820	 0.348213725452512 
1821	 0.105842872254758 
1822	-0.128182372408332 
1823	-0.559076340731969 
1824	-0.530862735859691 
1825	-2.30685298856003E-03 
1826	 0.100230575279007 
1827	 0.569864884303053 
1828	 0.621078078923854 
1829	-0.42443964012126 
1830	-0.381590439442204 
1831	-0.347954622132294 
1832	-0.196359680723955 
1833	 0.183862280054455 
1834	 0.620226006258245 
1835	 4.14176408383913 
1836	 18.6196706696229 
1837	-1.42499556122243 
1838	-1.1040350754035 
1839	-0.349709694194706 
1840	-2.67113143021746E-02 
1841	 7.90210075246381E-02 
1842	-0.133602163081452 
1843	-0.248923353102919 
1844	-0.550914269248887 
1845	-0.699692310223598 
1846	-2.08508198192959 
1847	-2.70766663319209 
1848	 25.2266202387062 
1849	-5.66749641496481 
1850	 0.65364703602847 
1851	 0.722231415927134 
1852	 0.561925868678454 
1853	 0.465062465746966 
1854	 0.38152414027161 
1855	 0.344601568682238 
1856	-1.0303870431469 
1857	-0.690495172733783 
1858	-0.539390338505633 
1859	-0.442517024314338 
1860	-0.100581690327368 
1861	 0.376034393365558 
1862	 0.45338142721631 
1863	 0.36002214348523 
1864	-0.296378415894682 
1865	-7.17975407570183E-02 
1866	 0.78873410173849 
1867	 2.16143256718297 
1868	-5.71862150724805 
1869	-3.58975123212726 
1870	-4.47925313508235 
1871	-3.17096318857296 
1872	 44.2233555241542 
1873	 2.00402162747739 
1874	-2.10079205235469 
1875	 2.13708071090954 
1876	-0.264328258012965 
1877	-0.158308066673077 
1878	-8.92370332794328E-02 
1879	-2.0145840708893 
1880	-1.33664092164875 
1881	-0.775360646138218 
1882	-0.212428818520087 
1883	 0.142984759341861 
1884	 0.366197807921102 
1885	 0.400447192545177 
1886	 0.619712945586603 
1887	 0.590181837143522 
1888	-1.71325674769645 
1889	-2.27507686476319 
1890	 0.141142184206866 
1891	 0.432974668307858 
1892	 1.20699468697123 
1893	 3.91475441397372 
1894	 1.4839588835835 
1895	 1.45479058070815 
1896	-0.360518401684934 
1897	 0.950999070817672 
1898	-0.40242359821099 
1899	-0.482539238012284 
1900	-0.487881658911174 
1901	 0.779105269029501 
1902	 7.69670691872411E-02 
1903	-3.28428101561993 
1904	 10.2507299939335 
1905	-4.78571174459772 
1906	-52.2954592226905 
1907	 9.56258062642761 
1908	-3.83945036602253 
1909	-1.87811706574909 
1910	 5.98750076479592 
1911	-1.61453386764699 
1912	 5.17730458942232 
1913	 4.79139552534971 
1914	-1.01387390831798 
1915	-1.55464268126494 
1916	-161.770359901633 
1917	-0.202373242060053 
1918	 0.450259589732156 
1919	 0.353191139239744 
1920	 0.287126525553742 
1921	 1.57932612054239 
1922	 1.29606669693916 
1923	 0.166447134441291 
1924	 18.1894430503599 
1925	 2.95991817733379 
1926	 4.03129150136902 
1927	 1.36866358874125 
1928	 1.60740540687794 
1929	-6.34845072405635 
1930	 8.41081250714991 
1931	-7.34027785765468E-03 
1932	-0.15230006011365 
1933	-0.227967202388151 
1934	-0.202331759778701 
1935	-0.232203019667175 
1936	-0.271825972789924 
1937	-0.16941447153389 
1938	-0.121162634954597 
1939	-0.109633462505847 
1940	-9.91528870158513E-02 
1941	-6.73576870768318E-02 
1942	-0.097563703990374 
1943	-9.75213652659965E-02 
1944	-5.28521481708202E-02 
1945	-3.36151630359112E-02 
1946	 1.34896195567795E-02 
1947	 5.31747242804441E-02 
1948	 4.17251790228318E-02 
1949	 0.030002022332309 
1950	 5.15664727842582E-03 
1951	 2.17221939296469E-03 
1952	 8.64142840280279E-03 
1953	 3.90482421655582E-02 
1954	 4.76239873451725E-02 
1955	 3.45178262435221E-02 
1956	 2.59723602022488E-02 
1957	 0.022335167383319 
1958	 1.37572488883343E-02 
1959	 1.19157827706719E-02 
1960	 6.95738330648667E-03 
1961	-3.55251716357608E-04 
1962	 2.55867790860873E-03 
1963	 6.65316266317228E-03 
1964	 5.90674924169319E-03 
1965	 3.90573972392204E-03 
1966	 4.91073812565464E-03 
1967	 5.32129516449402E-03 
1968	 8.68571220574414E-03 
1969	 1.07555020946549E-02 
1970	 0.01015217424008 
1971	 1.13220040979202E-02 
1972	 1.21486389385345E-02 
1973	 1.11934466150413E-02 
1974	 1.25042475890065E-02 
1975	 1.35321729771676E-02 
1976	 1.20022098120235E-02 
1977	 1.14992616712889E-02 
1978	 1.26146329876444E-02 
1979	 1.30792959281666E-02 
1980	 1.30207221392181E-02 
1981	 1.27248593645728E-02 
1982	 1.29715918010551E-02 
1983	 1.28969368383078E-02 
1984	 1.31570494630035E-02 
1985	 0.012943848781909 
1986	 1.28233965042954E-02 
1987	 1.35661648805002E-02 
1988	 1.37483900999414E-02 
1989	 1.36960013068239E-02 
1990	 1.40859634351592E-02 
1991	 1.47918958635732E-02 
1992	 1.53355276620088E-02 
1993	 1.68352993281501E-02 
1994	 1.71979208827491E-02 
1995	 1.78489127831535E-02 
1996	 1.58689828743623E-02 
1997	 1.31326657798706E-02 
1998	 1.07445147192916E-02 
1999	 8.35534105570511E-03 
2000	 6.64398087230416E-03 
2001	 7.17648680483608E-03 
2002	 6.06428326680789E-03 
2003	 4.14769823320607E-03 
2004	 6.59127091854766E-03 
2005	 7.43767238960542E-03 
2006	 6.70528337556849E-03 
2007	 6.71017653882915E-03 
2008	 0.006988679297536 
2009	 8.32659843784582E-03 
2010	 1.12625011305933E-02 
2011	 1.16991294246907E-02 
2012	 1.14859343365568E-02 
2013	 1.32543642889476E-02 
2014	 1.11879261292598E-02 
2015	 8.86144379737196E-03 
2016	 1.17761827267521E-02 
2017	 1.37468206032036E-02 
2018	 0.012927805495475 
2019	 1.25289584343086E-02 
2020	 1.21907435082223E-02 
2021	 1.14360232062232E-02 
2022	 1.32933729484295E-02 
2023	 1.57420862224183E-02 
2024	 1.64422409955858E-02 
2025	 0.016984986446195 
2026	 1.63763820326639E-02 
2027	 1.41713849195524E-02 
2028	 1.31829512992947E-02 
2029	 1.34536567310247E-02 
2030	 1.35191123272741E-02 
2031	 0.014767956235636 
2032	 1.51084857752385E-02 
2033	 0.014497954691903 
2034	 1.41567247073107E-02 
2035	 0.013735488909828 
2036	 1.39152145929593E-02 
2037	 1.41753364498242E-02 
2038	 0.014241064245235 
2039	 1.43623658518202E-02 
2040	 1.44382672486319E-02 
2041	 1.45257236214138E-02 
2042	 1.46173529644971E-02 
2043	 1.46525607961885E-02 
2044	 1.48039049686501E-02 
2045	 1.43855163898449E-02 
2046	 1.38030019044102E-02 
2047	 0.013848335303431 
2048	 1.37571557816805E-02 
2049	 1.38635049733345E-02 
2050	 1.40035167578189E-02 
2051	 1.44371111428921E-02 
2052	 1.49458861034981E-02 
2053	 1.49981346276312E-02 
2054	 1.52394905315465E-02 
2055	 0.014607244211253 
2056	 1.43967364456371E-02 
2057	 1.43003559665729E-02 
2058	 1.40022016236179E-02 
2059	 1.34958224136813E-02 
2060	 1.33870104918716E-02 
2061	 1.34944271566193E-02 
2062	 1.26050155190084E-02 
2063	 1.24687941116159E-02 
2064	 1.37127129654038E-02 
2065	 1.33453150173479E-02 
2066	 1.24280192106784E-02 
2067	 1.28819584589917E-02 
2068	 0.013668132687323 
2069	 1.47649144843453E-02 
2070	 1.53910849900065E-02 
2071	 1.44325624024301E-02 
2072	 1.32282614605694E-02 
2073	 1.33408769071291E-02 
2074	 1.42535793735901E-02 
2075	 1.42864400126688E-02 
2076	 1.51295281774921E-02 
2077	 0.0154226346468 
2078	 1.46381915277175E-02 
2079	 1.43123119960194E-02 
2080	 1.46773323897505E-02 
2081	 1.39301086973649E-02 
2082	 1.32973383398935E-02 
2083	 1.25274509542612E-02 
2084	 1.28619831434351E-02 
2085	 1.37113207899533E-02 
2086	 1.26787378304694E-02 
2087	 1.28720908708321E-02 
2088	 1.38844631340035E-02 
2089	 1.36648491177484E-02 
2090	 1.41590312363845E-02 
2091	 1.51471951115259E-02 
2092	 1.51154597400852E-02 
2093	 1.36381801459323E-02 
2094	 1.32570417538708E-02 
2095	 0.012929745678557 
2096	 0.012576212171635 
2097	 1.25559891113031E-02 
2098	 1.25752404155137E-02 
2099	 1.23641310401276E-02 
2100	 1.29044919497434E-02 
2101	 1.35129714318907E-02 
2102	 1.34017179764749E-02 
2103	 1.35965862502133E-02 
2104	 1.29906782303089E-02 
2105	 1.19263851983122E-02 
2106	 1.22604679774046E-02 
2107	 1.24406329128292E-02 
2108	 1.24404036769656E-02 
2109	 1.33711311623604E-02 
2110	 1.41335453514099E-02 
2111	 1.43503324516104E-02 
2112	 1.48002299481732E-02 
2113	 1.49603669128117E-02 
2114	 1.43262966503058E-02 
2115	 1.43839642706344E-02 
2116	 1.53847341064528E-02 
2117	 1.53983324691361E-02 
2118	 1.48995989044325E-02 
2119	 1.46783981501888E-02 
2120	 1.41325002144378E-02 
2121	 1.31786474881356E-02 
2122	 0.012732067337723 
2123	 1.40720034744941E-02 
2124	 1.49669285618467E-02 
2125	 1.43363995040448E-02 
2126	 1.40546834086829E-02 
2127	 1.43908050748745E-02 
2128	 1.46025087625781E-02 
2129	 0.014807467855449 
2130	 1.44947218635828E-02 
2131	 1.37654286600493E-02 
2132	 1.28586248477877E-02 
2133	 1.19761724918191E-02 
2134	 1.20436973595264E-02 
2135	 1.33262916780893E-02 
2136	 1.36154904009054E-02 
2137	 1.41508578654187E-02 
2138	 1.43486849064729E-02 
2139	 1.40411451129175E-02 
2140	 1.40641452469388E-02 
2141	 1.41866556730112E-02 
2142	 1.39950736630097E-02 
2143	 1.37970648540325E-02 
2144	 1.30807025537824E-02 
2145	 1.25594361095087E-02 
2146	 1.28959459183163E-02 
2147	 1.35682439956833E-02 
2148	 1.38205157213937E-02 
2149	 0.014572093300308 
2150	 1.49620489230549E-02 
2151	 1.38020647660104E-02 
2152	 1.31323275678514E-02 
2153	 1.30787986986699E-02 
2154	 0.012533407587366 
2155	 1.23023327629183E-02 
2156	 1.31718964496224E-02 
2157	 1.35885599240842E-02 
2158	 1.29973377126226E-02 
2159	 1.32091171128926E-02 
2160	 1.45540230643913E-02 
2161	 1.49467265438728E-02 
2162	 1.51635996201278E-02 
2163	 1.49144654575717E-02 
2164	 0.014004720984994 
2165	 1.37055829542566E-02 
2166	 1.27611961389441E-02 
2167	 0.012495015575324 
2168	 1.31275207891796E-02 
2169	 1.33274472191422E-02 
2170	 1.34307086512447E-02 
2171	 1.40774176569085E-02 
2172	 1.41242493569683E-02 
2173	 1.39940146806792E-02 
2174	 1.34867781210943E-02 
2175	 1.38193582678237E-02 
2176	 1.33490239858923E-02 
2177	 0.012423073264468 
2178	 1.16141507312555E-02 
2179	 9.44525589499837E-03 
2180	 9.07846793675652E-03 
2181	 1.01336219717989E-02 
2182	 1.07675179606152E-02 
2183	 1.17807192461887E-02 
2184	 1.20127044114173E-02 
2185	 1.13933469955252E-02 
2186	 1.12497546554337E-02 
2187	 1.18586661764327E-02 
2188	 1.07105631581636E-02 
2189	 7.63333075991103E-03 
2190	 7.25460596339761E-03 
2191	 7.02567153632861E-03 
2192	 6.59837067311117E-03 
2193	 8.95690234301033E-03 
2194	 9.46892302553229E-03 
2195	 7.28428528527382E-03 
2196	 6.93031765199461E-03 
2197	 7.63130756480571E-03 
2198	 7.57932213012944E-03 
2199	 6.8972016126874E-03 
2200	 8.3292109165221E-03 
2201	 8.71492952194566E-03 
2202	 9.41402814727703E-03 
2203	 1.10511021014763E-02 
2204	 1.05455866155821E-02 
2205	 9.97805510047285E-03 
2206	 9.88676172188039E-03 
2207	 9.61556550130324E-03 
2208	 9.82112941842429E-03 
2209	 8.82449366226667E-03 
2210	 7.48822757074193E-03 
2211	 6.68168244134539E-03 
2212	 6.50751000874712E-03 
2213	 9.53659466896661E-03 
2214	 1.30270401231896E-02 
2215	 1.30381588518187E-02 
2216	 1.18701506151043E-02 
2217	 1.11022617436024E-02 
2218	 7.29156005497573E-03 
2219	 6.68920550116146E-03 
2220	 8.46481126805799E-03 
2221	 9.68339623645079E-03 
2222	 1.21683391950022E-02 
2223	 1.31282818276867E-02 
2224	 1.39960288128305E-02 
2225	 1.39301593678432E-02 
2226	 1.23385298988718E-02 
2227	 1.14352107247095E-02 
2228	 9.9890265823195E-03 
2229	 9.27435509797241E-03 
2230	 8.54803843536209E-03 
2231	 8.40223186656794E-03 
2232	 9.71316852983061E-03 
2233	 0.00964006522923 
2234	 8.6588927497426E-03 
2235	 9.44801797229434E-03 
2236	 9.5826189884601E-03 
2237	 9.17825761524119E-03 
2238	 1.01348564969919E-02 
2239	 9.63355183812548E-03 
2240	 7.64501873405832E-03 
2241	 7.65170511659997E-03 
2242	 7.63601081571058E-03 
2243	 8.52703084204052E-03 
2244	 9.94753214798985E-03 
2245	 8.74799948710562E-03 
2246	 8.41605361362183E-03 
2247	 8.1799016171344E-03 
2248	 7.40051153121754E-03 
2249	 7.77512456066404E-03 
2250	 9.1534376968798E-03 
2251	 1.03646452711912E-02 
2252	 1.15067148981212E-02 
2253	 1.37486840898171E-02 
2254	 1.23245543533489E-02 
2255	 9.29059532438524E-03 
2256	 9.36935190630973E-03 
2257	 6.91115527745276E-03 
2258	 6.29322178282239E-03 
2259	 0.010288154068635 
2260	 1.04815453822248E-02 
2261	 8.29595161179777E-03 
2262	 7.86460929049986E-03 
2263	 5.56176791218618E-03 
2264	 5.27403383885997E-03 
2265	 7.62831977256109E-03 
2266	 8.5313735129025E-03 
2267	 9.63684644507907E-03 
2268	 1.11937701230258E-02 
2269	 1.27582738708716E-02 
2270	 1.31122846603579E-02 
2271	 1.36585697123034E-02 
2272	 1.37935481654724E-02 
2273	 0.01177896108728 
2274	 1.14470571394555E-02 
2275	 1.31500176901754E-02 
2276	 1.33008989292065E-02 
2277	 1.22844117608901E-02 
2278	 1.15497701649139E-02 
2279	 1.10646224441884E-02 
2280	 9.57908829778485E-03 
2281	 6.26810462855139E-03 
2282	 6.9154832105868E-03 
2283	 8.06072859389105E-03 
2284	 6.69262248162749E-03 
2285	 6.65873720323359E-03 
2286	 9.57555856044961E-03 
2287	 1.06100710414012E-02 
2288	 7.33247782350411E-03 
2289	 4.7010743617082E-03 
2290	 3.13070510227992E-03 
2291	 2.49599732248279E-03 
2292	 4.7097939038565E-03 
2293	 0.008363994565886 
2294	 9.64426309865231E-03 
2295	 7.92175864006075E-03 
2296	 5.3605511089808E-03 
2297	 4.24987826272121E-03 
2298	 1.66337332593011E-03 
2299	 2.91657607138108E-03 
2300	 9.02776309449145E-03 
2301	 0.010697911587619 
2302	 1.14858162208471E-02 
2303	 1.01697016217777E-02 
2304	 6.31692003384602E-03 
2305	 4.02910783095458E-03 
2306	 5.36983477569994E-03 
2307	 7.48211848640118E-03 
2308	 6.04186155341665E-03 
2309	 5.99295782902253E-03 
2310	 4.64154495718151E-03 
2311	 6.08793528347081E-03 
2312	 1.15135319640933E-02 
2313	 9.4009375445552E-03 
2314	 7.72040466848851E-03 
2315	 9.46327252457124E-03 
2316	 4.0438084899482E-03 
2317	 1.27936237081842E-03 
2318	 5.31098563092496E-03 
2319	 2.60737183380029E-03 
2320	-9.7026429551975E-04 
2321	-2.68310831239123E-03 
2322	-3.50857248126328E-03 
2323	-7.74673733540028E-04 
2324	-3.81618983765342E-04 
2325	 6.22747851115097E-03 
2326	 1.23075420883843E-02 
2327	 7.94159163014817E-03 
2328	 7.06822867746398E-03 
2329	 4.51174342781665E-03 
2330	-1.7754799684851E-04 
2331	 1.60905109526108E-03 
2332	 4.93029318266907E-03 
2333	 6.19679285394162E-03 
2334	 4.41313308610617E-03 
2335	 5.37367796202826E-03 
2336	 1.56043130522769E-03 
2337	-5.0983612875591E-03 
2338	-8.31630009205207E-04 
2339	-3.26425922506279E-03 
2340	-9.37608838789113E-03 
2341	-2.7042378447434E-03 
2342	 2.34969538919312E-03 
2343	 1.08661566642993E-02 
2344	 2.35171888240102E-02 
2345	 2.28179104871064E-02 
2346	 1.90784437746603E-02 
2347	 1.22424278343013E-02 
2348	 6.80938224500582E-03 
2349	 1.51315634133025E-02 
2350	 0.018792879405018 
2351	 1.32056496844249E-02 
2352	 1.35526068086896E-02 
2353	 1.13747460091352E-02 
2354	-2.72275633539607E-03 
2355	-2.52905156482664E-03 
2356	 5.48576228301664E-04 
2357	-1.25930991457103E-02 
2358	-1.63156548568055E-02 
2359	-1.64404815736635E-02 
2360	-1.78225503834937E-02 
2361	-1.65381913989908E-02 
2362	-1.56968150733211E-02 
2363	-0.014274441793723 
2364	-2.11994055206388E-02 
2365	-2.35124846127308E-02 
2366	-1.01153753537427E-02 
2367	 1.21529575337239E-02 
2368	 3.12376501063881E-02 
2369	 0.033240284845579 
2370	 2.65679972671335E-02 
2371	 1.21814793203217E-02 
2372	-8.08522787308003E-03 
2373	-0.011668899083829 
2374	-6.48557443479017E-04 
2375	 8.52955605619223E-03 
2376	 1.83643790590463E-02 
2377	 2.49387164834929E-02 
2378	 9.74839664000822E-03 
2379	-7.95659913730738E-03 
2380	 5.08314417982662E-03 
2381	 2.09438493700677E-02 
2382	 2.46468955780179E-02 
2383	 0.020418172839074 
2384	 3.28052493884394E-03 
2385	-1.73247708824391E-02 
2386	-2.68646321602671E-02 
2387	-7.74293171862811E-03 
2388	 4.40096102388435E-03 
2389	 3.72411273533692E-03 
2390	 1.76437863830574E-02 
2391	 1.02753744219851E-02 
2392	 5.90048713024064E-04 
2393	 9.0438348603881E-03 
2394	 1.12107223488491E-02 
2395	 1.82510137345962E-02 
2396	 2.30182384139649E-02 
2397	 3.51834110110741E-02 
2398	 4.44545530105927E-02 
2399	 3.32254686538616E-02 
2400	 0.042556328348469 
2401	 3.58458255731829E-02 
2402	 2.60263858659932E-02 
2403	 5.21611124479261E-02 
2404	 5.19638930744499E-02 
2405	 0.0418364173794 
2406	 3.91749244680429E-02 
2407	-5.97581982938605E-03 
2408	-1.12717899033719E-02 
2409	 1.53291680400072E-02 
2410	-1.62094151478694E-02 
2411	-1.97252136764819E-03 
2412	-2.47210736646719E-02 
2413	-0.127713496270875 
2414	-0.179204509745448 
2415	-0.145328933943048 
2416	-0.083860737309613 
2417	-3.28993003060214E-03 
2418	 6.47596312429843E-02 
2419	 5.71590209030854E-02 
2420	-4.23398801243211E-02 
2421	-0.197507010929896 
2422	-0.315925697863743 
2423	-0.352650258716237 
2424	-0.269767689033393 
2425	-0.246834456379574 
2426	-0.202449566881862 
2427	-0.11797035702682 
2428	-0.178868466694937 
2429	-0.174712368892143 
2430	-0.128932629236379 
2431	-0.156234259010163 
2432	-0.075065995288326 
2433	 6.28412799030819E-02 
2434	 0.157962891924357 
2435	 5.24080852135534E-02 
2436	-0.048343712729045 
2437	-2.96538483510051E-02 
2438	-0.145532063533031 
2439	-0.170214346572253 
2440	-7.87172519841977E-02 
2441	-0.264626001731328 
2442	-0.252456711202655 
2443	-2.03660030203051E-02 
2444	-1.12456461595371E-02 
2445	 0.109630815995738 
2446	 0.318470946207639 
2447	 0.026863184743714 
2448	-3.74074428764451E-02 
2449	-0.112391476527702 
2450	-0.239964479886245 
2451	-0.14594264065713 
2452	-2.53813011266992E-02 
2453	-0.280368264017367 
2454	-0.272132177959557 
2455	-0.10655635385649 
2456	-1.52097452698313E-02 
2457	 6.34164555046114E-02 
2458	 0.117542505296104 
2459	 5.88110425979429E-03 
2460	-0.312204467924161 
2461	-0.361491315492591 
2462	-0.171146409400533 
2463	-0.524529637550145 
2464	-1.12295378093942 
2465	-2.50266206094478 
2466	-0.667770402668736 
2467	-0.029460386468852 
2468	 0.370133061888359 
2469	 0.788388639051574 
2470	 0.120196626178589 
2471	-1.70419024856884 
2472	-2.02636257138168 
2473	-0.276234721812095 
2474	-0.53505767454476 
2475	 0.704570874651602 
2476	 9.35758080489497E-02 
2477	-0.993991389955522 
2478	-0.677019556869145 
2479	-0.165028991167894 
2480	 0.131139883532889 
2481	 0.675726606968692 
2482	 0.401424274164784 
2483	-3.56785981410284 
2484	 30.6676860279186 
2485	 1.23812378003446 
2486	 1.04729554934493 
2487	 1.47543718065483 
2488	 1.37502013842286 
2489	 1.68575465704884 
2490	 1.76683664274815 
2491	 1.1847196635603 
2492	 1.60080593256131 
2493	 14.8321792541248 
2494	-5.25358729037464 
2495	 1.96511704576542 
2496	 1.01299746648754 
2497	-0.651773494613659 
2498	 0.01198813767382 
2499	-126.61805624778 
2500	-0.493801553821845 
