Wavelength	rt0708c00009.asd
350	 4.74349752054687E-02 
351	 0.047306323759245 
352	 0.04707905086174 
353	 4.74441435858715E-02 
354	 4.81476091614407E-02 
355	 0.046643441024887 
356	 4.70713231265896E-02 
357	 0.047785843526894 
358	 4.66455988621738E-02 
359	 4.75841853128735E-02 
360	 0.047963450880549 
361	 4.74099112885213E-02 
362	 4.72022494963668E-02 
363	 4.73372633032943E-02 
364	 4.71753455221065E-02 
365	 4.68228988386783E-02 
366	 4.76487040678503E-02 
367	 0.047415401533643 
368	 4.69920466977924E-02 
369	 0.047412036223762 
370	 4.72374818373991E-02 
371	 4.71522761617966E-02 
372	 4.73723414352271E-02 
373	 4.77255690823472E-02 
374	 4.73788802285907E-02 
375	 4.71127493824545E-02 
376	 0.047288816568234 
377	 4.74596077832692E-02 
378	 4.76244962919405E-02 
379	 4.75435202699243E-02 
380	 4.72961915717699E-02 
381	 0.048072722153591 
382	 0.048634210113238 
383	 0.048642670209629 
384	 4.83470834568645E-02 
385	 4.85880610029682E-02 
386	 4.82699051456295E-02 
387	 4.75564722717019E-02 
388	 4.80691940400928E-02 
389	 4.83408393999059E-02 
390	 4.84721453537666E-02 
391	 4.86471249456218E-02 
392	 4.84218395835926E-02 
393	 4.85558653367642E-02 
394	 4.88897316206616E-02 
395	 4.89453477334735E-02 
396	 4.85505429634053E-02 
397	 4.83313268907657E-02 
398	 4.85014761905023E-02 
399	 4.88533449845925E-02 
400	 4.85524612094166E-02 
401	 4.84735456202166E-02 
402	 4.90462325721549E-02 
403	 4.91909025802425E-02 
404	 4.90995248099747E-02 
405	 4.89638482684841E-02 
406	 4.89708373103537E-02 
407	 4.91443396701514E-02 
408	 0.049181191851515 
409	 4.90878643010246E-02 
410	 4.91725233528207E-02 
411	 4.92617445313702E-02 
412	 4.92929157045141E-02 
413	 4.92739745511076E-02 
414	 0.049333987154085 
415	 4.93402271675849E-02 
416	 4.93571074650586E-02 
417	 4.95014366600685E-02 
418	 0.049709855716 
419	 4.98068164525731E-02 
420	 4.98041842424547E-02 
421	 4.99125790496174E-02 
422	 5.00246526776241E-02 
423	 5.01175471164319E-02 
424	 5.02169455613178E-02 
425	 5.04433578280144E-02 
426	 0.050672070896042 
427	 5.08069410960013E-02 
428	 5.08188585841698E-02 
429	 5.10226433735331E-02 
430	 5.11430205920785E-02 
431	 5.11715013160302E-02 
432	 5.14654491385787E-02 
433	 5.16621740352748E-02 
434	 5.17556963398402E-02 
435	 5.18369968382419E-02 
436	 5.20112986415148E-02 
437	 5.23647530063631E-02 
438	 5.26819353499298E-02 
439	 5.26644577288708E-02 
440	 5.28343382686364E-02 
441	 5.30724586365963E-02 
442	 5.32595385236494E-02 
443	 0.053381794594988 
444	 5.35529648423368E-02 
445	 5.37253089747746E-02 
446	 5.38290290909628E-02 
447	 0.053885594366861 
448	 5.40147928583587E-02 
449	 5.42021430004466E-02 
450	 5.43373995078336E-02 
451	 5.44575549800724E-02 
452	 5.45628817091664E-02 
453	 5.46536696544248E-02 
454	 5.47364738796531E-02 
455	 5.48281273273048E-02 
456	 5.48716973143128E-02 
457	 0.054828012192121 
458	 5.48944727597176E-02 
459	 5.49338270766583E-02 
460	 5.49349302821942E-02 
461	 0.055022407951414 
462	 5.50813535074555E-02 
463	 5.51046868182956E-02 
464	 5.51173812936869E-02 
465	 5.51660615902101E-02 
466	 5.52546416339769E-02 
467	 0.055325111777281 
468	 0.055305193435428 
469	 0.055251405888034 
470	 5.53273386234921E-02 
471	 5.55133289939003E-02 
472	 5.55405449355782E-02 
473	 5.56547299764988E-02 
474	 5.57641857125435E-02 
475	 5.57631864062657E-02 
476	 5.57956573036852E-02 
477	 5.59328100490909E-02 
478	 5.60823533481176E-02 
479	 5.60663939718901E-02 
480	 5.60650704681932E-02 
481	 5.62180305529814E-02 
482	 5.64931464414232E-02 
483	 0.056519683647246 
484	 5.66492625357944E-02 
485	 5.68178696284906E-02 
486	 5.68793528097652E-02 
487	 5.71159997581569E-02 
488	 5.72573825646374E-02 
489	 0.057302116180487 
490	 5.75191242283326E-02 
491	 5.76809863573655E-02 
492	 0.057877622688344 
493	 5.81828929984276E-02 
494	 0.058482657528155 
495	 5.86852721849038E-02 
496	 5.88398963539546E-02 
497	 5.90635926766146E-02 
498	 5.93269320299899E-02 
499	 5.95869088362115E-02 
500	 5.98035000577807E-02 
501	 5.99366034317215E-02 
502	 6.03508933592233E-02 
503	 6.07652801116274E-02 
504	 0.060894506072075 
505	 6.12408653592785E-02 
506	 6.14813265230844E-02 
507	 6.16280753326559E-02 
508	 0.061953541329289 
509	 6.22642779721051E-02 
510	 6.25028603717245E-02 
511	 6.27034146003027E-02 
512	 6.30662758047983E-02 
513	 6.34268965624448E-02 
514	 6.37945468158089E-02 
515	 6.42186034795054E-02 
516	 0.064500650208906 
517	 6.48788148188104E-02 
518	 0.065358635905092 
519	 6.56234772701163E-02 
520	 6.59265308247521E-02 
521	 6.63522577722179E-02 
522	 6.68716420327843E-02 
523	 6.72114944772289E-02 
524	 6.75366529077355E-02 
525	 6.79624619872317E-02 
526	 6.85345307630054E-02 
527	 6.89332437690298E-02 
528	 6.93588446523324E-02 
529	 6.99115838177542E-02 
530	 7.03491378199882E-02 
531	 7.07713772524914E-02 
532	 7.12470647067185E-02 
533	 7.17960353954098E-02 
534	 7.22025561764932E-02 
535	 7.26247482795094E-02 
536	 7.31497573686617E-02 
537	 7.37530044183718E-02 
538	 7.42629420230745E-02 
539	 7.47943978411484E-02 
540	 7.54177084400416E-02 
541	 0.075800334507261 
542	 7.62765558452104E-02 
543	 7.68599779762673E-02 
544	 0.077367613965729 
545	 7.78228874422795E-02 
546	 7.82650126980242E-02 
547	 7.87217113646101E-02 
548	 7.91899922399565E-02 
549	 7.97208230410143E-02 
550	 8.01955177199467E-02 
551	 8.05059955562987E-02 
552	 8.09397822569147E-02 
553	 8.14990811187288E-02 
554	 8.20646065092489E-02 
555	 8.24066386711037E-02 
556	 8.28148872923759E-02 
557	 8.32849819159206E-02 
558	 8.37293170272252E-02 
559	 8.40401054138541E-02 
560	 8.44481157463704E-02 
561	 8.48849686714091E-02 
562	 8.51280364306082E-02 
563	 8.54353952281282E-02 
564	 8.57860169550655E-02 
565	 8.61117225157451E-02 
566	 8.63245227605781E-02 
567	 8.65255123505256E-02 
568	 8.67724543263056E-02 
569	 8.70716540042275E-02 
570	 8.72485481018504E-02 
571	 8.74147516637353E-02 
572	 8.76450680021408E-02 
573	 8.79490958733211E-02 
574	 8.81014977557337E-02 
575	 8.81174260851247E-02 
576	 8.81132729317169E-02 
577	 8.83297291398448E-02 
578	 8.84822444334391E-02 
579	 0.088486088371317 
580	 8.83947345903953E-02 
581	 8.82381567569339E-02 
582	 8.81372449278393E-02 
583	 0.088117863648716 
584	 8.80301880134718E-02 
585	 8.78041888933819E-02 
586	 8.75622832725007E-02 
587	 8.74313469460137E-02 
588	 8.70917788154403E-02 
589	 8.67286896639873E-02 
590	 8.64582383493369E-02 
591	 8.62459584962273E-02 
592	 8.58022175992482E-02 
593	 8.52963774783835E-02 
594	 8.48803026589787E-02 
595	 8.43126627803328E-02 
596	 8.36755134182476E-02 
597	 8.29756824307819E-02 
598	 8.22026504777193E-02 
599	 8.15229717378088E-02 
600	 8.09271902556394E-02 
601	 8.04023363425923E-02 
602	 7.99668612799196E-02 
603	 7.96557351995009E-02 
604	 7.94327622583898E-02 
605	 7.92632685197014E-02 
606	 7.92531445173658E-02 
607	 7.92265119753486E-02 
608	 7.91335079106857E-02 
609	 7.90678956199704E-02 
610	 7.90193612663115E-02 
611	 7.89618630774856E-02 
612	 0.078885638951988 
613	 7.88500774909361E-02 
614	 7.87544422798425E-02 
615	 7.86609625762204E-02 
616	 7.86876058749884E-02 
617	 7.85552159633637E-02 
618	 7.84099337104998E-02 
619	 7.83447974671724E-02 
620	 7.83006186186462E-02 
621	 7.81904093902368E-02 
622	 7.80814117534278E-02 
623	 7.80616266947074E-02 
624	 7.80456493336129E-02 
625	 7.79766956174186E-02 
626	 0.077864838416913 
627	 7.77805718997627E-02 
628	 0.077688699140648 
629	 7.76511172820098E-02 
630	 7.76589640060441E-02 
631	 7.74578960933318E-02 
632	 7.74131164622117E-02 
633	 7.74370909181122E-02 
634	 7.72731542149397E-02 
635	 7.72175711542015E-02 
636	 7.70569712256668E-02 
637	 7.67880412650755E-02 
638	 7.67686193597166E-02 
639	 7.67400761225437E-02 
640	 0.076641855215567 
641	 7.64705139914759E-02 
642	 7.61944533220481E-02 
643	 7.60206985106285E-02 
644	 0.075928201227403 
645	 7.57178473570544E-02 
646	 7.55224020243543E-02 
647	 7.53266131320722E-02 
648	 0.075112420504815 
649	 7.49107697020404E-02 
650	 7.46580701555506E-02 
651	 7.43955078619534E-02 
652	 7.41712665011766E-02 
653	 7.37436732106165E-02 
654	 7.32602379290487E-02 
655	 7.27680920056466E-02 
656	 7.22094781166743E-02 
657	 7.17404879774489E-02 
658	 7.13286672766843E-02 
659	 7.09419858656106E-02 
660	 7.07433312330858E-02 
661	 7.04668252997614E-02 
662	 7.01420706411236E-02 
663	 6.99663328703061E-02 
664	 6.97324871945687E-02 
665	 0.069502593391446 
666	 6.93138064461985E-02 
667	 6.90994732699561E-02 
668	 6.89673290229461E-02 
669	 6.88924529012322E-02 
670	 6.88013780784165E-02 
671	 6.86174434189169E-02 
672	 6.84858666634789E-02 
673	 6.84602244402945E-02 
674	 6.84898567337892E-02 
675	 6.83974170081513E-02 
676	 6.83446049772596E-02 
677	 6.84033296362189E-02 
678	 6.82254966994719E-02 
679	 6.82114310474116E-02 
680	 6.83210064532154E-02 
681	 6.83302901905923E-02 
682	 6.82669085023859E-02 
683	 0.068324709005183 
684	 6.84910445854291E-02 
685	 6.84647971405307E-02 
686	 6.85491197946108E-02 
687	 6.86185296230867E-02 
688	 6.85460412975757E-02 
689	 6.86986487538698E-02 
690	 6.86336911953707E-02 
691	 6.84332248194647E-02 
692	 6.84467131217545E-02 
693	 6.82683581104182E-02 
694	 6.80237737439094E-02 
695	 6.77859922043013E-02 
696	 6.73849819954349E-02 
697	 6.70660649671194E-02 
698	 6.67201136613762E-02 
699	 6.61964752054583E-02 
700	 6.56105595095804E-02 
701	 6.50185202360296E-02 
702	 6.44046708433982E-02 
703	 6.36861205225045E-02 
704	 6.29364767843207E-02 
705	 6.22390795296921E-02 
706	 6.15454507195688E-02 
707	 6.04465595132072E-02 
708	 5.94931625289336E-02 
709	 0.058584612149616 
710	 5.74258797715742E-02 
711	 5.61080744092203E-02 
712	 5.48936603329998E-02 
713	 5.37793433070625E-02 
714	 5.24452262215902E-02 
715	 5.10708236186542E-02 
716	 4.97459255205102E-02 
717	 4.85545959760036E-02 
718	 4.69837427088944E-02 
719	 4.54298178830761E-02 
720	 4.42803733206042E-02 
721	 4.34239415675622E-02 
722	 4.22984354800866E-02 
723	 4.09048327034922E-02 
724	 3.95429215053663E-02 
725	 3.84496172475475E-02 
726	 3.71691198303099E-02 
727	 3.58606994069707E-02 
728	 3.46875864745175E-02 
729	 3.33330672370132E-02 
730	 3.19731622379343E-02 
731	 0.030781219655389 
732	 2.98020929067426E-02 
733	 2.88783689313118E-02 
734	 2.81476662971568E-02 
735	 2.76356066767844E-02 
736	 2.71747070094568E-02 
737	 2.68529375271994E-02 
738	 2.65931454607289E-02 
739	 2.63425867965426E-02 
740	 0.026221025424124 
741	 2.61097945986827E-02 
742	 2.59884269796883E-02 
743	 2.58882303342761E-02 
744	 2.58081131464386E-02 
745	 2.56974289444656E-02 
746	 2.55904013283339E-02 
747	 2.56370790178781E-02 
748	 2.56673577077898E-02 
749	 2.56743773044978E-02 
750	 2.56727435986364E-02 
751	 0.025607013544191 
752	 2.54733322332316E-02 
753	 2.53778747759677E-02 
754	 2.54350906789576E-02 
755	 2.53126442557109E-02 
756	 2.52487527822849E-02 
757	 2.53296563978748E-02 
758	 0.025359922548988 
759	 2.54943115224012E-02 
760	 2.57213917015033E-02 
761	 0.025774517318247 
762	 2.56716114328381E-02 
763	 2.53845099208323E-02 
764	 2.53066504088246E-02 
765	 2.56388907415239E-02 
766	 2.55238573056777E-02 
767	 2.53766645775878E-02 
768	 2.53523889083374E-02 
769	 2.53550917098121E-02 
770	 2.53772198512722E-02 
771	 2.54378814799928E-02 
772	 0.025534285123846 
773	 2.55945739546576E-02 
774	 2.55936163708639E-02 
775	 2.56106890956461E-02 
776	 2.57408810364674E-02 
777	 2.58649153815045E-02 
778	 2.59730813082107E-02 
779	 2.60633145378455E-02 
780	 2.61380876691613E-02 
781	 2.62333286569858E-02 
782	 2.64102495534934E-02 
783	 2.66283442054617E-02 
784	 2.65925733996981E-02 
785	 2.67859217235767E-02 
786	 2.70755360675407E-02 
787	 2.71593377177544E-02 
788	 2.71173496471985E-02 
789	 2.73178094944743E-02 
790	 2.77101184743683E-02 
791	 2.79060912386937E-02 
792	 2.79111434042681E-02 
793	 2.79940975216447E-02 
794	 2.82334126550084E-02 
795	 2.83321773900381E-02 
796	 2.84794791929417E-02 
797	 2.87359283640977E-02 
798	 2.90046746993494E-02 
799	 2.86997757062863E-02 
800	 2.88751951098685E-02 
801	 2.93555789960858E-02 
802	 2.93444125881331E-02 
803	 2.92355581288911E-02 
804	 0.02924001263026 
805	 2.93737750006958E-02 
806	 2.94526680202279E-02 
807	 2.92758076521162E-02 
808	 2.92634509493381E-02 
809	 2.95959744803612E-02 
810	 2.95305776031971E-02 
811	 2.91761786933068E-02 
812	 2.89273644055653E-02 
813	 2.91256628916084E-02 
814	 2.86876736391812E-02 
815	 2.85231942365401E-02 
816	 2.84792175124263E-02 
817	 2.76831815989037E-02 
818	 2.76411474242318E-02 
819	 2.74914914383893E-02 
820	 2.69739820479077E-02 
821	 2.68645991092498E-02 
822	 0.02631122310686 
823	 2.56586351370595E-02 
824	 2.52027318130159E-02 
825	 2.42447399559902E-02 
826	 2.37247831587198E-02 
827	 2.32891649652067E-02 
828	 2.23321951064147E-02 
829	 2.17746086038357E-02 
830	 2.13540022244372E-02 
831	 2.10536192220176E-02 
832	 2.09978615998784E-02 
833	 2.02865616957596E-02 
834	 1.98876605147321E-02 
835	 2.00399976325199E-02 
836	 1.97833722992892E-02 
837	 1.96058599702155E-02 
838	 1.94780934286007E-02 
839	 1.93206995784848E-02 
840	 1.91818785848466E-02 
841	 0.019238720420573 
842	 1.91340551717233E-02 
843	 1.85979619362607E-02 
844	 0.018714798741164 
845	 0.01877802364786 
846	 1.86799456894404E-02 
847	 1.87278485796423E-02 
848	 1.85872393041001E-02 
849	 1.83983439191602E-02 
850	 1.82525212841952E-02 
851	 1.81158637586587E-02 
852	 1.83026231223861E-02 
853	 0.018362708691428 
854	 1.80628610069885E-02 
855	 0.01796648596173 
856	 1.78488658994012E-02 
857	 1.77570130139822E-02 
858	 1.77644809231327E-02 
859	 0.017806170054275 
860	 1.77735657878974E-02 
861	 1.76987251304888E-02 
862	 1.76813830511141E-02 
863	 1.77555918889317E-02 
864	 1.75783891913044E-02 
865	 1.73394832820327E-02 
866	 1.76023013760561E-02 
867	 1.73153405717486E-02 
868	 1.70584646487985E-02 
869	 1.70356183455865E-02 
870	 1.67056531704191E-02 
871	 1.71385730171811E-02 
872	 1.73937622250451E-02 
873	 1.68956932393844E-02 
874	 1.68553536660753E-02 
875	 1.66686959917165E-02 
876	 1.66589496163521E-02 
877	 1.70473473105726E-02 
878	 1.67344124860221E-02 
879	 1.64057269405216E-02 
880	 1.63305035898732E-02 
881	 1.64500240738071E-02 
882	 1.62253561277597E-02 
883	 1.60938223809472E-02 
884	 1.61284551622695E-02 
885	 1.60895829655845E-02 
886	 1.59448369950277E-02 
887	 0.015838684122676 
888	 1.57387581273508E-02 
889	 1.54412479290772E-02 
890	 1.57676005299153E-02 
891	 1.58936360604766E-02 
892	 1.54691244775743E-02 
893	 1.55883310370678E-02 
894	 1.57588078417304E-02 
895	 1.57707013935229E-02 
896	 0.015673903043771 
897	 1.61467302036859E-02 
898	 1.56407491687084E-02 
899	 1.49708530614042E-02 
900	 0.015215815913735 
901	 1.52665547550124E-02 
902	 1.49349313261505E-02 
903	 1.45088892518733E-02 
904	 1.44440664348867E-02 
905	 1.50407918548606E-02 
906	 1.51189807882204E-02 
907	 1.49938093034477E-02 
908	 1.57298332459546E-02 
909	 0.014955032493432 
910	 1.41185053193642E-02 
911	 1.40598291262358E-02 
912	 1.45307666745027E-02 
913	 1.42445393166238E-02 
914	 1.45356014214821E-02 
915	 1.52030806135014E-02 
916	 1.42503886179925E-02 
917	 1.35029004455448E-02 
918	 1.36124276707079E-02 
919	 1.41143254174768E-02 
920	 1.35105847808527E-02 
921	 0.013926435882295 
922	 1.41269963063288E-02 
923	 1.32378929760799E-02 
924	 1.24839037406509E-02 
925	 1.26801045492221E-02 
926	 1.35363137318489E-02 
927	 1.43176589907301E-02 
928	 1.43571439851864E-02 
929	 1.28428604252358E-02 
930	 1.20897927851462E-02 
931	 0.015544151413441 
932	 1.79800109696759E-02 
933	 1.62748486552004E-02 
934	 1.14762779873251E-02 
935	 8.68378994005283E-03 
936	 1.32894873470495E-02 
937	 1.20758164934414E-02 
938	 1.04107093444579E-02 
939	 0.014988466445663 
940	 1.51777152070344E-02 
941	 1.07667340354151E-02 
942	 7.95175900190358E-03 
943	 0.013210796113792 
944	 0.013155019689009 
945	 1.13129971672998E-02 
946	 1.07650373804751E-02 
947	 1.24805466083626E-02 
948	 1.21759154158064E-02 
949	 1.10493583649526E-02 
950	 1.17134564101549E-02 
951	 1.53142359314069E-02 
952	 1.06719225381824E-02 
953	 1.06251848738317E-02 
954	 1.52733663623041E-02 
955	 1.53906112461521E-02 
956	 9.30199108328498E-03 
957	 1.11883869569706E-02 
958	 1.63719096115393E-02 
959	 1.06248598412014E-02 
960	 1.31521668366957E-02 
961	 1.18857541243758E-02 
962	 8.42010885163272E-03 
963	 1.27751199808453E-02 
964	 1.02713486365394E-02 
965	 9.25559098885277E-03 
966	 1.13779900191356E-02 
967	 1.22058963662763E-02 
968	 1.11128311835244E-02 
969	 9.80663980124305E-03 
970	 9.71188160134413E-03 
971	 1.11408846426745E-02 
972	 9.31038311403052E-03 
973	 8.95768556200604E-03 
974	 0.010778948331814 
975	 1.08281473540317E-02 
976	 0.01020194838931 
977	 0.011027547520408 
978	 1.21491376077635E-02 
979	 1.04753782639203E-02 
980	 1.05586484107609E-02 
981	 1.19530728130568E-02 
982	 1.28202459688476E-02 
983	 1.14172887970309E-02 
984	 1.11886775692416E-02 
985	 1.12153623281729E-02 
986	 1.08856831295086E-02 
987	 1.03058872482929E-02 
988	 1.01532218142947E-02 
989	 1.00268791757861E-02 
990	 1.00301999138137E-02 
991	 1.05870345697513E-02 
992	 1.11701604321024E-02 
993	 1.10398070321921E-02 
994	 1.10124068563424E-02 
995	 1.24125467303655E-02 
996	 1.31484253283715E-02 
997	 1.13634578020724E-02 
998	 9.56017446055554E-03 
999	 1.12786189101763E-02 
1000	 1.02167481010491E-02 
1001	 7.7851191783933E-03 
1002	 7.38712909721992E-03 
1003	 7.35301641316694E-03 
1004	 7.57405398939043E-03 
1005	 7.67762377704552E-03 
1006	 7.93390834256558E-03 
1007	 8.17702427848916E-03 
1008	 8.28725099301936E-03 
1009	 8.53495775827403E-03 
1010	 8.30634606340936E-03 
1011	 8.14686193352033E-03 
1012	 8.09720491144434E-03 
1013	 7.9648030697444E-03 
1014	 7.83138456406064E-03 
1015	 7.81331685217872E-03 
1016	 7.79851900588562E-03 
1017	 7.45440346698091E-03 
1018	 7.58715890222851E-03 
1019	 8.39161379802735E-03 
1020	 8.59206324736992E-03 
1021	 8.60735705973145E-03 
1022	 8.86042384012688E-03 
1023	 8.41905674455687E-03 
1024	 8.03916025658956E-03 
1025	 8.24413968060484E-03 
1026	 8.38068346776638E-03 
1027	 8.43340794214768E-03 
1028	 8.62649300951172E-03 
1029	 8.74762758785931E-03 
1030	 8.73468594527534E-03 
1031	 8.64521864860623E-03 
1032	 8.62908455041592E-03 
1033	 8.48758180098674E-03 
1034	 8.05430364971652E-03 
1035	 7.86427427953988E-03 
1036	 7.54192862069877E-03 
1037	 7.63142372243576E-03 
1038	 8.13836677581703E-03 
1039	 8.49794720638738E-03 
1040	 8.92794815783759E-03 
1041	 9.22631770923765E-03 
1042	 9.13543265354926E-03 
1043	 8.4352937152165E-03 
1044	 8.32229836719562E-03 
1045	 8.11517965361184E-03 
1046	 8.24171650800113E-03 
1047	 8.91659307963577E-03 
1048	 9.12489249522816E-03 
1049	 9.49138563836782E-03 
1050	 9.39875183068106E-03 
1051	 8.51289879317046E-03 
1052	 8.3231273308141E-03 
1053	 8.2124932973108E-03 
1054	 8.1904073722557E-03 
1055	 8.79361730192801E-03 
1056	 9.07225042793916E-03 
1057	 9.22763508723187E-03 
1058	 9.28500702488129E-03 
1059	 9.06389969111131E-03 
1060	 8.45671465108734E-03 
1061	 8.32677977225317E-03 
1062	 8.05137547894639E-03 
1063	 8.07560888454708E-03 
1064	 8.75366252708572E-03 
1065	 8.87618901822514E-03 
1066	 8.73254678113111E-03 
1067	 8.70739809001428E-03 
1068	 8.43650104192506E-03 
1069	 8.40763894464146E-03 
1070	 8.68517461752449E-03 
1071	 8.76297851415679E-03 
1072	 8.74620779954312E-03 
1073	 8.82740394462761E-03 
1074	 8.95388831130863E-03 
1075	 9.15667338627184E-03 
1076	 8.98272038019528E-03 
1077	 8.65175819557662E-03 
1078	 8.55751221235274E-03 
1079	 8.09680096449808E-03 
1080	 8.10109465901511E-03 
1081	 8.89421341044805E-03 
1082	 8.96557455828439E-03 
1083	 8.64252289301004E-03 
1084	 8.55368817158809E-03 
1085	 8.09507157995442E-03 
1086	 8.00036248813133E-03 
1087	 8.51873969722527E-03 
1088	 8.68312507687974E-03 
1089	 8.88807616237604E-03 
1090	 8.77408176553297E-03 
1091	 8.74849085467489E-03 
1092	 8.43836289424541E-03 
1093	 8.37688767542979E-03 
1094	 8.60389034150006E-03 
1095	 8.51372378754014E-03 
1096	 8.25626912432503E-03 
1097	 8.09552937624813E-03 
1098	 7.55953531480784E-03 
1099	 7.51337460692886E-03 
1100	 7.9542450232912E-03 
1101	 8.16549730966484E-03 
1102	 8.92199389167358E-03 
1103	 9.03704022151163E-03 
1104	 8.56443783439203E-03 
1105	 7.9101781343738E-03 
1106	 8.08125895538752E-03 
1107	 8.13588614650766E-03 
1108	 8.47368433477517E-03 
1109	 9.61890985244451E-03 
1110	 9.69541301505612E-03 
1111	 8.49971334893997E-03 
1112	 0.008068837894521 
1113	 7.00856341371534E-03 
1114	 7.30887835574336E-03 
1115	 9.76979013932486E-03 
1116	 0.010672827888204 
1117	 1.23214883186158E-02 
1118	 1.27964434707609E-02 
1119	 9.14616973684093E-03 
1120	 8.11235363269483E-03 
1121	 8.20822260139827E-03 
1122	 9.32705711170792E-03 
1123	 1.21737122091582E-02 
1124	 1.30088233868371E-02 
1125	 1.10390635433283E-02 
1126	 1.06964286447511E-02 
1127	 1.12486371281195E-02 
1128	 0.011013111776369 
1129	 1.16897955657364E-02 
1130	 1.45607832845313E-02 
1131	 1.34524884537381E-02 
1132	 1.03741263049471E-02 
1133	 1.02031536828314E-02 
1134	 9.33858332218709E-03 
1135	 8.86690500427927E-03 
1136	 1.09604557304996E-02 
1137	 1.06365521486333E-02 
1138	 7.77300523022438E-03 
1139	 7.75253618054667E-03 
1140	 9.14459661556996E-03 
1141	 8.01293925926182E-03 
1142	 7.19693570539152E-03 
1143	 7.1218017656659E-03 
1144	 8.03227599510762E-03 
1145	 9.09659750369381E-03 
1146	 9.6297033326141E-03 
1147	 9.94972846133744E-03 
1148	 9.13592296524092E-03 
1149	 8.18063304772935E-03 
1150	 7.56981184586308E-03 
1151	 7.66260746575846E-03 
1152	 7.89163787411109E-03 
1153	 7.95847630184717E-03 
1154	 8.02649869336031E-03 
1155	 8.49770176908805E-03 
1156	 8.72727894716313E-03 
1157	 8.38774153523573E-03 
1158	 8.21523070614637E-03 
1159	 8.45111300222609E-03 
1160	 8.53364195154523E-03 
1161	 7.94070109967664E-03 
1162	 7.44366500385682E-03 
1163	 7.15919808051352E-03 
1164	 6.59748824918953E-03 
1165	 6.58002374237509E-03 
1166	 6.99882562723674E-03 
1167	 7.00394493682359E-03 
1168	 6.98055237892461E-03 
1169	 7.1029879335787E-03 
1170	 7.2002362877415E-03 
1171	 7.18540151277402E-03 
1172	 6.85471679609186E-03 
1173	 6.89591504625448E-03 
1174	 7.15084933566948E-03 
1175	 7.3320607891971E-03 
1176	 7.18408092795244E-03 
1177	 7.49061533687837E-03 
1178	 7.59879953921456E-03 
1179	 7.22974734445478E-03 
1180	 7.20421983850587E-03 
1181	 7.27937847495635E-03 
1182	 7.25643872730019E-03 
1183	 7.09824581298084E-03 
1184	 7.05440118112406E-03 
1185	 7.28772863336556E-03 
1186	 7.21540956017379E-03 
1187	 7.05608561358965E-03 
1188	 7.10595696338135E-03 
1189	 6.75967625681696E-03 
1190	 6.51917310602145E-03 
1191	 6.79333063825893E-03 
1192	 6.82480272082514E-03 
1193	 6.73521785858693E-03 
1194	 6.81961104327681E-03 
1195	 7.17924559430709E-03 
1196	 7.17357816719547E-03 
1197	 7.02195783158334E-03 
1198	 6.86855544405775E-03 
1199	 6.74229903656947E-03 
1200	 6.76013105203932E-03 
1201	 6.72054772676594E-03 
1202	 6.65235529330662E-03 
1203	 6.78236041040958E-03 
1204	 6.81995564103676E-03 
1205	 6.94188831593667E-03 
1206	 7.12431606902682E-03 
1207	 6.83471872282514E-03 
1208	 6.62045698080485E-03 
1209	 6.78629878953881E-03 
1210	 6.99431346806945E-03 
1211	 7.07337540040177E-03 
1212	 6.89877522674284E-03 
1213	 6.76652032118928E-03 
1214	 6.64904454855414E-03 
1215	 6.58719351683286E-03 
1216	 6.45921269567143E-03 
1217	 6.40036774026248E-03 
1218	 6.59970526570273E-03 
1219	 6.72535369450666E-03 
1220	 6.7738593424215E-03 
1221	 7.08159653819584E-03 
1222	 6.94437522039115E-03 
1223	 6.58205767087449E-03 
1224	 6.81481783190139E-03 
1225	 6.99473114685074E-03 
1226	 6.73620885987905E-03 
1227	 6.65322939824437E-03 
1228	 6.92183451905316E-03 
1229	 7.0578083929776E-03 
1230	 7.02388013809804E-03 
1231	 6.88592893594286E-03 
1232	 6.62727049596281E-03 
1233	 6.46903286991608E-03 
1234	 6.46178941669723E-03 
1235	 6.46256188907656E-03 
1236	 6.70969793590125E-03 
1237	 6.73808223295053E-03 
1238	 6.59343508677878E-03 
1239	 6.56277834911864E-03 
1240	 6.60957585318635E-03 
1241	 0.006551377127921 
1242	 6.52214630923926E-03 
1243	 6.66855689808972E-03 
1244	 6.79783322788504E-03 
1245	 6.60104048662094E-03 
1246	 6.37586491355336E-03 
1247	 6.44723397252754E-03 
1248	 6.42869754094674E-03 
1249	 6.30724096582894E-03 
1250	 6.49605737027501E-03 
1251	 6.67468432628444E-03 
1252	 6.61280323412647E-03 
1253	 6.58679570815476E-03 
1254	 6.49380451874748E-03 
1255	 6.37816855279478E-03 
1256	 6.36805762566369E-03 
1257	 6.46588053472086E-03 
1258	 6.52449432219376E-03 
1259	 6.7470892002363E-03 
1260	 6.74271280025724E-03 
1261	 6.4302988304829E-03 
1262	 6.43141851385557E-03 
1263	 6.63749868086343E-03 
1264	 6.58878637228269E-03 
1265	 6.44771133655102E-03 
1266	 6.61911621413655E-03 
1267	 6.73374090213925E-03 
1268	 6.50473692474251E-03 
1269	 6.31792393119794E-03 
1270	 6.45980023172351E-03 
1271	 6.5940340434274E-03 
1272	 6.50113034388372E-03 
1273	 6.31771432435525E-03 
1274	 6.22935424665806E-03 
1275	 6.33794465706692E-03 
1276	 6.45985179729877E-03 
1277	 6.4883422980057E-03 
1278	 6.56407525622781E-03 
1279	 6.66728814641974E-03 
1280	 6.79337262809638E-03 
1281	 6.71061331882126E-03 
1282	 6.6125223192614E-03 
1283	 6.6414979910787E-03 
1284	 6.46807512695593E-03 
1285	 6.42454583778987E-03 
1286	 6.89742118249252E-03 
1287	 6.99305546028747E-03 
1288	 6.53056405471489E-03 
1289	 6.45246699854184E-03 
1290	 6.55278117407578E-03 
1291	 6.6633343997787E-03 
1292	 6.34806376771478E-03 
1293	 6.11620705219345E-03 
1294	 6.28332460833877E-03 
1295	 6.33704458539608E-03 
1296	 6.38866871529032E-03 
1297	 6.61426371903709E-03 
1298	 6.47150492423113E-03 
1299	 6.15760356770848E-03 
1300	 6.27718453373619E-03 
1301	 6.41451030572735E-03 
1302	 6.36489804487761E-03 
1303	 6.4109611432614E-03 
1304	 6.51986471007559E-03 
1305	 6.62360452569582E-03 
1306	 6.63306202421302E-03 
1307	 6.43033410832926E-03 
1308	 6.43255078569552E-03 
1309	 6.59966334873467E-03 
1310	 6.51047252796733E-03 
1311	 6.26407466955421E-03 
1312	 6.25036042320001E-03 
1313	 6.01697412771576E-03 
1314	 6.07654745585724E-03 
1315	 6.77513488174713E-03 
1316	 7.10028038487902E-03 
1317	 7.39861652358546E-03 
1318	 7.44859368553379E-03 
1319	 7.10056446166402E-03 
1320	 6.91510909131536E-03 
1321	 6.45078591628071E-03 
1322	 6.27328394241902E-03 
1323	 6.51202744707409E-03 
1324	 6.83189562299397E-03 
1325	 7.07157999624276E-03 
1326	 7.25432659185972E-03 
1327	 6.70401129522325E-03 
1328	 6.80395331919758E-03 
1329	 7.64019951568972E-03 
1330	 7.24314406094258E-03 
1331	 7.3398239754219E-03 
1332	 8.43920063707052E-03 
1333	 8.50453979612889E-03 
1334	 7.37498444196053E-03 
1335	 6.87772944330101E-03 
1336	 6.34612489726518E-03 
1337	 6.56138975894583E-03 
1338	 7.2500987996787E-03 
1339	 7.50080227964825E-03 
1340	 8.76599349988771E-03 
1341	 8.76051205386513E-03 
1342	 6.53878943611624E-03 
1343	 6.09103227962375E-03 
1344	 6.30014137372341E-03 
1345	 6.74302729428942E-03 
1346	 9.73283007237203E-03 
1347	 0.01125596936416 
1348	 0.011350672781077 
1349	 1.26449737342745E-02 
1350	 1.35162720710827E-02 
1351	 1.42864278496349E-02 
1352	 1.52089849485005E-02 
1353	 1.91523439437695E-02 
1354	 0.019923750329989 
1355	 2.85521914380917E-02 
1356	 1.11254539781848E-02 
1357	-1.59488842864065E-03 
1358	 4.00005926760316E-02 
1359	 8.80782118587734E-02 
1360	 8.45815052590965E-02 
1361	 0.108767737602496 
1362	 0.192602686798576 
1363	 7.38898965531077E-02 
1364	-8.63095733610324E-02 
1365	 9.81064302023002E-02 
1366	 0.323047241774041 
1367	 0.209163954694033 
1368	 0.203304998854648 
1369	 0.483378504661084 
1370	 0.579751639855963 
1371	 0.244883897792091 
1372	 0.227399491135664 
1373	 0.85563221307094 
1374	 0.625533942033118 
1375	-0.247021237113456 
1376	-0.177178892957722 
1377	 0.220654065845537 
1378	 0.140144809298515 
1379	 0.395277747576061 
1380	 0.748910217883408 
1381	 0.445477152180164 
1382	 0.21061714372755 
1383	 0.370072024650526 
1384	 0.701301311667774 
1385	 0.783679393295057 
1386	 0.619069814285692 
1387	 0.809395306027176 
1388	 0.98572093990627 
1389	 0.237752282576753 
1390	-0.100002715695381 
1391	 0.11447843712328 
1392	 0.306067771145273 
1393	 0.116712547668007 
1394	 1.22480973709596E-02 
1395	 0.408590562312292 
1396	 0.871231446202032 
1397	 0.458891142936688 
1398	 0.260294951075921 
1399	 0.124303480936013 
1400	-0.259125769376529 
1401	-0.224924429382472 
1402	 5.30894993980673E-03 
1403	 0.946052509452192 
1404	 0.803633089422883 
1405	 0.52608258611619 
1406	 0.335345748375256 
1407	 0.232920317081567 
1408	-2.36518750317504E-02 
1409	-4.63915202146643E-02 
1410	 8.65278454272141E-02 
1411	 9.20856789941932E-02 
1412	 5.40989081275766E-02 
1413	 5.77688140617853E-02 
1414	 5.21578525210832E-02 
1415	 6.22230231802823E-02 
1416	 9.96285202526285E-02 
1417	 8.22329909117443E-02 
1418	 4.77208712040349E-02 
1419	 4.44367935580212E-02 
1420	 4.26511969663708E-02 
1421	 0.027741610138096 
1422	 1.12709909338145E-02 
1423	 1.74059394752132E-02 
1424	 2.50350546029488E-02 
1425	 2.27920394640224E-02 
1426	 2.97850435032357E-02 
1427	 3.38690064935055E-02 
1428	 3.02193699681163E-02 
1429	 0.02449698258769 
1430	 0.017499271098893 
1431	 0.019018762714121 
1432	 2.45523852369617E-02 
1433	 0.019897009986972 
1434	 1.13187278331757E-02 
1435	 1.42945675218511E-02 
1436	 1.52983250841592E-02 
1437	 1.61949912617108E-02 
1438	 0.023707334462285 
1439	 2.54810760793151E-02 
1440	 1.43598874972775E-02 
1441	 7.75047009021903E-03 
1442	 1.61585352053902E-02 
1443	 1.92016687065911E-02 
1444	 1.42453128345628E-02 
1445	 1.24916837363978E-02 
1446	 1.07026408262954E-02 
1447	 8.31439234418755E-03 
1448	 5.10137380036179E-03 
1449	 5.21648754079935E-03 
1450	 1.03697340292227E-02 
1451	 1.13357081711975E-02 
1452	 9.01631851697827E-03 
1453	 1.00001154583222E-02 
1454	 9.97722991732401E-03 
1455	 7.40519445577892E-03 
1456	 6.17683641092269E-03 
1457	 6.91780584294325E-03 
1458	 6.89878615626447E-03 
1459	 4.99281982480423E-03 
1460	 5.15548576124581E-03 
1461	 7.7327452959444E-03 
1462	 7.81554210325564E-03 
1463	 6.69547716274957E-03 
1464	 6.96392085360439E-03 
1465	 7.19488592116699E-03 
1466	 6.75986786992292E-03 
1467	 6.35516825021516E-03 
1468	 6.93682460230908E-03 
1469	 7.54401854424863E-03 
1470	 7.49973425211653E-03 
1471	 8.75716072896585E-03 
1472	 9.48573048403739E-03 
1473	 8.35401599467001E-03 
1474	 7.58030955603767E-03 
1475	 7.18058269880695E-03 
1476	 7.72796690286648E-03 
1477	 9.00646626155222E-03 
1478	 8.72270133516859E-03 
1479	 8.3917808630248E-03 
1480	 8.45871338379929E-03 
1481	 7.29548054668413E-03 
1482	 6.68254909755917E-03 
1483	 6.88660606314679E-03 
1484	 7.5091567158049E-03 
1485	 8.53023592641095E-03 
1486	 8.22519834215353E-03 
1487	 7.82146346555325E-03 
1488	 0.007727821704843 
1489	 6.62517069216517E-03 
1490	 6.24753770521571E-03 
1491	 7.0823560173225E-03 
1492	 7.07283997459867E-03 
1493	 6.45707641699802E-03 
1494	 6.15996206603147E-03 
1495	 5.87914726007358E-03 
1496	 5.70946423288469E-03 
1497	 5.44925049389482E-03 
1498	 5.34875146771776E-03 
1499	 5.37053647287973E-03 
1500	 5.57022123315447E-03 
1501	 6.18162412436076E-03 
1502	 6.31780779545881E-03 
1503	 6.26958301294254E-03 
1504	 6.25311541262482E-03 
1505	 5.88729545637663E-03 
1506	 5.75791768975918E-03 
1507	 5.76640692870061E-03 
1508	 5.69085589373561E-03 
1509	 5.61309176379841E-03 
1510	 5.72518094019978E-03 
1511	 5.97877241006891E-03 
1512	 6.1921127860804E-03 
1513	 6.31450732239116E-03 
1514	 6.18810427625298E-03 
1515	 6.10097890975226E-03 
1516	 6.16613876572272E-03 
1517	 5.91356250996271E-03 
1518	 5.85227144380735E-03 
1519	 6.15754325763921E-03 
1520	 6.14986357484386E-03 
1521	 5.92729659386149E-03 
1522	 5.96273769743032E-03 
1523	 5.82969195151608E-03 
1524	 5.44158715611815E-03 
1525	 5.6852163782366E-03 
1526	 6.05146456932113E-03 
1527	 5.97193788739983E-03 
1528	 6.04685909709125E-03 
1529	 6.23260974972955E-03 
1530	 6.05930029815483E-03 
1531	 5.86756200125019E-03 
1532	 5.97629802419718E-03 
1533	 5.80822673901777E-03 
1534	 5.64342141440159E-03 
1535	 5.81572526949759E-03 
1536	 5.7128171895614E-03 
1537	 5.44761230149918E-03 
1538	 5.44853013213246E-03 
1539	 5.69906567897816E-03 
1540	 5.8042016225962E-03 
1541	 5.69020372958916E-03 
1542	 5.70483059024734E-03 
1543	 5.88554758300254E-03 
1544	 5.97467185336528E-03 
1545	 5.85023204396312E-03 
1546	 5.94492395738549E-03 
1547	 6.1674925366531E-03 
1548	 6.06169958826546E-03 
1549	 6.05466045185588E-03 
1550	 6.2547344114148E-03 
1551	 6.09186278078388E-03 
1552	 5.78795885793403E-03 
1553	 5.86504501957887E-03 
1554	 5.90275514683641E-03 
1555	 5.76350306107284E-03 
1556	 5.81975650078118E-03 
1557	 5.8808879188584E-03 
1558	 5.89241805415182E-03 
1559	 6.00416821908903E-03 
1560	 6.01949713058549E-03 
1561	 5.74108416110362E-03 
1562	 5.63795244510937E-03 
1563	 5.93019000015487E-03 
1564	 6.01889280408372E-03 
1565	 5.96609659733041E-03 
1566	 6.05390841220035E-03 
1567	 5.87736215892199E-03 
1568	 5.53239046184254E-03 
1569	 5.68372138226813E-03 
1570	 5.9471567903865E-03 
1571	 5.85562741413238E-03 
1572	 5.70727127792991E-03 
1573	 5.60636583380124E-03 
1574	 5.69840291423946E-03 
1575	 5.8261831632511E-03 
1576	 5.80891170564469E-03 
1577	 5.75209648108525E-03 
1578	 5.69662383884018E-03 
1579	 5.68801927323926E-03 
1580	 5.74583823571328E-03 
1581	 5.98966657629659E-03 
1582	 6.05281801814476E-03 
1583	 5.73611384055057E-03 
1584	 5.78033955858253E-03 
1585	 5.92111121863168E-03 
1586	 5.65425133679788E-03 
1587	 5.78227701256384E-03 
1588	 6.17007350087301E-03 
1589	 6.12440118887962E-03 
1590	 6.0195517517117E-03 
1591	 6.02294676235482E-03 
1592	 5.85910517128962E-03 
1593	 5.5314966322569E-03 
1594	 5.28837421011149E-03 
1595	 5.33580952152858E-03 
1596	 5.45582680654227E-03 
1597	 5.58075471846066E-03 
1598	 5.92879947141992E-03 
1599	 6.20163631705807E-03 
1600	 5.99549620600415E-03 
1601	 5.67064734431692E-03 
1602	 5.6974248950842E-03 
1603	 5.84879455301888E-03 
1604	 5.87734402587043E-03 
1605	 5.96899205927449E-03 
1606	 5.95587659167887E-03 
1607	 5.62519247597205E-03 
1608	 5.6909701911179E-03 
1609	 6.09780334641375E-03 
1610	 6.07346996032577E-03 
1611	 6.01171392443586E-03 
1612	 5.87539990847551E-03 
1613	 5.43357437278414E-03 
1614	 5.56529455571146E-03 
1615	 6.13880062094353E-03 
1616	 0.006249485913386 
1617	 6.03343900511424E-03 
1618	 5.84297691102872E-03 
1619	 0.00570884161978 
1620	 5.74780898981059E-03 
1621	 5.77599994126851E-03 
1622	 5.62084381544645E-03 
1623	 5.54605047613889E-03 
1624	 5.49556892196087E-03 
1625	 5.36607358932337E-03 
1626	 5.31139551124253E-03 
1627	 5.45150954971342E-03 
1628	 5.60895972203978E-03 
1629	 5.55572013240264E-03 
1630	 5.79361801568434E-03 
1631	 6.07502530372888E-03 
1632	 5.68185269023206E-03 
1633	 5.45306342174428E-03 
1634	 5.85517609783261E-03 
1635	 6.11763726633828E-03 
1636	 0.006087439240039 
1637	 6.06539461312681E-03 
1638	 5.98637410360319E-03 
1639	 5.94769278803509E-03 
1640	 5.93676756445042E-03 
1641	 5.88304240840341E-03 
1642	 5.94011237018219E-03 
1643	 5.7336600321171E-03 
1644	 5.49227674834176E-03 
1645	 5.81636381998264E-03 
1646	 6.19056514647461E-03 
1647	 6.08462121802392E-03 
1648	 5.79556612517899E-03 
1649	 5.71698391673945E-03 
1650	 5.80212843653622E-03 
1651	 6.0272472624793E-03 
1652	 6.20070102759948E-03 
1653	 5.75628677709262E-03 
1654	 5.67510852088251E-03 
1655	 5.71572363509306E-03 
1656	 5.61975094642494E-03 
1657	 5.6201339731269E-03 
1658	 5.56530445128872E-03 
1659	 5.3343443592812E-03 
1660	 5.44501614822295E-03 
1661	 5.93785856685329E-03 
1662	 6.05420454637599E-03 
1663	 5.99789350926908E-03 
1664	 5.90350562220097E-03 
1665	 5.6285444885455E-03 
1666	 5.4720477012664E-03 
1667	 5.32588809625445E-03 
1668	 5.46246392529151E-03 
1669	 5.5502877641273E-03 
1670	 5.5445134045852E-03 
1671	 5.53310896472757E-03 
1672	 5.56634748192896E-03 
1673	 5.56885619777932E-03 
1674	 5.38509210474256E-03 
1675	 5.71009466294898E-03 
1676	 6.39070816138137E-03 
1677	 6.17024432875323E-03 
1678	 5.72315209259615E-03 
1679	 5.78635368843157E-03 
1680	 5.5985708389967E-03 
1681	 5.30204680870215E-03 
1682	 5.61933274352984E-03 
1683	 0.005969414602161 
1684	 5.73039210324077E-03 
1685	 5.74757368927587E-03 
1686	 5.98155568438527E-03 
1687	 5.85004139859895E-03 
1688	 5.74653713863585E-03 
1689	 5.57634458724675E-03 
1690	 5.53204415033188E-03 
1691	 5.7604994609855E-03 
1692	 0.005889787118671 
1693	 6.24975934844771E-03 
1694	 6.48846123318841E-03 
1695	 5.93086758564591E-03 
1696	 5.39111162534149E-03 
1697	 5.70874275412711E-03 
1698	 6.16419420112031E-03 
1699	 6.14306425213854E-03 
1700	 6.18287189219973E-03 
1701	 6.13344957970347E-03 
1702	 5.52031423625579E-03 
1703	 5.41386197700373E-03 
1704	 6.1027328346298E-03 
1705	 6.16156034536538E-03 
1706	 6.06074158236219E-03 
1707	 6.55047409629292E-03 
1708	 6.58029149151777E-03 
1709	 6.22977857482948E-03 
1710	 6.1678238701794E-03 
1711	 6.20095510255049E-03 
1712	 5.94254005706846E-03 
1713	 6.2148671575859E-03 
1714	 6.32981839308992E-03 
1715	 6.05740527827119E-03 
1716	 5.70437330790646E-03 
1717	 5.6175609670252E-03 
1718	 5.5263893868443E-03 
1719	 5.37717367431175E-03 
1720	 5.46637892353954E-03 
1721	 5.61212315829339E-03 
1722	 5.51743620215084E-03 
1723	 6.08435363977157E-03 
1724	 7.01599547313569E-03 
1725	 7.10559335175005E-03 
1726	 6.28880633287984E-03 
1727	 5.50495940376777E-03 
1728	 5.54059453675998E-03 
1729	 5.42767204814109E-03 
1730	 5.22170787385032E-03 
1731	 5.81068269364262E-03 
1732	 5.57336633076799E-03 
1733	 4.56766912601867E-03 
1734	 5.36419098553695E-03 
1735	 6.60343049599961E-03 
1736	 6.51226319790302E-03 
1737	 6.92027140420474E-03 
1738	 6.84891926402737E-03 
1739	 5.51187509992804E-03 
1740	 5.35248875103396E-03 
1741	 5.54512103026996E-03 
1742	 5.17109227288371E-03 
1743	 5.35383746229451E-03 
1744	 5.48646098380728E-03 
1745	 0.005445299458894 
1746	 6.23811997426446E-03 
1747	 6.63786428665999E-03 
1748	 7.0026209187107E-03 
1749	 6.80195408397303E-03 
1750	 5.99544815155329E-03 
1751	 5.51901152840093E-03 
1752	 4.47848532064291E-03 
1753	 4.65657229026655E-03 
1754	 6.09478785587396E-03 
1755	 6.08390814903132E-03 
1756	 5.70398814442728E-03 
1757	 5.23853998198243E-03 
1758	 5.30051250494312E-03 
1759	 6.33417501796156E-03 
1760	 6.72919768441308E-03 
1761	 5.8562395012254E-03 
1762	 5.18762846366748E-03 
1763	 5.40396631283037E-03 
1764	 5.64596865367547E-03 
1765	 6.51635666621789E-03 
1766	 6.68570622872112E-03 
1767	 5.6688510489114E-03 
1768	 5.91152672815653E-03 
1769	 6.64722915734089E-03 
1770	 6.79010514348963E-03 
1771	 6.51581015569071E-03 
1772	 5.6431781029691E-03 
1773	 4.64633289953659E-03 
1774	 4.79089247872055E-03 
1775	 7.0180163868608E-03 
1776	 7.39155025439118E-03 
1777	 6.41486271017652E-03 
1778	 6.10027864921832E-03 
1779	 4.25065190326269E-03 
1780	 3.87937591747998E-03 
1781	 5.61075877363706E-03 
1782	 6.52354278259755E-03 
1783	 7.89242138295839E-03 
1784	 8.60262588708364E-03 
1785	 8.62633605133341E-03 
1786	 8.08482768851457E-03 
1787	 6.62334307924571E-03 
1788	 7.2495511368788E-03 
1789	 8.76274506792814E-03 
1790	 8.93364441986205E-03 
1791	 9.03129595496751E-03 
1792	 8.76068104976468E-03 
1793	 7.95999014626942E-03 
1794	 9.62137364354768E-03 
1795	 9.18783942079459E-03 
1796	 3.49589673607293E-03 
1797	 4.85232818535026E-03 
1798	 5.64417940583802E-03 
1799	 4.16122762424237E-03 
1800	 6.55052925773491E-03 
1801	 7.18630342480316E-03 
1802	 9.32193725431048E-03 
1803	 1.85596662214294E-02 
1804	 4.23622288540443E-02 
1805	 5.05572916651654E-02 
1806	 3.82744441663812E-02 
1807	 3.58773557306355E-02 
1808	 5.85393182325961E-03 
1809	-7.89602681133657E-03 
1810	 4.17790213506328E-02 
1811	 7.10097080386785E-02 
1812	 9.16679877785265E-02 
1813	 0.107321391076921 
1814	 7.92231932650425E-02 
1815	 0.159589804031406 
1816	 0.302528822510623 
1817	 0.418535636439578 
1818	 1.15125951127821 
1819	 0.690145458726439 
1820	 0.55830380236294 
1821	 0.81311524141889 
1822	 0.650413182666543 
1823	 0.021472008778763 
1824	-0.179012636994606 
1825	-0.260132708565424 
1826	-0.239488254673956 
1827	 0.556163409604905 
1828	 0.888841637594706 
1829	 1.10922168275764 
1830	 1.00942659631915 
1831	 1.05916861043343 
1832	 1.10004863905701 
1833	 1.4300323815341 
1834	 2.17684824636092 
1835	 8.81873551505279 
1836	 43.1758019873378 
1837	 3.67122529032954 
1838	 3.11984301097501 
1839	 1.83046834158017 
1840	 0.666830424722807 
1841	 0.376327486282755 
1842	 0.895840705559221 
1843	 0.828562274322331 
1844	 0.384576064352761 
1845	 0.28510906131421 
1846	-0.137444037368308 
1847	-1.54564016115483 
1848	-69.2666340906033 
1849	 7.62131148700886 
1850	-0.864946031879463 
1851	-0.458531293477628 
1852	-0.333434532362755 
1853	-0.636994139761106 
1854	-0.642348964509611 
1855	-0.328243391215514 
1856	-1.8226810591933 
1857	-2.33907848232893 
1858	-1.45652220301216 
1859	-0.526891032502796 
1860	-0.297632353642211 
1861	 4.43806888643315E-02 
1862	 1.07234126848953 
1863	 4.42566082977243 
1864	-1.33335692628376 
1865	-0.939719684933805 
1866	-2.16471169889002 
1867	-2.86344050106344 
1868	 0.20183294065368 
1869	-0.39589309945095 
1870	-0.230218387155677 
1871	 0.677259033352516 
1872	-5.35871212840274 
1873	-0.30011565643161 
1874	 0.614077269789457 
1875	 7.68338354337182 
1876	-5.9405764717871 
1877	 0.569639419798584 
1878	 0.989682931849687 
1879	-8.31017218326819 
1880	-4.64001102748992 
1881	-1.90182274045947 
1882	-1.39383236487 
1883	 2.05861466456609 
1884	 0.584531718525551 
1885	 0.684560542115572 
1886	 1.17418463248089 
1887	 0.626930412678595 
1888	-0.319857660492671 
1889	-0.965991881623142 
1890	 0.235055222250457 
1891	 0.223117705794577 
1892	 0.16476909755906 
1893	-3.03450452648374E-02 
1894	-1.08564659460129E-02 
1895	-1.5631143406131 
1896	 0.677622547188435 
1897	-4.42859824836361 
1898	-4.59242423712475 
1899	-3.67901997393474 
1900	-3.51376639652172 
1901	 1.85102209452934 
1902	 0.796269125075603 
1903	-0.151009343396827 
1904	 5.7053599728442 
1905	-1.34590304711857 
1906	-2.56961187727783 
1907	 1.06206372370402 
1908	-0.734816683601579 
1909	-0.200536365901489 
1910	-1.33809465417578 
1911	-0.427371615489809 
1912	-3.08055774710071 
1913	-5.55119555341655 
1914	 0.565076048478234 
1915	 0.937614335712462 
1916	 419.542423603005 
1917	-0.755932657911288 
1918	-0.341984285776545 
1919	-0.241087555405385 
1920	-0.14567562225917 
1921	-0.793290397033616 
1922	-1.16051818641841 
1923	-0.422333776457953 
1924	-39.0764295188952 
1925	-3.42265993076103 
1926	-3.28248598500492 
1927	-0.894806717292326 
1928	-0.87890479413563 
1929	 1.10332806903287 
1930	-4.96769731935729 
1931	-0.903850367490197 
1932	-0.365872902360268 
1933	-0.264088067707911 
1934	-0.275470938878372 
1935	-0.189172909112429 
1936	-0.139205181951646 
1937	-7.36400272849189E-02 
1938	-0.047175862700606 
1939	-1.87378485455346E-02 
1940	-8.16651777318793E-03 
1941	 8.16413469538985E-03 
1942	-0.017835326809063 
1943	-2.61945786781842E-02 
1944	-2.32970799316164E-02 
1945	-0.003223561657301 
1946	 2.25737627304526E-02 
1947	 3.88495901265363E-02 
1948	 2.69289711571101E-02 
1949	-4.25233250840559E-03 
1950	-1.10514562783043E-02 
1951	-1.61501456236745E-02 
1952	-1.04432933846897E-02 
1953	 1.17227668561552E-02 
1954	 3.70945923407556E-02 
1955	 3.30322467531196E-02 
1956	 1.46279958341367E-02 
1957	 2.96248674436873E-03 
1958	-7.82716559285445E-03 
1959	-1.81031001617407E-02 
1960	-1.07469503742312E-02 
1961	 7.18806070219087E-04 
1962	 4.75730443755927E-03 
1963	 5.16279391520629E-03 
1964	 2.40938173716038E-03 
1965	 1.41631313126537E-03 
1966	 2.86967578694772E-03 
1967	 5.20235336266099E-03 
1968	 5.57838654200116E-03 
1969	 5.42797145275023E-03 
1970	 6.27007059930235E-03 
1971	 2.94300821368826E-03 
1972	 1.45562438697006E-03 
1973	 5.16872514609855E-03 
1974	 6.3342222293784E-03 
1975	 5.27483640445642E-03 
1976	 4.99472593084417E-03 
1977	 4.96306534768383E-03 
1978	 4.64683393197671E-03 
1979	 4.51850243505919E-03 
1980	 5.38179821987524E-03 
1981	 6.14643405598807E-03 
1982	 5.52009190880286E-03 
1983	 4.52250927584669E-03 
1984	 4.31022093631078E-03 
1985	 4.43751235586496E-03 
1986	 4.10746783977673E-03 
1987	 4.93514460139154E-03 
1988	 5.54532142991441E-03 
1989	 5.81319843717262E-03 
1990	 6.58842446933644E-03 
1991	 5.91577926482803E-03 
1992	 3.55148883735071E-03 
1993	 2.01041522261916E-03 
1994	 1.5312369702989E-03 
1995	 1.4742135716199E-03 
1996	 0.001243812009642 
1997	 3.92022189123402E-03 
1998	 5.68545944138242E-03 
1999	 4.24322977798216E-03 
2000	 5.49204763644094E-03 
2001	 5.19419317652283E-03 
2002	 5.73087109866871E-03 
2003	 1.24691005097814E-02 
2004	 1.64742061839273E-02 
2005	 1.82181421005286E-02 
2006	 1.76810173312741E-02 
2007	 1.08456754351166E-02 
2008	 3.59545041977586E-03 
2009	 3.66421070445851E-04 
2010	 1.57760486060031E-03 
2011	 8.96067354052769E-04 
2012	 9.36245590920491E-04 
2013	 1.2030843208903E-03 
2014	 3.54170999815146E-03 
2015	 4.91899380343716E-03 
2016	 5.4797755501196E-03 
2017	 7.89588115036121E-03 
2018	 8.41399800356495E-03 
2019	 5.57265196246341E-03 
2020	 4.08117982971502E-03 
2021	 3.36067649297844E-03 
2022	 2.9992506706041E-03 
2023	 4.22453600936012E-03 
2024	 4.72544958848816E-03 
2025	 6.19922208819396E-03 
2026	 6.36783885742521E-03 
2027	 5.75790722397571E-03 
2028	 5.04134864370838E-03 
2029	 5.00321591144676E-03 
2030	 4.99927249176116E-03 
2031	 4.82946875361013E-03 
2032	 4.11571737184449E-03 
2033	 3.3333405190399E-03 
2034	 2.79748666143945E-03 
2035	 2.36418939298013E-03 
2036	 2.93251118983689E-03 
2037	 3.57598344662078E-03 
2038	 3.69129586756597E-03 
2039	 3.82448124998819E-03 
2040	 3.69566473324396E-03 
2041	 3.97701734456804E-03 
2042	 4.46641678592582E-03 
2043	 4.82901553892911E-03 
2044	 5.62604711475801E-03 
2045	 5.95222167651856E-03 
2046	 5.53490277978951E-03 
2047	 5.71397751765387E-03 
2048	 5.7754864340246E-03 
2049	 5.18002979836236E-03 
2050	 5.02455086003148E-03 
2051	 4.89070775754117E-03 
2052	 5.0447635561659E-03 
2053	 5.94067123445249E-03 
2054	 6.45452579411847E-03 
2055	 6.93383935022156E-03 
2056	 7.1582864211044E-03 
2057	 6.53689771474382E-03 
2058	 6.52831112632399E-03 
2059	 6.82622535338077E-03 
2060	 6.74001425098755E-03 
2061	 6.33947011374339E-03 
2062	 6.89169005184351E-03 
2063	 7.12660847586585E-03 
2064	 7.51102794154671E-03 
2065	 7.35942484332261E-03 
2066	 6.10141642538134E-03 
2067	 3.95142166240847E-03 
2068	 2.77117900035306E-03 
2069	 1.73556954303816E-03 
2070	 8.31188580382069E-04 
2071	 2.02966697993045E-03 
2072	 2.24701571439378E-03 
2073	 2.37846764420041E-03 
2074	 3.11215725031261E-03 
2075	 3.45570329626345E-03 
2076	 2.69841230308969E-03 
2077	 3.24484244326288E-03 
2078	 4.70544319010195E-03 
2079	 4.93701858331774E-03 
2080	 4.92551942749088E-03 
2081	 5.49162497226899E-03 
2082	 5.07923696186035E-03 
2083	 5.53485373840927E-03 
2084	 5.85707362703997E-03 
2085	 5.19093191630371E-03 
2086	 5.24506781024952E-03 
2087	 4.96115509018372E-03 
2088	 4.46849153961552E-03 
2089	 4.39954861653222E-03 
2090	 4.28208427389843E-03 
2091	 3.80594106292504E-03 
2092	 3.63452744846287E-03 
2093	 4.32613034000645E-03 
2094	 4.47643221842816E-03 
2095	 4.0342575455686E-03 
2096	 4.08539001600884E-03 
2097	 4.59237448722823E-03 
2098	 4.71281636704823E-03 
2099	 4.50139433935884E-03 
2100	 4.75096671069144E-03 
2101	 5.84539878067683E-03 
2102	 5.84947095664736E-03 
2103	 6.14516673374255E-03 
2104	 5.8598572136522E-03 
2105	 4.16745117988338E-03 
2106	 3.97713965709857E-03 
2107	 3.80264599169479E-03 
2108	 3.94670913103065E-03 
2109	 4.75829902106764E-03 
2110	 3.99322747942167E-03 
2111	 3.60691156372716E-03 
2112	 4.49828385213847E-03 
2113	 5.26943751042792E-03 
2114	 7.01397834101888E-03 
2115	 7.36331534880185E-03 
2116	 7.1018921999995E-03 
2117	 6.98421612692968E-03 
2118	 5.53011054621821E-03 
2119	 5.44365814377586E-03 
2120	 6.65748102325488E-03 
2121	 7.29078623528731E-03 
2122	 6.35964818317315E-03 
2123	 6.08447877501298E-03 
2124	 5.54215536263786E-03 
2125	 4.45704541283206E-03 
2126	 3.82771656022974E-03 
2127	 4.01779352988313E-03 
2128	 5.26440232277938E-03 
2129	 5.51298451661558E-03 
2130	 5.00953741639334E-03 
2131	 5.01073334511645E-03 
2132	 4.62916574453042E-03 
2133	 3.89142318361233E-03 
2134	 3.56217823128604E-03 
2135	 4.62611440494433E-03 
2136	 4.78757743574657E-03 
2137	 4.02588312078675E-03 
2138	 3.93587762195564E-03 
2139	 3.92918953965852E-03 
2140	 4.19696738469007E-03 
2141	 5.31144060858786E-03 
2142	 5.19265970466846E-03 
2143	 4.09433066085863E-03 
2144	 4.75178155011307E-03 
2145	 5.2769979999512E-03 
2146	 4.89655805876704E-03 
2147	 6.0937782396339E-03 
2148	 6.53921361613447E-03 
2149	 4.65648306586428E-03 
2150	 3.41492793858925E-03 
2151	 3.38490423501099E-03 
2152	 2.57603980459299E-03 
2153	 2.57053706192971E-03 
2154	 3.25199427718263E-03 
2155	 2.74126609758101E-03 
2156	 3.21196221893292E-03 
2157	 3.3608181333507E-03 
2158	 3.3064513877004E-03 
2159	 3.30355249429011E-03 
2160	 3.86785884426949E-03 
2161	 3.46021250653428E-03 
2162	 2.11095178347273E-03 
2163	 2.03148685129212E-03 
2164	 1.86496835918148E-03 
2165	 1.77204412108975E-03 
2166	 2.25517167432553E-03 
2167	 3.07185788753453E-03 
2168	 4.82947361477272E-03 
2169	 5.11140166523468E-03 
2170	 4.5380208380667E-03 
2171	 5.54063070792787E-03 
2172	 5.33643603023145E-03 
2173	 3.70582144511896E-03 
2174	 4.09477298045196E-03 
2175	 5.45235620098684E-03 
2176	 5.87397853231598E-03 
2177	 5.30125855259359E-03 
2178	 4.95265422474158E-03 
2179	 4.43176812560917E-03 
2180	 4.28256774974278E-03 
2181	 5.26591826882308E-03 
2182	 5.51648665739768E-03 
2183	 5.32208952449895E-03 
2184	 5.40749644260711E-03 
2185	 4.29011812010858E-03 
2186	 3.57554521743865E-03 
2187	 3.62575156954515E-03 
2188	 3.3628168803894E-03 
2189	 1.66394466990251E-03 
2190	 1.68775098303735E-03 
2191	 3.18327937388562E-03 
2192	 3.34655687525651E-03 
2193	 3.82268706460317E-03 
2194	 4.80336021526688E-03 
2195	 5.74655267859289E-03 
2196	 5.35659224412474E-03 
2197	 3.6205129276469E-03 
2198	 3.74354814460226E-03 
2199	 3.90743236143722E-03 
2200	 4.85881150378227E-03 
2201	 5.35788048830508E-03 
2202	 5.38244564347583E-03 
2203	 4.32880508506516E-03 
2204	 3.59851228982272E-03 
2205	 4.22583039385635E-03 
2206	 5.30049350059887E-03 
2207	 5.35477262491009E-03 
2208	 3.84362567018277E-03 
2209	 2.92714733680265E-03 
2210	 3.05954272177511E-03 
2211	 3.29189443795859E-03 
2212	 3.49616000402778E-03 
2213	 4.59939683225847E-03 
2214	 4.96138703662317E-03 
2215	 3.21457821400047E-03 
2216	 2.23799521745915E-03 
2217	 2.39729044288923E-03 
2218	 2.78891857013162E-03 
2219	 3.48107004758144E-03 
2220	 6.50944202755925E-03 
2221	 7.04316192832636E-03 
2222	 5.21514283304728E-03 
2223	 4.71526095606233E-03 
2224	 4.3436368067756E-03 
2225	 3.87276379638573E-03 
2226	 4.17640098715009E-03 
2227	 4.39757709400645E-03 
2228	 3.53842302975044E-03 
2229	 3.73728813600053E-03 
2230	 4.71171625988603E-03 
2231	 5.59562583562641E-03 
2232	 8.29953589165486E-03 
2233	 8.56130985985056E-03 
2234	 7.50761223306445E-03 
2235	 5.97557985323497E-03 
2236	 5.01187443343515E-03 
2237	 3.36719030094806E-03 
2238	 1.74503728359457E-03 
2239	 2.70944403305345E-03 
2240	 2.46692665662241E-03 
2241	 1.69551757429083E-03 
2242	 4.44027503931787E-03 
2243	 5.35034520741934E-03 
2244	 3.83532982812494E-03 
2245	 4.27806927847486E-03 
2246	 3.78837858497069E-03 
2247	 2.37015983681545E-03 
2248	 3.30676569255212E-03 
2249	 3.8770757917759E-03 
2250	 4.83120580363244E-03 
2251	 6.74375390271034E-03 
2252	 5.79550905224132E-03 
2253	 5.42235113882772E-03 
2254	 5.72237113863248E-03 
2255	 5.28566455895116E-03 
2256	 7.47429159752637E-03 
2257	 9.34603225974738E-03 
2258	 8.2236472935837E-03 
2259	 6.20358895917643E-03 
2260	 4.76050062539597E-03 
2261	 1.19103165953995E-03 
2262	 7.54936780406398E-04 
2263	 2.85421104041308E-03 
2264	 2.88452312288325E-03 
2265	 3.34638724765566E-03 
2266	 3.9026513293241E-03 
2267	 4.11500459156837E-03 
2268	 4.30514996181945E-03 
2269	 5.2392094490641E-03 
2270	 4.32898358950111E-03 
2271	 1.02756974983145E-04 
2272	-3.5110303553755E-04 
2273	 1.6381361887207E-03 
2274	 2.13311710441626E-03 
2275	 3.44935126234882E-03 
2276	 4.68389642981217E-03 
2277	 5.37280068752934E-03 
2278	 5.20339886117969E-03 
2279	 5.80361609665004E-03 
2280	 5.74813786912284E-03 
2281	 3.85371105339792E-03 
2282	 1.8962854064076E-03 
2283	 3.99916275771303E-03 
2284	 4.63200381626843E-03 
2285	 7.81684762808617E-03 
2286	 1.04942485814995E-02 
2287	 5.59216167028286E-03 
2288	 5.53353147305443E-03 
2289	 7.31760441866295E-03 
2290	 4.88890259692199E-03 
2291	 6.16126607915233E-03 
2292	 6.18029564755501E-03 
2293	 4.19881499156062E-03 
2294	 7.5371146918003E-03 
2295	 1.32222265303535E-02 
2296	 1.61149297790089E-02 
2297	 1.39415651447641E-02 
2298	 9.70530967524455E-03 
2299	 7.77097184999878E-03 
2300	 6.84116944264717E-03 
2301	 8.70081310252387E-03 
2302	 8.05029172952599E-03 
2303	 3.21467874662352E-03 
2304	 1.91105261048783E-03 
2305	-7.56878809585875E-04 
2306	-2.63874268831838E-03 
2307	-9.45432771120126E-04 
2308	-1.28130282179862E-03 
2309	 2.31527110961286E-03 
2310	 5.19149647079757E-03 
2311	 6.5829723279939E-04 
2312	 9.34683690705001E-04 
2313	 1.77770047047734E-03 
2314	 7.47785582047912E-04 
2315	 6.60253769733177E-03 
2316	 1.12548821777001E-02 
2317	 1.02511253839488E-02 
2318	 1.09896500802103E-02 
2319	 0.011392375441072 
2320	 7.19662405809652E-03 
2321	 7.23827458626925E-03 
2322	 3.18305560563764E-03 
2323	 8.2128686044139E-04 
2324	 7.56763744679058E-03 
2325	 4.35212657659849E-03 
2326	 3.2387000193363E-03 
2327	 6.18922567810701E-03 
2328	 4.64720869328505E-05 
2329	-2.46316703140668E-03 
2330	 2.97420904004698E-03 
2331	 8.21429087694311E-03 
2332	 6.72638804070198E-03 
2333	 1.61675787048501E-03 
2334	 4.90718544591881E-03 
2335	 9.44933744044053E-03 
2336	 0.013267716424678 
2337	 0.021565555657215 
2338	 2.73262505660345E-02 
2339	 2.23128771044924E-02 
2340	 1.77602084766028E-02 
2341	 2.25250127433462E-02 
2342	 1.53836016002896E-02 
2343	 6.40457868568905E-03 
2344	 7.84426722830743E-03 
2345	 7.64446952759589E-03 
2346	 4.92943143232925E-03 
2347	 6.64671482067748E-03 
2348	 4.12993138770747E-03 
2349	-7.47237311236853E-03 
2350	-1.08775046414508E-02 
2351	-1.38352881153681E-02 
2352	-1.00722185666134E-02 
2353	-2.84013186877611E-03 
2354	-9.26338730476275E-03 
2355	-6.88274076622702E-03 
2356	 2.8693472567343E-04 
2357	 3.68627215812647E-03 
2358	 1.49287557084474E-02 
2359	 2.89515105758244E-02 
2360	 3.02615619823746E-02 
2361	 1.64687032243118E-02 
2362	 1.09491085575646E-02 
2363	 1.32103720049282E-02 
2364	 0.012607213732313 
2365	 1.90587854036652E-02 
2366	 0.023615315244274 
2367	 2.48130250724974E-02 
2368	 2.52167602730873E-02 
2369	 2.28775479403666E-02 
2370	 3.33169360002759E-02 
2371	 4.98863541741942E-02 
2372	 5.12503855960837E-02 
2373	 4.73546524387305E-02 
2374	 3.98606295978142E-02 
2375	 2.23711811112648E-02 
2376	 1.26136927026871E-02 
2377	 1.88145606539707E-02 
2378	 3.58298506221896E-02 
2379	 0.046930803565327 
2380	 5.25547877792573E-02 
2381	 5.48184273283747E-02 
2382	 4.43386273723813E-02 
2383	 1.98863565388318E-02 
2384	 2.19381256242464E-03 
2385	-0.004869948498287 
2386	-2.00306499688568E-03 
2387	 4.38255675913823E-02 
2388	 6.25192080614321E-02 
2389	 0.042130848617161 
2390	 0.03062404037927 
2391	 0.017225822093838 
2392	 3.05647532605907E-02 
2393	 4.85162099342268E-02 
2394	 0.060552088182422 
2395	 7.54519234125291E-02 
2396	 4.59839377241301E-02 
2397	 1.31289325049042E-02 
2398	 1.63218203080927E-02 
2399	-0.009949306960038 
2400	-7.77556014971466E-03 
2401	 3.36469627959552E-02 
2402	 3.52264105284365E-02 
2403	 2.40959733613189E-02 
2404	 1.07488153091171E-02 
2405	-1.27714381376247E-02 
2406	 8.19293470905951E-04 
2407	 5.08364584492668E-02 
2408	 9.67205200587326E-02 
2409	 0.112192118787446 
2410	 9.39221462393507E-02 
2411	 5.07455402377136E-02 
2412	 1.25311991053861E-02 
2413	-1.42734897563372E-02 
2414	-4.37681931226511E-02 
2415	-7.96951832079529E-02 
2416	-0.110655743398546 
2417	-5.49088942241676E-02 
2418	-7.01600046004226E-02 
2419	-0.115977175282081 
2420	-1.97475562547265E-02 
2421	-9.53978145402254E-02 
2422	-0.223382346964338 
2423	-0.210442915291049 
2424	-0.187226748712252 
2425	-8.70347968240588E-02 
2426	 5.73664130772722E-02 
2427	 0.085844935997505 
2428	 4.48052379281521E-02 
2429	 2.02646367937227E-03 
2430	 1.07451392350957E-02 
2431	 8.17843941514243E-02 
2432	 0.119946008185428 
2433	 7.92687382204414E-02 
2434	 2.18397959872295E-02 
2435	 5.80712036883194E-02 
2436	 9.63861573384886E-02 
2437	 5.93579568156225E-02 
2438	 2.29878403338362E-02 
2439	-7.42081193806549E-02 
2440	-0.142983047324345 
2441	 5.32416178320913E-02 
2442	 0.22658807095453 
2443	 0.27944086636022 
2444	 0.287152905569509 
2445	 0.156579251880303 
2446	 5.81293472057021E-02 
2447	 8.72318286280138E-02 
2448	 0.137242232372647 
2449	 0.137749804390863 
2450	 0.155804244182388 
2451	 0.418578034815726 
2452	 0.471774771305382 
2453	 0.262823811358783 
2454	 0.196663975439972 
2455	-6.97452577591414E-04 
2456	-0.213221341289457 
2457	-0.100901676139756 
2458	 8.09624619281313E-02 
2459	 0.23103196522482 
2460	 0.446883705684402 
2461	 0.301045426949001 
2462	 0.11862536241404 
2463	 1.30681015710145E-02 
2464	 0.292927029848433 
2465	 2.51817790084574 
2466	 1.09445974340613 
2467	 9.77621742630821E-02 
2468	-0.521241131115612 
2469	-0.691544825896926 
2470	-0.268104535553748 
2471	 0.213698117167307 
2472	 1.23608727042895 
2473	-0.10118004155042 
2474	-0.595403497892265 
2475	-0.13005046142911 
2476	 0.85819274443704 
2477	 0.782328736240106 
2478	 0.663979186944896 
2479	 0.992570236397876 
2480	 8.76233907444255E-02 
2481	-1.05491872210457 
2482	-0.923204830527021 
2483	 0.66476870385386 
2484	 3.70509806799928 
2485	-0.19850083830425 
2486	-0.117510278906417 
2487	-0.21126679552094 
2488	-1.24646226626431 
2489	-1.54570002870365 
2490	-1.09375518354519 
2491	-0.6270577820462 
2492	-8.29592249443089E-02 
2493	-3.515539931402 
2494	 5.31097563875184 
2495	-2.82530726682146 
2496	-1.40096206651652 
2497	-0.625024141322747 
2498	 0.264694659862007 
2499	-150.964487476019 
2500	-0.626778248049746 
