Wavelength	rt0708c00000.asd
350	 5.33397313091837E-02 
351	 5.33230407818348E-02 
352	 5.33854519992566E-02 
353	 5.36739679530098E-02 
354	 5.40248381381762E-02 
355	 5.34945887062502E-02 
356	 0.053607326916078 
357	 5.35928060986146E-02 
358	 5.26874897276437E-02 
359	 5.32954270450221E-02 
360	 5.38553769946989E-02 
361	 5.37849320680912E-02 
362	 5.33812224785757E-02 
363	 5.36892623299537E-02 
364	 5.36424339393233E-02 
365	 5.30658594684398E-02 
366	 5.35114032017766E-02 
367	 0.05343325246662 
368	 5.32100008289433E-02 
369	 5.33600143397725E-02 
370	 5.30023889541411E-02 
371	 0.053057391795689 
372	 5.32898975233493E-02 
373	 5.29454646927895E-02 
374	 5.31766334046071E-02 
375	 5.31706244560785E-02 
376	 5.29874872907435E-02 
377	 5.40783369416746E-02 
378	 5.39253479443642E-02 
379	 5.32252090362629E-02 
380	 5.31666670007855E-02 
381	 5.39513997019037E-02 
382	 5.43856546225931E-02 
383	 0.054300011893351 
384	 5.40708113890287E-02 
385	 5.36990212301364E-02 
386	 5.38634190061145E-02 
387	 5.42949203460461E-02 
388	 0.0537395172691 
389	 5.40851598046891E-02 
390	 5.45389560646216E-02 
391	 5.43744110776777E-02 
392	 5.42815940886005E-02 
393	 5.43322876032609E-02 
394	 5.46478364555381E-02 
395	 5.51475538629372E-02 
396	 5.48665573351472E-02 
397	 5.41523431510541E-02 
398	 5.37623133402374E-02 
399	 5.45654358985412E-02 
400	 5.44018964931457E-02 
401	 5.42910953511133E-02 
402	 5.48531524253139E-02 
403	 5.47056353242547E-02 
404	 0.054541395767655 
405	 0.054544281110321 
406	 5.47027028373448E-02 
407	 5.50228601584778E-02 
408	 0.054981255524838 
409	 5.46539777087338E-02 
410	 5.46880036791755E-02 
411	 5.47993110334743E-02 
412	 5.47836879995306E-02 
413	 5.46586051980703E-02 
414	 5.49596510570294E-02 
415	 5.50996980276181E-02 
416	 5.50488640889739E-02 
417	 5.50183563825387E-02 
418	 5.51523761949457E-02 
419	 0.055273403691306 
420	 0.055329408840032 
421	 5.54273598894445E-02 
422	 0.055575671863209 
423	 5.56728417435693E-02 
424	 0.055685897954741 
425	 5.58088599163682E-02 
426	 5.61976074461375E-02 
427	 5.65003458140035E-02 
428	 5.62963935501902E-02 
429	 5.65846680585392E-02 
430	 5.67829084655731E-02 
431	 5.67527592217673E-02 
432	 5.70356370419062E-02 
433	 5.71030412807352E-02 
434	 5.71432234777986E-02 
435	 5.73762700832477E-02 
436	 5.76511619649473E-02 
437	 5.79373315264433E-02 
438	 5.81389502928137E-02 
439	 5.81676690949273E-02 
440	 5.82730689965533E-02 
441	 5.84636720455124E-02 
442	 5.87080167879595E-02 
443	 5.89673795126913E-02 
444	 5.90998366556363E-02 
445	 5.91893264969516E-02 
446	 5.93340149150978E-02 
447	 5.94097801757263E-02 
448	 5.95225488016749E-02 
449	 5.96498058783487E-02 
450	 0.059692476335246 
451	 5.98920083362971E-02 
452	 5.99912352461511E-02 
453	 5.99275335751509E-02 
454	 6.01932655129752E-02 
455	 6.02976242680661E-02 
456	 6.02490628109924E-02 
457	 6.02364565908728E-02 
458	 6.03744184258987E-02 
459	 6.03955601490124E-02 
460	 6.03049229131061E-02 
461	 6.03870973227955E-02 
462	 6.04526402011127E-02 
463	 6.05122845849261E-02 
464	 6.05879389049111E-02 
465	 0.060632100481588 
466	 6.06040955397791E-02 
467	 0.06061483941793 
468	 6.07886518257667E-02 
469	 6.07335558341469E-02 
470	 0.060803406504456 
471	 6.10268463178066E-02 
472	 6.09162106262643E-02 
473	 0.060990634711832 
474	 6.11464994551759E-02 
475	 6.11867276132258E-02 
476	 6.11778538814786E-02 
477	 6.12387224546495E-02 
478	 6.13403910710551E-02 
479	 6.13726934681238E-02 
480	 6.15640263311434E-02 
481	 6.16953908443307E-02 
482	 6.16977200372301E-02 
483	 6.19324663852107E-02 
484	 6.20614950113767E-02 
485	 6.21059883492965E-02 
486	 6.22226014627156E-02 
487	 6.25383296175288E-02 
488	 6.26738991709272E-02 
489	 6.26548394016703E-02 
490	 6.28975545385097E-02 
491	 6.30947424579529E-02 
492	 6.32946864090655E-02 
493	 6.35577466313596E-02 
494	 0.063804755225657 
495	 6.39886511894393E-02 
496	 6.41787302586365E-02 
497	 6.44785700016775E-02 
498	 6.47028861205684E-02 
499	 6.49948984026452E-02 
500	 6.53386011252669E-02 
501	 6.54198747938878E-02 
502	 6.57570416139315E-02 
503	 6.61070715290464E-02 
504	 6.61924362540508E-02 
505	 6.65222591331028E-02 
506	 6.68284758053281E-02 
507	 6.70590909929826E-02 
508	 6.73423633087708E-02 
509	 6.76185095664349E-02 
510	 6.79191454971418E-02 
511	 6.82515704526029E-02 
512	 6.85315891280046E-02 
513	 6.88752352807198E-02 
514	 6.92795783837024E-02 
515	 6.96700102368475E-02 
516	 6.98953815470784E-02 
517	 0.07025488734161 
518	 7.07486406260482E-02 
519	 7.09725928726579E-02 
520	 7.13380423616554E-02 
521	 7.17969527605181E-02 
522	 7.22355701105568E-02 
523	 7.26971581402058E-02 
524	 7.31341652543768E-02 
525	 7.35750744464216E-02 
526	 7.40864099674172E-02 
527	 7.44729817938551E-02 
528	 7.48475525899648E-02 
529	 7.52999045485246E-02 
530	 7.57972485110031E-02 
531	 7.62785903072259E-02 
532	 0.076742799785373 
533	 7.72127671954093E-02 
534	 0.07770278220839 
535	 7.81681846792326E-02 
536	 7.86110924356434E-02 
537	 7.90869484820591E-02 
538	 7.96563720506551E-02 
539	 8.02647575491802E-02 
540	 8.08195599402154E-02 
541	 0.081189894154967 
542	 8.17022095873724E-02 
543	 8.23043080357676E-02 
544	 8.27351092586169E-02 
545	 8.32344546564665E-02 
546	 8.36845117670375E-02 
547	 8.40430228659671E-02 
548	 8.44987096548223E-02 
549	 8.49561203211728E-02 
550	 8.54110232188393E-02 
551	 0.085880893489949 
552	 8.63259634290515E-02 
553	 8.67928033631201E-02 
554	 8.72713849293918E-02 
555	 8.76813749889659E-02 
556	 8.80622821880673E-02 
557	 0.088471177438758 
558	 0.088916936825776 
559	 0.089244219297148 
560	 8.96483445510934E-02 
561	 0.090050117201926 
562	 9.02376669237204E-02 
563	 9.05128737892492E-02 
564	 9.08228204884045E-02 
565	 9.10976519045724E-02 
566	 9.13293090000902E-02 
567	 0.091543177243953 
568	 9.17460011305808E-02 
569	 9.19452265000821E-02 
570	 0.092191528965703 
571	 0.092450209264914 
572	 9.26625233078981E-02 
573	 9.27561958632832E-02 
574	 9.29310128362246E-02 
575	 9.30176675328939E-02 
576	 9.29267416241401E-02 
577	 9.31214971012769E-02 
578	 9.31939574715187E-02 
579	 9.31313172742848E-02 
580	 9.31417449811995E-02 
581	 9.29891255921175E-02 
582	 9.28271300103336E-02 
583	 9.27343112537798E-02 
584	 9.25742404845874E-02 
585	 9.23230175952922E-02 
586	 9.20384643391804E-02 
587	 9.17779577472488E-02 
588	 9.13916317535389E-02 
589	 9.10079493923046E-02 
590	 9.06939382650506E-02 
591	 9.03941377904362E-02 
592	 8.98569877432258E-02 
593	 8.92945476126244E-02 
594	 8.88762339896318E-02 
595	 8.83076498325904E-02 
596	 8.76130547651404E-02 
597	 8.68008452521762E-02 
598	 8.59049481530939E-02 
599	 0.085157274778526 
600	 8.44670848717669E-02 
601	 8.38162327821463E-02 
602	 8.33838926265961E-02 
603	 8.30619035817142E-02 
604	 8.27952808090045E-02 
605	 0.082579811478349 
606	 0.082590308898195 
607	 8.25342092674029E-02 
608	 8.23590139617747E-02 
609	 8.22796697898028E-02 
610	 8.22385928122254E-02 
611	 8.22072148028762E-02 
612	 8.21536290205357E-02 
613	 8.20211839015343E-02 
614	 8.19206156958467E-02 
615	 8.18887690690841E-02 
616	 8.18987973417013E-02 
617	 0.081803406747358 
618	 8.16240868853583E-02 
619	 8.14278386104471E-02 
620	 8.13204552959012E-02 
621	 8.12937360213655E-02 
622	 0.081260269488057 
623	 8.11544965691231E-02 
624	 8.11796633208477E-02 
625	 8.11006284481124E-02 
626	 8.09206745386301E-02 
627	 8.08702950295282E-02 
628	 8.07239043934202E-02 
629	 8.06435414528644E-02 
630	 8.06871249625277E-02 
631	 8.04316380053633E-02 
632	 8.03415127075106E-02 
633	 8.03781087699122E-02 
634	 8.02819894605719E-02 
635	 8.01460514202068E-02 
636	 7.99092944860424E-02 
637	 7.96656382215806E-02 
638	 7.97464410588198E-02 
639	 7.97135223256526E-02 
640	 7.95309484020303E-02 
641	 7.93001040272334E-02 
642	 7.91378958470565E-02 
643	 7.89360141567076E-02 
644	 7.86902855227151E-02 
645	 7.84842384671145E-02 
646	 7.82757794342506E-02 
647	 7.80953311905919E-02 
648	 7.79378280640914E-02 
649	 7.76875441033304E-02 
650	 0.077391402679657 
651	 7.70797710891736E-02 
652	 7.67761239592069E-02 
653	 0.076427367028808 
654	 7.59972293743525E-02 
655	 7.54432699558708E-02 
656	 7.47982311608653E-02 
657	 0.074317885290281 
658	 7.38795669632833E-02 
659	 7.33709845609629E-02 
660	 7.30017281082109E-02 
661	 0.072761330905014 
662	 0.072548572384995 
663	 7.22317655957713E-02 
664	 7.19825765120794E-02 
665	 7.17924401250509E-02 
666	 7.16039921079357E-02 
667	 7.13116905369378E-02 
668	 7.11546727640289E-02 
669	 0.071072479882652 
670	 7.09396934118873E-02 
671	 7.08585712506809E-02 
672	 7.07620637289007E-02 
673	 0.070640934354379 
674	 7.05455158553385E-02 
675	 7.04662630380252E-02 
676	 7.04498634358076E-02 
677	 7.04853046812984E-02 
678	 7.03888890386357E-02 
679	 7.03353532126155E-02 
680	 7.03278440438311E-02 
681	 7.02989618146811E-02 
682	 7.02623557288654E-02 
683	 7.03660197270327E-02 
684	 7.05514142692759E-02 
685	 7.04743172795342E-02 
686	 7.05839376213375E-02 
687	 7.06396526369464E-02 
688	 0.070426881664192 
689	 7.05913853389291E-02 
690	 7.05299502394249E-02 
691	 7.02608407947748E-02 
692	 7.01467442685914E-02 
693	 7.00235918481443E-02 
694	 6.97384718156912E-02 
695	 6.93131143167288E-02 
696	 6.89919545301866E-02 
697	 6.85696463814103E-02 
698	 6.80843517682471E-02 
699	 6.76260235102656E-02 
700	 6.70120624853722E-02 
701	 6.63777510809486E-02 
702	 6.57626557503004E-02 
703	 6.50894053072701E-02 
704	 0.064209873003439 
705	 6.34180098740478E-02 
706	 6.27863032599431E-02 
707	 6.17038778420917E-02 
708	 6.05936108412981E-02 
709	 5.94990713949125E-02 
710	 5.83368093626451E-02 
711	 5.71178539877855E-02 
712	 5.59089168441053E-02 
713	 5.46846615740537E-02 
714	 5.32886560628099E-02 
715	 5.18701293336973E-02 
716	 5.05008910985924E-02 
717	 4.92757001488865E-02 
718	 4.77957431025832E-02 
719	 4.62103989663475E-02 
720	 4.49726732020978E-02 
721	 4.41191305863199E-02 
722	 0.043053407982587 
723	 4.17462986511034E-02 
724	 4.04532673408203E-02 
725	 3.93760797878061E-02 
726	 3.81997206466587E-02 
727	 0.036922022267559 
728	 3.56627534785747E-02 
729	 0.034639574257161 
730	 3.33386870281561E-02 
731	 0.032058996074465 
732	 0.031261973727197 
733	 0.030468678440572 
734	 2.97766424441995E-02 
735	 2.92405551143869E-02 
736	 0.028791810390334 
737	 2.85617746485187E-02 
738	 2.83661012292678E-02 
739	 0.028091855436637 
740	 2.80810742252394E-02 
741	 2.79143764957816E-02 
742	 2.77054482987393E-02 
743	 2.77696744327291E-02 
744	 2.75900457624572E-02 
745	 2.74317875637043E-02 
746	 2.74279306450957E-02 
747	 2.74277274209679E-02 
748	 2.74269828327473E-02 
749	 2.74164856155731E-02 
750	 2.73860121033636E-02 
751	 2.73069264809905E-02 
752	 2.72290475301051E-02 
753	 2.72115890012783E-02 
754	 2.72713469883156E-02 
755	 2.70628129831897E-02 
756	 2.69521912514707E-02 
757	 2.70644187900397E-02 
758	 2.71027831219421E-02 
759	 2.69900989896128E-02 
760	 2.70760792531674E-02 
761	 2.75409282746476E-02 
762	 2.73083126097395E-02 
763	 2.70935225826555E-02 
764	 2.70674662569737E-02 
765	 2.71326745834258E-02 
766	 2.71671838216519E-02 
767	 2.69973575167719E-02 
768	 2.67931973926456E-02 
769	 2.70390790351609E-02 
770	 2.70383240569158E-02 
771	 2.69973054139816E-02 
772	 2.71165782705551E-02 
773	 2.70473600296745E-02 
774	 2.71738654236747E-02 
775	 2.73562534199653E-02 
776	 2.73093280139477E-02 
777	 2.73623330844296E-02 
778	 2.74556023400531E-02 
779	 0.027517878124113 
780	 2.75083469697782E-02 
781	 2.76878952761232E-02 
782	 2.78034829085697E-02 
783	 2.77524084454688E-02 
784	 0.027996458428696 
785	 2.81189462698979E-02 
786	 2.81998870559285E-02 
787	 2.84213786361013E-02 
788	 2.85223639952418E-02 
789	 0.028615914634812 
790	 2.87304346213178E-02 
791	 2.88273711876431E-02 
792	 2.90651675316874E-02 
793	 0.029259829035433 
794	 2.93296204305415E-02 
795	 2.94282507634535E-02 
796	 0.02955074166616 
797	 2.97433750138742E-02 
798	 2.99702138871601E-02 
799	 0.029843202919911 
800	 2.99543496031432E-02 
801	 3.02198970234189E-02 
802	 3.02150149437121E-02 
803	 3.01485335351945E-02 
804	 3.02303825529011E-02 
805	 3.03709842472776E-02 
806	 3.01863548908011E-02 
807	 3.01594035745272E-02 
808	 3.02984961650437E-02 
809	 3.04535060959724E-02 
810	 3.03308595881881E-02 
811	 3.00902919092156E-02 
812	 2.98633874317799E-02 
813	 2.97838624075283E-02 
814	 2.99374249244885E-02 
815	 2.98657158918352E-02 
816	 2.93983587308247E-02 
817	 2.87671089404762E-02 
818	 2.87934027124721E-02 
819	 2.85370298232604E-02 
820	 2.78908908311483E-02 
821	 2.79954831596852E-02 
822	 2.75235433267654E-02 
823	 2.69259325015091E-02 
824	 2.66104194440379E-02 
825	 2.56411243936527E-02 
826	 2.50357347024937E-02 
827	 2.47062625579877E-02 
828	 2.41887045880749E-02 
829	 0.023454004526147 
830	 2.28530287440784E-02 
831	 0.022595870448935 
832	 0.022656815900103 
833	 2.19571803871368E-02 
834	 2.16533220443996E-02 
835	 2.19317869200856E-02 
836	 0.021430665365845 
837	 2.13967447841362E-02 
838	 0.021387086549305 
839	 2.10095091648073E-02 
840	 2.09321933868577E-02 
841	 2.09996630928083E-02 
842	 2.09335320884434E-02 
843	 2.05783305426798E-02 
844	 0.020595234327185 
845	 2.07140779095483E-02 
846	 2.06651827824358E-02 
847	 2.03133472071587E-02 
848	 2.04694073486748E-02 
849	 2.04755190214164E-02 
850	 2.01423545059059E-02 
851	 2.00722585734124E-02 
852	 0.02010799185876 
853	 2.00252428142401E-02 
854	 1.98286413997713E-02 
855	 2.00512544865224E-02 
856	 1.98445956203685E-02 
857	 1.96162949461152E-02 
858	 1.98143755324002E-02 
859	 1.97287798685533E-02 
860	 1.97170615922274E-02 
861	 1.96688221942888E-02 
862	 1.93908815888805E-02 
863	 1.97568008008119E-02 
864	 1.96947357550758E-02 
865	 1.92281433323639E-02 
866	 1.93697785794308E-02 
867	 1.91244631230569E-02 
868	 1.88864152769501E-02 
869	 0.01884460269248 
870	 1.86975841096189E-02 
871	 1.89813824357187E-02 
872	 1.90473083131661E-02 
873	 1.85754116131554E-02 
874	 1.85239117829912E-02 
875	 1.85953125184892E-02 
876	 1.86929001808007E-02 
877	 1.87336197767815E-02 
878	 1.85382675519833E-02 
879	 1.81985608887156E-02 
880	 1.80318312798754E-02 
881	 1.82606703749679E-02 
882	 1.80404090666489E-02 
883	 1.80397831916131E-02 
884	 1.81693345088651E-02 
885	 0.01782345493284 
886	 1.76069028068784E-02 
887	 1.76666824042332E-02 
888	 1.77859929731189E-02 
889	 1.74642178637827E-02 
890	 1.73547326345054E-02 
891	 1.73134582614762E-02 
892	 0.017270828919813 
893	 1.75590858827967E-02 
894	 1.73903574819531E-02 
895	 0.017418596155911 
896	 1.81198928601155E-02 
897	 1.80584101170253E-02 
898	 1.75121189503077E-02 
899	 1.72266076194632E-02 
900	 1.75750541033199E-02 
901	 1.71682914800326E-02 
902	 1.70940893980719E-02 
903	 1.70337632160507E-02 
904	 1.64434434783339E-02 
905	 1.65005139617626E-02 
906	 1.66741291833472E-02 
907	 1.68142595965458E-02 
908	 1.69603899898361E-02 
909	 1.62301740979713E-02 
910	 1.59242308547225E-02 
911	 1.61965468859526E-02 
912	 1.60696413109427E-02 
913	 1.61065988181571E-02 
914	 0.016463359858535 
915	 1.67361904617801E-02 
916	 1.61387216918138E-02 
917	 1.58401820100584E-02 
918	 0.015413928660902 
919	 1.49866286265217E-02 
920	 1.56312399857715E-02 
921	 1.60109974799091E-02 
922	 1.56417851758489E-02 
923	 1.48610809918601E-02 
924	 1.53262170886379E-02 
925	 1.51151784264808E-02 
926	 1.47289613673588E-02 
927	 1.50908574913887E-02 
928	 1.57906678111701E-02 
929	 0.014824151835789 
930	 1.38646516985264E-02 
931	 1.62219803610861E-02 
932	 1.77347761776487E-02 
933	 1.51821024203575E-02 
934	 1.15398349512087E-02 
935	 1.21833745834674E-02 
936	 1.53407173335896E-02 
937	 1.44846391701078E-02 
938	 1.33609155208414E-02 
939	 1.59098482702324E-02 
940	 1.47803103073527E-02 
941	 1.08968883181237E-02 
942	 9.27000719963342E-03 
943	 1.47684120734026E-02 
944	 1.83697802018501E-02 
945	 1.52267178410439E-02 
946	 1.05462835024484E-02 
947	 1.28789258898608E-02 
948	 1.29614484438027E-02 
949	 1.21486952681251E-02 
950	 1.24690936336498E-02 
951	 1.46978587708199E-02 
952	 1.18584754824281E-02 
953	 1.35819126356973E-02 
954	 1.72630012629559E-02 
955	 1.35159245409284E-02 
956	 9.97967422170666E-03 
957	 1.35416697720251E-02 
958	 1.72221250543262E-02 
959	 9.58195320223745E-03 
960	 1.39162928536566E-02 
961	 1.50778780828411E-02 
962	 1.18533946881086E-02 
963	 1.36632604336098E-02 
964	 1.33589365545103E-02 
965	 1.22547829603863E-02 
966	 1.24475840545554E-02 
967	 1.51142612843532E-02 
968	 1.50349778796921E-02 
969	 1.36415949891557E-02 
970	 1.25713404753067E-02 
971	 1.26479410859808E-02 
972	 0.011461937286186 
973	 1.13154156923654E-02 
974	 1.25652890848815E-02 
975	 0.013172158675922 
976	 0.012275391489966 
977	 1.19804765943505E-02 
978	 1.27126575492072E-02 
979	 1.30842271903478E-02 
980	 1.24532063459112E-02 
981	 1.23384546582071E-02 
982	 1.29575634843178E-02 
983	 1.32440871465603E-02 
984	 1.24119589366164E-02 
985	 1.20302838757431E-02 
986	 1.24603103479781E-02 
987	 1.27815424011492E-02 
988	 0.011699999586384 
989	 1.16717381034295E-02 
990	 1.25498274716988E-02 
991	 1.23982810985097E-02 
992	 1.32824095403172E-02 
993	 1.34646880356518E-02 
994	 1.28604991330335E-02 
995	 1.27654922113967E-02 
996	 1.40797337288226E-02 
997	 1.25311076951376E-02 
998	 1.08129695502638E-02 
999	 1.38489928289328E-02 
1000	 1.24760418205717E-02 
1001	 9.06442375163373E-03 
1002	 8.88064617917116E-03 
1003	 8.88497688252521E-03 
1004	 8.78827366062551E-03 
1005	 8.80438482548924E-03 
1006	 8.97077910553392E-03 
1007	 8.98603858489574E-03 
1008	 9.56535363303829E-03 
1009	 9.3278608024429E-03 
1010	 9.15387544072615E-03 
1011	 9.61574888124235E-03 
1012	 9.3714973796418E-03 
1013	 9.62587595492408E-03 
1014	 9.75777986732954E-03 
1015	 9.86848431048202E-03 
1016	 9.99070776550674E-03 
1017	 1.03817902363356E-02 
1018	 1.02951305301402E-02 
1019	 9.83574642420943E-03 
1020	 9.78409035448393E-03 
1021	 9.70649003199924E-03 
1022	 9.57233431323847E-03 
1023	 9.65359068200469E-03 
1024	 9.81279788776225E-03 
1025	 9.63878455337476E-03 
1026	 9.15176881766936E-03 
1027	 8.98484922666366E-03 
1028	 8.82721326878675E-03 
1029	 8.89798892835821E-03 
1030	 9.19106856082071E-03 
1031	 9.40701972012005E-03 
1032	 9.87298297560212E-03 
1033	 1.00248850114872E-02 
1034	 0.010161301617756 
1035	 1.00324779104359E-02 
1036	 9.31367299748402E-03 
1037	 9.16064255502778E-03 
1038	 9.25250987978135E-03 
1039	 9.10595441421124E-03 
1040	 9.33756199555463E-03 
1041	 9.50989605858896E-03 
1042	 9.53695804605216E-03 
1043	 9.24861828012376E-03 
1044	 9.26882980041168E-03 
1045	 9.3735110208012E-03 
1046	 9.56231945504608E-03 
1047	 9.93852332057859E-03 
1048	 1.01507542941577E-02 
1049	 1.06195788949443E-02 
1050	 1.05707789878665E-02 
1051	 9.95933791700935E-03 
1052	 9.71928953524717E-03 
1053	 9.12588141719224E-03 
1054	 8.99439006853603E-03 
1055	 9.51601495706086E-03 
1056	 9.76433034368636E-03 
1057	 1.00098978593249E-02 
1058	 1.04892668645991E-02 
1059	 1.04640252059639E-02 
1060	 1.00353855474162E-02 
1061	 9.91919250274115E-03 
1062	 9.61961079773113E-03 
1063	 9.5609541883438E-03 
1064	 9.8332999045994E-03 
1065	 9.87824304090033E-03 
1066	 9.83806679779849E-03 
1067	 9.84545522034834E-03 
1068	 9.84515018588159E-03 
1069	 9.81403382427228E-03 
1070	 9.90984546675263E-03 
1071	 9.82678727055534E-03 
1072	 9.50949216786229E-03 
1073	 9.21103235012708E-03 
1074	 9.26086706373912E-03 
1075	 9.43320181859302E-03 
1076	 9.48070292217147E-03 
1077	 9.85054890631008E-03 
1078	 9.86772263445814E-03 
1079	 9.47453889171797E-03 
1080	 9.40566435828739E-03 
1081	 9.46639406137927E-03 
1082	 9.46727058270315E-03 
1083	 9.53040568031753E-03 
1084	 9.53772862020376E-03 
1085	 9.50168628886633E-03 
1086	 9.46867670110776E-03 
1087	 9.40990874922113E-03 
1088	 9.39128399341546E-03 
1089	 9.47756196327587E-03 
1090	 9.32727805040881E-03 
1091	 9.31844820914726E-03 
1092	 9.42579027637211E-03 
1093	 9.4207684233711E-03 
1094	 9.30826933860321E-03 
1095	 9.28035552845325E-03 
1096	 9.29088906209774E-03 
1097	 9.22964734771571E-03 
1098	 9.12516726298171E-03 
1099	 9.19090705848102E-03 
1100	 9.43114475807493E-03 
1101	 9.2967831657438E-03 
1102	 8.86366086758438E-03 
1103	 8.83290922704406E-03 
1104	 8.68538027888186E-03 
1105	 8.79883887924599E-03 
1106	 9.19369759711692E-03 
1107	 9.34071960229736E-03 
1108	 9.93426524033549E-03 
1109	 1.00747745838229E-02 
1110	 9.74622380726783E-03 
1111	 9.05908188166318E-03 
1112	 9.0639240727339E-03 
1113	 8.34883534006838E-03 
1114	 8.27276980299124E-03 
1115	 1.00937010336056E-02 
1116	 1.04753103764067E-02 
1117	 9.85103088283561E-03 
1118	 9.22470526449193E-03 
1119	 6.97917809455469E-03 
1120	 6.47132688051396E-03 
1121	 7.67766387435034E-03 
1122	 6.76930527444551E-03 
1123	 9.23837368274328E-03 
1124	 1.01348933340803E-02 
1125	 7.06916840817756E-03 
1126	 9.53823090134571E-03 
1127	 9.50416124129378E-03 
1128	 8.07454670916337E-03 
1129	 8.07336670921269E-03 
1130	 7.53734511691861E-03 
1131	 6.42952264183667E-03 
1132	 6.90953785431082E-03 
1133	 7.06088061706495E-03 
1134	 5.42596034675439E-03 
1135	 6.44899659416607E-03 
1136	 9.63495873338589E-03 
1137	 9.47070071141016E-03 
1138	 8.0892408881941E-03 
1139	 8.95204716869471E-03 
1140	 8.4308814435032E-03 
1141	 7.81253992046718E-03 
1142	 8.12820538484396E-03 
1143	 8.8215843246558E-03 
1144	 7.88353272724708E-03 
1145	 5.91457827708806E-03 
1146	 6.17382464998633E-03 
1147	 6.50824093306984E-03 
1148	 6.7477960390366E-03 
1149	 7.76193098736327E-03 
1150	 8.02745759179815E-03 
1151	 7.67010288469331E-03 
1152	 7.60580507133821E-03 
1153	 7.37424280149966E-03 
1154	 7.67804052487429E-03 
1155	 8.47604778622624E-03 
1156	 8.23249251901559E-03 
1157	 8.1665410633982E-03 
1158	 8.07666293981246E-03 
1159	 7.4195573104203E-03 
1160	 7.76695877795893E-03 
1161	 8.35747854243402E-03 
1162	 8.39115634916201E-03 
1163	 8.47797099398497E-03 
1164	 8.33181897405957E-03 
1165	 7.92157349953049E-03 
1166	 7.71188923954004E-03 
1167	 7.98175512945905E-03 
1168	 8.11591096516848E-03 
1169	 7.90768364590489E-03 
1170	 8.13364208488321E-03 
1171	 8.25814952049792E-03 
1172	 8.05359523462941E-03 
1173	 8.07752719199669E-03 
1174	 8.46539866810133E-03 
1175	 8.54433236228941E-03 
1176	 8.03791073417861E-03 
1177	 8.01283557985329E-03 
1178	 8.11840841819147E-03 
1179	 7.89023187036477E-03 
1180	 8.08336496031134E-03 
1181	 8.19578763024249E-03 
1182	 7.85148702760506E-03 
1183	 7.87446962304968E-03 
1184	 8.11220055693203E-03 
1185	 8.20196888507542E-03 
1186	 8.24190788517775E-03 
1187	 7.98722895261841E-03 
1188	 7.51025983996146E-03 
1189	 7.61731402193431E-03 
1190	 8.15186874249908E-03 
1191	 8.24792793653431E-03 
1192	 8.2792123869701E-03 
1193	 8.34321123716487E-03 
1194	 8.19221294304426E-03 
1195	 7.75477758134936E-03 
1196	 7.93395665002744E-03 
1197	 8.26753232521982E-03 
1198	 8.00512510480691E-03 
1199	 7.86584869462017E-03 
1200	 7.97431436609033E-03 
1201	 7.79815040846962E-03 
1202	 7.68963274917605E-03 
1203	 7.95723071412302E-03 
1204	 8.12324127662383E-03 
1205	 8.01820777487513E-03 
1206	 7.98803605319001E-03 
1207	 7.9922327321759E-03 
1208	 7.87466029231167E-03 
1209	 7.76796661378565E-03 
1210	 7.85038911728704E-03 
1211	 7.98286461272815E-03 
1212	 7.88237840250482E-03 
1213	 7.80569561184766E-03 
1214	 7.80558156492356E-03 
1215	 7.94085423191003E-03 
1216	 7.93783888518525E-03 
1217	 7.87650525071975E-03 
1218	 7.83399786272231E-03 
1219	 7.96148088914628E-03 
1220	 8.01811598558778E-03 
1221	 7.68459317562004E-03 
1222	 7.5944392918584E-03 
1223	 7.92807264523818E-03 
1224	 0.00784083478295 
1225	 7.73472397492178E-03 
1226	 7.98511579757704E-03 
1227	 7.85301633108277E-03 
1228	 7.6080010235728E-03 
1229	 7.69682287635233E-03 
1230	 7.93391133275061E-03 
1231	 7.88197459402288E-03 
1232	 7.48655539381005E-03 
1233	 7.45082356305481E-03 
1234	 7.65242712350145E-03 
1235	 7.65853763555764E-03 
1236	 7.72325442605326E-03 
1237	 7.76817311133054E-03 
1238	 7.79133296999272E-03 
1239	 7.52362911285051E-03 
1240	 7.47673887989944E-03 
1241	 7.7293874087003E-03 
1242	 7.90769795182409E-03 
1243	 7.85557337248541E-03 
1244	 7.78082760807421E-03 
1245	 7.61732171849813E-03 
1246	 7.42545591772105E-03 
1247	 7.58844756050179E-03 
1248	 7.85229292983761E-03 
1249	 7.81209906128595E-03 
1250	 7.71214590979466E-03 
1251	 7.85247501403184E-03 
1252	 7.98165702541525E-03 
1253	 7.88571411187133E-03 
1254	 7.84080551050546E-03 
1255	 7.82653960709791E-03 
1256	 7.85969117091793E-03 
1257	 7.84729823290219E-03 
1258	 7.86461275489169E-03 
1259	 8.03902465305513E-03 
1260	 8.00281211392137E-03 
1261	 7.58494321147121E-03 
1262	 7.53348696243023E-03 
1263	 7.63818133853823E-03 
1264	 8.01080939988839E-03 
1265	 0.008043592872564 
1266	 7.78199400037166E-03 
1267	 7.62745304458753E-03 
1268	 7.41291344711485E-03 
1269	 7.40479788311458E-03 
1270	 7.66646367448066E-03 
1271	 7.85956656727963E-03 
1272	 7.97671521064387E-03 
1273	 8.0443469191035E-03 
1274	 8.03355013059768E-03 
1275	 7.92640330893503E-03 
1276	 7.72958022622668E-03 
1277	 7.51699998836217E-03 
1278	 7.53052716887629E-03 
1279	 7.79570193725909E-03 
1280	 7.88534047628727E-03 
1281	 7.85596335964234E-03 
1282	 7.72224115079982E-03 
1283	 7.69772957397475E-03 
1284	 7.41900445640515E-03 
1285	 7.43175003113004E-03 
1286	 7.86451292921768E-03 
1287	 7.98755296909928E-03 
1288	 8.06816450882636E-03 
1289	 8.09990590535647E-03 
1290	 8.06691724822959E-03 
1291	 7.74031192731667E-03 
1292	 7.6158049412367E-03 
1293	 7.79401664443583E-03 
1294	 7.89470549722097E-03 
1295	 7.95485885794085E-03 
1296	 7.95560016597833E-03 
1297	 7.82933147560183E-03 
1298	 7.57981946720813E-03 
1299	 7.48440182164746E-03 
1300	 7.60469108672788E-03 
1301	 7.66459120267018E-03 
1302	 7.87222759642505E-03 
1303	 7.95190074180835E-03 
1304	 7.90344690285791E-03 
1305	 8.06376422188708E-03 
1306	 7.96093996575397E-03 
1307	 7.59620145331755E-03 
1308	 7.72172046954215E-03 
1309	 8.12689252256242E-03 
1310	 8.09827324226499E-03 
1311	 8.14509890029913E-03 
1312	 8.35032656198193E-03 
1313	 8.34629026581671E-03 
1314	 8.11790261623371E-03 
1315	 8.00393682775273E-03 
1316	 8.05894745449655E-03 
1317	 7.66327402260245E-03 
1318	 7.43268146857193E-03 
1319	 7.90516918158973E-03 
1320	 7.93353026401735E-03 
1321	 7.33714262767477E-03 
1322	 7.26525295018361E-03 
1323	 7.55187332615275E-03 
1324	 7.5187340012219E-03 
1325	 7.46075665032309E-03 
1326	 7.50791984998786E-03 
1327	 7.74843966398925E-03 
1328	 8.00394531161948E-03 
1329	 8.41254697097512E-03 
1330	 8.33222257490293E-03 
1331	 7.53563734402446E-03 
1332	 7.15411783640237E-03 
1333	 7.29308078016898E-03 
1334	 7.44807275207447E-03 
1335	 7.52979228896344E-03 
1336	 0.007493346811547 
1337	 7.43460948789645E-03 
1338	 7.27943194544588E-03 
1339	 7.61646464027651E-03 
1340	 8.72512860428563E-03 
1341	 8.35361315947887E-03 
1342	 6.77485928558615E-03 
1343	 6.38153174225973E-03 
1344	 5.39488280738738E-03 
1345	 4.47733493742659E-03 
1346	 5.81216109017237E-03 
1347	 5.90173217755926E-03 
1348	 2.16543514508762E-03 
1349	-8.44912751228359E-05 
1350	 1.24147536615719E-03 
1351	 1.31345463229503E-03 
1352	 3.7670614236683E-03 
1353	 9.27388384653307E-04 
1354	-1.21653685180295E-02 
1355	-4.19833615036286E-02 
1356	-5.30675949874512E-02 
1357	-5.18308236308771E-02 
1358	-0.104973525830377 
1359	-0.102873015610709 
1360	-6.16068995437328E-02 
1361	-0.154623128874505 
1362	-0.105665655313965 
1363	 4.72936414511752E-02 
1364	-0.112792467101747 
1365	-0.123581017415946 
1366	 9.06977454713271E-03 
1367	-0.117878954676132 
1368	-0.112269027821637 
1369	-8.98749775280352E-03 
1370	 4.27898487288855E-02 
1371	 7.95929466526327E-02 
1372	 1.59059558354274E-02 
1373	-0.253919225365227 
1374	-0.373588195351591 
1375	-0.280260008862604 
1376	-0.403555331775138 
1377	-0.815305803249457 
1378	-0.662368252546501 
1379	-0.133143354703875 
1380	-0.224361045384522 
1381	-0.160524268485096 
1382	-8.20733641154779E-02 
1383	-0.990372936265319 
1384	-1.18200329867736 
1385	 0.176306277774026 
1386	 0.19776577249875 
1387	-1.01780027816536 
1388	-1.11843558286801 
1389	-0.129172944412931 
1390	-0.217285949598387 
1391	-0.237784917078905 
1392	-0.198922866765677 
1393	-3.15988917515438E-02 
1394	-0.633841398915794 
1395	-1.12885873517492 
1396	-0.639511811061174 
1397	-0.539140650625589 
1398	-0.949422491174468 
1399	-1.27834235154866 
1400	-0.277071867421827 
1401	-0.308840115240931 
1402	-0.771353660922317 
1403	-0.56882592964271 
1404	-0.252082175500558 
1405	-0.240930969735106 
1406	-0.196348863455139 
1407	-0.122228803135063 
1408	-0.155031404661145 
1409	-0.130249165279296 
1410	-1.36714734519527E-02 
1411	 5.51143058384601E-02 
1412	 9.12177911691041E-02 
1413	 3.78718893839623E-02 
1414	-3.90414826393993E-02 
1415	-4.70473152956142E-02 
1416	-8.14506765800184E-02 
1417	-0.095236603100786 
1418	-8.04708741765831E-02 
1419	-5.62540052420092E-02 
1420	-4.53482430626352E-02 
1421	-3.70291141187341E-02 
1422	-5.44613351221259E-03 
1423	 8.0846074874971E-04 
1424	-1.22290883996613E-02 
1425	-1.45194020661372E-02 
1426	-0.016793200071074 
1427	-0.013264065727362 
1428	-1.10008979676679E-03 
1429	-2.07498908249801E-03 
1430	-0.011835576951749 
1431	-9.72209058062407E-03 
1432	-5.06626312892848E-03 
1433	-6.25224701499591E-03 
1434	-2.5239182381505E-03 
1435	 1.53292629616949E-03 
1436	 1.77391423719807E-03 
1437	-5.28242054363278E-03 
1438	-4.8082714882903E-03 
1439	 4.17820235706129E-03 
1440	 6.11189617301005E-03 
1441	 2.59227145025602E-03 
1442	 4.1297759011046E-03 
1443	 7.27731117237755E-03 
1444	 8.10484650914129E-03 
1445	 1.00167713503268E-02 
1446	 9.83565230110404E-03 
1447	 6.13191085493597E-03 
1448	 4.77925490171186E-03 
1449	 5.80329221924723E-03 
1450	 6.84318191883788E-03 
1451	 6.97362720493695E-03 
1452	 7.05015148281247E-03 
1453	 8.35089518631035E-03 
1454	 8.17489773305082E-03 
1455	 8.12159355848473E-03 
1456	 8.54706987866495E-03 
1457	 8.70027246890985E-03 
1458	 8.21397763026259E-03 
1459	 8.0310453146445E-03 
1460	 7.80828501285678E-03 
1461	 6.73744666309453E-03 
1462	 6.16424046247414E-03 
1463	 6.11009860241961E-03 
1464	 6.14974080840487E-03 
1465	 5.58627178251471E-03 
1466	 5.65758304486924E-03 
1467	 7.15500019770476E-03 
1468	 7.87509516271267E-03 
1469	 8.51786908780088E-03 
1470	 8.38939307411076E-03 
1471	 6.83816316159528E-03 
1472	 7.23177672753243E-03 
1473	 9.17337765431091E-03 
1474	 8.58019652657913E-03 
1475	 7.49448383031666E-03 
1476	 6.99609076296725E-03 
1477	 4.64894558676609E-03 
1478	 4.22684188732693E-03 
1479	 5.93829973170527E-03 
1480	 6.17473362260067E-03 
1481	 5.64095165493931E-03 
1482	 5.95234969270253E-03 
1483	 6.57746269056572E-03 
1484	 6.58446043114577E-03 
1485	 6.56510193069514E-03 
1486	 6.99473671287624E-03 
1487	 7.25093239903649E-03 
1488	 7.21710076238969E-03 
1489	 7.41997380358394E-03 
1490	 7.5952393939791E-03 
1491	 7.51785854209793E-03 
1492	 7.47517107450945E-03 
1493	 7.81041714353349E-03 
1494	 7.66298407382662E-03 
1495	 6.65103105741668E-03 
1496	 6.64644752014887E-03 
1497	 7.44304625593389E-03 
1498	 7.47573993389968E-03 
1499	 7.46491841913011E-03 
1500	 7.53184932875241E-03 
1501	 7.02492355485865E-03 
1502	 6.88433936804012E-03 
1503	 7.38705171142713E-03 
1504	 7.44512742452165E-03 
1505	 7.33427495214864E-03 
1506	 7.04878063281754E-03 
1507	 6.89641328898507E-03 
1508	 6.87564385318941E-03 
1509	 7.00172840990934E-03 
1510	 7.34937233452775E-03 
1511	 7.5117757373007E-03 
1512	 7.36408731395155E-03 
1513	 7.07415511788198E-03 
1514	 6.93270852873814E-03 
1515	 7.11079768019207E-03 
1516	 7.10538980905634E-03 
1517	 6.93775840035017E-03 
1518	 6.99745201701924E-03 
1519	 7.03678833824242E-03 
1520	 6.94760049675981E-03 
1521	 7.06451582298566E-03 
1522	 7.22127359423793E-03 
1523	 7.07258738721435E-03 
1524	 7.11244280092288E-03 
1525	 7.26942230257693E-03 
1526	 7.08731094158641E-03 
1527	 6.86575493890164E-03 
1528	 6.80872816332621E-03 
1529	 7.06212406073954E-03 
1530	 7.26846046126802E-03 
1531	 7.33125730528264E-03 
1532	 7.49694790933749E-03 
1533	 7.36248559567872E-03 
1534	 7.08270193005028E-03 
1535	 6.99028318328616E-03 
1536	 6.96798505034409E-03 
1537	 6.93675983751808E-03 
1538	 7.06229540450654E-03 
1539	 7.28049504623966E-03 
1540	 0.007245579247829 
1541	 7.21264328492032E-03 
1542	 7.24589942176675E-03 
1543	 7.10317549064691E-03 
1544	 7.1837319548977E-03 
1545	 7.37820166558655E-03 
1546	 7.29778791404195E-03 
1547	 7.20241349416029E-03 
1548	 7.24590841170528E-03 
1549	 7.38891421963605E-03 
1550	 7.40855709732296E-03 
1551	 7.2472521567695E-03 
1552	 7.20432980972465E-03 
1553	 7.24555293506417E-03 
1554	 7.19958412312219E-03 
1555	 7.27431018766938E-03 
1556	 7.48330789969147E-03 
1557	 7.52329849176303E-03 
1558	 7.34516135036396E-03 
1559	 7.31585804746516E-03 
1560	 7.37262379678843E-03 
1561	 7.1438795373069E-03 
1562	 7.11333835225416E-03 
1563	 7.40700823903932E-03 
1564	 7.39912078135391E-03 
1565	 7.15013569091412E-03 
1566	 7.12978221329929E-03 
1567	 7.21829584773311E-03 
1568	 7.08183187123382E-03 
1569	 6.87435582143655E-03 
1570	 7.14943828038202E-03 
1571	 7.48000521064699E-03 
1572	 7.1930673326883E-03 
1573	 7.16388191597153E-03 
1574	 7.3274778093543E-03 
1575	 7.04365104143829E-03 
1576	 6.96801498850367E-03 
1577	 7.11525613542647E-03 
1578	 7.0497043974492E-03 
1579	 7.03625809927627E-03 
1580	 7.31918345574238E-03 
1581	 7.52585568483102E-03 
1582	 7.32998541179548E-03 
1583	 7.14749856565581E-03 
1584	 7.24527562371035E-03 
1585	 7.40273136212551E-03 
1586	 7.50955179458219E-03 
1587	 7.31678026896666E-03 
1588	 6.90793003250914E-03 
1589	 6.78632063509527E-03 
1590	 6.85239222642673E-03 
1591	 6.86649022173332E-03 
1592	 7.01969085776709E-03 
1593	 7.24498784186211E-03 
1594	 7.32990944121491E-03 
1595	 7.35462703976096E-03 
1596	 7.2989442621582E-03 
1597	 7.1396803085916E-03 
1598	 7.03609505148906E-03 
1599	 7.04030564555435E-03 
1600	 7.11345189621792E-03 
1601	 7.2838409667762E-03 
1602	 7.2768417049643E-03 
1603	 6.98344192647952E-03 
1604	 7.01862482945052E-03 
1605	 7.21337632318783E-03 
1606	 7.19301594299097E-03 
1607	 7.30370896553086E-03 
1608	 7.27680507659922E-03 
1609	 7.00922695897822E-03 
1610	 6.88112960281087E-03 
1611	 6.97044881359036E-03 
1612	 7.16304724619301E-03 
1613	 7.16384477664867E-03 
1614	 7.01574837947876E-03 
1615	 7.02680045276318E-03 
1616	 7.07689523515554E-03 
1617	 7.04965229132007E-03 
1618	 7.06807731965443E-03 
1619	 6.9998812042854E-03 
1620	 6.99461538164833E-03 
1621	 7.31869967577547E-03 
1622	 7.48363193609761E-03 
1623	 7.17354462749369E-03 
1624	 6.93790492233479E-03 
1625	 7.19097230305501E-03 
1626	 7.44621811943035E-03 
1627	 7.53179554257636E-03 
1628	 7.61732906559147E-03 
1629	 7.36023373149239E-03 
1630	 7.07002716524323E-03 
1631	 7.04338336666089E-03 
1632	 7.12748751647971E-03 
1633	 7.14468726905517E-03 
1634	 7.06787399338715E-03 
1635	 7.35907054399622E-03 
1636	 7.75932407311352E-03 
1637	 7.73285214597356E-03 
1638	 7.3359811778771E-03 
1639	 6.84214844492197E-03 
1640	 6.72574093377048E-03 
1641	 7.13786528493513E-03 
1642	 7.40165844131148E-03 
1643	 7.27272922226023E-03 
1644	 7.24348707249218E-03 
1645	 7.11084825728564E-03 
1646	 6.89940330447642E-03 
1647	 7.18323413166155E-03 
1648	 7.36049540156056E-03 
1649	 7.06813148661057E-03 
1650	 7.04006808126078E-03 
1651	 7.20904412987701E-03 
1652	 7.21312454755028E-03 
1653	 7.00942421091412E-03 
1654	 7.01006805788462E-03 
1655	 6.93869104989655E-03 
1656	 6.77521999604149E-03 
1657	 7.00865289097476E-03 
1658	 7.17791253916212E-03 
1659	 6.73377626748533E-03 
1660	 6.66329960830774E-03 
1661	 7.19920574690707E-03 
1662	 7.08475596356207E-03 
1663	 6.54440073330637E-03 
1664	 6.73817694615873E-03 
1665	 6.97864211382347E-03 
1666	 6.98318292462944E-03 
1667	 7.49990581703397E-03 
1668	 7.41630209893679E-03 
1669	 7.1308354536968E-03 
1670	 7.07040397869725E-03 
1671	 7.20330047553676E-03 
1672	 7.34078943460193E-03 
1673	 7.35615770886134E-03 
1674	 7.1482351095235E-03 
1675	 7.18968983911466E-03 
1676	 7.44565047683779E-03 
1677	 7.2273790461453E-03 
1678	 7.25477265553477E-03 
1679	 7.52049545377705E-03 
1680	 7.2311930771617E-03 
1681	 7.10220352755288E-03 
1682	 7.32908861143788E-03 
1683	 7.27130825566669E-03 
1684	 7.1242217555451E-03 
1685	 7.19232130146546E-03 
1686	 7.09644672894237E-03 
1687	 6.82924685621058E-03 
1688	 6.98030772461714E-03 
1689	 7.25912841137841E-03 
1690	 7.39522777160219E-03 
1691	 7.29034838408552E-03 
1692	 6.85622074196152E-03 
1693	 6.83785201815452E-03 
1694	 6.79165443149686E-03 
1695	 6.60205110638601E-03 
1696	 7.16657803088531E-03 
1697	 7.46916306274319E-03 
1698	 6.96744743888773E-03 
1699	 6.81956880541435E-03 
1700	 6.71525621186375E-03 
1701	 6.34154088507223E-03 
1702	 6.7481058026629E-03 
1703	 7.17201853858075E-03 
1704	 7.0207116361907E-03 
1705	 7.05824639378573E-03 
1706	 7.04749329671361E-03 
1707	 6.97566340082033E-03 
1708	 6.94448066553575E-03 
1709	 6.7471343135653E-03 
1710	 6.67978611076942E-03 
1711	 7.00278159162287E-03 
1712	 7.19829898066906E-03 
1713	 6.78197715405666E-03 
1714	 6.74777213279066E-03 
1715	 6.8085640794483E-03 
1716	 7.25500443363147E-03 
1717	 7.66583225606084E-03 
1718	 7.8877044891499E-03 
1719	 7.53274607452174E-03 
1720	 6.80344391246135E-03 
1721	 7.03457113271987E-03 
1722	 7.4929857039315E-03 
1723	 6.79702247500243E-03 
1724	 6.52286416572807E-03 
1725	 6.68918640243954E-03 
1726	 6.64664025820425E-03 
1727	 7.02799552238299E-03 
1728	 7.02579337115427E-03 
1729	 6.42301740255177E-03 
1730	 6.31682007758813E-03 
1731	 6.57707457591181E-03 
1732	 6.93126601450519E-03 
1733	 7.05873036876202E-03 
1734	 6.53917054483988E-03 
1735	 6.34586003057678E-03 
1736	 6.82626820175017E-03 
1737	 7.10684352205774E-03 
1738	 6.82948118525138E-03 
1739	 6.56360220929407E-03 
1740	 6.95111899948305E-03 
1741	 7.58886990222167E-03 
1742	 7.58338859563396E-03 
1743	 7.43895315871932E-03 
1744	 7.06411301977355E-03 
1745	 5.97947516828077E-03 
1746	 6.70971956899173E-03 
1747	 6.88646310481891E-03 
1748	 6.74464182079851E-03 
1749	 6.72537225453585E-03 
1750	 6.11765970185748E-03 
1751	 6.31540916549113E-03 
1752	 7.63622713619531E-03 
1753	 7.64992787951036E-03 
1754	 7.49651055953803E-03 
1755	 7.48277462143289E-03 
1756	 5.96203503413842E-03 
1757	 6.14554140438776E-03 
1758	 6.99046121162434E-03 
1759	 6.40052930306838E-03 
1760	 6.51895507930415E-03 
1761	 6.88264305225246E-03 
1762	 6.05092005063293E-03 
1763	 5.8938548026463E-03 
1764	 6.3647860646993E-03 
1765	 6.64045668643237E-03 
1766	 7.34812111355792E-03 
1767	 6.88462548549375E-03 
1768	 5.94264363637192E-03 
1769	 6.30892183751765E-03 
1770	 6.61415245381237E-03 
1771	 7.88512347203513E-03 
1772	 9.12661499779337E-03 
1773	 6.92283807857536E-03 
1774	 5.4910581515653E-03 
1775	 5.40024957597972E-03 
1776	 4.79594233545768E-03 
1777	 5.68621819696758E-03 
1778	 5.86891411184302E-03 
1779	 4.85210503751194E-03 
1780	 4.80243429924346E-03 
1781	 5.63333830412691E-03 
1782	 5.57115895474304E-03 
1783	 4.76207699388413E-03 
1784	 4.90279358649287E-03 
1785	 5.51073420983735E-03 
1786	 5.86842260670928E-03 
1787	 6.79537456660421E-03 
1788	 6.63306624074402E-03 
1789	 5.5866889801414E-03 
1790	 7.39984673416594E-03 
1791	 6.18713285784246E-03 
1792	 3.90932121493465E-03 
1793	 3.67482143711111E-03 
1794	 3.35527294918823E-03 
1795	 3.82223980914483E-03 
1796	 6.16550599802806E-03 
1797	 6.20988207173319E-03 
1798	 3.31919064730712E-03 
1799	 4.84303421077333E-04 
1800	-5.55253038640773E-03 
1801	-8.17718201325519E-03 
1802	-8.09652432194367E-03 
1803	-1.07611186750908E-02 
1804	-8.22457293931273E-03 
1805	-5.66779360039994E-03 
1806	-1.20063246242935E-02 
1807	-1.58456130266433E-02 
1808	 3.36384911846283E-03 
1809	 5.16995923613853E-03 
1810	-1.95661930856002E-02 
1811	-4.94119357154143E-02 
1812	-0.149154231139478 
1813	-0.186610095636016 
1814	-0.157651617040519 
1815	-0.12703748222744 
1816	 0.118324602092936 
1817	-2.8949741812048E-03 
1818	 2.48537289691583E-02 
1819	 0.108378058975004 
1820	-0.240926560302297 
1821	-0.197945122455943 
1822	-0.256361491403229 
1823	-0.821938545474627 
1824	-0.854386367494218 
1825	-0.325389138585205 
1826	-0.190540345569269 
1827	 0.360069662838854 
1828	 0.479546779225472 
1829	-2.70270621363726E-03 
1830	-0.161531014207124 
1831	-1.11473453508434 
1832	-1.06461055289315 
1833	 0.296759047357042 
1834	 0.83995725161545 
1835	 4.9194411328567 
1836	 13.4758653401014 
1837	-5.79318882008451 
1838	-5.44038530246042 
1839	-2.5771234796376 
1840	-1.38108981812897 
1841	-0.553720332827584 
1842	-0.360294121575486 
1843	-0.201725872056626 
1844	-4.37402803156558E-02 
1845	-0.142999379755032 
1846	-2.1784973026238 
1847	-5.38331554668308 
1848	-180.465646575097 
1849	 24.8878405839329 
1850	-1.89789809413601 
1851	-0.25126642290032 
1852	 7.47016359838342E-02 
1853	-8.47492507666039E-03 
1854	 6.58441187182423E-02 
1855	-0.454117500513979 
1856	-1.84303038519091 
1857	-1.2700072402926 
1858	-0.589642122642777 
1859	 9.81113059188124E-02 
1860	 0.484911035188705 
1861	 0.58790597387818 
1862	 1.10854525107822 
1863	 2.71001526787738 
1864	-0.212994262688848 
1865	-3.30940887377713E-02 
1866	-1.3964898338273 
1867	-2.10717988899583 
1868	 1.23305735254499 
1869	-0.351341117775448 
1870	-2.0881267589801 
1871	-1.50537741214403 
1872	 33.1344532301532 
1873	 4.22478865107045 
1874	-10.9480443643409 
1875	 10.2079128106682 
1876	-8.27804548804505 
1877	-0.32916492003802 
1878	-0.207416608681401 
1879	 2.71107119042008 
1880	 1.05704453394997 
1881	 0.381600635315451 
1882	-1.2301049379283 
1883	 3.02394165888453 
1884	 0.734649335727103 
1885	 0.718259843301344 
1886	 0.784699023445999 
1887	-0.645235371005998 
1888	-0.368126714863596 
1889	-0.016797875134734 
1890	 0.383946531895001 
1891	 0.319892941647671 
1892	 0.652798146320234 
1893	 8.62109834174035E-02 
1894	-0.658841597928732 
1895	-2.63596159184788 
1896	 3.70180648151004 
1897	 1.62675615073471 
1898	-1.14834531717013 
1899	-0.558964825895883 
1900	-0.570355502079434 
1901	 0.28337369495724 
1902	-0.458779227657531 
1903	-5.70179018079813 
1904	 12.6312158444211 
1905	-4.93897026997289 
1906	-60.6242532320506 
1907	 7.79734191093442 
1908	-0.517087798922804 
1909	 0.504145111496727 
1910	-1.50473778891844 
1911	-2.50543179973783 
1912	 14.7944021583585 
1913	 19.4986285953676 
1914	-1.60725587558885 
1915	-1.9936917293093 
1916	-486.790667111493 
1917	 0.456590694584281 
1918	 0.551072215118372 
1919	 0.531295361355473 
1920	 0.487114172938533 
1921	 2.17409910633661 
1922	 0.937012032672699 
1923	-1.33949338035026 
1924	 89.2032361297536 
1925	 5.83717783255431 
1926	 4.69069759660203 
1927	 0.571136094948139 
1928	-0.356738311789082 
1929	 2.15011629164063 
1930	-9.45469361955164 
1931	-0.832457951792523 
1932	-0.402819223480952 
1933	-0.301156125409303 
1934	-9.69893793150121E-02 
1935	 7.60839968510268E-02 
1936	 6.38050452121042E-02 
1937	 0.137107634262372 
1938	 0.142585274799142 
1939	 0.138095313647005 
1940	 6.42655909134572E-02 
1941	 4.71844578304207E-02 
1942	-1.68833773933994E-03 
1943	 2.84202362129351E-02 
1944	 3.21191549643523E-02 
1945	-2.01320448120775E-02 
1946	-3.95820465331446E-03 
1947	 2.70517874484595E-03 
1948	 3.32172730049664E-03 
1949	 3.25254189626808E-02 
1950	 3.33716197390256E-02 
1951	 1.12637010435007E-02 
1952	 4.8824799239208E-03 
1953	-8.9634093334937E-03 
1954	-1.50902150327606E-02 
1955	-1.63215404510141E-02 
1956	-1.16511902980107E-02 
1957	-1.44401192644922E-02 
1958	-2.87609742096843E-02 
1959	-2.37312245281493E-02 
1960	-1.5812892522337E-03 
1961	 9.0782535756236E-03 
1962	 8.8789185634297E-03 
1963	 1.01401209344685E-02 
1964	 8.10904497407117E-03 
1965	 3.19650896153474E-03 
1966	 1.99838632920467E-03 
1967	 3.8834325194973E-03 
1968	 5.97834556370005E-03 
1969	 5.70284818673674E-03 
1970	 5.42002187855698E-03 
1971	 5.56366519035233E-03 
1972	 4.99559353948327E-03 
1973	 4.4585205231528E-03 
1974	 4.84693025883347E-03 
1975	 5.79787659956597E-03 
1976	 5.91598536589582E-03 
1977	 3.49728553467831E-03 
1978	 2.19302055976044E-03 
1979	 1.98338835455037E-03 
1980	 1.99358123395863E-03 
1981	 1.87377679224281E-03 
1982	 4.13425674710485E-03 
1983	 5.8092120369685E-03 
1984	 5.5661649061229E-03 
1985	 5.87114112583452E-03 
1986	 5.96579903132014E-03 
1987	 5.19073207782899E-03 
1988	 5.29654515571646E-03 
1989	 5.64964418743192E-03 
1990	 6.20531696876703E-03 
1991	 7.32078722520237E-03 
1992	 7.98481027396315E-03 
1993	 8.30299908150161E-03 
1994	 7.83477739973068E-03 
1995	 6.10847612437354E-03 
1996	 3.41120972146104E-03 
1997	 2.16078817172176E-03 
1998	 3.65436904111518E-03 
1999	 5.81684583247158E-03 
2000	 7.73760912661893E-03 
2001	 1.04875597536137E-02 
2002	 1.05542021724709E-02 
2003	 8.7062006121892E-03 
2004	 1.03949921119682E-02 
2005	 1.30930711619549E-02 
2006	 1.03252801840613E-02 
2007	 6.78819846513292E-03 
2008	 7.8135222422524E-03 
2009	 7.89984226035925E-03 
2010	 6.25098503633662E-03 
2011	 6.14690156105217E-03 
2012	 7.86552763474565E-03 
2013	 1.00896968808496E-02 
2014	 1.04698081031563E-02 
2015	 1.05454718803463E-02 
2016	 8.30024700379844E-03 
2017	 4.66914439163149E-03 
2018	 4.0119348380463E-03 
2019	 4.5167807412249E-03 
2020	 6.28528308836509E-03 
2021	 8.07537733889659E-03 
2022	 7.34760321445778E-03 
2023	 7.10943097495456E-03 
2024	 6.85526997290282E-03 
2025	 6.64871127829105E-03 
2026	 6.47613277032868E-03 
2027	 6.3517282983906E-03 
2028	 5.90304422802785E-03 
2029	 5.89872226025257E-03 
2030	 6.01914392521392E-03 
2031	 6.19039216294502E-03 
2032	 6.92428181511249E-03 
2033	 6.83329169018991E-03 
2034	 6.94391518587431E-03 
2035	 7.2623324985852E-03 
2036	 6.28967030170615E-03 
2037	 4.87487852674113E-03 
2038	 5.02676635572006E-03 
2039	 4.9616951649551E-03 
2040	 4.26646715165523E-03 
2041	 4.06962999695482E-03 
2042	 5.01172375223034E-03 
2043	 4.9947964491906E-03 
2044	 3.82161110244235E-03 
2045	 4.98664172154805E-03 
2046	 5.69302745304933E-03 
2047	 5.80093352027254E-03 
2048	 6.45536228363846E-03 
2049	 6.06241699815785E-03 
2050	 5.67259547195944E-03 
2051	 5.12476469318545E-03 
2052	 4.7711655810471E-03 
2053	 5.63452817741117E-03 
2054	 6.30343794582297E-03 
2055	 5.07797979644359E-03 
2056	 4.4027424346575E-03 
2057	 3.47681433456911E-03 
2058	 2.62659704556732E-03 
2059	 1.09894364426424E-03 
2060	 1.51252100208227E-03 
2061	 3.48104908635694E-03 
2062	 3.11629645114423E-03 
2063	 4.00695385961122E-03 
2064	 5.08643120338541E-03 
2065	 3.52960935778987E-03 
2066	 2.13651434920921E-03 
2067	 3.12965371858317E-03 
2068	 3.88143151959487E-03 
2069	 4.17467831759492E-03 
2070	 5.47134542275211E-03 
2071	 5.38699943194313E-03 
2072	 5.16297080048033E-03 
2073	 4.82640549921497E-03 
2074	 4.29181135172451E-03 
2075	 3.96676247183946E-03 
2076	 3.62432580707099E-03 
2077	 3.23780378404503E-03 
2078	 3.16531065516791E-03 
2079	 3.38220748841268E-03 
2080	 3.77300430693098E-03 
2081	 3.24490700247593E-03 
2082	 3.47212817725596E-03 
2083	 3.56555073648211E-03 
2084	 3.81205311106751E-03 
2085	 4.66711640427246E-03 
2086	 5.02499037418187E-03 
2087	 4.76908867318038E-03 
2088	 4.60561946550035E-03 
2089	 4.29222085514523E-03 
2090	 3.69885966293373E-03 
2091	 4.06087134451305E-03 
2092	 4.09006973747411E-03 
2093	 3.63422656187519E-03 
2094	 3.63216578726492E-03 
2095	 4.12018940737662E-03 
2096	 4.24122330345328E-03 
2097	 4.14204453335775E-03 
2098	 4.55676158305467E-03 
2099	 5.31938298294155E-03 
2100	 5.62101410471721E-03 
2101	 5.84159484634644E-03 
2102	 5.91683769011687E-03 
2103	 5.47978936999607E-03 
2104	 5.52232857502292E-03 
2105	 5.41965360585015E-03 
2106	 5.26523609483123E-03 
2107	 5.10223384585761E-03 
2108	 4.70678548210827E-03 
2109	 4.80523162916143E-03 
2110	 4.91920536193111E-03 
2111	 5.76346251962933E-03 
2112	 6.56286370982714E-03 
2113	 6.56488099256991E-03 
2114	 6.47188052231764E-03 
2115	 6.40980630514807E-03 
2116	 5.0398424698897E-03 
2117	 4.43462338354199E-03 
2118	 4.8359896215479E-03 
2119	 4.79280328320063E-03 
2120	 4.17333334274384E-03 
2121	 4.40222852778679E-03 
2122	 5.67299854278584E-03 
2123	 5.37550625284728E-03 
2124	 5.43161293311353E-03 
2125	 6.41946993348976E-03 
2126	 6.4980128750834E-03 
2127	 6.34510510904164E-03 
2128	 5.66389562819234E-03 
2129	 4.91635860860107E-03 
2130	 4.98770692306959E-03 
2131	 5.42391286800699E-03 
2132	 5.79456987476097E-03 
2133	 6.55963134822116E-03 
2134	 7.07184021449802E-03 
2135	 7.19503705367877E-03 
2136	 6.79524576461335E-03 
2137	 6.34961131386789E-03 
2138	 5.9302871054784E-03 
2139	 4.59618565282403E-03 
2140	 4.03141140360807E-03 
2141	 4.12147075937336E-03 
2142	 3.93588990800879E-03 
2143	 3.75306299910042E-03 
2144	 3.28762598051965E-03 
2145	 3.63514886454792E-03 
2146	 4.84961754973067E-03 
2147	 4.76914986174243E-03 
2148	 5.34707853411511E-03 
2149	 6.04116906614279E-03 
2150	 5.6398462064614E-03 
2151	 5.99748183032781E-03 
2152	 6.41134186422243E-03 
2153	 6.26559901865221E-03 
2154	 5.83167454545839E-03 
2155	 5.05474321454183E-03 
2156	 4.90144469336252E-03 
2157	 5.07472724920204E-03 
2158	 5.59768209970678E-03 
2159	 5.59925679554465E-03 
2160	 5.85721898498329E-03 
2161	 6.31468952811116E-03 
2162	 6.82070078613034E-03 
2163	 6.58801572083064E-03 
2164	 5.7429283292362E-03 
2165	 5.63744887687176E-03 
2166	 5.69141227227406E-03 
2167	 5.07490804437795E-03 
2168	 4.88110076973809E-03 
2169	 4.75926797654853E-03 
2170	 3.78281446262497E-03 
2171	 2.51172690499953E-03 
2172	 2.84078415088324E-03 
2173	 4.28758102793286E-03 
2174	 5.80158488063171E-03 
2175	 6.0545704979741E-03 
2176	 5.93013179030455E-03 
2177	 5.77576054725437E-03 
2178	 3.91640667813364E-03 
2179	 2.53680642039104E-03 
2180	 2.47176257804344E-03 
2181	 2.51701780641496E-03 
2182	 4.02758897430091E-03 
2183	 5.72905058749867E-03 
2184	 5.79584212368342E-03 
2185	 5.0935796048145E-03 
2186	 4.38978108137445E-03 
2187	 1.74171785746701E-03 
2188	 1.85969093415883E-03 
2189	 4.00406794572388E-03 
2190	 4.27690512325182E-03 
2191	 5.12134235179076E-03 
2192	 4.96848519444006E-03 
2193	 2.81431687810912E-03 
2194	 2.42132249091064E-03 
2195	 2.60383943433332E-03 
2196	 2.86247192587967E-03 
2197	 3.70337573964999E-03 
2198	 4.49547773889831E-03 
2199	 5.09691923422635E-03 
2200	 7.4775278514923E-03 
2201	 7.98482483951464E-03 
2202	 7.01610969572544E-03 
2203	 6.42176649391201E-03 
2204	 4.63150522111824E-03 
2205	 5.9809994273806E-03 
2206	 8.57561492983983E-03 
2207	 8.88000986557253E-03 
2208	 9.94620866552155E-03 
2209	 9.47669745379632E-03 
2210	 8.03835727658214E-03 
2211	 8.04203244720579E-03 
2212	 8.28111393910733E-03 
2213	 9.38078155990395E-03 
2214	 9.89045251383004E-03 
2215	 8.6441711615222E-03 
2216	 7.27055812570868E-03 
2217	 6.22371063334308E-03 
2218	 3.16505469459424E-03 
2219	 3.0142791688648E-03 
2220	 5.93613250466085E-03 
2221	 6.04555647952578E-03 
2222	 5.85102838274204E-03 
2223	 5.47208240477884E-03 
2224	 3.37992228577583E-03 
2225	 2.62636511329495E-03 
2226	 2.86456609868845E-03 
2227	 2.50141006338018E-03 
2228	 1.43337106092055E-03 
2229	 1.6605039721462E-03 
2230	 3.55827485586013E-03 
2231	 3.98451148195098E-03 
2232	 4.09310823519348E-03 
2233	 4.41051197009849E-03 
2234	 4.75846621276491E-03 
2235	 2.06794334002282E-03 
2236	 1.93085449167635E-03 
2237	 4.82418513739697E-03 
2238	 5.52252897739636E-03 
2239	 6.07132517607535E-03 
2240	 6.06073440138166E-03 
2241	 3.39407570312869E-03 
2242	 2.06020943832516E-03 
2243	 3.37706907943542E-03 
2244	 3.88442977296996E-03 
2245	 3.63648634831783E-03 
2246	 4.02981601708929E-03 
2247	 4.28157956193529E-03 
2248	 5.04827185113143E-03 
2249	 6.84686964996033E-03 
2250	 7.39286736509126E-03 
2251	 5.49922181350753E-03 
2252	 4.16975056390274E-03 
2253	 3.89998248439264E-03 
2254	 4.55495247097194E-03 
2255	 4.33810580989856E-03 
2256	 1.87210980378119E-03 
2257	 1.94637180857442E-03 
2258	 2.89803195438193E-03 
2259	 2.89050665748268E-03 
2260	 3.00627915160138E-03 
2261	 4.88062503963435E-03 
2262	 5.32251735698543E-03 
2263	 3.75729550433759E-03 
2264	 3.19884277230065E-03 
2265	 3.49257403588443E-03 
2266	 3.02182814077399E-03 
2267	 1.65108309598605E-03 
2268	 1.44015464054074E-03 
2269	 2.14573261533631E-03 
2270	 2.6419393349388E-03 
2271	 3.5240547930682E-03 
2272	 3.34618748734828E-03 
2273	 1.94637000626371E-03 
2274	 1.67381375736304E-03 
2275	 1.65284053215362E-03 
2276	 1.9889708383807E-03 
2277	 3.93019264661254E-03 
2278	 3.76781213965634E-03 
2279	 2.20260843469774E-03 
2280	 1.77093896500263E-03 
2281	 3.41054392612294E-04 
2282	 2.54984511442286E-04 
2283	 2.75398929414795E-03 
2284	 3.60392604199739E-03 
2285	 3.51372156544485E-03 
2286	 4.95025210784571E-03 
2287	 7.61811035652362E-03 
2288	 6.1853545915614E-03 
2289	 4.58942867067654E-03 
2290	 6.22869407221712E-03 
2291	 5.63574423381245E-03 
2292	 6.8387576467454E-03 
2293	 6.87377263012121E-03 
2294	 1.99802054348261E-03 
2295	 2.8079249802994E-03 
2296	 4.73717609695255E-03 
2297	 3.2851125815225E-03 
2298	 6.95162172242843E-03 
2299	 7.69298003852542E-03 
2300	 4.35621576049361E-03 
2301	 3.72347662181291E-03 
2302	 2.45222717588355E-03 
2303	 2.59008037564819E-03 
2304	 2.31269412116806E-03 
2305	 1.30722728760974E-03 
2306	 3.92474804227113E-03 
2307	 4.56514492048427E-03 
2308	 2.24359761969521E-03 
2309	 3.52137030113707E-03 
2310	 5.50857021031958E-03 
2311	 9.05103526691562E-03 
2312	 1.31932345176993E-02 
2313	 1.22144927007282E-02 
2314	 1.16624041846653E-02 
2315	 8.2736384607543E-03 
2316	 0.003328836050797 
2317	 3.50247481907303E-03 
2318	 4.76391242868493E-03 
2319	 5.17723892702916E-03 
2320	 4.08139278615715E-03 
2321	 6.41377166503659E-03 
2322	 5.86402456285612E-03 
2323	-5.2924682374037E-04 
2324	 9.18913576576593E-04 
2325	 2.93402454853144E-03 
2326	 2.63956939512469E-03 
2327	 7.39654663081058E-03 
2328	 6.31614056876278E-03 
2329	 9.11296601759265E-05 
2330	 2.53041889597553E-04 
2331	 1.87698872764624E-03 
2332	 5.16980283563094E-03 
2333	 0.01049384367585 
2334	 7.69492552650367E-03 
2335	 1.66110777142581E-03 
2336	-3.12385710187604E-03 
2337	-8.21155048297451E-03 
2338	-8.8502532660799E-03 
2339	-8.98384053475641E-03 
2340	-7.1384005386585E-03 
2341	-1.08932192843226E-03 
2342	 1.13930316735324E-03 
2343	 1.76515428083294E-03 
2344	-8.17348982156634E-04 
2345	-2.03453947948283E-03 
2346	 4.93225053138628E-03 
2347	 4.99996285936663E-03 
2348	 4.77914179987224E-03 
2349	 4.90760516838048E-03 
2350	-6.98058388107584E-03 
2351	-1.41303929652908E-02 
2352	-1.44384482724664E-02 
2353	-1.17270733935338E-02 
2354	-0.005724058973126 
2355	 3.94324959051043E-03 
2356	 1.45740744719804E-02 
2357	 1.96784263389348E-02 
2358	 2.55687543425983E-02 
2359	 2.57169875192769E-02 
2360	 2.20804394504294E-02 
2361	 1.81652550900792E-02 
2362	 1.43294771438646E-02 
2363	 1.49316272341504E-02 
2364	 1.07155519592096E-02 
2365	 1.40928509176135E-02 
2366	 1.63165517479685E-02 
2367	 7.6004760789547E-03 
2368	 1.05285468789394E-02 
2369	 0.010176940996692 
2370	 7.51726956440168E-03 
2371	 6.84259433296158E-03 
2372	 2.17706490238178E-03 
2373	-6.34566691463494E-03 
2374	-1.16355605865162E-02 
2375	-5.24030005977028E-03 
2376	-6.68563843375932E-03 
2377	-4.71657996371816E-03 
2378	-0.013264340993524 
2379	-3.27783859448563E-02 
2380	-2.96394470328659E-02 
2381	-1.63444315458415E-02 
2382	-3.07661461745158E-03 
2383	 3.98564731729127E-03 
2384	 4.18440665474138E-03 
2385	-1.89055073281645E-02 
2386	-6.30133745187322E-02 
2387	-8.11554194057405E-02 
2388	-8.29019768288356E-02 
2389	-8.51252746602401E-02 
2390	-4.11621960910187E-02 
2391	 5.05197932060441E-04 
2392	-2.74788205714301E-03 
2393	 1.16602373623204E-02 
2394	 2.61947016098091E-02 
2395	 2.92416906167388E-02 
2396	 3.00830039505245E-02 
2397	 4.50757365178974E-02 
2398	 3.92035020054964E-02 
2399	-4.29832008311047E-02 
2400	-5.82458521442657E-02 
2401	-1.42889830565596E-02 
2402	-3.01505841721924E-02 
2403	-1.34667449686145E-03 
2404	 6.08213136332953E-02 
2405	 3.12779438114196E-02 
2406	 1.64425534170938E-02 
2407	 4.10884889205068E-03 
2408	-6.31751815535052E-02 
2409	-9.57588137953963E-02 
2410	-0.128347234611011 
2411	-8.66627851626226E-02 
2412	 1.34198800928883E-02 
2413	 9.72172669568057E-03 
2414	-4.04548468975909E-02 
2415	-0.124420138942115 
2416	-0.201851032010683 
2417	-0.285785089681873 
2418	-0.331763199100896 
2419	-0.286275936947954 
2420	-0.231605798645268 
2421	-0.167184947705302 
2422	-9.45200450594575E-02 
2423	-3.78099957638999E-02 
2424	-3.53237062376405E-02 
2425	-5.28823068026907E-02 
2426	 1.91045495508924E-02 
2427	 2.88745174919923E-02 
2428	 1.86617397315406E-02 
2429	 7.16931143226524E-02 
2430	 6.80694765025403E-02 
2431	 5.06386817967729E-02 
2432	 2.02759948308504E-02 
2433	 3.86856724128899E-02 
2434	 6.78016505982928E-02 
2435	 1.18232184066724E-02 
2436	 2.23436504356463E-02 
2437	-7.43002893999151E-02 
2438	-0.230085476507097 
2439	-0.111652912607828 
2440	-5.59281710134882E-02 
2441	-5.19779281874031E-03 
2442	 8.51588478337506E-02 
2443	-5.52433849678313E-02 
2444	-0.215999181794542 
2445	-0.34577388561444 
2446	-0.394269152493297 
2447	-0.296778539840639 
2448	-0.325546971470947 
2449	-0.495445998666269 
2450	-0.517090072250699 
2451	-0.592756188521984 
2452	-0.763985313453824 
2453	-0.420096788117022 
2454	-0.283994271751814 
2455	-0.392132215262048 
2456	-0.214899674822416 
2457	-4.11312677476129E-02 
2458	-0.297224940887487 
2459	-0.377882704290293 
2460	-9.28617464196285E-02 
2461	 1.49457459439884E-02 
2462	 0.251510748739056 
2463	 0.999726826520295 
2464	-0.972243646424206 
2465	-7.27815450873439 
2466	-2.53264730562703 
2467	-0.372434389843553 
2468	-0.299523344537635 
2469	-0.718471905946056 
2470	 0.254329648471099 
2471	-0.296414768707881 
2472	-2.21443967025717 
2473	-0.361265736788587 
2474	-1.1027677012262 
2475	-3.98954197633952 
2476	-1.77190645934031 
2477	-0.988368081511734 
2478	-1.05942024237215 
2479	-2.10309568426486 
2480	-3.66665412442013 
2481	-2.21201705675626 
2482	-28.7060316415738 
2483	-5.68201598139285 
2484	 29.3328197706891 
2485	 1.37926385819317 
2486	 0.89186941432521 
2487	 0.557799022524845 
2488	 0.48131707796142 
2489	 0.915547755349726 
2490	 0.60834217892604 
2491	-4.03771968823864E-02 
2492	-0.152812885357905 
2493	-6.26590513232627 
2494	 1.42876386036112 
2495	 0.591952403620509 
2496	 1.94349100056553 
2497	 3.3769795445316 
2498	 1.6702527273123 
2499	-89.4082404389129 
2500	 1.26723844183679 
