Wavelength	rt0708c00008.asd
350	 7.67029250826594E-02 
351	 7.57369646476136E-02 
352	 7.58243406145228E-02 
353	 0.076551261311155 
354	 7.70267050949459E-02 
355	 7.60964918755714E-02 
356	 7.64588785737512E-02 
357	 7.67632903264129E-02 
358	 7.54883553440902E-02 
359	 7.60252034834247E-02 
360	 7.65531861139518E-02 
361	 7.65058531806931E-02 
362	 0.076297068430143 
363	 7.57806656555731E-02 
364	 7.54810768208901E-02 
365	 7.55981780313015E-02 
366	 0.07575281839483 
367	 7.60536177453472E-02 
368	 7.63247248909039E-02 
369	 0.076436460825735 
370	 7.66410797304225E-02 
371	 7.68988815469624E-02 
372	 7.70512713616642E-02 
373	 7.68932844047727E-02 
374	 7.63361194411466E-02 
375	 7.65324980985691E-02 
376	 7.75042541658132E-02 
377	 7.76301454997002E-02 
378	 7.76743118814455E-02 
379	 7.77435194792818E-02 
380	 0.077967876199994 
381	 7.90561326357726E-02 
382	 7.95652756575439E-02 
383	 7.95204261639391E-02 
384	 0.079628812821008 
385	 7.97089542325612E-02 
386	 7.95478047409434E-02 
387	 0.079367814285528 
388	 7.98191856909843E-02 
389	 7.99724775374951E-02 
390	 8.02614897692083E-02 
391	 8.09362465918462E-02 
392	 8.11894018869183E-02 
393	 8.11885713415643E-02 
394	 8.15056040081655E-02 
395	 8.23672305967392E-02 
396	 8.14923262784852E-02 
397	 8.07553424417217E-02 
398	 8.07610054664453E-02 
399	 8.08087158100684E-02 
400	 8.05016973731674E-02 
401	 8.03343435938967E-02 
402	 8.05828992401707E-02 
403	 8.07065423256237E-02 
404	 0.081264425961444 
405	 8.17842035715817E-02 
406	 0.08166048634338 
407	 8.18165778420558E-02 
408	 8.19642744729514E-02 
409	 8.19569770895216E-02 
410	 8.18669965227524E-02 
411	 8.17933633184385E-02 
412	 8.19361291891509E-02 
413	 8.22476550522138E-02 
414	 8.20381749266513E-02 
415	 8.21119598425406E-02 
416	 8.23709573509455E-02 
417	 8.24339118896338E-02 
418	 8.26604309439286E-02 
419	 8.26949796421134E-02 
420	 8.25709511268519E-02 
421	 8.27635432775451E-02 
422	 8.29055262448758E-02 
423	 8.29715205442644E-02 
424	 8.30726216514134E-02 
425	 8.35090465478664E-02 
426	 8.39600528323389E-02 
427	 8.42389974155033E-02 
428	 8.42953150274593E-02 
429	 8.45009932905309E-02 
430	 8.46069290625826E-02 
431	 8.45843791946258E-02 
432	 8.47230130202593E-02 
433	 8.44591708349027E-02 
434	 8.43217958230079E-02 
435	 8.47214685956843E-02 
436	 8.50372864261744E-02 
437	 8.53577641116212E-02 
438	 8.55849437847605E-02 
439	 8.55918569269137E-02 
440	 8.58694933369151E-02 
441	 0.086068546611273 
442	 8.60739862876911E-02 
443	 8.62426123289107E-02 
444	 8.64979448132382E-02 
445	 8.66782699584392E-02 
446	 0.086692626300504 
447	 8.68318876346188E-02 
448	 8.69345585407016E-02 
449	 8.70199107376684E-02 
450	 8.72310473567369E-02 
451	 8.74429513383509E-02 
452	 8.75790206202752E-02 
453	 8.76694337185637E-02 
454	 8.79602773743194E-02 
455	 8.80575434432901E-02 
456	 8.80101449380511E-02 
457	 0.088023480853323 
458	 8.81860682123349E-02 
459	 8.82118768573831E-02 
460	 8.81340810190425E-02 
461	 8.83059932294693E-02 
462	 8.84611600342224E-02 
463	 8.85595667460473E-02 
464	 8.86239392948944E-02 
465	 8.87099225939824E-02 
466	 8.89103703273822E-02 
467	 8.90451449259632E-02 
468	 8.88901465449226E-02 
469	 8.89640440223521E-02 
470	 8.91309854298198E-02 
471	 8.92380903057684E-02 
472	 8.91958539548639E-02 
473	 8.93330047889943E-02 
474	 8.95734780180813E-02 
475	 8.97349326283572E-02 
476	 0.089645493185113 
477	 8.98143566827463E-02 
478	 9.00748034679072E-02 
479	 8.98758267317637E-02 
480	 8.99275133330007E-02 
481	 9.01979415994654E-02 
482	 9.05394412193836E-02 
483	 9.07702353885539E-02 
484	 9.12103130446507E-02 
485	 9.16175162508241E-02 
486	 9.16464456866079E-02 
487	 9.15910690646688E-02 
488	 9.14571705740406E-02 
489	 9.14081631121558E-02 
490	 9.17406633239525E-02 
491	 0.092122842072243 
492	 0.092429608075967 
493	 0.092633153766863 
494	 9.28459607751069E-02 
495	 9.29928223774519E-02 
496	 9.31739809283057E-02 
497	 9.35503761152369E-02 
498	 9.40070075300129E-02 
499	 9.43942201275006E-02 
500	 9.46405413461745E-02 
501	 9.47900994048063E-02 
502	 9.51248982490402E-02 
503	 9.53774442820802E-02 
504	 9.53406304704466E-02 
505	 9.57136693293931E-02 
506	 9.61066580718062E-02 
507	 9.64083160445252E-02 
508	 9.67406685696384E-02 
509	 0.096946454012315 
510	 9.71748930919156E-02 
511	 9.75166353641879E-02 
512	 9.78110605377772E-02 
513	 9.81785744973754E-02 
514	 9.86841143706167E-02 
515	 9.93139354960851E-02 
516	 9.97677952707584E-02 
517	 0.100012603867473 
518	 0.100142321735752 
519	 0.10036091213975 
520	 0.100693608899935 
521	 0.101069542834201 
522	 0.101448719580404 
523	 0.101988640118227 
524	 0.102566785998119 
525	 0.103173493652165 
526	 0.103833611193385 
527	 0.103915089347409 
528	 0.104008370413176 
529	 0.104512640836636 
530	 0.105142900415574 
531	 0.105772644029463 
532	 0.106310378594202 
533	 0.106722223861182 
534	 0.107126598603606 
535	 0.107600317902637 
536	 0.108175904835885 
537	 0.108838638363277 
538	 0.109496346731381 
539	 0.110148890173764 
540	 0.11076336290602 
541	 0.111093406892683 
542	 0.111516764311666 
543	 0.11207111592707 
544	 0.11258486763065 
545	 0.113136901053603 
546	 0.113651275697577 
547	 0.114057386039817 
548	 0.114304443810468 
549	 0.114712046532982 
550	 0.115193773331729 
551	 0.115557622884905 
552	 0.115941356465158 
553	 0.116368075380904 
554	 0.116846111032863 
555	 0.117371226729568 
556	 0.117960086452593 
557	 0.118488381065798 
558	 0.118859433604196 
559	 0.119192609436425 
560	 0.119463486245159 
561	 0.119647440118472 
562	 0.119739472301413 
563	 0.119932280317449 
564	 0.120140506661146 
565	 0.120264546478855 
566	 0.12024383149627 
567	 0.120263745462745 
568	 0.120302989566676 
569	 0.120292701369862 
570	 0.120360606028579 
571	 0.120513648113642 
572	 0.120771813439756 
573	 0.121174228982566 
574	 0.121543935502693 
575	 0.121688541408683 
576	 0.121607565674366 
577	 0.121920474202714 
578	 0.122003047589028 
579	 0.121805252148616 
580	 0.121654499009879 
581	 0.121709150616613 
582	 0.121912209253528 
583	 0.122177768136152 
584	 0.122445307442227 
585	 0.122524463852301 
586	 0.122586751002834 
587	 0.12282126494635 
588	 0.122685436463533 
589	 0.122232432968575 
590	 0.121639079183819 
591	 0.121111289255794 
592	 0.120684239255647 
593	 0.1202281818086 
594	 0.11962946591687 
595	 0.11888971320996 
596	 0.118233626805812 
597	 0.117606302591437 
598	 0.116830126341902 
599	 0.116204145623819 
600	 0.115646888336432 
601	 0.115108734192786 
602	 0.114667687346572 
603	 0.114415677694709 
604	 0.114265784817287 
605	 0.114128048359039 
606	 0.114244393148184 
607	 0.114315718395439 
608	 0.114231711626886 
609	 0.114107318968268 
610	 0.114002772677017 
611	 0.113950688256865 
612	 0.113935571621829 
613	 0.113826062057019 
614	 0.113826155630511 
615	 0.11387500438938 
616	 0.11377260473224 
617	 0.113545224833145 
618	 0.113376750670636 
619	 0.113331812335862 
620	 0.113264048296806 
621	 0.113288658019582 
622	 0.113283850424232 
623	 0.113132652113532 
624	 0.113114178400297 
625	 0.113104586661095 
626	 0.113073849665925 
627	 0.113083370565272 
628	 0.112865009232889 
629	 0.112723417635786 
630	 0.112825482422359 
631	 0.112678201178172 
632	 0.112685144171225 
633	 0.112737771446933 
634	 0.112538653630037 
635	 0.112356579181171 
636	 0.11215468087178 
637	 0.111988453765748 
638	 0.112090661253106 
639	 0.112025861009201 
640	 0.111838795041097 
641	 0.111684895861537 
642	 0.111522201252129 
643	 0.111315325423495 
644	 0.11113921928324 
645	 0.111135648249227 
646	 0.110939810933068 
647	 0.11072924322879 
648	 0.110611791955368 
649	 0.110278069549748 
650	 0.109997055683863 
651	 0.109751525729967 
652	 0.109440836185101 
653	 0.109113451481621 
654	 0.108907611696445 
655	 0.108640555369013 
656	 0.107755335044234 
657	 0.107143143284122 
658	 0.106733747097094 
659	 0.106325407149062 
660	 0.106051140167952 
661	 0.105793887996023 
662	 0.105540288245298 
663	 0.105343193962414 
664	 0.105171163647597 
665	 0.104998459735845 
666	 0.104788130095084 
667	 0.104475166658347 
668	 0.104262230678961 
669	 0.104202391261093 
670	 0.104243959309317 
671	 0.104122903725242 
672	 0.104019926728214 
673	 0.103978982850118 
674	 0.103905226304697 
675	 0.103980555042597 
676	 0.104005413285671 
677	 0.103842398364536 
678	 0.103659471472241 
679	 0.103654080882079 
680	 0.103740908935122 
681	 0.103726085085869 
682	 0.103740891180316 
683	 0.10378197896755 
684	 0.103868613425729 
685	 0.104079277487644 
686	 0.104280617287702 
687	 0.104277363912519 
688	 0.104074086091429 
689	 0.104279466098132 
690	 0.104173414033212 
691	 0.103849047158977 
692	 0.10384823261536 
693	 0.103937127109625 
694	 0.10374273217597 
695	 0.103245931546675 
696	 0.102950379104677 
697	 0.102585132522293 
698	 0.102208446707387 
699	 0.101908973013214 
700	 0.101344139814311 
701	 0.100715362839427 
702	 0.100085106082772 
703	 9.93673220342284E-02 
704	 9.86327112554714E-02 
705	 9.79230358613672E-02 
706	 9.71910032272814E-02 
707	 9.61294354233384E-02 
708	 9.52824402350242E-02 
709	 9.43610915519493E-02 
710	 9.29509132707504E-02 
711	 0.091801826206172 
712	 9.07137040031076E-02 
713	 8.94950375564542E-02 
714	 8.80007511729484E-02 
715	 8.67463087207548E-02 
716	 8.56292062661765E-02 
717	 8.44799847453503E-02 
718	 8.30590186273008E-02 
719	 8.16211568909028E-02 
720	 8.02699217143894E-02 
721	 7.88293484672052E-02 
722	 7.78596721498728E-02 
723	 7.67251741305201E-02 
724	 7.53264214017574E-02 
725	 7.40939929072987E-02 
726	 7.28548309590257E-02 
727	 7.15434296363707E-02 
728	 7.01782336057346E-02 
729	 6.88870434666787E-02 
730	 6.76233747395876E-02 
731	 6.63558241527632E-02 
732	 6.50568710802278E-02 
733	 6.40432725248788E-02 
734	 6.33570244901987E-02 
735	 6.28975310597238E-02 
736	 6.23753978623446E-02 
737	 6.19658890349325E-02 
738	 6.16604461962105E-02 
739	 0.061432146800231 
740	 6.13235850557121E-02 
741	 6.11416329752727E-02 
742	 6.09145108324126E-02 
743	 6.07795571454218E-02 
744	 6.07139057233138E-02 
745	 6.06450935636895E-02 
746	 0.06054109639288 
747	 6.04308929223565E-02 
748	 6.03951137066631E-02 
749	 6.04342391324417E-02 
750	 6.04759551155085E-02 
751	 6.02908580459038E-02 
752	 0.060169913710896 
753	 6.01083885822934E-02 
754	 5.99461515740197E-02 
755	 5.97604028664714E-02 
756	 5.94281052546388E-02 
757	 5.90173654919547E-02 
758	 5.89098500793315E-02 
759	 6.01613993201225E-02 
760	 6.17332526003949E-02 
761	 6.10746847500972E-02 
762	 6.12844983228061E-02 
763	 6.11307519528952E-02 
764	 6.08709609763773E-02 
765	 0.060933732743947 
766	 6.03806064817335E-02 
767	 5.99252710853474E-02 
768	 5.98194641322355E-02 
769	 0.059899435826064 
770	 5.98484270763406E-02 
771	 5.97694798067083E-02 
772	 5.97879565733281E-02 
773	 5.98303437415825E-02 
774	 5.98671757191034E-02 
775	 5.99195330719644E-02 
776	 6.00161144290473E-02 
777	 6.00786305470436E-02 
778	 6.00807638235531E-02 
779	 6.00942465171367E-02 
780	 6.02652021701251E-02 
781	 6.03259450241864E-02 
782	 6.04118124727617E-02 
783	 6.05951080693213E-02 
784	 6.06305025146564E-02 
785	 6.07398695431723E-02 
786	 6.08894483178205E-02 
787	 6.10019484735548E-02 
788	 6.12949806617845E-02 
789	 6.14204222853091E-02 
790	 6.14486396738458E-02 
791	 6.17538264211275E-02 
792	 0.061879817264635 
793	 6.19436143480041E-02 
794	 6.20600509863237E-02 
795	 6.22043219474307E-02 
796	 6.24055723256789E-02 
797	 6.25492021017302E-02 
798	 6.25655987976826E-02 
799	 6.26268570479868E-02 
800	 6.28355005366895E-02 
801	 6.30902627604578E-02 
802	 6.31915286904953E-02 
803	 6.31922088774809E-02 
804	 6.30841044942448E-02 
805	 6.29253457531228E-02 
806	 6.28371243988902E-02 
807	 6.27591319688144E-02 
808	 6.27662345420161E-02 
809	 6.28019418978065E-02 
810	 6.23828571364388E-02 
811	 6.21455705585584E-02 
812	 6.21671413390092E-02 
813	 6.22787234767043E-02 
814	 6.23703018084883E-02 
815	 6.24355875289969E-02 
816	 6.23289049084317E-02 
817	 6.18740554012447E-02 
818	 6.14556070633738E-02 
819	 0.060463969309975 
820	 5.93514589607599E-02 
821	 6.00911845564706E-02 
822	 6.03402859930649E-02 
823	 5.94322009944773E-02 
824	 5.78174750459714E-02 
825	 5.67668200896699E-02 
826	 5.64406952675786E-02 
827	 0.056329252271888 
828	 5.57336909304609E-02 
829	 5.49881311829837E-02 
830	 5.43185661344625E-02 
831	 5.39356311449967E-02 
832	 5.39191563645035E-02 
833	 5.32320910497808E-02 
834	 5.26756824908111E-02 
835	 0.052612133155395 
836	 5.25460428822768E-02 
837	 5.23189226179988E-02 
838	 5.19409046996599E-02 
839	 5.15659294377037E-02 
840	 5.15754918184643E-02 
841	 5.16320501917823E-02 
842	 5.15165631572128E-02 
843	 5.11602765956544E-02 
844	 0.050919738842855 
845	 5.07900477875989E-02 
846	 0.050651310343265 
847	 0.050395898263547 
848	 5.07437166511947E-02 
849	 5.07575080652881E-02 
850	 5.01337941704315E-02 
851	 4.96337887274789E-02 
852	 5.01956278144667E-02 
853	 5.06890532310063E-02 
854	 5.03245872381909E-02 
855	 5.00563314301866E-02 
856	 4.98019773721363E-02 
857	 4.95751688978448E-02 
858	 4.94222306862364E-02 
859	 0.049536929887174 
860	 4.94079763030035E-02 
861	 4.91098874606507E-02 
862	 4.90042475880739E-02 
863	 4.91213679933028E-02 
864	 4.92662126297612E-02 
865	 4.94028176588743E-02 
866	 4.95837898841996E-02 
867	 4.90082009281177E-02 
868	 0.048504289252879 
869	 4.83887949684092E-02 
870	 4.80497962327605E-02 
871	 4.82608104806088E-02 
872	 4.83763531034855E-02 
873	 4.79828437962177E-02 
874	 4.78542472202412E-02 
875	 4.77917327569004E-02 
876	 0.04766393445509 
877	 4.74741350005458E-02 
878	 4.76989578175926E-02 
879	 4.76220531491318E-02 
880	 4.74356403879766E-02 
881	 0.047551032627391 
882	 4.69045661408829E-02 
883	 4.65070589526005E-02 
884	 4.66161044058648E-02 
885	 4.67885872680256E-02 
886	 4.66901494882109E-02 
887	 4.63121622447282E-02 
888	 0.045906207488731 
889	 4.58988387406301E-02 
890	 4.58111238322872E-02 
891	 4.54152061657578E-02 
892	 4.49518812337777E-02 
893	 4.54329363078143E-02 
894	 4.57105071871644E-02 
895	 4.58969449040778E-02 
896	 4.63991780604607E-02 
897	 4.73575428223597E-02 
898	 4.71903307593714E-02 
899	 4.66943477367982E-02 
900	 4.68711663928394E-02 
901	 4.62599473530478E-02 
902	 0.044706091180576 
903	 4.33899653591714E-02 
904	 0.043527118131429 
905	 4.39548279199869E-02 
906	 4.45251317804283E-02 
907	 4.51747986106106E-02 
908	 4.56951862497559E-02 
909	 4.46228209286064E-02 
910	 4.36705339368333E-02 
911	 4.37095405604462E-02 
912	 4.43898679649784E-02 
913	 4.50111456172926E-02 
914	 4.51554175528835E-02 
915	 4.50446203167495E-02 
916	 4.53548902327505E-02 
917	 4.38552878117815E-02 
918	 4.28091741423472E-02 
919	 4.28830131377307E-02 
920	 4.19454478280668E-02 
921	 4.25763021694725E-02 
922	 4.26538878409044E-02 
923	 4.10691537032933E-02 
924	 4.06964898322398E-02 
925	 4.02733419335151E-02 
926	 3.97609766452509E-02 
927	 3.97900733170094E-02 
928	 4.23811018508585E-02 
929	 0.041478553709762 
930	 4.04071665622926E-02 
931	 4.65128876280449E-02 
932	 4.95641951896993E-02 
933	 4.68947175615896E-02 
934	 4.35549302487621E-02 
935	 4.55048101740655E-02 
936	 4.38072707242055E-02 
937	 3.94121155441828E-02 
938	 3.87530040099608E-02 
939	 4.47430279085635E-02 
940	 4.29126293753489E-02 
941	 3.65228128086723E-02 
942	 3.54739851180787E-02 
943	 0.047368657546175 
944	 4.56938491147503E-02 
945	 3.99786941004518E-02 
946	 3.81517626108074E-02 
947	 4.22461072017333E-02 
948	 3.93904637308568E-02 
949	 3.88141836343479E-02 
950	 0.04191609010388 
951	 4.38941952234513E-02 
952	 4.04710481273885E-02 
953	 4.06690615657345E-02 
954	 4.40003046938579E-02 
955	 4.36563403840294E-02 
956	 4.15326549056968E-02 
957	 4.08718938062237E-02 
958	 4.08602903209526E-02 
959	 3.90293006928891E-02 
960	 4.27555840816495E-02 
961	 4.16468585465777E-02 
962	 3.79262540943467E-02 
963	 4.10784963236353E-02 
964	 3.94044168202779E-02 
965	 3.77460102072734E-02 
966	 3.80504391492002E-02 
967	 3.87654747518382E-02 
968	 3.68622695473979E-02 
969	 3.59519380592584E-02 
970	 3.71038797605959E-02 
971	 3.84824647114592E-02 
972	 3.76606626051838E-02 
973	 3.83390792685017E-02 
974	 4.00357643529589E-02 
975	 3.83831692835558E-02 
976	 3.75612023675124E-02 
977	 3.76815497934093E-02 
978	 3.83386722157267E-02 
979	 3.89551874448581E-02 
980	 3.78015480062068E-02 
981	 3.65993164016614E-02 
982	 3.63508440185621E-02 
983	 3.68988222003405E-02 
984	 3.71225858693839E-02 
985	 3.67228562418327E-02 
986	 3.62777491054644E-02 
987	 3.66378791215426E-02 
988	 3.61357734498775E-02 
989	 3.57875090178389E-02 
990	 3.61475586372739E-02 
991	 3.70260358192214E-02 
992	 3.75262940236232E-02 
993	 3.62522226068694E-02 
994	 3.52574231978394E-02 
995	 3.75373815078154E-02 
996	 3.70341127688723E-02 
997	 3.59115723286967E-02 
998	 0.035985241294356 
999	 3.75270783233616E-02 
1000	 3.63615551648957E-02 
1001	 1.90441131649129E-02 
1002	 1.89145156994419E-02 
1003	 1.88579733768474E-02 
1004	 1.86951084612574E-02 
1005	 1.87850671553687E-02 
1006	 0.01907095677318 
1007	 1.91240220126899E-02 
1008	 1.94222598969921E-02 
1009	 1.96235526273346E-02 
1010	 1.96623897598778E-02 
1011	 0.019607307488545 
1012	 1.96470977039695E-02 
1013	 1.97575770465382E-02 
1014	 1.96492453352225E-02 
1015	 1.93228709379863E-02 
1016	 1.92748907976401E-02 
1017	 1.90766893362577E-02 
1018	 1.92100609884729E-02 
1019	 1.98311466775383E-02 
1020	 2.00808909587818E-02 
1021	 2.06066696715467E-02 
1022	 2.05836227904561E-02 
1023	 1.94250922865036E-02 
1024	 1.87427815069123E-02 
1025	 0.01859780028865 
1026	 1.84803090804582E-02 
1027	 1.86022319476527E-02 
1028	 1.96997202955637E-02 
1029	 0.020037339646084 
1030	 1.99066637158521E-02 
1031	 1.99462780920945E-02 
1032	 2.01171835054464E-02 
1033	 2.01085567158745E-02 
1034	 1.97963965519383E-02 
1035	 1.97241315470726E-02 
1036	 1.95950780183363E-02 
1037	 1.97200920005832E-02 
1038	 2.00833166121261E-02 
1039	 2.05102045249215E-02 
1040	 2.08915862607884E-02 
1041	 2.10902589853897E-02 
1042	 2.09945019053852E-02 
1043	 2.04127638857496E-02 
1044	 2.03493725438815E-02 
1045	 2.02756675050804E-02 
1046	 2.02622959875547E-02 
1047	 2.05798751084266E-02 
1048	 2.06286255333619E-02 
1049	 2.05045292848462E-02 
1050	 2.04692107190798E-02 
1051	 2.03114620969201E-02 
1052	 2.03681035536973E-02 
1053	 0.02057938163243 
1054	 2.07222557918384E-02 
1055	 2.11373044540537E-02 
1056	 2.12932064678282E-02 
1057	 2.13148835713778E-02 
1058	 2.11449376731947E-02 
1059	 2.10406655086932E-02 
1060	 2.07321047629531E-02 
1061	 2.06895916648325E-02 
1062	 2.06391915880912E-02 
1063	 2.08639806774197E-02 
1064	 2.16518203810739E-02 
1065	 2.17463411531509E-02 
1066	 2.17627654202799E-02 
1067	 0.021597069403219 
1068	 2.05232384187287E-02 
1069	 2.02110294254017E-02 
1070	 2.02901743850212E-02 
1071	 2.03714413819336E-02 
1072	 2.07726342398623E-02 
1073	 2.12856390044036E-02 
1074	 2.14908298732983E-02 
1075	 2.16362854017966E-02 
1076	 2.15218834577762E-02 
1077	 2.10127115740334E-02 
1078	 2.09652652758768E-02 
1079	 2.09158866137138E-02 
1080	 2.09894287441882E-02 
1081	 2.15715482001366E-02 
1082	 2.16361850579592E-02 
1083	 2.12411842975757E-02 
1084	 2.12156556202446E-02 
1085	 2.11845373924618E-02 
1086	 2.11790542321935E-02 
1087	 2.15687316531048E-02 
1088	 2.17121000774324E-02 
1089	 2.15556623868071E-02 
1090	 2.15753022041799E-02 
1091	 2.14934738561841E-02 
1092	 2.11394656843332E-02 
1093	 2.12218609572846E-02 
1094	 0.021593587102542 
1095	 2.17737851542206E-02 
1096	 2.23343830564247E-02 
1097	 2.23900547617151E-02 
1098	 2.17428259263305E-02 
1099	 2.17043467364445E-02 
1100	 2.18377121379383E-02 
1101	 2.18961322177176E-02 
1102	 2.24598760177146E-02 
1103	 2.26562699771041E-02 
1104	 2.23524709834749E-02 
1105	 0.022279495855534 
1106	 2.25723983851084E-02 
1107	 2.23707802650926E-02 
1108	 2.30541913792535E-02 
1109	 2.34842351198934E-02 
1110	 0.023298876018258 
1111	 2.27010820905468E-02 
1112	 2.25171395005918E-02 
1113	 2.11363039700058E-02 
1114	 2.09115602475399E-02 
1115	 2.27618448135303E-02 
1116	 2.29836259427234E-02 
1117	 2.19670128624624E-02 
1118	 2.25854047301281E-02 
1119	 2.39427331334758E-02 
1120	 2.42434333874109E-02 
1121	 2.51311555907415E-02 
1122	 2.68619514041286E-02 
1123	 2.70293314916306E-02 
1124	 2.48389882561052E-02 
1125	 2.33695762636525E-02 
1126	 2.37522702854822E-02 
1127	 0.022111903747543 
1128	 2.14327292135005E-02 
1129	 0.021738890578811 
1130	 2.35888440180026E-02 
1131	 2.36615916625697E-02 
1132	 2.38549070827748E-02 
1133	 2.30362163864434E-02 
1134	 2.02825990764572E-02 
1135	 2.14846675333336E-02 
1136	 2.48818732550344E-02 
1137	 2.49814209891063E-02 
1138	 2.55821465676603E-02 
1139	 2.54693329750465E-02 
1140	 2.30671518529923E-02 
1141	 2.29268134046069E-02 
1142	 2.38373560180041E-02 
1143	 2.39732203574153E-02 
1144	 2.36712389953923E-02 
1145	 2.28169707117996E-02 
1146	 2.25918612764197E-02 
1147	 2.31140354160371E-02 
1148	 0.022998762985978 
1149	 2.34127136817033E-02 
1150	 2.33759303441292E-02 
1151	 2.29973569255193E-02 
1152	 2.29164890302178E-02 
1153	 2.27393935640131E-02 
1154	 2.25500425919803E-02 
1155	 2.20975310185282E-02 
1156	 2.30074290511692E-02 
1157	 2.37388616908558E-02 
1158	 2.33995781039652E-02 
1159	 2.29941321596691E-02 
1160	 2.27613276019208E-02 
1161	 2.27885604490964E-02 
1162	 2.29041127888261E-02 
1163	 2.32157693933093E-02 
1164	 0.023150268511523 
1165	 2.26696107216629E-02 
1166	 0.022437505703767 
1167	 2.25378943043389E-02 
1168	 2.27494586894134E-02 
1169	 2.27244706681166E-02 
1170	 2.24796973254078E-02 
1171	 2.24435078699979E-02 
1172	 2.25557970479661E-02 
1173	 2.25185281161456E-02 
1174	 2.24256622119762E-02 
1175	 2.24626083472246E-02 
1176	 2.26074059966116E-02 
1177	 2.24467371390717E-02 
1178	 2.24153371320257E-02 
1179	 2.25554758559724E-02 
1180	 0.022227137531833 
1181	 2.20881989925913E-02 
1182	 2.23479295153033E-02 
1183	 2.24536850525923E-02 
1184	 2.24090405596967E-02 
1185	 2.26418045791804E-02 
1186	 2.28602834869863E-02 
1187	 2.23560212573899E-02 
1188	 2.20467202545512E-02 
1189	 2.23546156606892E-02 
1190	 2.21120749872091E-02 
1191	 2.19631055846373E-02 
1192	 2.21835716133722E-02 
1193	 2.29203887467136E-02 
1194	 2.29725688672818E-02 
1195	 2.28979359675212E-02 
1196	 2.28092294233386E-02 
1197	 2.23774688406505E-02 
1198	 2.19917494439155E-02 
1199	 2.16714234492511E-02 
1200	 0.021943163781486 
1201	 2.25493052891552E-02 
1202	 2.26386476554319E-02 
1203	 2.25926603009533E-02 
1204	 2.27537162911112E-02 
1205	 2.27885535693568E-02 
1206	 2.27035463799253E-02 
1207	 2.28440951960826E-02 
1208	 2.26954183484749E-02 
1209	 2.21306441152021E-02 
1210	 2.21285461124929E-02 
1211	 0.022377697591672 
1212	 2.22831779991621E-02 
1213	 2.24487111013513E-02 
1214	 2.26004741498038E-02 
1215	 2.26878461103459E-02 
1216	 2.23208633064726E-02 
1217	 2.23014262112787E-02 
1218	 2.25219759578861E-02 
1219	 2.21754833309734E-02 
1220	 2.19303569743874E-02 
1221	 2.22627794882421E-02 
1222	 2.22490468526529E-02 
1223	 2.21706621887046E-02 
1224	 2.24096557834177E-02 
1225	 2.23110485427537E-02 
1226	 2.21657246609671E-02 
1227	 0.022187676357712 
1228	 2.21273074720901E-02 
1229	 2.21369596700558E-02 
1230	 2.21429969325962E-02 
1231	 2.19681316934397E-02 
1232	 0.021913435031617 
1233	 2.19290820739917E-02 
1234	 2.17209086825269E-02 
1235	 2.16312007488486E-02 
1236	 2.17197416502703E-02 
1237	 2.17326326475493E-02 
1238	 0.021663924674761 
1239	 2.16893695628882E-02 
1240	 2.17827258005647E-02 
1241	 0.021759529337626 
1242	 2.16007025585054E-02 
1243	 2.15237621418592E-02 
1244	 2.15271042842288E-02 
1245	 2.13605551459901E-02 
1246	 2.14270845949411E-02 
1247	 2.16545051553937E-02 
1248	 2.16684380323829E-02 
1249	 2.18100151775062E-02 
1250	 2.18972322813618E-02 
1251	 2.17785362637255E-02 
1252	 2.16979444848536E-02 
1253	 2.16879729237965E-02 
1254	 2.16954796039682E-02 
1255	 2.16996410640342E-02 
1256	 2.16720182572109E-02 
1257	 2.16403673673928E-02 
1258	 2.15646849284247E-02 
1259	 2.14059590467918E-02 
1260	 2.14035146428861E-02 
1261	 2.14519960831343E-02 
1262	 2.14448375278502E-02 
1263	 0.021448330704711 
1264	 2.16483841937196E-02 
1265	 2.16790536435463E-02 
1266	 0.021535763770085 
1267	 2.15126180970845E-02 
1268	 2.14008666791393E-02 
1269	 2.12875577538154E-02 
1270	 2.12927723436931E-02 
1271	 2.14239358461289E-02 
1272	 2.15128459275318E-02 
1273	 2.14954293862583E-02 
1274	 2.16220190013809E-02 
1275	 2.15445937899816E-02 
1276	 2.14975054168849E-02 
1277	 2.15948817280295E-02 
1278	 2.15343862091831E-02 
1279	 2.15332018100935E-02 
1280	 2.16356548298548E-02 
1281	 0.021599009793596 
1282	 2.12790773040208E-02 
1283	 2.11822086022259E-02 
1284	 2.11748299140305E-02 
1285	 2.11870918955023E-02 
1286	 2.12587076043116E-02 
1287	 2.12459488336937E-02 
1288	 2.13344254265499E-02 
1289	 2.13514501077996E-02 
1290	 2.11958795040224E-02 
1291	 2.10957960929958E-02 
1292	 2.12853514513032E-02 
1293	 2.13252871565975E-02 
1294	 2.13649737606907E-02 
1295	 2.16575369926481E-02 
1296	 2.17563702162611E-02 
1297	 2.14288717118497E-02 
1298	 2.14558775363337E-02 
1299	 2.16010045811193E-02 
1300	 2.14512128800338E-02 
1301	 2.16885091469783E-02 
1302	 2.19031779938819E-02 
1303	 2.16703207603597E-02 
1304	 2.15128527182957E-02 
1305	 0.021652597555314 
1306	 2.17154421544377E-02 
1307	 0.021511952546568 
1308	 2.15549809417821E-02 
1309	 2.19653213692307E-02 
1310	 2.21777368455872E-02 
1311	 2.23505868881546E-02 
1312	 2.24377801444725E-02 
1313	 2.25499326039355E-02 
1314	 2.24742739470113E-02 
1315	 2.18817836317016E-02 
1316	 2.18884690862054E-02 
1317	 2.24091144288363E-02 
1318	 2.24213137518405E-02 
1319	 2.23705562037972E-02 
1320	 2.25355435973466E-02 
1321	 2.26070847986336E-02 
1322	 2.24629689189531E-02 
1323	 0.022333526009386 
1324	 2.23137218639624E-02 
1325	 0.022494286249098 
1326	 2.24689409202666E-02 
1327	 2.27373111190412E-02 
1328	 2.34240026193352E-02 
1329	 2.37498635097552E-02 
1330	 2.36591000310568E-02 
1331	 2.37618024388674E-02 
1332	 0.023394175693376 
1333	 2.27681867296495E-02 
1334	 2.28415056628667E-02 
1335	 2.27799734140736E-02 
1336	 2.31564837152217E-02 
1337	 2.33185655446245E-02 
1338	 2.33501421100684E-02 
1339	 2.29763601754972E-02 
1340	 2.24599327688794E-02 
1341	 2.24543452621572E-02 
1342	 2.23625887428331E-02 
1343	 2.19932496146617E-02 
1344	 2.12221512968525E-02 
1345	 2.14629768319395E-02 
1346	 2.29827324132764E-02 
1347	 0.022912003863735 
1348	 0.022514938860056 
1349	 2.48799151462301E-02 
1350	 2.76949945186221E-02 
1351	 2.77800086915804E-02 
1352	 3.24882986532604E-02 
1353	 4.06390950247995E-02 
1354	 3.60827212984846E-02 
1355	 3.26397800326376E-02 
1356	 4.72569124071179E-02 
1357	 7.06690003411359E-02 
1358	 6.04187288885971E-02 
1359	 8.26544876638388E-02 
1360	 0.230374350820665 
1361	 0.33351625544243 
1362	 0.292828648575893 
1363	 0.266177584077653 
1364	 0.223124121549318 
1365	 0.085605353607901 
1366	 4.55687659544315E-02 
1367	 0.100728116814251 
1368	 0.124035655234885 
1369	 0.136285009388157 
1370	 0.158428009578765 
1371	 0.221505935053611 
1372	 0.199271010982162 
1373	 0.120756283676851 
1374	 0.06501250662437 
1375	-6.22254787721379E-03 
1376	-3.49993941339541E-02 
1377	-8.68106547338517E-02 
1378	 2.67567419700643E-02 
1379	 0.513017792986498 
1380	 0.479235027191889 
1381	-0.157323269493772 
1382	-0.222685567373454 
1383	-0.47705997920544 
1384	-0.692272544483708 
1385	 0.104622821012885 
1386	 0.217415500134555 
1387	-0.707467832506583 
1388	-0.801502456985121 
1389	 0.405177596034752 
1390	 0.381201075441274 
1391	-2.76192337362037E-02 
1392	-4.68049867991807E-02 
1393	 0.167196859010193 
1394	-0.138263088670846 
1395	-0.319460662787727 
1396	 0.249891683051046 
1397	 0.434632697151725 
1398	-8.38651417865153E-02 
1399	-0.664056428170041 
1400	 0.149808497734872 
1401	-0.128744172692155 
1402	-0.78930523231829 
1403	-0.257702735212383 
1404	 0.247290446854347 
1405	 9.61593511596524E-02 
1406	-0.212731721139179 
1407	-0.119251472381987 
1408	-5.55614555796566E-02 
1409	-4.97748082380106E-02 
1410	 9.84668925084516E-02 
1411	 0.100272961672871 
1412	-5.29819233386192E-02 
1413	-4.77965289335161E-02 
1414	 4.57636883692052E-02 
1415	 3.43216432559249E-02 
1416	-2.57873039866214E-02 
1417	-1.93592770233425E-03 
1418	 3.66618112614588E-02 
1419	 0.038952218946133 
1420	 6.49475397170556E-02 
1421	 6.26509564942126E-02 
1422	 3.05831022097014E-02 
1423	 2.09848610294634E-02 
1424	 0.019228049351638 
1425	 1.96201183535337E-02 
1426	 2.42486541196561E-02 
1427	 1.81093321547237E-02 
1428	 3.88227081790926E-03 
1429	 5.45926459289285E-03 
1430	 1.26654481973859E-02 
1431	 1.23340077788595E-02 
1432	 1.60849586193153E-02 
1433	 2.03985684918452E-02 
1434	 2.17395110627999E-02 
1435	 1.63143886202363E-02 
1436	 7.20051694968872E-03 
1437	 6.86570339406605E-03 
1438	 6.59109915429072E-04 
1439	-5.73693860946311E-03 
1440	-1.18461195499279E-03 
1441	 8.02753569228874E-03 
1442	 1.74182339040464E-02 
1443	 0.020499016469154 
1444	 1.75123051703494E-02 
1445	 1.80548702496654E-02 
1446	 1.78107690771083E-02 
1447	 1.65085631142487E-02 
1448	 2.02272132778027E-02 
1449	 2.22167669366276E-02 
1450	 2.00184019282864E-02 
1451	 1.97834097480414E-02 
1452	 1.91160295634295E-02 
1453	 1.71292707340021E-02 
1454	 1.71300215563174E-02 
1455	 1.84527335561628E-02 
1456	 1.80419189741242E-02 
1457	 1.73605676805492E-02 
1458	 1.71691214522591E-02 
1459	 1.65080470388407E-02 
1460	 0.015751281017647 
1461	 1.48295159233842E-02 
1462	 0.015343283098138 
1463	 1.68370106303062E-02 
1464	 1.64833459016547E-02 
1465	 1.57408554280962E-02 
1466	 1.67695955424806E-02 
1467	 1.76067675725067E-02 
1468	 1.70317397653833E-02 
1469	 1.78333702855973E-02 
1470	 1.83229444558836E-02 
1471	 1.62001420357712E-02 
1472	 1.56833900639286E-02 
1473	 1.71183380155407E-02 
1474	 1.78178649039097E-02 
1475	 1.78824349108489E-02 
1476	 1.77353066353341E-02 
1477	 1.84129675253306E-02 
1478	 1.83108624204659E-02 
1479	 1.69255349751317E-02 
1480	 1.61970709813072E-02 
1481	 1.55965275676068E-02 
1482	 1.55477180741339E-02 
1483	 1.60553818703188E-02 
1484	 1.58523318991845E-02 
1485	 1.54141852998613E-02 
1486	 1.55792259836904E-02 
1487	 1.55673399831391E-02 
1488	 1.56945145714558E-02 
1489	 0.016534157281656 
1490	 1.66199933521963E-02 
1491	 1.61290215754905E-02 
1492	 1.61526627694584E-02 
1493	 1.63227859591803E-02 
1494	 1.62094956714379E-02 
1495	 1.60211834302553E-02 
1496	 1.60795836176722E-02 
1497	 1.62304867913957E-02 
1498	 1.61838700995795E-02 
1499	 1.62383764489723E-02 
1500	 0.016181108849654 
1501	 1.57669219729806E-02 
1502	 1.55358285564298E-02 
1503	 1.54371810244666E-02 
1504	 1.54554671987691E-02 
1505	 0.01562155594818 
1506	 0.01554636663481 
1507	 1.58291269932856E-02 
1508	 0.015929810609537 
1509	 1.56735319059189E-02 
1510	 1.56289266014055E-02 
1511	 1.53718478047561E-02 
1512	 1.49830084442918E-02 
1513	 1.49700605777984E-02 
1514	 0.015022570753985 
1515	 0.015140211629803 
1516	 1.52836027084438E-02 
1517	 1.51340829664795E-02 
1518	 1.50457927407709E-02 
1519	 1.50683911206398E-02 
1520	 1.50619554365559E-02 
1521	 1.51767288682528E-02 
1522	 1.51683856218357E-02 
1523	 1.50374445519832E-02 
1524	 1.50122292840884E-02 
1525	 1.48543440160488E-02 
1526	 1.47809450300602E-02 
1527	 0.014995656746565 
1528	 1.49510685385175E-02 
1529	 1.48944073539296E-02 
1530	 0.015067750035906 
1531	 1.51044736869101E-02 
1532	 1.50630132149399E-02 
1533	 1.48420686380852E-02 
1534	 1.46446785539443E-02 
1535	 1.47178656128998E-02 
1536	 1.46474649559932E-02 
1537	 1.45115874075935E-02 
1538	 1.46022726903137E-02 
1539	 1.46869848256528E-02 
1540	 1.45680884345681E-02 
1541	 1.45196806849521E-02 
1542	 1.45866534247164E-02 
1543	 1.43910243611342E-02 
1544	 1.42600965137607E-02 
1545	 0.014358212379442 
1546	 1.43367605258732E-02 
1547	 1.42902893314356E-02 
1548	 1.42208620940358E-02 
1549	 1.40779538226872E-02 
1550	 1.39554694410146E-02 
1551	 1.38632693511223E-02 
1552	 1.38065850446075E-02 
1553	 1.39163338517539E-02 
1554	 0.014052793631849 
1555	 0.014078288827013 
1556	 1.42314720180712E-02 
1557	 1.43834426701247E-02 
1558	 1.41361561870493E-02 
1559	 1.37149356865056E-02 
1560	 1.36324972499954E-02 
1561	 1.35983598727253E-02 
1562	 1.34841673047517E-02 
1563	 1.35844773552866E-02 
1564	 1.37214374136267E-02 
1565	 1.37535217134006E-02 
1566	 1.36078738701489E-02 
1567	 1.34982901069915E-02 
1568	 1.34798419390418E-02 
1569	 1.30968442201823E-02 
1570	 1.29450447428473E-02 
1571	 1.36223477108025E-02 
1572	 1.38635455096911E-02 
1573	 1.34085391755492E-02 
1574	 1.33112012136381E-02 
1575	 1.32429159845703E-02 
1576	 1.27989039610566E-02 
1577	 1.26439558403732E-02 
1578	 1.29773946894962E-02 
1579	 1.31157469342766E-02 
1580	 1.30117357214002E-02 
1581	 1.31715592591783E-02 
1582	 1.32543642302157E-02 
1583	 0.013025414609102 
1584	 1.30446516002887E-02 
1585	 1.31335099995893E-02 
1586	 0.012838208932787 
1587	 1.25888910778946E-02 
1588	 1.25887406749502E-02 
1589	 1.25652909479776E-02 
1590	 1.26837207253707E-02 
1591	 0.012952992412799 
1592	 1.29647026746436E-02 
1593	 1.27277927438914E-02 
1594	 1.25778588579621E-02 
1595	 1.25501710242627E-02 
1596	 1.25359064633668E-02 
1597	 1.23109632080018E-02 
1598	 1.21197498257098E-02 
1599	 1.22353404651444E-02 
1600	 1.22732885120141E-02 
1601	 1.24049528609574E-02 
1602	 1.25069304387403E-02 
1603	 1.25125987351335E-02 
1604	 0.012595576561861 
1605	 1.25790853518166E-02 
1606	 0.012806191318707 
1607	 1.29088059698185E-02 
1608	 1.25370082127142E-02 
1609	 1.22817908942777E-02 
1610	 1.24503671387024E-02 
1611	 0.01273192812848 
1612	 1.26115994106474E-02 
1613	 1.24649982444518E-02 
1614	 1.25641847566399E-02 
1615	 1.24841328248051E-02 
1616	 1.23743218253117E-02 
1617	 1.24300118494617E-02 
1618	 1.24729093709872E-02 
1619	 1.22865577609319E-02 
1620	 1.20843387198747E-02 
1621	 1.21836433337976E-02 
1622	 1.21954065439812E-02 
1623	 1.20061051729093E-02 
1624	 1.20521418794028E-02 
1625	 1.22330240786276E-02 
1626	 1.20566634125492E-02 
1627	 1.16746935034754E-02 
1628	 1.17053674431085E-02 
1629	 1.16777869602855E-02 
1630	 1.12952514392701E-02 
1631	 1.13962344239813E-02 
1632	 1.17078023630642E-02 
1633	 1.16787290520248E-02 
1634	 1.16208375070423E-02 
1635	 1.17077569187685E-02 
1636	 1.17949051907043E-02 
1637	 1.15329447524165E-02 
1638	 1.13456746894839E-02 
1639	 1.15016553091174E-02 
1640	 1.13004357700143E-02 
1641	 1.09478182462956E-02 
1642	 0.011090072580797 
1643	 0.011501354907835 
1644	 1.15478763201507E-02 
1645	 1.13317432621534E-02 
1646	 0.011385606100318 
1647	 1.14384684234563E-02 
1648	 1.12927931977883E-02 
1649	 1.13648184287618E-02 
1650	 0.011465057535565 
1651	 1.11126926951949E-02 
1652	 1.09696267215161E-02 
1653	 1.16824382016838E-02 
1654	 1.15865638366878E-02 
1655	 1.08053742429474E-02 
1656	 1.06939673890899E-02 
1657	 1.06945238150517E-02 
1658	 1.08397011296143E-02 
1659	 1.14574626067193E-02 
1660	 1.14427318261199E-02 
1661	 1.10847256240535E-02 
1662	 1.08710956624396E-02 
1663	 1.04369473755226E-02 
1664	 1.05095434351749E-02 
1665	 1.07874963415197E-02 
1666	 0.010819995727441 
1667	 1.12156158318711E-02 
1668	 1.09094015638705E-02 
1669	 1.07023243563015E-02 
1670	 1.07148620739463E-02 
1671	 1.07252240317644E-02 
1672	 1.06894084657119E-02 
1673	 1.06071780162277E-02 
1674	 1.06711049247997E-02 
1675	 0.010631502561564 
1676	 1.06621853825197E-02 
1677	 1.08672198065167E-02 
1678	 1.09428961775283E-02 
1679	 0.010778989818413 
1680	 1.07186165929221E-02 
1681	 1.06890562578689E-02 
1682	 1.04192927848413E-02 
1683	 0.010503908460967 
1684	 1.07103657118496E-02 
1685	 0.010577769197873 
1686	 1.04211792828234E-02 
1687	 1.01504351733954E-02 
1688	 9.85671450780218E-03 
1689	 9.94209089909611E-03 
1690	 1.05355465740142E-02 
1691	 1.09330103275266E-02 
1692	 1.07911992732979E-02 
1693	 1.07049210479202E-02 
1694	 1.02116875105612E-02 
1695	 9.76175173399557E-03 
1696	 1.03249922035646E-02 
1697	 0.010602335239148 
1698	 0.010318943421325 
1699	 1.04479133638375E-02 
1700	 1.03530049517083E-02 
1701	 9.87711021059274E-03 
1702	 9.94304813113253E-03 
1703	 1.02259893478456E-02 
1704	 1.00072630327409E-02 
1705	 9.97645714874231E-03 
1706	 1.06867851143929E-02 
1707	 1.04455030141025E-02 
1708	 9.50485062128905E-03 
1709	 9.76253251269438E-03 
1710	 9.54675961442972E-03 
1711	 9.46287750949109E-03 
1712	 1.06402313128476E-02 
1713	 9.69008959648546E-03 
1714	 9.67884277102427E-03 
1715	 9.80337604562285E-03 
1716	 9.98318070049186E-03 
1717	 1.09360164607585E-02 
1718	 1.10262303001698E-02 
1719	 1.07335907383192E-02 
1720	 1.04473785187935E-02 
1721	 1.02429393777936E-02 
1722	 9.93037804925057E-03 
1723	 9.17769412589361E-03 
1724	 9.50286069265026E-03 
1725	 9.92169954713227E-03 
1726	 9.49286800521636E-03 
1727	 9.69939117673119E-03 
1728	 9.53703698316882E-03 
1729	 8.61109583010152E-03 
1730	 8.82593648341012E-03 
1731	 9.74060110965614E-03 
1732	 9.79657496676254E-03 
1733	 9.52974093529435E-03 
1734	 9.63440835744502E-03 
1735	 9.46891023316096E-03 
1736	 9.61408451259748E-03 
1737	 1.05374346789669E-02 
1738	 1.01842351163547E-02 
1739	 8.88482891881988E-03 
1740	 8.7720186064244E-03 
1741	 8.75287346230318E-03 
1742	 8.6908556347335E-03 
1743	 9.45430409560802E-03 
1744	 9.42686147389996E-03 
1745	 9.05467847633976E-03 
1746	 9.57348743159975E-03 
1747	 9.71234943669863E-03 
1748	 9.59903364071639E-03 
1749	 9.34765573998954E-03 
1750	 8.79994151137563E-03 
1751	 8.95474588636416E-03 
1752	 9.63013804651486E-03 
1753	 9.29022239133849E-03 
1754	 8.57603420416889E-03 
1755	 8.61968434428592E-03 
1756	 8.48072251973127E-03 
1757	 9.10764775701355E-03 
1758	 9.25806429288406E-03 
1759	 8.92553018440685E-03 
1760	 8.56662756680276E-03 
1761	 8.49207370088368E-03 
1762	 8.72240666686869E-03 
1763	 8.88627297437099E-03 
1764	 8.74942045039819E-03 
1765	 8.8548626372375E-03 
1766	 9.05341043937418E-03 
1767	 8.76478874411451E-03 
1768	 8.77932581018527E-03 
1769	 9.15613274788391E-03 
1770	 9.26561662441596E-03 
1771	 9.40195672622278E-03 
1772	 8.93673556912901E-03 
1773	 8.04182100918478E-03 
1774	 8.05328892764016E-03 
1775	 9.02048253357209E-03 
1776	 8.98335372846941E-03 
1777	 8.02845787711179E-03 
1778	 8.38037768013833E-03 
1779	 9.35053314979648E-03 
1780	 9.33856525747688E-03 
1781	 9.98869175678863E-03 
1782	 1.01337002979421E-02 
1783	 8.7348605582163E-03 
1784	 8.11348538701664E-03 
1785	 8.11924281111662E-03 
1786	 7.46271540891029E-03 
1787	 5.52884960952274E-03 
1788	 5.57317970439525E-03 
1789	 7.84224582503585E-03 
1790	 8.00868885365208E-03 
1791	 7.81494510950346E-03 
1792	 1.00664834537922E-02 
1793	 1.04450995377856E-02 
1794	 1.11577616080315E-02 
1795	 1.08323146997104E-02 
1796	 2.58080142392855E-03 
1797	 1.79913439756934E-03 
1798	 1.45998536840098E-02 
1799	 2.22163360032903E-02 
1800	 1.87029851238169E-02 
1801	 1.76935770065436E-02 
1802	-6.01657785898927E-03 
1803	-1.59920032339799E-02 
1804	 5.95015809275556E-03 
1805	 1.63453503745482E-02 
1806	 2.96519966093531E-02 
1807	 3.87808353136831E-02 
1808	 2.98265560697785E-02 
1809	 2.99968354274986E-02 
1810	 3.05557253621299E-02 
1811	 0.02787024779876 
1812	 3.48542260583951E-02 
1813	 5.16952261594241E-02 
1814	 6.28264283536914E-02 
1815	 4.63187834727599E-02 
1816	-1.49534234520702E-02 
1817	-8.06203750410576E-02 
1818	 0.101560610213312 
1819	 0.332032599330332 
1820	 0.533571195020479 
1821	 0.158003265091013 
1822	-7.67783315345018E-03 
1823	-0.268874539188859 
1824	-0.325709447404911 
1825	 0.099139384431336 
1826	 0.237469829264753 
1827	 0.431496482701474 
1828	 0.562926172104998 
1829	 0.947137565093405 
1830	 0.639037497472886 
1831	-0.12658619914827 
1832	 0.04494557767522 
1833	 0.857493346403989 
1834	 1.81597884940515 
1835	 30.677993137457 
1836	 245.958743948362 
1837	 4.05683878500937 
1838	 1.52165074733261 
1839	 0.307994370197138 
1840	 0.103391050207178 
1841	 1.65937859525997E-03 
1842	 0.534070472199598 
1843	 0.428705539608886 
1844	-0.164841398985018 
1845	-0.299357781497916 
1846	-1.71260198012516 
1847	-3.39777017543993 
1848	-25.9171750027664 
1849	-3.80807003266298 
1850	 0.250266471805006 
1851	 0.221442233353787 
1852	 0.274974001574407 
1853	 0.354742394940424 
1854	 0.291609361519069 
1855	 0.176643586023673 
1856	 0.288609291050895 
1857	 6.78088765944435E-02 
1858	-0.212330069470065 
1859	-0.195487601175663 
1860	-0.15195784585133 
1861	-0.568333144921577 
1862	-1.15543349989921 
1863	-3.27671566987999 
1864	 0.948496885016462 
1865	 0.485669098021869 
1866	 0.298256898265708 
1867	-0.27299994269613 
1868	 2.99370109186844 
1869	 1.77571185997219 
1870	 1.0308191560292 
1871	 0.732839814424108 
1872	-17.5767315588237 
1873	-0.298721605420312 
1874	-2.06508842037979 
1875	-0.511866763367217 
1876	-0.124977233564441 
1877	-0.306120161398699 
1878	-0.208187452503456 
1879	-2.00362947963972 
1880	-1.35784041374257 
1881	-1.22190509012155 
1882	-0.572127776389358 
1883	-7.90388061805679E-02 
1884	-0.322998871892303 
1885	-0.790828476669915 
1886	-1.04069417790343 
1887	-0.389500828734521 
1888	 0.910754373764803 
1889	 2.31476186878459 
1890	 1.08664223883519 
1891	 1.22368527656037 
1892	 1.613016079365 
1893	 2.75920277394337 
1894	 0.982091294151252 
1895	 1.29134786272136 
1896	-0.269022118026583 
1897	-1.3499115415233 
1898	-2.7469265914076 
1899	-0.833947064263013 
1900	-1.06176429911147 
1901	 2.56974010510346 
1902	 1.67993624211491 
1903	 1.72093521053224 
1904	-3.0963039077285 
1905	-0.396248384925138 
1906	-24.5729026786227 
1907	 3.06286217244193 
1908	-0.583663069747999 
1909	-0.994445461577969 
1910	 5.43310808117274 
1911	 3.12744201026764 
1912	-2.88909043274059 
1913	-3.78465957288818 
1914	 1.46948218848851 
1915	 1.96266545459402 
1916	 271.536345796305 
1917	-0.513796264778111 
1918	-0.400264699974151 
1919	-0.158829683626235 
1920	-0.199018717059639 
1921	-0.592282735916335 
1922	-1.02113323803172 
1923	-1.7324909357235 
1924	 113.249802855491 
1925	 3.45702037908792 
1926	 2.33104130589971 
1927	 0.2596108231319 
1928	-0.278406786963746 
1929	 2.2617779366107 
1930	-0.533480199111868 
1931	 0.190492665158642 
1932	 0.273233113767179 
1933	 0.267074918549713 
1934	 0.26373809476857 
1935	 0.292519885791431 
1936	 0.151145244988698 
1937	 0.106240637706854 
1938	 9.67202491636212E-02 
1939	 6.81013970786915E-02 
1940	 1.71494474518307E-02 
1941	 0.048537523838643 
1942	 3.80067789591921E-03 
1943	-2.97444637341664E-02 
1944	-8.85420376843635E-03 
1945	-5.67767863073427E-02 
1946	-6.12459538670174E-02 
1947	-4.06011281405445E-02 
1948	-3.17768381022192E-02 
1949	 3.96418196343943E-03 
1950	 1.35908311389265E-02 
1951	 9.07342341237391E-03 
1952	 8.2441884956886E-03 
1953	 9.05448355550619E-04 
1954	-1.67571388678618E-02 
1955	-2.20733051474483E-02 
1956	-1.11246995529914E-02 
1957	 5.87060662947669E-03 
1958	 1.29285773650715E-02 
1959	 1.75989735008658E-02 
1960	 2.29424825264902E-02 
1961	 1.86459588957733E-02 
1962	 1.56874136165555E-02 
1963	 1.99264786487798E-02 
1964	 2.18585794592599E-02 
1965	 2.07119370510764E-02 
1966	 1.95699285445012E-02 
1967	 0.01849770116462 
1968	 1.59711438803641E-02 
1969	 1.34542713803824E-02 
1970	 1.30307757323195E-02 
1971	 1.43258747569205E-02 
1972	 1.48440517166809E-02 
1973	 1.38584098114415E-02 
1974	 1.49552578024297E-02 
1975	 1.59316048491659E-02 
1976	 1.48844120249875E-02 
1977	 1.50541668899185E-02 
1978	 1.48151722908077E-02 
1979	 1.45084282343509E-02 
1980	 1.34058082402953E-02 
1981	 1.34535654636906E-02 
1982	 1.35844186853071E-02 
1983	 1.38991726242177E-02 
1984	 1.37738973846901E-02 
1985	 1.41557614406319E-02 
1986	 0.014968987940073 
1987	 1.46343151322091E-02 
1988	 1.49495276884766E-02 
1989	 1.53644387718124E-02 
1990	 1.46684273202803E-02 
1991	 1.49147830689616E-02 
1992	 1.50680679732509E-02 
1993	 1.44238175688566E-02 
1994	 1.41961963015442E-02 
1995	 1.47264304160185E-02 
1996	 1.44348427642886E-02 
1997	 1.22472166842717E-02 
1998	 1.13688588312022E-02 
1999	 1.27503161671573E-02 
2000	 0.013830064234089 
2001	 1.61772536479389E-02 
2002	 1.73296304847373E-02 
2003	 1.30466125356349E-02 
2004	 8.84037450194805E-03 
2005	 9.78142248450814E-03 
2006	 1.17602862865333E-02 
2007	 1.11640060645297E-02 
2008	 9.90828042896663E-03 
2009	 9.97430799412122E-03 
2010	 6.73893838623463E-03 
2011	 8.11348263842964E-03 
2012	 1.37838598925161E-02 
2013	 1.86612133779259E-02 
2014	 1.95913116222374E-02 
2015	 1.81371776063767E-02 
2016	 1.39786243347017E-02 
2017	 1.03051656881736E-02 
2018	 0.010184494448729 
2019	 1.16686390471479E-02 
2020	 1.25885707688326E-02 
2021	 1.30023655705704E-02 
2022	 0.013542679583131 
2023	 1.32682261309518E-02 
2024	 1.29734035112469E-02 
2025	 1.31407824529591E-02 
2026	 1.33240220486468E-02 
2027	 1.33604964589155E-02 
2028	 1.22247637234088E-02 
2029	 1.32153642572582E-02 
2030	 1.42614587131481E-02 
2031	 1.44987551824642E-02 
2032	 0.015283032855639 
2033	 1.46527179839276E-02 
2034	 1.38825164047115E-02 
2035	 1.36236649416139E-02 
2036	 1.31862435023778E-02 
2037	 1.36087770026454E-02 
2038	 1.46113119181038E-02 
2039	 0.014801329071573 
2040	 0.014290414803945 
2041	 0.014662168765228 
2042	 1.56319514035891E-02 
2043	 1.52102151039454E-02 
2044	 1.41014011285389E-02 
2045	 1.40576402238966E-02 
2046	 1.38402216163191E-02 
2047	 1.28927277545574E-02 
2048	 0.01311650329223 
2049	 1.36417143043015E-02 
2050	 1.29434022371039E-02 
2051	 1.24933848092255E-02 
2052	 1.23683407224529E-02 
2053	 1.29680042956022E-02 
2054	 1.33792021733577E-02 
2055	 1.29141365609909E-02 
2056	 1.30745960427854E-02 
2057	 1.39159933614534E-02 
2058	 1.39792917853096E-02 
2059	 0.013711875000341 
2060	 1.36933977061578E-02 
2061	 1.35221939943579E-02 
2062	 1.27561447077054E-02 
2063	 1.36678670417422E-02 
2064	 0.014617654214035 
2065	 1.44848703696401E-02 
2066	 1.40979579820372E-02 
2067	 1.26785493013865E-02 
2068	 1.16126143388106E-02 
2069	 0.011572327823164 
2070	 1.23902730851807E-02 
2071	 1.35095922602909E-02 
2072	 1.39877348710877E-02 
2073	 1.43219946859141E-02 
2074	 1.45726527643803E-02 
2075	 1.43826525708499E-02 
2076	 1.41808419419453E-02 
2077	 1.35609254647159E-02 
2078	 1.17978959373892E-02 
2079	 1.11096986807994E-02 
2080	 0.010489172754835 
2081	 1.02353087277453E-02 
2082	 1.09457669292891E-02 
2083	 1.24967646617747E-02 
2084	 1.21377551874251E-02 
2085	 1.11442213900777E-02 
2086	 1.09159266590423E-02 
2087	 1.03583456650536E-02 
2088	 1.07495101025547E-02 
2089	 1.16789645230442E-02 
2090	 1.16381530383076E-02 
2091	 1.18403661006267E-02 
2092	 1.21382872500578E-02 
2093	 1.29768590881849E-02 
2094	 1.30235606153923E-02 
2095	 1.27285883329655E-02 
2096	 1.23645630583228E-02 
2097	 1.10580772010047E-02 
2098	 1.07098733299268E-02 
2099	 1.08630331883786E-02 
2100	 1.12036193194306E-02 
2101	 0.010740192701736 
2102	 1.11232713015222E-02 
2103	 1.10687651769819E-02 
2104	 1.00042133728128E-02 
2105	 1.06601061611825E-02 
2106	 1.14000625125401E-02 
2107	 1.12547545193673E-02 
2108	 1.17487368945929E-02 
2109	 1.14451236411572E-02 
2110	 0.011228649975538 
2111	 1.22169308546275E-02 
2112	 1.26495489319987E-02 
2113	 1.25449440268267E-02 
2114	 1.19516302449803E-02 
2115	 1.16093092913232E-02 
2116	 1.03476544760905E-02 
2117	 0.010540762132582 
2118	 0.012139800149451 
2119	 1.25540749989467E-02 
2120	 1.31765185675812E-02 
2121	 1.32131096921057E-02 
2122	 1.20270708156993E-02 
2123	 1.23661588535798E-02 
2124	 0.013477654428438 
2125	 1.34638232382348E-02 
2126	 1.34164097574502E-02 
2127	 1.33912602315448E-02 
2128	 1.31540996162818E-02 
2129	 1.31719590963945E-02 
2130	 1.23858940065849E-02 
2131	 1.08216997214927E-02 
2132	 1.01094763598068E-02 
2133	 9.44661501350787E-03 
2134	 9.20821079045097E-03 
2135	 1.06644854608219E-02 
2136	 1.09957636071713E-02 
2137	 1.00686283276249E-02 
2138	 0.010260071090762 
2139	 1.14310449344226E-02 
2140	 0.011658906286902 
2141	 0.01180535839182 
2142	 1.21817523316027E-02 
2143	 1.24732743664367E-02 
2144	 1.18744443364561E-02 
2145	 1.16550626495508E-02 
2146	 1.19990221207838E-02 
2147	 1.25608393624721E-02 
2148	 1.22580056174649E-02 
2149	 1.19832059597619E-02 
2150	 1.13590323329459E-02 
2151	 0.010156484370619 
2152	 1.00809414361025E-02 
2153	 1.01551664157555E-02 
2154	 1.08031408583213E-02 
2155	 1.19270110108741E-02 
2156	 1.16293019548769E-02 
2157	 1.19170603486726E-02 
2158	 1.32874823668339E-02 
2159	 1.29626416185604E-02 
2160	 1.10628702477962E-02 
2161	 1.06897415435125E-02 
2162	 9.85649830872452E-03 
2163	 9.57232816988786E-03 
2164	 1.10440748804254E-02 
2165	 1.12774238237382E-02 
2166	 1.04254403582219E-02 
2167	 1.02526792941307E-02 
2168	 1.04605107263859E-02 
2169	 1.01683038399742E-02 
2170	 9.72343939076785E-03 
2171	 9.62179669904298E-03 
2172	 8.98021225132032E-03 
2173	 9.30858723240121E-03 
2174	 9.72457742623941E-03 
2175	 9.66015758079003E-03 
2176	 9.95057625820677E-03 
2177	 9.8433543226561E-03 
2178	 1.03342461367175E-02 
2179	 1.04007888142979E-02 
2180	 9.6355598544153E-03 
2181	 8.81293261362301E-03 
2182	 7.79373294280341E-03 
2183	 7.27180660400819E-03 
2184	 7.97036233348959E-03 
2185	 8.81027913939368E-03 
2186	 8.95775588435687E-03 
2187	 8.77566177858211E-03 
2188	 8.90209920219964E-03 
2189	 8.84235114397147E-03 
2190	 8.50917101529848E-03 
2191	 8.1601245671879E-03 
2192	 8.07975217258181E-03 
2193	 7.51770762167752E-03 
2194	 7.27447905619989E-03 
2195	 7.52796902269199E-03 
2196	 8.07754149620607E-03 
2197	 8.99999072842611E-03 
2198	 9.3892627962844E-03 
2199	 9.97913328719531E-03 
2200	 1.03245553314175E-02 
2201	 1.04196916172209E-02 
2202	 1.03571247547892E-02 
2203	 9.4419627813816E-03 
2204	 8.0023867797567E-03 
2205	 6.86324927021144E-03 
2206	 6.85877851704788E-03 
2207	 7.54659014090311E-03 
2208	 8.2551514397455E-03 
2209	 6.79646391120298E-03 
2210	 4.75980565983092E-03 
2211	 5.33893107128739E-03 
2212	 6.53809832076254E-03 
2213	 7.10660199214693E-03 
2214	 7.86904060179189E-03 
2215	 7.25802993039082E-03 
2216	 6.0666341728977E-03 
2217	 6.07453228010441E-03 
2218	 7.73729708363312E-03 
2219	 7.90770651222021E-03 
2220	 7.48173516560577E-03 
2221	 7.37824052208008E-03 
2222	 7.14417247867236E-03 
2223	 7.26799169842483E-03 
2224	 7.18698917273422E-03 
2225	 7.9833255795883E-03 
2226	 1.04879422192836E-02 
2227	 1.03520671738333E-02 
2228	 9.32067922377105E-03 
2229	 8.86361809484558E-03 
2230	 0.006480782181217 
2231	 4.78544143929087E-03 
2232	 3.54243850496851E-03 
2233	 3.56465099369858E-03 
2234	 4.67258421963605E-03 
2235	 4.41348884499978E-03 
2236	 4.20326053434997E-03 
2237	 4.86340170203913E-03 
2238	 2.99169126718276E-03 
2239	 1.95464640535545E-03 
2240	 3.69289926095014E-03 
2241	 5.40981671543792E-03 
2242	 6.22675095172647E-03 
2243	 5.70935141306356E-03 
2244	 5.43923466794723E-03 
2245	 5.35656387391325E-03 
2246	 5.37959263069637E-03 
2247	 6.02789240275352E-03 
2248	 4.88016942206252E-03 
2249	 4.48361991461013E-03 
2250	 4.4249928828138E-03 
2251	 3.80751745739875E-03 
2252	 6.11804516000221E-03 
2253	 6.38309017813582E-03 
2254	 5.98899291064401E-03 
2255	 7.60298332505186E-03 
2256	 6.46983601098892E-03 
2257	 4.61746101402913E-03 
2258	 3.47755932614704E-03 
2259	 1.71297933242529E-03 
2260	 1.42345488878834E-03 
2261	 4.01638887780093E-03 
2262	 4.83000022796705E-03 
2263	 3.89770910933089E-03 
2264	 4.72189926052565E-03 
2265	 6.44916646859209E-03 
2266	 7.02306258043792E-03 
2267	 9.19040433571918E-03 
2268	 9.50968849550542E-03 
2269	 7.50980882152086E-03 
2270	 7.0498111219685E-03 
2271	 6.09899056693261E-03 
2272	 5.93712211784887E-03 
2273	 6.62808748657058E-03 
2274	 6.32022087318202E-03 
2275	 6.80584561060056E-03 
2276	 6.62476585594999E-03 
2277	 4.78255537156032E-03 
2278	 0.005498244688259 
2279	 7.2155805158919E-03 
2280	 7.34690476155459E-03 
2281	 8.45533633411725E-03 
2282	 9.20309670923847E-03 
2283	 7.4727330671965E-03 
2284	 4.93062256836316E-03 
2285	 4.5682002475938E-03 
2286	 5.60129235959769E-03 
2287	 4.12166298854028E-03 
2288	 5.27603972085265E-03 
2289	 8.85121917880486E-03 
2290	 7.18505632475698E-03 
2291	 7.43546877164321E-03 
2292	 9.63790996379472E-03 
2293	 6.35182812719482E-03 
2294	 5.22993138581398E-03 
2295	 5.74143160052212E-03 
2296	 3.9195695093168E-03 
2297	 3.20847325570161E-03 
2298	 5.86736339773858E-03 
2299	 6.22575494008821E-03 
2300	 3.85267019083229E-03 
2301	 6.89847343479901E-03 
2302	 7.38725024300696E-03 
2303	 6.51767010549107E-03 
2304	 8.48732208882768E-03 
2305	 3.53160658402745E-03 
2306	-1.03309778952186E-03 
2307	 4.62786074380789E-04 
2308	 4.34887002260538E-03 
2309	 1.06156989049075E-02 
2310	 1.56714577743507E-02 
2311	 1.78951696336266E-02 
2312	 1.63279859065865E-02 
2313	 1.17030931955589E-02 
2314	 8.37182646873594E-03 
2315	 5.82204555859292E-03 
2316	 3.67874682633698E-03 
2317	 3.16621882331914E-03 
2318	 2.64067809342495E-03 
2319	 4.18204783658967E-03 
2320	 5.94818376826903E-03 
2321	 2.78535570677638E-03 
2322	 1.8964221691004E-03 
2323	 2.05868118338873E-03 
2324	-6.00248281235793E-04 
2325	 6.04112961655173E-03 
2326	 0.0123411144357 
2327	 8.95064473162997E-03 
2328	 7.93257351939367E-03 
2329	 8.50054082890209E-03 
2330	 8.27276321142127E-03 
2331	 1.10267428514729E-02 
2332	 1.36524785023876E-02 
2333	 1.08525260539789E-02 
2334	 6.67367486795534E-03 
2335	 7.56891407055987E-03 
2336	 9.27227758242954E-03 
2337	 7.69827985776572E-03 
2338	 8.49722221534459E-03 
2339	 7.53544168450175E-03 
2340	-9.31597702357653E-04 
2341	-3.61858429634994E-03 
2342	-4.84594887245867E-04 
2343	-6.00150245985078E-03 
2344	-1.01425474650229E-02 
2345	-8.62452710866553E-03 
2346	-1.70961576137791E-02 
2347	-0.02056877532206 
2348	-9.07534323030091E-03 
2349	-2.19359880746087E-03 
2350	-2.71480280217534E-03 
2351	 7.91884025399985E-04 
2352	-1.17530622959304E-03 
2353	-8.83341685060853E-03 
2354	-1.51829905849105E-03 
2355	 7.20990168478188E-03 
2356	 3.69603775584826E-03 
2357	 1.35684058755134E-04 
2358	 7.35051448630908E-04 
2359	-2.34914906518168E-03 
2360	-5.16940292647584E-03 
2361	 3.56265114554977E-03 
2362	 8.10871980501383E-03 
2363	 8.60515093779559E-03 
2364	 0.014985884971186 
2365	 1.20117360418801E-02 
2366	 1.36234354046668E-02 
2367	 2.18114646505068E-02 
2368	 1.54643385364343E-02 
2369	 3.44268462630864E-03 
2370	-7.69367621453457E-03 
2371	-1.76920889044175E-02 
2372	-2.10496601874319E-02 
2373	 0.004719278305232 
2374	 2.21420667028411E-02 
2375	 1.35973935727254E-02 
2376	 2.04993899470086E-02 
2377	 1.12293123795269E-02 
2378	-1.11890381087939E-03 
2379	-1.00900332902343E-04 
2380	 6.88172849377403E-03 
2381	 1.46363914746438E-02 
2382	 4.76676966996475E-05 
2383	 3.79863699833927E-03 
2384	 1.90892765932102E-02 
2385	 0.014438568461515 
2386	 3.05946448026517E-02 
2387	 5.66814503670075E-02 
2388	 4.41417764208545E-02 
2389	 0.058837699817631 
2390	 7.45507929161981E-02 
2391	 3.42246154301103E-02 
2392	 3.42980345409977E-02 
2393	 2.73104597688956E-02 
2394	-6.66210280413603E-03 
2395	 7.72403529123871E-03 
2396	 3.9005578039839E-03 
2397	-2.62073532768964E-02 
2398	-2.77294524438163E-02 
2399	-9.43749107718311E-03 
2400	-9.20232854613803E-03 
2401	-0.0480968679235 
2402	-6.14398094658807E-02 
2403	-3.49967021843613E-02 
2404	-4.80678321292676E-02 
2405	-4.02784985924831E-02 
2406	-1.97315565030385E-02 
2407	-7.24262842560428E-02 
2408	-0.114460755395581 
2409	-9.53970711900099E-02 
2410	-4.76621983482024E-02 
2411	-3.72342121322736E-02 
2412	-0.077738063084407 
2413	-8.66531022059663E-02 
2414	-0.133997117373871 
2415	-0.144446299940246 
2416	-7.03448374727029E-02 
2417	-5.47132513497379E-02 
2418	-0.040898026245853 
2419	 2.15574714742257E-03 
2420	-1.12916351538488E-02 
2421	 0.057175704994293 
2422	 8.35493669544549E-02 
2423	-8.74822218313824E-03 
2424	 2.70227325894144E-02 
2425	 3.60075425485805E-02 
2426	 1.39354888426275E-03 
2427	 0.015020800193363 
2428	 3.20955701667435E-03 
2429	-8.57834603025383E-03 
2430	-4.45615217189624E-02 
2431	-9.15540142803768E-02 
2432	-8.19058735404998E-02 
2433	-0.144653413471482 
2434	-0.173885632402163 
2435	-8.20795954414817E-02 
2436	-9.15990509490639E-02 
2437	-0.137215191752614 
2438	-0.126152129729822 
2439	-0.154860604797533 
2440	-0.215434602767925 
2441	-0.24975898248847 
2442	-0.169290221007371 
2443	 2.17758095832506E-02 
2444	 0.0328368889758 
2445	 6.02236509428548E-02 
2446	 0.160313091999825 
2447	-0.133953323498409 
2448	-0.265639890794182 
2449	-0.342156681837645 
2450	-0.473937277934327 
2451	-0.671387557800506 
2452	-0.491322717211784 
2453	-0.290842950962006 
2454	-0.29524248250399 
2455	-0.186389546827784 
2456	-0.418568703167397 
2457	-0.513911173058901 
2458	-0.191554446271441 
2459	 8.93395041351315E-02 
2460	 0.223720685150376 
2461	 0.221119256753477 
2462	 0.176399522281455 
2463	-0.87651098123971 
2464	-1.81418387419605 
2465	-5.74026662288043 
2466	-2.00740266522972 
2467	-0.509670869124064 
2468	-0.311037022143311 
2469	 7.74064057908667E-02 
2470	 0.149734127698448 
2471	-0.496384225254059 
2472	-1.00104983841132 
2473	-2.04889726435247 
2474	-2.65836155061353 
2475	-3.92521448951969 
2476	-2.16947675016082 
2477	-0.700487110829039 
2478	 0.232256677298215 
2479	-0.221265231961006 
2480	-1.16079871162577 
2481	-0.433303481643688 
2482	-4.93795994089693 
2483	 2.85404453464285 
2484	-30.842518469003 
2485	-0.947365036743595 
2486	-0.376182225032253 
2487	-0.10794380111233 
2488	 1.93127515596944E-02 
2489	-0.396672580390687 
2490	-0.296447739889902 
2491	-0.160357244424974 
2492	-9.72603929735376E-02 
2493	-0.637966430936825 
2494	 0.143654665779363 
2495	 1.21235880838484 
2496	 0.659385145030696 
2497	-1.04360852698103 
2498	-1.00292239619636 
2499	 151.021429371384 
2500	 0.871388266868541 
