Wavelength	rt0708a00004.asd
350	 7.87176247275255E-02 
351	 7.84773898752544E-02 
352	 7.86922029526891E-02 
353	 7.92098234751557E-02 
354	 7.96861274552493E-02 
355	 7.97368765496624E-02 
356	 7.99635515941385E-02 
357	 0.080047635706301 
358	 7.96748045933631E-02 
359	 7.97538342069448E-02 
360	 7.99866249142042E-02 
361	 8.02582509884959E-02 
362	 8.05855808228529E-02 
363	 0.080754957737001 
364	 8.06821182528895E-02 
365	 8.06081940350306E-02 
366	 8.12405941695675E-02 
367	 8.11284311674824E-02 
368	 8.09046572012538E-02 
369	 8.13053945461403E-02 
370	 8.13523998044085E-02 
371	 8.17361922318062E-02 
372	 8.21610113144169E-02 
373	 8.19073340297795E-02 
374	 8.19088386536655E-02 
375	 8.20958326878572E-02 
376	 8.24391179075219E-02 
377	 8.30976247855621E-02 
378	 8.28874219410405E-02 
379	 8.26493079845555E-02 
380	 8.32391983977442E-02 
381	 8.40735525199942E-02 
382	 8.42381308529537E-02 
383	 8.40548736768707E-02 
384	 8.43340568193721E-02 
385	 8.44661185796144E-02 
386	 8.45397738764518E-02 
387	 8.46632576110276E-02 
388	 8.48941011339707E-02 
389	 8.49412285365008E-02 
390	 8.52402502509083E-02 
391	 8.58409071005103E-02 
392	 8.54897543226997E-02 
393	 8.56007057040227E-02 
394	 0.086071325220202 
395	 8.62852139132777E-02 
396	 0.086277352672482 
397	 8.59708743542999E-02 
398	 8.56816543981822E-02 
399	 8.59835873447421E-02 
400	 8.60766370327117E-02 
401	 8.61041282994263E-02 
402	 8.62685171106194E-02 
403	 8.65965976748423E-02 
404	 8.66683948937229E-02 
405	 8.65823526184252E-02 
406	 8.66149084307358E-02 
407	 8.67981057183241E-02 
408	 8.69173563657626E-02 
409	 8.69155646651587E-02 
410	 8.69051537125212E-02 
411	 8.69271168907069E-02 
412	 8.70458757573609E-02 
413	 8.72427399488963E-02 
414	 8.73125534914046E-02 
415	 8.73388207485551E-02 
416	 8.73983360147921E-02 
417	 8.75558530832231E-02 
418	 8.78302725436407E-02 
419	 0.087916251735152 
420	 8.79021149581025E-02 
421	 8.82888517515912E-02 
422	 8.84554426475815E-02 
423	 0.08858284517408 
424	 8.88751827497471E-02 
425	 0.089112819976796 
426	 8.95112559969448E-02 
427	 8.98704053597838E-02 
428	 8.99167354672015E-02 
429	 9.03776722446375E-02 
430	 9.07656971178887E-02 
431	 9.09745009144948E-02 
432	 9.14664324204014E-02 
433	 9.16994574336124E-02 
434	 9.19054155306697E-02 
435	 9.23021413739046E-02 
436	 9.25386785422523E-02 
437	 9.28859090892839E-02 
438	 9.32587954974448E-02 
439	 9.34179829441152E-02 
440	 9.36005952810473E-02 
441	 9.38720856221886E-02 
442	 0.094184018484913 
443	 9.43538451878754E-02 
444	 9.45391329172233E-02 
445	 9.47198057216224E-02 
446	 9.48626556099891E-02 
447	 9.50969707712216E-02 
448	 9.51685067460512E-02 
449	 9.51532083362021E-02 
450	 9.53434947043422E-02 
451	 0.095439915015777 
452	 0.095509466935362 
453	 9.56058828037027E-02 
454	 9.56489389841325E-02 
455	 0.095646413693436 
456	 9.56043119995354E-02 
457	 9.55535936888875E-02 
458	 9.56472642439814E-02 
459	 9.56227245275132E-02 
460	 9.54800387765831E-02 
461	 9.54927741563785E-02 
462	 0.095545257132056 
463	 9.55353202926873E-02 
464	 9.54408606581159E-02 
465	 9.54583441713186E-02 
466	 9.54243431373932E-02 
467	 9.53635448860318E-02 
468	 9.53650327594515E-02 
469	 9.52474580666537E-02 
470	 9.52670165017303E-02 
471	 9.54263588224019E-02 
472	 9.53467131380372E-02 
473	 9.53676582334138E-02 
474	 9.54194486714376E-02 
475	 9.53932747550954E-02 
476	 9.54282665639149E-02 
477	 9.54755241383129E-02 
478	 0.095498319117515 
479	 9.54910369469354E-02 
480	 9.56917853182764E-02 
481	 9.58581799597722E-02 
482	 9.58564070480556E-02 
483	 9.58896605902915E-02 
484	 9.60160702236322E-02 
485	 9.61814105197733E-02 
486	 9.63114862148922E-02 
487	 9.65378630816109E-02 
488	 9.66781212417775E-02 
489	 9.67501183521422E-02 
490	 9.69655234397706E-02 
491	 9.71119466634873E-02 
492	 9.73626785779156E-02 
493	 9.77976832172486E-02 
494	 9.80683508516588E-02 
495	 0.09820785152268 
496	 9.83599809731422E-02 
497	 9.86968450144017E-02 
498	 9.90356488237631E-02 
499	 9.93401135084575E-02 
500	 9.96091148800658E-02 
501	 0.099865636275845 
502	 0.100285502933855 
503	 0.100677246644135 
504	 0.100878270438112 
505	 0.101288832477428 
506	 0.101647895193842 
507	 0.101960505188954 
508	 0.102433239019435 
509	 0.102814247806537 
510	 0.103210067707732 
511	 0.103693869495091 
512	 0.104129758647808 
513	 0.104572398953789 
514	 0.105087660934883 
515	 0.10570149417551 
516	 0.106138769058699 
517	 0.106601068388245 
518	 0.107184944655578 
519	 0.107804729737788 
520	 0.108369276084048 
521	 0.108878590023176 
522	 0.109393077901018 
523	 0.110073755966236 
524	 0.110786842263612 
525	 0.111456270223214 
526	 0.112063374749113 
527	 0.11266209968892 
528	 0.113349024791023 
529	 0.114124600348004 
530	 0.114799357675443 
531	 0.115497403962095 
532	 0.116264225793465 
533	 0.117087726957351 
534	 0.117806182615263 
535	 0.118550098592079 
536	 0.119355313895115 
537	 0.120126083765943 
538	 0.120875395369899 
539	 0.121706195068258 
540	 0.122626653876485 
541	 0.123248497780012 
542	 0.12401653648443 
543	 0.124915099477171 
544	 0.125654396730064 
545	 0.1263016552461 
546	 0.127031044160032 
547	 0.127847288982914 
548	 0.128388423444302 
549	 0.129095117707347 
550	 0.129854433975681 
551	 0.13042808238307 
552	 0.131064643496048 
553	 0.13167050111226 
554	 0.132226076929323 
555	 0.132810138433927 
556	 0.13335280203375 
557	 0.133869941561098 
558	 0.134388608630682 
559	 0.134924649482813 
560	 0.135432849859124 
561	 0.135903265685776 
562	 0.13635058453115 
563	 0.136748286524312 
564	 0.137181064590248 
565	 0.137662465988684 
566	 0.138047670335779 
567	 0.138389918530604 
568	 0.138733889738718 
569	 0.139106825225669 
570	 0.139436851000776 
571	 0.139755965962709 
572	 0.140087449386073 
573	 0.140435569355781 
574	 0.140675951429695 
575	 0.140864266259865 
576	 0.141096328206527 
577	 0.141467402558943 
578	 0.141736147648483 
579	 0.141887854106781 
580	 0.142050199388943 
581	 0.142190235675668 
582	 0.142373926367642 
583	 0.14260719586386 
584	 0.142772897200634 
585	 0.142877019080925 
586	 0.142917722676035 
587	 0.142912767317033 
588	 0.142969469559584 
589	 0.143008209130013 
590	 0.143052688511445 
591	 0.143236397436064 
592	 0.143265625205558 
593	 0.14324271635337 
594	 0.143288415487606 
595	 0.143320467337062 
596	 0.143339303021019 
597	 0.143330484582421 
598	 0.143288101375866 
599	 0.143360295708007 
600	 0.14338913118174 
601	 0.143308088463039 
602	 0.143271958667777 
603	 0.143217843050984 
604	 0.143192964328293 
605	 0.143257049725937 
606	 0.143379775535417 
607	 0.143385509838747 
608	 0.143284894832119 
609	 0.143282207656024 
610	 0.143289056648815 
611	 0.143249717506578 
612	 0.143169056947065 
613	 0.14321613487229 
614	 0.143252106818683 
615	 0.143287542612757 
616	 0.143385067705811 
617	 0.143291753117231 
618	 0.143185452232058 
619	 0.14316920676 
620	 0.143148341622507 
621	 0.143278263634576 
622	 0.143381333998393 
623	 0.143275149789578 
624	 0.143310224238092 
625	 0.143331030951261 
626	 0.143331881246827 
627	 0.143452788379889 
628	 0.143467582596406 
629	 0.143467301004212 
630	 0.143519128224772 
631	 0.143444185214542 
632	 0.143487422597272 
633	 0.143543281360587 
634	 0.143386128750008 
635	 0.143286801775034 
636	 0.143130236485115 
637	 0.142931143921846 
638	 0.142941360288625 
639	 0.142840313553462 
640	 0.142615870333103 
641	 0.142372369774726 
642	 0.142274639615977 
643	 0.14209300713022 
644	 0.141817299958565 
645	 0.141620846231864 
646	 0.141460719088588 
647	 0.141273227910405 
648	 0.141069323649106 
649	 0.141057713106452 
650	 0.140928546642453 
651	 0.140740396903458 
652	 0.140674037713674 
653	 0.140657823779277 
654	 0.140554996179226 
655	 0.140365561142012 
656	 0.140305567963036 
657	 0.140157246295224 
658	 0.139940979363115 
659	 0.139735853474006 
660	 0.1396906883938 
661	 0.139512020472002 
662	 0.139246499775113 
663	 0.139131008538944 
664	 0.138921748464684 
665	 0.138732942153012 
666	 0.138621073623584 
667	 0.138465102549197 
668	 0.138329199534165 
669	 0.138262263954773 
670	 0.138281603666551 
671	 0.138267424154248 
672	 0.138293008331011 
673	 0.138355218502628 
674	 0.138383930867807 
675	 0.138607746457901 
676	 0.138835286995063 
677	 0.138954692230685 
678	 0.139267166662585 
679	 0.139515625089116 
680	 0.139779924237785 
681	 0.140247456429089 
682	 0.140701520234973 
683	 0.141219906084307 
684	 0.14183924103064 
685	 0.142571316774641 
686	 0.143646993497843 
687	 0.14474191021611 
688	 0.145555162420327 
689	 0.146757827990304 
690	 0.14789374461872 
691	 0.148953608924695 
692	 0.150201136971611 
693	 0.151632931599898 
694	 0.153067362455216 
695	 0.154378242362169 
696	 0.15572141735623 
697	 0.156902331741782 
698	 0.158130631386037 
699	 0.159555890349974 
700	 0.160833809533726 
701	 0.162002911189496 
702	 0.163081389584068 
703	 0.164091932694544 
704	 0.165024031595998 
705	 0.16597796454789 
706	 0.166917294512089 
707	 0.167531311116246 
708	 0.168147993868402 
709	 0.168719787212633 
710	 0.169091300644444 
711	 0.169302316763167 
712	 0.169585763674976 
713	 0.169882768956741 
714	 0.169833650480547 
715	 0.169762187597547 
716	 0.169655043358886 
717	 0.16945529851559 
718	 0.169272337253795 
719	 0.168980826837369 
720	 0.168655730593248 
721	 0.168358956006673 
722	 0.168086000777294 
723	 0.167594379510879 
724	 0.16695053096919 
725	 0.166563489658862 
726	 0.165806928869541 
727	 0.164965981904208 
728	 0.164289328936997 
729	 0.163282027349821 
730	 0.162209670100259 
731	 0.161279640707211 
732	 0.160547967175478 
733	 0.159816052881715 
734	 0.159183840483468 
735	 0.158713011471911 
736	 0.158373766819639 
737	 0.158154712918419 
738	 0.157988018791999 
739	 0.157853351188725 
740	 0.157899320185514 
741	 0.157987267722921 
742	 0.15805701275025 
743	 0.158109676534825 
744	 0.158249718399807 
745	 0.158316826372892 
746	 0.158311894548264 
747	 0.158483574854681 
748	 0.158602312879984 
749	 0.158749949265466 
750	 0.158981763798007 
751	 0.159007124421051 
752	 0.159047767945712 
753	 0.159197157557022 
754	 0.15943008571071 
755	 0.159423732650287 
756	 0.15944691603564 
757	 0.159608993234395 
758	 0.159734043395449 
759	 0.159948982934503 
760	 0.160212548159952 
761	 0.160326220108406 
762	 0.160637611065571 
763	 0.160459880011213 
764	 0.160347867899308 
765	 0.160863571517733 
766	 0.161094829588752 
767	 0.161150662947984 
768	 0.161174983879886 
769	 0.161311044269221 
770	 0.161521009652807 
771	 0.161761651360141 
772	 0.161989763768743 
773	 0.162168152043617 
774	 0.162402271621131 
775	 0.162640667093809 
776	 0.162802371057254 
777	 0.163073679364713 
778	 0.163276007735613 
779	 0.163426563272219 
780	 0.16374932876108 
781	 0.164052123717105 
782	 0.164318641821332 
783	 0.164583964947561 
784	 0.164931075558559 
785	 0.165233142862186 
786	 0.165486270863725 
787	 0.165740701174321 
788	 0.166066740104141 
789	 0.166382613065666 
790	 0.166703192052107 
791	 0.167109835867043 
792	 0.167395351151048 
793	 0.167739648018774 
794	 0.168175167429527 
795	 0.168397472894084 
796	 0.168705141023418 
797	 0.16908319687511 
798	 0.169425455996704 
799	 0.16957708951142 
800	 0.169865639300648 
801	 0.170176550801869 
802	 0.170231815956257 
803	 0.170541877368154 
804	 0.170781499108308 
805	 0.170868928560671 
806	 0.171056375263366 
807	 0.171072979870261 
808	 0.171116471451551 
809	 0.171277037518046 
810	 0.171124567769612 
811	 0.171014618772068 
812	 0.170977803413498 
813	 0.170903778263096 
814	 0.170698813052342 
815	 0.170460444568027 
816	 0.170194474208491 
817	 0.169872140842554 
818	 0.170023256955442 
819	 0.169812598719111 
820	 0.169126511592621 
821	 0.168876733474638 
822	 0.168265153366189 
823	 0.167537412999208 
824	 0.166887807468106 
825	 0.165590064557566 
826	 0.164661563592315 
827	 0.163919199550777 
828	 0.162852813711339 
829	 0.161768111484474 
830	 0.160740347111504 
831	 0.160042967959885 
832	 0.159943294302236 
833	 0.159048368332398 
834	 0.15826986078288 
835	 0.15809005904481 
836	 0.15806293119695 
837	 0.157900930815636 
838	 0.157539935520717 
839	 0.157143679787827 
840	 0.157289793608163 
841	 0.157350958694026 
842	 0.157108055132243 
843	 0.156657975644308 
844	 0.156711157066512 
845	 0.156770502710529 
846	 0.156674484311132 
847	 0.156539387116868 
848	 0.156467745877203 
849	 0.156124854994541 
850	 0.155666089408978 
851	 0.155857981150753 
852	 0.155874858597657 
853	 0.155702916564534 
854	 0.155520434829813 
855	 0.15551452937924 
856	 0.155481072623773 
857	 0.155358359608839 
858	 0.155183129615822 
859	 0.155180606792874 
860	 0.155128685390774 
861	 0.155033961325941 
862	 0.154998820592201 
863	 0.154917642100677 
864	 0.154856378221736 
865	 0.154845693659475 
866	 0.154848457976814 
867	 0.154620332100901 
868	 0.154336903226707 
869	 0.15406375287965 
870	 0.153659439787922 
871	 0.153799178157253 
872	 0.15387838983915 
873	 0.153493612833975 
874	 0.153312303922314 
875	 0.153306245974241 
876	 0.153238415429064 
877	 0.152922150293472 
878	 0.152626189243498 
879	 0.152485369356317 
880	 0.152387430349258 
881	 0.152129690004326 
882	 0.151757938158555 
883	 0.151528628825299 
884	 0.151411290281764 
885	 0.151183302064008 
886	 0.151045198874309 
887	 0.150954673260259 
888	 0.150811623383311 
889	 0.150513104954989 
890	 0.150493113375557 
891	 0.15039843104093 
892	 0.150032453995612 
893	 0.149764343657504 
894	 0.149640281547452 
895	 0.149643794053575 
896	 0.149690105456296 
897	 0.149666138586319 
898	 0.148922331833848 
899	 0.148187960138342 
900	 0.14819853577723 
901	 0.147938129388655 
902	 0.147799558191593 
903	 0.147634726518241 
904	 0.147289425590449 
905	 0.147628796259067 
906	 0.147804424219471 
907	 0.147452390108551 
908	 0.146731476732205 
909	 0.146303795635902 
910	 0.145921858267267 
911	 0.145725346159097 
912	 0.146082043525498 
913	 0.145443485824065 
914	 0.144803916917763 
915	 0.144829060459438 
916	 0.145226707479766 
917	 0.144033252685916 
918	 0.143340576487122 
919	 0.143763782485501 
920	 0.143307144468732 
921	 0.143033692918435 
922	 0.142722647066933 
923	 0.142122191153637 
924	 0.141398960785805 
925	 0.141298294360554 
926	 0.141418166883657 
927	 0.141159748167404 
928	 0.140846146857038 
929	 0.138627629827631 
930	 0.135700672192785 
931	 0.13552272426102 
932	 0.139711767442485 
933	 0.136213467050569 
934	 0.129046453996591 
935	 0.129651243557019 
936	 0.133213602143818 
937	 0.132421524644708 
938	 0.131324284656222 
939	 0.134419212092689 
940	 0.134641586837346 
941	 0.129848365861809 
942	 0.126117649841555 
943	 0.130740586797025 
944	 0.130317872892116 
945	 0.129961712900232 
946	 0.128326284085882 
947	 0.122504852593597 
948	 0.126498671584039 
949	 0.126703835681932 
950	 0.123197876366221 
951	 0.123777663415995 
952	 0.119419463051813 
953	 0.120709521582815 
954	 0.124460394330278 
955	 0.119970927384727 
956	 0.117039953482608 
957	 0.119229524413593 
958	 0.121426704955899 
959	 0.116263523748022 
960	 0.119201761448833 
961	 0.118188289185333 
962	 0.114184487579699 
963	 0.116765012476832 
964	 0.116307561877978 
965	 0.116010215131795 
966	 0.11700321561288 
967	 0.117972755069332 
968	 0.117411189165032 
969	 0.116826792398914 
970	 0.116812526043526 
971	 0.116831182572201 
972	 0.115978448989198 
973	 0.116028801046446 
974	 0.116811930353595 
975	 0.116351560317263 
976	 0.116599580969609 
977	 0.117206811334965 
978	 0.117728459556267 
979	 0.117862002360577 
980	 0.116473527171396 
981	 0.11695506133082 
982	 0.118063297878238 
983	 0.115807714044018 
984	 0.117411913567539 
985	 0.117754532921777 
986	 0.116926539842906 
987	 0.118980834492399 
988	 0.118401183097129 
989	 0.117612590954384 
990	 0.117801668253183 
991	 0.118517136917716 
992	 0.119382130489457 
993	 0.118884451247927 
994	 0.118307482447649 
995	 0.120280776929484 
996	 0.123400547069169 
997	 0.122337253700798 
998	 0.119386630843449 
999	 0.120416669851394 
1000	 0.121327633457094 
1001	 0.11822150544568 
1002	 0.118529488259813 
1003	 0.118891942292697 
1004	 0.119604227820941 
1005	 0.120036710462815 
1006	 0.120327083488745 
1007	 0.120872713502162 
1008	 0.120957057495118 
1009	 0.121064307080913 
1010	 0.121215836543245 
1011	 0.121215332887832 
1012	 0.121409349223493 
1013	 0.121578202227245 
1014	 0.121917100066183 
1015	 0.122311396808898 
1016	 0.122894339804506 
1017	 0.12385816410195 
1018	 0.12439479578619 
1019	 0.124886415944443 
1020	 0.125268646054564 
1021	 0.125289134223824 
1022	 0.125537290642074 
1023	 0.125856407830532 
1024	 0.126309200394106 
1025	 0.126476288444401 
1026	 0.126722835067219 
1027	 0.126955603486037 
1028	 0.127018331069816 
1029	 0.127261115911005 
1030	 0.127667546681599 
1031	 0.127966388079626 
1032	 0.128355072083994 
1033	 0.128587568975567 
1034	 0.128570052277341 
1035	 0.128858778270613 
1036	 0.129281558409024 
1037	 0.129617762136228 
1038	 0.130152464775851 
1039	 0.130482884951896 
1040	 0.130916120589377 
1041	 0.131229979586095 
1042	 0.131492468494092 
1043	 0.131894701493135 
1044	 0.131992086886448 
1045	 0.131634865758126 
1046	 0.131817656539479 
1047	 0.13210049031566 
1048	 0.132452153719396 
1049	 0.133402884513344 
1050	 0.133643551312755 
1051	 0.133423629159792 
1052	 0.133413082560327 
1053	 0.132830284304369 
1054	 0.132886275353453 
1055	 0.133727381502835 
1056	 0.134110712932452 
1057	 0.134437360710118 
1058	 0.13502914248323 
1059	 0.135034383317606 
1060	 0.134450739900209 
1061	 0.134241625259011 
1062	 0.133861825172267 
1063	 0.133784606599324 
1064	 0.133795358556333 
1065	 0.134030445762542 
1066	 0.134761026083569 
1067	 0.135021899518305 
1068	 0.135413250918739 
1069	 0.13544463246404 
1070	 0.134713633883496 
1071	 0.134496153939199 
1072	 0.134384111708913 
1073	 0.134313446337148 
1074	 0.134380517271956 
1075	 0.134809754167587 
1076	 0.134910329672411 
1077	 0.134939334255767 
1078	 0.134910180841449 
1079	 0.134887816114826 
1080	 0.134635776213651 
1081	 0.134083761948924 
1082	 0.133777844119582 
1083	 0.133300244570351 
1084	 0.133103823822267 
1085	 0.13332831880384 
1086	 0.133284938178041 
1087	 0.133283628074016 
1088	 0.133161547429794 
1089	 0.132717952653182 
1090	 0.132542892957564 
1091	 0.132317816626794 
1092	 0.13188028952412 
1093	 0.131933426177928 
1094	 0.132635377740262 
1095	 0.132406170041877 
1096	 0.131792170431609 
1097	 0.131580234215372 
1098	 0.130859909893991 
1099	 0.130529718738626 
1100	 0.131222733511478 
1101	 0.131179009124051 
1102	 0.130208133609965 
1103	 0.129804503545982 
1104	 0.129367401644367 
1105	 0.129477435636277 
1106	 0.12908616682278 
1107	 0.129065574213514 
1108	 0.128902108867572 
1109	 0.127407147320296 
1110	 0.127341319127377 
1111	 0.12905637143707 
1112	 0.128759070370323 
1113	 0.127311095626497 
1114	 0.126913233828792 
1115	 0.12473614426795 
1116	 0.123867661552688 
1117	 0.12746847660703 
1118	 0.128289929362562 
1119	 0.125979763041149 
1120	 0.124799287548849 
1121	 0.122050662239588 
1122	 0.120367933946763 
1123	 0.120380378507347 
1124	 0.120937699831018 
1125	 0.121656492584493 
1126	 0.120141332013465 
1127	 0.11750439031771 
1128	 0.119403920997262 
1129	 0.119224589043936 
1130	 0.118428294014284 
1131	 0.116850603443032 
1132	 0.115791247532052 
1133	 0.114115317004417 
1134	 0.110800323697692 
1135	 0.110244592177082 
1136	 0.111046572213307 
1137	 0.109946277048825 
1138	 0.108327308299999 
1139	 0.108612838319226 
1140	 0.107529649095163 
1141	 0.107191230855904 
1142	 0.107260865123049 
1143	 0.105566223046215 
1144	 0.103334434321331 
1145	 9.99276558958633E-02 
1146	 9.71309654774765E-02 
1147	 9.83114600372241E-02 
1148	 9.84972624327944E-02 
1149	 9.65332353413737E-02 
1150	 9.65792607687898E-02 
1151	 9.79179215470888E-02 
1152	 9.67564749375775E-02 
1153	 9.54899652570481E-02 
1154	 9.51229518358111E-02 
1155	 9.42265217028387E-02 
1156	 9.30860966373601E-02 
1157	 9.36056549893623E-02 
1158	 9.36939510801891E-02 
1159	 9.29776005042821E-02 
1160	 9.22194582921181E-02 
1161	 9.16248646074335E-02 
1162	 9.13606176898427E-02 
1163	 9.15425963925303E-02 
1164	 0.091979942288144 
1165	 0.092054922851628 
1166	 9.17535444932039E-02 
1167	 9.17482035859564E-02 
1168	 0.091963766560444 
1169	 9.18263605981499E-02 
1170	 9.16388511815586E-02 
1171	 9.16617093431044E-02 
1172	 9.16600010696879E-02 
1173	 9.15227607950652E-02 
1174	 9.13669465556854E-02 
1175	 9.15554674022947E-02 
1176	 0.091817082502486 
1177	 9.15946786301044E-02 
1178	 9.12765322899959E-02 
1179	 9.10901815628465E-02 
1180	 9.08708150954186E-02 
1181	 9.11759724698477E-02 
1182	 9.14783720100354E-02 
1183	 9.12034361735882E-02 
1184	 9.11118478807125E-02 
1185	 9.09110091549796E-02 
1186	 0.090598271541614 
1187	 9.07764567650187E-02 
1188	 9.09243656382356E-02 
1189	 9.07250735153323E-02 
1190	 9.04975629033705E-02 
1191	 9.03672228421357E-02 
1192	 0.090365417040367 
1193	 9.04086112040545E-02 
1194	 9.04312525334023E-02 
1195	 9.03290660431312E-02 
1196	 9.01499263084923E-02 
1197	 9.00077072244946E-02 
1198	 8.99270623521561E-02 
1199	 9.00764496092706E-02 
1200	 9.01923828930628E-02 
1201	 9.00778209169418E-02 
1202	 8.97890365613262E-02 
1203	 8.94686484811301E-02 
1204	 0.089790539979107 
1205	 9.03403941079789E-02 
1206	 9.03300953762206E-02 
1207	 0.090376507393748 
1208	 9.05678479061462E-02 
1209	 0.090512183680567 
1210	 9.04706076814843E-02 
1211	 0.090647137012159 
1212	 9.07026833717877E-02 
1213	 9.06920615468595E-02 
1214	 9.07183807380303E-02 
1215	 9.09433261324347E-02 
1216	 9.08531610154526E-02 
1217	 9.07543293352982E-02 
1218	 9.09121735081091E-02 
1219	 0.091012696955971 
1220	 9.11386810264209E-02 
1221	 9.13231344549037E-02 
1222	 9.15902631850305E-02 
1223	 9.19658722572662E-02 
1224	 9.22126910540191E-02 
1225	 9.23836831345326E-02 
1226	 9.24128366775901E-02 
1227	 9.22376452660276E-02 
1228	 9.23063093997651E-02 
1229	 9.24756844668239E-02 
1230	 9.25330417719801E-02 
1231	 0.09271786331735 
1232	 9.29159113094148E-02 
1233	 9.30038076058733E-02 
1234	 9.29911911594522E-02 
1235	 9.30548322772503E-02 
1236	 0.093130853381909 
1237	 9.32393003320721E-02 
1238	 9.33954682925793E-02 
1239	 9.35206647196255E-02 
1240	 9.36586100850371E-02 
1241	 9.36903527877613E-02 
1242	 9.37665552192165E-02 
1243	 9.39371022303618E-02 
1244	 9.40456379106132E-02 
1245	 9.40822118649889E-02 
1246	 9.40598738614982E-02 
1247	 9.41695967427002E-02 
1248	 9.42181065134505E-02 
1249	 9.40894363486213E-02 
1250	 9.42905888437122E-02 
1251	 9.46197539759112E-02 
1252	 9.47285505276063E-02 
1253	 9.48134307496981E-02 
1254	 9.48066950783242E-02 
1255	 0.094741387260158 
1256	 9.47199502997502E-02 
1257	 9.47370471906474E-02 
1258	 0.094938788027517 
1259	 9.53448247282002E-02 
1260	 9.53754621083947E-02 
1261	 0.095445196163758 
1262	 9.54894972349993E-02 
1263	 9.52782731249262E-02 
1264	 9.49508529796564E-02 
1265	 9.50859073015246E-02 
1266	 9.52512889044219E-02 
1267	 9.50487240331703E-02 
1268	 9.48040863347996E-02 
1269	 9.48712677153508E-02 
1270	 9.49010311699978E-02 
1271	 9.49934606851594E-02 
1272	 9.51422727245139E-02 
1273	 9.49018812131063E-02 
1274	 9.46222956638841E-02 
1275	 9.45637476219838E-02 
1276	 9.45825413049494E-02 
1277	 9.45806519252305E-02 
1278	 9.45771486378354E-02 
1279	 0.094563248358572 
1280	 9.45024653798926E-02 
1281	 9.43070143639178E-02 
1282	 9.39294175176757E-02 
1283	 9.37018802189483E-02 
1284	 9.34500742313547E-02 
1285	 0.093196751243737 
1286	 9.30192328243316E-02 
1287	 0.092959422153415 
1288	 9.30445726694337E-02 
1289	 9.28253438764043E-02 
1290	 9.25851728970649E-02 
1291	 0.092168126645472 
1292	 9.19516675167801E-02 
1293	 9.17983086695171E-02 
1294	 9.16118607527062E-02 
1295	 9.15031882536831E-02 
1296	 9.11361161804722E-02 
1297	 9.05729219206957E-02 
1298	 9.02468683076029E-02 
1299	 8.99886683816094E-02 
1300	 0.089599531113898 
1301	 8.91377770445864E-02 
1302	 8.85416436514776E-02 
1303	 8.80428587884373E-02 
1304	 8.78256516024123E-02 
1305	 8.78117781830105E-02 
1306	 0.087494263863642 
1307	 8.73189333391552E-02 
1308	 8.68023426683664E-02 
1309	 8.55031182730791E-02 
1310	 8.50144906738415E-02 
1311	 8.51657559710262E-02 
1312	 0.084692410978856 
1313	 8.42125861915781E-02 
1314	 8.38218433046511E-02 
1315	 8.30428227707518E-02 
1316	 0.082399948717456 
1317	 8.20467370094653E-02 
1318	 8.16568307011219E-02 
1319	 8.11465538227878E-02 
1320	 8.05696188551341E-02 
1321	 8.01905043542112E-02 
1322	 7.96412955356143E-02 
1323	 7.90756802632426E-02 
1324	 7.86022889710865E-02 
1325	 7.84951401793077E-02 
1326	 7.86716807545855E-02 
1327	 7.84315508285661E-02 
1328	 7.72482935645507E-02 
1329	 7.56117813252621E-02 
1330	 0.074857196290017 
1331	 7.46007256972308E-02 
1332	 7.41213928707534E-02 
1333	 7.34987835283296E-02 
1334	 7.30512393617974E-02 
1335	 7.27285310499034E-02 
1336	 7.22046832124649E-02 
1337	 0.071615565507627 
1338	 7.17093752329474E-02 
1339	 0.071263647798148 
1340	 6.97005542807137E-02 
1341	 6.90832637100407E-02 
1342	 0.068701456436726 
1343	 6.86362369268548E-02 
1344	 7.01464911727703E-02 
1345	 6.99029239867027E-02 
1346	 6.81029795685617E-02 
1347	 6.80412964880538E-02 
1348	 6.75336510603088E-02 
1349	 6.64067872034406E-02 
1350	 6.83563842386635E-02 
1351	 0.071160886212023 
1352	 7.34215798775074E-02 
1353	 7.13014067882823E-02 
1354	 7.13815834275436E-02 
1355	 0.05905780640139 
1356	 4.61962430823993E-02 
1357	 0.075960094603708 
1358	 0.126074746385706 
1359	 0.164677032137202 
1360	 0.150080002014425 
1361	 0.088297520036797 
1362	 0.122485410958546 
1363	 0.241713686919693 
1364	 0.137212722209957 
1365	 6.20021344171595E-02 
1366	 0.16176693929143 
1367	 4.13576040926205E-02 
1368	-4.91897302624476E-02 
1369	-0.191245239473893 
1370	-0.172672850329977 
1371	-3.19509189507219E-02 
1372	-4.56982363123961E-02 
1373	 4.7293050592868E-03 
1374	 0.124091566034485 
1375	-2.49218418142623E-02 
1376	-2.35112068201369E-02 
1377	 0.166940371534269 
1378	 0.287389848941309 
1379	 0.256360078748945 
1380	 0.304348268039559 
1381	 0.579241217690286 
1382	 0.610064588269497 
1383	 0.430209309759226 
1384	 0.334480455471938 
1385	 3.70682305731031E-02 
1386	 8.65689424636877E-02 
1387	 0.795205722421752 
1388	 0.804306418768156 
1389	 0.124145698492102 
1390	 5.46505732071179E-02 
1391	 6.57917242095026E-02 
1392	-0.241147772151603 
1393	-0.457916900183405 
1394	-0.112560609913185 
1395	-5.81997367845973E-03 
1396	-0.484435946721672 
1397	-0.333429639552634 
1398	-4.31604820227068E-02 
1399	-4.02850317528307E-02 
1400	-0.477447603193441 
1401	-0.334624962299892 
1402	-9.75419382168631E-02 
1403	 1.79287361975999E-02 
1404	-0.217027722242032 
1405	-6.39293572477184E-02 
1406	 0.214638808126887 
1407	 8.97276178098471E-02 
1408	-0.121075520528091 
1409	-8.13517837714762E-02 
1410	-3.43284536388082E-02 
1411	-8.89425777641829E-02 
1412	-0.08772136675331 
1413	-4.34091018584104E-02 
1414	-0.036181702759891 
1415	-5.03867417229822E-02 
1416	-0.030948941410038 
1417	-8.87878773887128E-03 
1418	-3.08003341879149E-02 
1419	-2.12207417837426E-02 
1420	 3.67400363002329E-02 
1421	 3.93409382382169E-02 
1422	 6.37467164865721E-03 
1423	 3.89218424161403E-03 
1424	 4.17197836677867E-03 
1425	 1.02478213032859E-02 
1426	 0.028113126298729 
1427	 3.42225394380667E-02 
1428	 3.90448947578901E-02 
1429	 0.036350167839561 
1430	 2.60746168454966E-02 
1431	 0.022179416372813 
1432	 1.34634632024622E-02 
1433	 1.18094870211566E-02 
1434	 2.19890017834617E-02 
1435	 0.024034981611066 
1436	 2.31790274522621E-02 
1437	 2.23565111630518E-02 
1438	 2.42773299454707E-02 
1439	 2.01599577105603E-02 
1440	 0.012796508107135 
1441	 1.25424234732744E-02 
1442	 1.64405091028848E-02 
1443	 1.67437536640572E-02 
1444	 0.011519418727014 
1445	 1.03761326703543E-02 
1446	 1.26408539375904E-02 
1447	 1.12588588796346E-02 
1448	 1.35570088317026E-02 
1449	 1.85789660581359E-02 
1450	 0.020326726830219 
1451	 1.95707277824765E-02 
1452	 1.86078732675682E-02 
1453	 1.90887369510998E-02 
1454	 1.94715303917297E-02 
1455	 1.90056593289343E-02 
1456	 1.84889291709893E-02 
1457	 1.87145727901646E-02 
1458	 1.86119670205209E-02 
1459	 1.76309060201364E-02 
1460	 1.71452025654807E-02 
1461	 1.72845226017843E-02 
1462	 1.72316691731079E-02 
1463	 1.64368030330566E-02 
1464	 1.66478587539683E-02 
1465	 1.79277627478425E-02 
1466	 1.87146930956658E-02 
1467	 0.020068998738327 
1468	 2.00210600319106E-02 
1469	 1.85613273778291E-02 
1470	 1.87304423905142E-02 
1471	 1.91317106674427E-02 
1472	 1.89020768196919E-02 
1473	 1.89689628704434E-02 
1474	 1.99177035853525E-02 
1475	 2.08211326107934E-02 
1476	 2.08538735080441E-02 
1477	 2.18595691509398E-02 
1478	 2.17997043242645E-02 
1479	 1.96864464319325E-02 
1480	 0.019376433761208 
1481	 1.96987648718747E-02 
1482	 2.01344742234223E-02 
1483	 2.15214944056767E-02 
1484	 2.20034582579291E-02 
1485	 2.21085842733441E-02 
1486	 2.21429956587688E-02 
1487	 2.17719238898055E-02 
1488	 2.18009968717452E-02 
1489	 2.18101050449838E-02 
1490	 2.20953286014461E-02 
1491	 2.26243722985643E-02 
1492	 2.29785893739987E-02 
1493	 2.36462229164793E-02 
1494	 2.38058978670211E-02 
1495	 2.32383122461559E-02 
1496	 2.34601755979548E-02 
1497	 2.42290469889754E-02 
1498	 2.43853204299509E-02 
1499	 2.45666359253106E-02 
1500	 2.48654141993191E-02 
1501	 2.47391774788066E-02 
1502	 2.46382248969613E-02 
1503	 2.48958839082913E-02 
1504	 2.51102825395322E-02 
1505	 2.51121029418116E-02 
1506	 2.50022519778193E-02 
1507	 2.54573995903492E-02 
1508	 2.58082505641594E-02 
1509	 2.58727792253567E-02 
1510	 2.60457798884738E-02 
1511	 2.62006077070874E-02 
1512	 2.63309674640164E-02 
1513	 2.67061903615496E-02 
1514	 2.71615876771895E-02 
1515	 2.73232524146537E-02 
1516	 2.73821017107509E-02 
1517	 0.027635316372947 
1518	 2.79487150617806E-02 
1519	 2.81819937343049E-02 
1520	 2.84118051264755E-02 
1521	 2.85755978218233E-02 
1522	 2.86881385067116E-02 
1523	 2.88602190621088E-02 
1524	 2.91631126531753E-02 
1525	 2.95416217447548E-02 
1526	 2.95844026297676E-02 
1527	 2.96437373281899E-02 
1528	 3.00565270100913E-02 
1529	 3.04347242940871E-02 
1530	 3.06882438120166E-02 
1531	 3.07627268414737E-02 
1532	 3.09509913136961E-02 
1533	 3.11867648933405E-02 
1534	 3.12200772231906E-02 
1535	 3.15624784100311E-02 
1536	 3.20004671388789E-02 
1537	 3.20395033480568E-02 
1538	 3.20386215984681E-02 
1539	 3.23738319715353E-02 
1540	 0.032706040839399 
1541	 3.27326262292735E-02 
1542	 0.03288776725226 
1543	 0.033123348989435 
1544	 3.32431769680161E-02 
1545	 3.36243186643491E-02 
1546	 3.40945221224436E-02 
1547	 3.43934863781377E-02 
1548	 3.45010174825921E-02 
1549	 3.44916819817361E-02 
1550	 3.45902673662907E-02 
1551	 3.46506555817952E-02 
1552	 3.48541066742962E-02 
1553	 3.53309140565607E-02 
1554	 3.56767881322991E-02 
1555	 3.58210341695561E-02 
1556	 3.59406584160585E-02 
1557	 3.61265167291619E-02 
1558	 3.63496789399892E-02 
1559	 3.66933805851054E-02 
1560	 3.69861312870912E-02 
1561	 3.69556140957459E-02 
1562	 3.71056735774821E-02 
1563	 0.037505107204042 
1564	 3.75120078762303E-02 
1565	 3.74761832827613E-02 
1566	 0.037862668057588 
1567	 3.82217020760166E-02 
1568	 0.038434251058788 
1569	 3.86575838850648E-02 
1570	 3.87157558507986E-02 
1571	 3.86626601454487E-02 
1572	 0.038891119558968 
1573	 3.94287522803673E-02 
1574	 3.97385866519473E-02 
1575	 3.97100932988348E-02 
1576	 3.97943879419973E-02 
1577	 3.99610049531243E-02 
1578	 4.02085658796626E-02 
1579	 4.05775467810718E-02 
1580	 4.07476181067782E-02 
1581	 4.08818545614893E-02 
1582	 4.09721784513867E-02 
1583	 4.11512554461933E-02 
1584	 4.15875854760246E-02 
1585	 4.14776661425573E-02 
1586	 4.12933898249004E-02 
1587	 0.041701908774982 
1588	 4.17861194113084E-02 
1589	 4.18312221956522E-02 
1590	 4.21873670016439E-02 
1591	 4.21431247234096E-02 
1592	 0.042140630082944 
1593	 4.25556797080166E-02 
1594	 0.042794108660154 
1595	 4.27099397698048E-02 
1596	 4.27078429966879E-02 
1597	 4.29655951457738E-02 
1598	 4.33018489716509E-02 
1599	 4.35043474149875E-02 
1600	 4.34778408577092E-02 
1601	 4.35850375023254E-02 
1602	 4.37716056869701E-02 
1603	 4.36757781720351E-02 
1604	 4.38788388799341E-02 
1605	 4.42066527131847E-02 
1606	 4.40650606071701E-02 
1607	 4.42076147771234E-02 
1608	 4.47889282839323E-02 
1609	 4.50034815311184E-02 
1610	 4.49270380016658E-02 
1611	 4.50265950957685E-02 
1612	 4.52328556878803E-02 
1613	 4.51180906351279E-02 
1614	 4.50051501925206E-02 
1615	 4.53902352546225E-02 
1616	 4.55687979764987E-02 
1617	 4.55397815718308E-02 
1618	 4.58483735780315E-02 
1619	 4.59647174195204E-02 
1620	 4.58553205397197E-02 
1621	 4.59845488790216E-02 
1622	 4.61118140207458E-02 
1623	 4.60647872893574E-02 
1624	 4.60790159311082E-02 
1625	 4.62851383499268E-02 
1626	 4.64255779694432E-02 
1627	 4.64595351951894E-02 
1628	 4.64411463966238E-02 
1629	 4.63366442074325E-02 
1630	 4.65123841157664E-02 
1631	 4.69503329546212E-02 
1632	 4.73059520269168E-02 
1633	 4.72175699319099E-02 
1634	 4.68211084233978E-02 
1635	 4.68538161595113E-02 
1636	 4.71675552315557E-02 
1637	 4.74791785719302E-02 
1638	 4.76966512958816E-02 
1639	 0.047367562949149 
1640	 4.71468937838298E-02 
1641	 4.73973432870614E-02 
1642	 4.76045347507011E-02 
1643	 4.80960016867295E-02 
1644	 4.83557451936797E-02 
1645	 4.79320044638593E-02 
1646	 4.79436009299839E-02 
1647	 4.83884002858572E-02 
1648	 4.83401005146242E-02 
1649	 4.81262540532405E-02 
1650	 4.82180086853098E-02 
1651	 0.048179873199514 
1652	 4.81109641415055E-02 
1653	 4.85804859238025E-02 
1654	 4.87697808779916E-02 
1655	 4.86040210081794E-02 
1656	 4.85393556533228E-02 
1657	 4.85213832490931E-02 
1658	 4.85535840978344E-02 
1659	 4.86322567276813E-02 
1660	 4.86408694992149E-02 
1661	 4.86626241264704E-02 
1662	 0.048744990929504 
1663	 4.88467838875695E-02 
1664	 4.88537088224823E-02 
1665	 4.87092187986172E-02 
1666	 4.88746729579877E-02 
1667	 4.92940702685655E-02 
1668	 4.90047883496426E-02 
1669	 4.89126379679365E-02 
1670	 4.90245376775756E-02 
1671	 4.88504921267243E-02 
1672	 4.88755659993311E-02 
1673	 4.90636502500294E-02 
1674	 4.87292440565512E-02 
1675	 4.86347990230033E-02 
1676	 4.89142973132777E-02 
1677	 4.88415987523641E-02 
1678	 4.87068354517762E-02 
1679	 4.87043138155846E-02 
1680	 4.86764647882471E-02 
1681	 4.86431820877751E-02 
1682	 4.86221231089492E-02 
1683	 4.85808226709383E-02 
1684	 4.85368447216439E-02 
1685	 4.86985374745294E-02 
1686	 4.89758820957535E-02 
1687	 4.90815543719896E-02 
1688	 4.89751464676426E-02 
1689	 4.87847155766134E-02 
1690	 0.048751707020197 
1691	 4.86313422266685E-02 
1692	 4.86353282309878E-02 
1693	 4.88591374601084E-02 
1694	 4.86174566449555E-02 
1695	 4.80465624719667E-02 
1696	 4.77125038979051E-02 
1697	 4.79185333194371E-02 
1698	 4.82195337443905E-02 
1699	 4.85383286800595E-02 
1700	 4.88036084774458E-02 
1701	 4.82629776807492E-02 
1702	 4.76678212571947E-02 
1703	 0.047752843365668 
1704	 4.78494187560141E-02 
1705	 4.78485369022624E-02 
1706	 4.77676721281832E-02 
1707	 4.72254294467883E-02 
1708	 4.69127757740056E-02 
1709	 4.69044152534449E-02 
1710	 4.67806583299085E-02 
1711	 0.0469425044071 
1712	 4.69782801928522E-02 
1713	 4.69592946595525E-02 
1714	 4.68693314118087E-02 
1715	 4.69633410816749E-02 
1716	 4.69180172137353E-02 
1717	 4.66367982233481E-02 
1718	 4.63397758697074E-02 
1719	 4.62653231135752E-02 
1720	 4.61575226446137E-02 
1721	 4.59578593218954E-02 
1722	 4.62315805449644E-02 
1723	 0.046611378203633 
1724	 4.60887923281716E-02 
1725	 4.56631219961647E-02 
1726	 4.57910890835556E-02 
1727	 4.53494706863951E-02 
1728	 4.51638550419101E-02 
1729	 4.53997627710715E-02 
1730	 0.045255122752108 
1731	 4.49542800166478E-02 
1732	 4.49062664333133E-02 
1733	 4.47644566949873E-02 
1734	 4.40652688540861E-02 
1735	 0.043744026192618 
1736	 4.41538580420846E-02 
1737	 4.42747375312685E-02 
1738	 0.043986660248173 
1739	 4.41549817511822E-02 
1740	 4.36386253008662E-02 
1741	 0.042603343262129 
1742	 4.31504042496338E-02 
1743	 4.34896137257078E-02 
1744	 4.28824067358413E-02 
1745	 0.043081777326589 
1746	 4.25170020325273E-02 
1747	 0.042015343427548 
1748	 4.21262544930738E-02 
1749	 0.042079662822097 
1750	 4.16558850037862E-02 
1751	 4.14586641010893E-02 
1752	 4.13598177210592E-02 
1753	 4.12912671379179E-02 
1754	 4.11965497553572E-02 
1755	 4.13156980067598E-02 
1756	 4.19871686519689E-02 
1757	 4.14021806774325E-02 
1758	 4.14847891507853E-02 
1759	 4.18560424084169E-02 
1760	 4.06562482862968E-02 
1761	 3.94843872562594E-02 
1762	 3.92884289327764E-02 
1763	 3.90671094187779E-02 
1764	 3.94096665245469E-02 
1765	 4.03331977701081E-02 
1766	 0.039697055359385 
1767	 3.82280847558876E-02 
1768	 3.84518489576881E-02 
1769	 3.91791334377188E-02 
1770	 3.90641727481384E-02 
1771	 3.88605723724217E-02 
1772	 3.80970775864946E-02 
1773	 3.71787809647141E-02 
1774	 0.037592472353928 
1775	 3.92130088418275E-02 
1776	 0.039461165409825 
1777	 3.79693601629097E-02 
1778	 3.82184132364847E-02 
1779	 0.039699505388505 
1780	 3.91820815007271E-02 
1781	 3.90305033841963E-02 
1782	 3.87941688263372E-02 
1783	 0.035576267676204 
1784	 3.43505221108563E-02 
1785	 3.46061094235387E-02 
1786	 3.56325770755061E-02 
1787	 3.87434627903949E-02 
1788	 3.92994258301605E-02 
1789	 4.02248886263387E-02 
1790	 3.81874918171428E-02 
1791	 3.43301478412008E-02 
1792	 3.33642355971724E-02 
1793	 3.40179268474779E-02 
1794	 3.63244610166223E-02 
1795	 3.88250432225231E-02 
1796	 3.78377587305309E-02 
1797	 3.80194284245738E-02 
1798	 3.47354780403552E-02 
1799	 3.04192875665827E-02 
1800	 3.30475043273404E-02 
1801	 3.47790434763712E-02 
1802	 4.34715373485399E-02 
1803	 4.76696723540183E-02 
1804	 4.91488982998779E-02 
1805	 4.84441680196317E-02 
1806	 2.80415792734507E-02 
1807	 1.68456604345962E-02 
1808	-1.27205838023603E-03 
1809	 2.61266273342933E-03 
1810	 6.10628798868652E-02 
1811	 0.105319111501191 
1812	 0.223827670155481 
1813	 0.294291046173329 
1814	 0.247035811187067 
1815	 0.215581239370244 
1816	 1.86461273704274E-02 
1817	-0.140002912979107 
1818	-1.40470300401193E-02 
1819	 0.442911007792522 
1820	 0.519511408714766 
1821	 0.513704151010333 
1822	 0.400014465155167 
1823	-0.107469060588912 
1824	-0.314251187820495 
1825	-0.238466699954337 
1826	-0.218855353194805 
1827	 9.99881018336474E-02 
1828	 0.2623073330907 
1829	 0.528731795100939 
1830	 0.392990746987027 
1831	 1.37698763300378E-02 
1832	 0.233604112125427 
1833	 0.790431951868385 
1834	 1.69387269751034 
1835	 14.0649430767293 
1836	 123.542647696559 
1837	 7.54207130031608 
1838	 5.33613131587161 
1839	 1.99161582227999 
1840	 0.985598594429937 
1841	 0.51116993298281 
1842	 0.37438994690544 
1843	 0.15164082262317 
1844	 5.30711314230918E-02 
1845	 8.33997694038395E-02 
1846	 0.527581053122176 
1847	 0.60975640469823 
1848	 21.3143551661499 
1849	-1.61660495332932 
1850	-0.525448071690526 
1851	-0.38985406970333 
1852	 0.124035675267469 
1853	 0.69539375593396 
1854	 1.00897015076635 
1855	 5.89363536003714 
1856	 9.49818239064898 
1857	 0.828838472363229 
1858	 0.222757258764965 
1859	 0.108893630313723 
1860	 1.34899901120651E-02 
1861	 0.270967480406258 
1862	 0.73665670428977 
1863	 2.34258834423323 
1864	-0.796568155868553 
1865	-0.486367321168365 
1866	-0.271278390512487 
1867	 0.083212140097153 
1868	-0.242173748665891 
1869	-0.563119987038794 
1870	-1.6221546176355 
1871	-1.08804952718689 
1872	 16.1077779209353 
1873	 1.1434669147554 
1874	 5.35065027718001 
1875	-11.5682062735117 
1876	 13.3133362415547 
1877	 1.1582463788501 
1878	 1.05920623412201 
1879	-0.662154279782009 
1880	 0.419442495780967 
1881	 0.883011784249358 
1882	 0.758802867186455 
1883	 1.0945036526763 
1884	 0.482656138491862 
1885	 0.701711212407898 
1886	 1.50504569837942 
1887	 2.3018019940512 
1888	 3.42671623982733 
1889	 3.18269345476309 
1890	 0.597639180933863 
1891	 0.483561609367744 
1892	 0.580623708355915 
1893	 0.333093602697647 
1894	 0.367056913599832 
1895	-0.704089413097025 
1896	 3.64734219766782 
1897	 3.15588095141534 
1898	-1.86820538903838 
1899	-0.933376955818204 
1900	-1.07947616053299 
1901	 1.73763823644023 
1902	 1.27026514022384 
1903	 2.82258734349804 
1904	 0.590132070604841 
1905	-9.51440628014818E-02 
1906	-7.11859800585483 
1907	 2.52436401996025 
1908	 0.684237619834247 
1909	 4.1327781853472 
1910	 6.12126710116933 
1911	-0.360478367023536 
1912	 4.08724508854206 
1913	 3.39105629837232 
1914	 0.883305105081262 
1915	 1.09232623895796 
1916	 149.42423242969 
1917	-0.279505200587678 
1918	 0.262836704323566 
1919	 0.59022833639666 
1920	 0.691211616613522 
1921	 1.13239456648168 
1922	 0.35199136282337 
1923	-5.93230075466314E-03 
1924	 146.102129953212 
1925	 8.67047284597346 
1926	 5.87481136009243 
1927	 0.704176459138746 
1928	 1.14978515185874 
1929	-3.11017142046779 
1930	 7.58389675106291 
1931	 0.380404652887702 
1932	 4.96067473275727E-02 
1933	-2.09005858459515E-02 
1934	-0.239424435582026 
1935	-0.294438286539696 
1936	-0.100283387153285 
1937	-7.02629098391892E-02 
1938	-6.00660124210065E-02 
1939	 2.15541895980859E-02 
1940	 0.159297550816545 
1941	 0.150840970216648 
1942	 0.129150153017862 
1943	 0.128748367065333 
1944	 9.13707030075867E-02 
1945	 8.40617834644069E-02 
1946	 0.090220932367529 
1947	 7.79622459660738E-02 
1948	 0.045854570889139 
1949	 0.015080839784541 
1950	-0.016358654742958 
1951	-4.09145287374955E-02 
1952	-3.98228766037639E-02 
1953	-1.80081384175456E-02 
1954	-1.44808153966188E-02 
1955	-1.86602983323247E-02 
1956	 1.9788234161892E-03 
1957	 1.01948514467194E-02 
1958	 3.93180421060618E-03 
1959	 7.51970568434429E-03 
1960	 0.015707237318373 
1961	 1.49935733800164E-02 
1962	 1.04200877565243E-02 
1963	 9.35492432188476E-03 
1964	 0.010181232477418 
1965	 1.23983026896069E-02 
1966	 1.26953486927206E-02 
1967	 1.53220641054653E-02 
1968	 1.48242591682243E-02 
1969	 1.18800568816317E-02 
1970	 9.75766727343823E-03 
1971	 5.97221582224393E-03 
1972	 3.89692685219388E-03 
1973	 4.93124746901311E-03 
1974	 4.46717178842097E-03 
1975	 5.03555051684362E-03 
1976	 7.15405380552858E-03 
1977	 7.3437081640484E-03 
1978	 6.82544609038871E-03 
1979	 7.19131119857543E-03 
1980	 8.05102977623711E-03 
1981	 8.58289515315706E-03 
1982	 8.9353077164978E-03 
1983	 0.008462011409425 
1984	 7.33895239507045E-03 
1985	 6.87667001669552E-03 
1986	 5.5611744589481E-03 
1987	 6.20199194417723E-03 
1988	 8.21259686569603E-03 
1989	 8.92742435128846E-03 
1990	 8.84756969450411E-03 
1991	 8.14792894179788E-03 
1992	 8.20500804712417E-03 
1993	 6.6355463876223E-03 
1994	 5.91040308923212E-03 
1995	 6.25778719380628E-03 
1996	 8.71077173729985E-03 
1997	 8.13334781966319E-03 
1998	 7.9389465159711E-03 
1999	 9.21326830368945E-03 
2000	 8.00207880976216E-03 
2001	 6.33614466910183E-03 
2002	 8.02956126196376E-03 
2003	 1.00101199220639E-02 
2004	 9.11020825908106E-03 
2005	 8.72330507511734E-03 
2006	 9.39771989725399E-03 
2007	 8.85371928178197E-03 
2008	 8.88617010300025E-03 
2009	 1.01563422011405E-02 
2010	 1.15734002906173E-02 
2011	 1.32620055184345E-02 
2012	 0.015824674584662 
2013	 1.95217675026706E-02 
2014	 0.021424882712383 
2015	 2.09802785335159E-02 
2016	 1.98299394275781E-02 
2017	 1.59776494197407E-02 
2018	 1.26412628498359E-02 
2019	 0.011648843845678 
2020	 1.04648599010454E-02 
2021	 1.14982008225096E-02 
2022	 1.24858814664155E-02 
2023	 1.10784563720431E-02 
2024	 1.05597227362746E-02 
2025	 9.51038215765293E-03 
2026	 9.45957293043567E-03 
2027	 9.50852715358494E-03 
2028	 1.08183709097128E-02 
2029	 1.17974315045095E-02 
2030	 1.17632615002773E-02 
2031	 1.14879351081782E-02 
2032	 1.20261986268997E-02 
2033	 1.28986355083405E-02 
2034	 0.012937770930425 
2035	 1.30152094747544E-02 
2036	 1.24680345204503E-02 
2037	 1.14677012307108E-02 
2038	 1.15295788685277E-02 
2039	 1.16958068884776E-02 
2040	 1.27820049212044E-02 
2041	 1.29850809567057E-02 
2042	 1.27626287914156E-02 
2043	 1.29382831820613E-02 
2044	 1.31045037387398E-02 
2045	 1.28471215501322E-02 
2046	 1.36005764471123E-02 
2047	 1.48984790575054E-02 
2048	 1.55994102591466E-02 
2049	 1.52988775427563E-02 
2050	 1.48653772648862E-02 
2051	 1.42463455381851E-02 
2052	 1.29669094031628E-02 
2053	 1.30510415213206E-02 
2054	 1.36741617776833E-02 
2055	 0.013876860314394 
2056	 1.37911568570216E-02 
2057	 1.33341207651537E-02 
2058	 1.35003533794215E-02 
2059	 1.40926030647224E-02 
2060	 1.39073164400612E-02 
2061	 0.013492728510389 
2062	 1.37041061103759E-02 
2063	 0.013971996068328 
2064	 1.31577978864105E-02 
2065	 1.35741247435939E-02 
2066	 0.015637919527181 
2067	 1.63392508393683E-02 
2068	 1.62005559067902E-02 
2069	 1.66238613396129E-02 
2070	 0.01510103707773 
2071	 1.27556147176898E-02 
2072	 1.28453811328414E-02 
2073	 1.34610561225084E-02 
2074	 0.015429999343821 
2075	 1.58076846202521E-02 
2076	 0.016384932576787 
2077	 1.64818991874289E-02 
2078	 1.48017240918721E-02 
2079	 1.47362736150715E-02 
2080	 1.55680828648674E-02 
2081	 1.67378716827459E-02 
2082	 1.81642808068311E-02 
2083	 1.91487303191121E-02 
2084	 1.87534138755648E-02 
2085	 0.017877552933165 
2086	 0.016936266946403 
2087	 1.61064678555486E-02 
2088	 1.61334881405794E-02 
2089	 1.69446377780943E-02 
2090	 0.016763160938625 
2091	 0.015850894727971 
2092	 1.59030896331593E-02 
2093	 1.65131719201095E-02 
2094	 1.65343026146208E-02 
2095	 1.68733111110735E-02 
2096	 0.017027118189988 
2097	 1.63276806013582E-02 
2098	 1.61586207202596E-02 
2099	 1.63025716899228E-02 
2100	 0.016903360168732 
2101	 1.65087885776868E-02 
2102	 1.68948802556087E-02 
2103	 0.017864997259134 
2104	 1.82929397293885E-02 
2105	 1.93268599708246E-02 
2106	 2.08235514237774E-02 
2107	 2.13412379721177E-02 
2108	 2.08490869543519E-02 
2109	 2.06720287147791E-02 
2110	 2.01548738361075E-02 
2111	 1.91466185883287E-02 
2112	 1.85472157434956E-02 
2113	 1.81822592138266E-02 
2114	 0.017792145778247 
2115	 1.75703509657053E-02 
2116	 1.80886542869566E-02 
2117	 1.83981145254386E-02 
2118	 1.84637376235218E-02 
2119	 1.82614684246287E-02 
2120	 1.79244189399574E-02 
2121	 1.77131553452196E-02 
2122	 1.73795766085004E-02 
2123	 1.80753860375608E-02 
2124	 1.91664927730265E-02 
2125	 1.97303966355589E-02 
2126	 1.94616254473038E-02 
2127	 1.95932890091485E-02 
2128	 2.05863634968709E-02 
2129	 2.06135378143209E-02 
2130	 2.00628718173374E-02 
2131	 0.020387900231569 
2132	 2.08086069922306E-02 
2133	 2.06282985493036E-02 
2134	 2.10083612302322E-02 
2135	 2.31048811242681E-02 
2136	 2.29561033492102E-02 
2137	 2.06663478986903E-02 
2138	 2.08779491307446E-02 
2139	 0.021888163499256 
2140	 2.16061407054956E-02 
2141	 2.22267422173842E-02 
2142	 0.022158854182363 
2143	 2.04534399182773E-02 
2144	 1.91369121549927E-02 
2145	 0.01920526093225 
2146	 2.03832815685565E-02 
2147	 2.19416275125898E-02 
2148	 2.32637627738347E-02 
2149	 2.40496283992804E-02 
2150	 2.44042998007348E-02 
2151	 2.29376996157836E-02 
2152	 2.13791685058345E-02 
2153	 2.19495250986937E-02 
2154	 2.20671713718786E-02 
2155	 2.20827193027487E-02 
2156	 0.022038036819475 
2157	 2.21780271436379E-02 
2158	 2.17654867524688E-02 
2159	 2.13985215857704E-02 
2160	 2.18311935812773E-02 
2161	 2.18961814856064E-02 
2162	 0.020386072482856 
2163	 2.03126638739711E-02 
2164	 2.17010431623223E-02 
2165	 2.18905613157548E-02 
2166	 2.21269949052624E-02 
2167	 2.22672149199867E-02 
2168	 0.021487579676675 
2169	 0.021477375549207 
2170	 2.16754352657995E-02 
2171	 2.23382162357147E-02 
2172	 0.02344991191931 
2173	 0.024383758441265 
2174	 2.45811458397924E-02 
2175	 2.40421107901757E-02 
2176	 2.34258099858807E-02 
2177	 2.30447317818882E-02 
2178	 2.32033542233001E-02 
2179	 2.35595969099031E-02 
2180	 2.34018253486888E-02 
2181	 2.27273176605169E-02 
2182	 0.022361654980776 
2183	 2.29214388766507E-02 
2184	 2.27110415422832E-02 
2185	 2.17949187405008E-02 
2186	 2.15564395174582E-02 
2187	 2.08108099170921E-02 
2188	 2.06700454451133E-02 
2189	 2.22818820582154E-02 
2190	 2.21050029984183E-02 
2191	 2.01692505928028E-02 
2192	 2.02588882173889E-02 
2193	 2.04115732587596E-02 
2194	 2.07516816787643E-02 
2195	 2.33160480340708E-02 
2196	 2.41957146574423E-02 
2197	 2.42711025233717E-02 
2198	 2.38327937856526E-02 
2199	 2.18786750211847E-02 
2200	 2.13359975167594E-02 
2201	 2.21848100685227E-02 
2202	 0.022065790986968 
2203	 2.28542451345527E-02 
2204	 2.34292819118252E-02 
2205	 2.41698035995646E-02 
2206	 2.40337321800705E-02 
2207	 2.34091885235588E-02 
2208	 2.51123524635814E-02 
2209	 2.60109819610343E-02 
2210	 2.64467746655254E-02 
2211	 0.027211701289221 
2212	 2.66840039839457E-02 
2213	 2.51534148835831E-02 
2214	 2.35372621059685E-02 
2215	 2.38708022856363E-02 
2216	 2.42245123919023E-02 
2217	 2.36405401149717E-02 
2218	 2.22898118623306E-02 
2219	 2.19095640288408E-02 
2220	 2.07278815207602E-02 
2221	 2.10561866258753E-02 
2222	 2.36807403398653E-02 
2223	 2.48155033678789E-02 
2224	 2.56247702496667E-02 
2225	 0.025916988660179 
2226	 2.55082341065155E-02 
2227	 2.47929704609862E-02 
2228	 2.37590827652189E-02 
2229	 2.33196908738684E-02 
2230	 2.19453484742389E-02 
2231	 2.19900978018269E-02 
2232	 2.41075300663349E-02 
2233	 2.43161301822551E-02 
2234	 2.39686220551934E-02 
2235	 2.43831190367758E-02 
2236	 2.46799902540132E-02 
2237	 2.28968105052271E-02 
2238	 2.34514886770624E-02 
2239	 2.51613189440284E-02 
2240	 2.36422348503671E-02 
2241	 2.31219284589623E-02 
2242	 2.34603244950506E-02 
2243	 2.12430707525514E-02 
2244	 1.96642755325647E-02 
2245	 0.020506906556246 
2246	 2.19874600016798E-02 
2247	 2.27326991523399E-02 
2248	 2.24784208747021E-02 
2249	 2.19668674549893E-02 
2250	 2.03634432116507E-02 
2251	 1.90881676237995E-02 
2252	 1.97898979943738E-02 
2253	 2.08336872103411E-02 
2254	 2.23791123478436E-02 
2255	 2.23228714960247E-02 
2256	 2.21403193469604E-02 
2257	 0.022186905070727 
2258	 1.82891218501104E-02 
2259	 1.65613563927447E-02 
2260	 1.70577967046616E-02 
2261	 0.019906548671657 
2262	 1.93088909596222E-02 
2263	 2.02980453425695E-02 
2264	 1.92695568286639E-02 
2265	 1.11271586517895E-02 
2266	 1.15902706447128E-02 
2267	 1.94863878406843E-02 
2268	 2.08127256511622E-02 
2269	 2.31105905452377E-02 
2270	 2.47282400031174E-02 
2271	 2.04844312935176E-02 
2272	 1.98512475546966E-02 
2273	 2.31079621371771E-02 
2274	 2.35044295853921E-02 
2275	 2.30328158032137E-02 
2276	 2.31161691875751E-02 
2277	 2.26771092942188E-02 
2278	 2.23446183798593E-02 
2279	 2.26656346021646E-02 
2280	 2.13185238976382E-02 
2281	 1.81894138676858E-02 
2282	 1.64727645147201E-02 
2283	 1.67425849938668E-02 
2284	 1.68665000688782E-02 
2285	 0.020050297775506 
2286	 2.07081260185974E-02 
2287	 1.70517876530877E-02 
2288	 1.58585993509152E-02 
2289	 1.45833635706606E-02 
2290	 1.42157959712468E-02 
2291	 1.68382848878956E-02 
2292	 1.74621592835227E-02 
2293	 1.78537726502908E-02 
2294	 2.09186379763608E-02 
2295	 2.54100938210575E-02 
2296	 3.09012380294644E-02 
2297	 3.18324672036557E-02 
2298	 3.01118471672753E-02 
2299	 2.70406183661022E-02 
2300	 2.23898509689872E-02 
2301	 2.42258358654599E-02 
2302	 2.47895109406222E-02 
2303	 2.18034679202525E-02 
2304	 2.05256628825381E-02 
2305	 1.60034233823274E-02 
2306	 1.39938818091354E-02 
2307	 0.015977064454436 
2308	 1.55441895869141E-02 
2309	 1.55559512594471E-02 
2310	 2.02876244317636E-02 
2311	 2.35069771833449E-02 
2312	 0.025779970853103 
2313	 2.93064455681939E-02 
2314	 2.41815573877885E-02 
2315	 2.04304362321363E-02 
2316	 2.27168680683764E-02 
2317	 2.02780272424806E-02 
2318	 2.01167767138429E-02 
2319	 2.06870397040318E-02 
2320	 1.54919461669834E-02 
2321	 1.62339209501165E-02 
2322	 1.94371551772288E-02 
2323	 0.016863560989093 
2324	 1.58404434177127E-02 
2325	 1.34805767700641E-02 
2326	 1.42984151808214E-02 
2327	 1.88506381873374E-02 
2328	 1.95734633822517E-02 
2329	 2.21177744820817E-02 
2330	 2.06878957935264E-02 
2331	 1.80380062302306E-02 
2332	 2.02000747189628E-02 
2333	 0.019405320117696 
2334	 1.48544116689659E-02 
2335	 9.04541560519118E-03 
2336	 9.69004411700804E-03 
2337	 1.27788059748634E-02 
2338	 1.56099081948594E-02 
2339	 1.87919184792294E-02 
2340	 1.28907591558892E-02 
2341	 2.5494614455759E-03 
2342	 6.88705328038072E-05 
2343	 4.44524509910851E-03 
2344	 2.13710745583357E-03 
2345	-3.49410892890603E-03 
2346	-1.07602232386096E-02 
2347	-1.71959083499649E-02 
2348	-1.10501614350522E-02 
2349	 3.13414384562407E-03 
2350	 1.22958886478716E-02 
2351	 0.010351049517255 
2352	-1.76851787113001E-03 
2353	-1.36787474037148E-02 
2354	-5.29638488162705E-03 
2355	 1.21046474276364E-02 
2356	 2.15323685832104E-02 
2357	 2.77607597060624E-02 
2358	 2.76095422787193E-02 
2359	 2.50278955938535E-02 
2360	 3.21396356574253E-02 
2361	 4.50836456733965E-02 
2362	 4.98544785183599E-02 
2363	 4.46371941198057E-02 
2364	 3.40426465938671E-02 
2365	 2.52681175246507E-02 
2366	 2.39608020655298E-02 
2367	 2.27297751787966E-02 
2368	 2.80059277319875E-02 
2369	 4.02635691079093E-02 
2370	 3.91618906665628E-02 
2371	 2.79197408914558E-02 
2372	 1.75617733311978E-02 
2373	 6.11782842661172E-03 
2374	-5.40626233816703E-03 
2375	-1.0137103906593E-03 
2376	 5.29330252254404E-03 
2377	-1.00586030598157E-02 
2378	-1.21848633778247E-02 
2379	-1.94597482815206E-02 
2380	-2.65141582493239E-02 
2381	-6.80778108450493E-03 
2382	-0.020478026622008 
2383	-2.20473407778722E-02 
2384	 3.45463728825285E-05 
2385	-1.86246261709666E-02 
2386	-1.86450825790434E-02 
2387	 9.5058538758002E-04 
2388	-2.98765066684445E-02 
2389	-3.04331380638258E-02 
2390	 1.88560417987841E-02 
2391	 1.71262944966231E-02 
2392	 1.71060621456227E-02 
2393	 4.50370687825951E-02 
2394	 3.29098956679605E-02 
2395	 0.01883319798964 
2396	 4.29593498041912E-02 
2397	 4.94994513453966E-02 
2398	 1.79769088299842E-02 
2399	 1.09287437525036E-02 
2400	 9.69785282714265E-03 
2401	-0.010478812755454 
2402	-2.57565403675198E-04 
2403	 6.98756759240856E-03 
2404	-2.10651951718668E-02 
2405	-1.52118448823597E-02 
2406	-1.32417678704998E-02 
2407	-3.88686737933312E-02 
2408	-2.00384433943834E-02 
2409	 1.79636784678927E-02 
2410	 2.57562557118051E-02 
2411	 5.93856515144142E-02 
2412	 0.129711342596095 
2413	 0.123514953525869 
2414	 0.11972689181264 
2415	 0.113472973068551 
2416	 0.109946975105923 
2417	 0.103310256118482 
2418	-1.9622631545116E-03 
2419	 4.83395123324587E-02 
2420	 0.101488433141413 
2421	 3.59620531977308E-02 
2422	 5.97457062767233E-02 
2423	-8.3676188450248E-03 
2424	-9.80101070366756E-02 
2425	-6.46027251968413E-02 
2426	-3.80635831274441E-02 
2427	-3.38553465841527E-02 
2428	-4.70127130173731E-02 
2429	-0.055494592710603 
2430	-3.21052474795887E-02 
2431	 5.25540175402653E-02 
2432	 0.10574404075227 
2433	 1.77259387935633E-02 
2434	-1.16427472033817E-02 
2435	-1.16474598594532E-02 
2436	-5.89705797030071E-02 
2437	-6.40997668216599E-02 
2438	-2.80261729570519E-02 
2439	-9.96287975438681E-02 
2440	-0.217295081383385 
2441	-0.078523987300711 
2442	 3.33908061044711E-02 
2443	 0.138574901369795 
2444	 0.287637107172903 
2445	 0.238723625645161 
2446	 7.75100625294774E-02 
2447	-6.59986192908575E-02 
2448	-0.144760146331436 
2449	-8.47518714652435E-02 
2450	-0.103142244360621 
2451	-0.310446703725461 
2452	 0.139084491084159 
2453	 0.272472375539532 
2454	 0.2866644002164 
2455	 0.397335899264512 
2456	 0.193952596075798 
2457	 0.124334147518039 
2458	 0.303548827556366 
2459	 0.357579081786379 
2460	 0.324268748544909 
2461	 0.169056410707965 
2462	 6.24015994890471E-02 
2463	 0.728105618329318 
2464	 0.936754551729785 
2465	 2.18328307887403 
2466	 0.814171341638561 
2467	 0.223900888341559 
2468	 0.234729125509847 
2469	 0.29484825483133 
2470	 0.131253623427805 
2471	-0.336643315194615 
2472	-9.72974517251164E-02 
2473	 1.28986352550904 
2474	 1.60244096556979 
2475	 2.40377893669752 
2476	 1.02131913495732 
2477	 0.418888325468386 
2478	 2.29897817377746E-02 
2479	-0.201835531272578 
2480	-0.670373564543327 
2481	-2.32541577604839 
2482	-35.2454808801996 
2483	-3.24605299626657 
2484	 18.6955230736118 
2485	 0.324964704054076 
2486	-0.153792899131656 
2487	-0.323448190947768 
2488	-0.792288931053162 
2489	-0.731469259903971 
2490	-0.212531409146633 
2491	-8.27144722372051E-02 
2492	 0.173000913982173 
2493	 5.00032647211401 
2494	-1.30754812543617 
2495	 0.489668315129402 
2496	 0.074706096271833 
2497	-0.128633327271337 
2498	 0.54348514427269 
2499	-127.027915042685 
2500	 0.666706530986862 
