Wavelength	rt0708a00000.asd
350	 7.24984886469496E-02 
351	 7.21250089841607E-02 
352	 7.32429615853979E-02 
353	 7.36133867408083E-02 
354	 7.24098862323469E-02 
355	 7.27217197404655E-02 
356	 7.37288543944611E-02 
357	 7.39043899052783E-02 
358	 7.25699361585287E-02 
359	 7.36235514487731E-02 
360	 7.40322806769255E-02 
361	 7.34777564122057E-02 
362	 7.35524133926798E-02 
363	 7.37694227232603E-02 
364	 7.38244165399548E-02 
365	 7.37600194161092E-02 
366	 7.41221063891412E-02 
367	 7.40680157722534E-02 
368	 7.40356759303636E-02 
369	 7.44538706423387E-02 
370	 7.45291397549996E-02 
371	 7.43240069980292E-02 
372	 7.41447252667336E-02 
373	 7.43741409918722E-02 
374	 0.074759438822348 
375	 0.074716928743213 
376	 7.45313701167183E-02 
377	 0.075634725669508 
378	 7.58818700710042E-02 
379	 7.53606688962713E-02 
380	 7.49392728540739E-02 
381	 7.61323106929387E-02 
382	 7.65940546047042E-02 
383	 0.076302196784243 
384	 7.62945439759326E-02 
385	 7.61068100669703E-02 
386	 7.60210842611142E-02 
387	 7.62057643419448E-02 
388	 7.66182101721168E-02 
389	 7.64290983900777E-02 
390	 7.64528859498791E-02 
391	 7.70782160778289E-02 
392	 7.68709645370411E-02 
393	 7.69185229886198E-02 
394	 7.73077799596876E-02 
395	 7.76652681491132E-02 
396	 7.74159895707205E-02 
397	 7.70191049755734E-02 
398	 7.69054380109588E-02 
399	 7.73447869418719E-02 
400	 0.077143183748563 
401	 7.70163533426882E-02 
402	 7.74023080052147E-02 
403	 7.74839180485535E-02 
404	 7.75007026015681E-02 
405	 7.74888371828791E-02 
406	 7.74462320618919E-02 
407	 7.75148838871685E-02 
408	 7.75321833702845E-02 
409	 7.74822427913246E-02 
410	 0.077501967431211 
411	 7.74806669639001E-02 
412	 7.74718748216477E-02 
413	 7.75159749013745E-02 
414	 7.75417465350123E-02 
415	 7.77197153917647E-02 
416	 7.78757003310987E-02 
417	 7.77803222882403E-02 
418	 7.77502496319624E-02 
419	 7.79020335057675E-02 
420	 7.81569123825878E-02 
421	 7.82598199374624E-02 
422	 0.078452157072084 
423	 7.86205154640825E-02 
424	 7.86944764205348E-02 
425	 7.89036633985037E-02 
426	 0.07931778672242 
427	 7.96378005822655E-02 
428	 7.95388505780689E-02 
429	 7.98837286361935E-02 
430	 8.02420655814884E-02 
431	 8.04313842890049E-02 
432	 8.07019853553488E-02 
433	 8.08819032652081E-02 
434	 8.10508124300061E-02 
435	 8.12920188320766E-02 
436	 8.15293578244552E-02 
437	 8.18964483362398E-02 
438	 8.22261556785937E-02 
439	 8.22574321435018E-02 
440	 8.24384468214757E-02 
441	 8.26832095307324E-02 
442	 8.29049538504437E-02 
443	 0.083109267620333 
444	 8.32418797022857E-02 
445	 8.32820179004049E-02 
446	 8.32714254076366E-02 
447	 8.34391498171595E-02 
448	 8.35823059421641E-02 
449	 8.36618684795205E-02 
450	 8.37634745046971E-02 
451	 0.083854724749694 
452	 8.38422497041783E-02 
453	 8.37465242368655E-02 
454	 8.38396408808602E-02 
455	 8.38904127521857E-02 
456	 8.38415501770053E-02 
457	 8.37424251953783E-02 
458	 8.38532401528505E-02 
459	 8.38665053447014E-02 
460	 0.083712785365951 
461	 8.35935653209631E-02 
462	 8.36531463030886E-02 
463	 8.36977173661761E-02 
464	 8.35760943421742E-02 
465	 0.083433448719524 
466	 8.34331425718146E-02 
467	 8.34786197985765E-02 
468	 8.33789784881419E-02 
469	 8.33551266020606E-02 
470	 8.33601049481257E-02 
471	 8.33402204475367E-02 
472	 8.32662898054023E-02 
473	 8.32359692169014E-02 
474	 8.32927520110711E-02 
475	 8.33968746679646E-02 
476	 8.32642802578917E-02 
477	 8.33018081372216E-02 
478	 8.34416904171289E-02 
479	 8.33303266533251E-02 
480	 8.33516171753772E-02 
481	 8.34461294330523E-02 
482	 8.35275542872935E-02 
483	 8.35713475864815E-02 
484	 8.37003068267537E-02 
485	 8.38069967049336E-02 
486	 8.37844020387008E-02 
487	 8.40151385666109E-02 
488	 8.41749146870534E-02 
489	 8.42201562657476E-02 
490	 8.44018220306844E-02 
491	 8.45381623474759E-02 
492	 8.46969701662365E-02 
493	 8.49388980441374E-02 
494	 8.51874767717157E-02 
495	 8.54154134989111E-02 
496	 8.56368567679855E-02 
497	 0.085885881850509 
498	 8.61284153033696E-02 
499	 8.64551068356093E-02 
500	 8.68350102229329E-02 
501	 8.70345095186308E-02 
502	 8.73300671651421E-02 
503	 8.76565030542241E-02 
504	 8.79148138351783E-02 
505	 8.82932173101639E-02 
506	 0.088574413667681 
507	 8.88351303267659E-02 
508	 8.93562292274504E-02 
509	 8.97267603303756E-02 
510	 9.00454499611026E-02 
511	 9.04559456178855E-02 
512	 9.10354156782469E-02 
513	 9.14915973930247E-02 
514	 9.18844497316465E-02 
515	 9.23914704559298E-02 
516	 9.28005220423469E-02 
517	 0.09329093722628 
518	 0.093883351308893 
519	 9.43702923637018E-02 
520	 9.49200617538227E-02 
521	 9.54450778963224E-02 
522	 9.58939995209554E-02 
523	 9.65372973688507E-02 
524	 9.71313199002803E-02 
525	 9.76640396240064E-02 
526	 9.82818073350037E-02 
527	 9.88592743558229E-02 
528	 9.94311811312267E-02 
529	 0.100034480598669 
530	 0.100678295619963 
531	 0.101267580602417 
532	 0.101854791721389 
533	 0.102521438064576 
534	 0.103167609540229 
535	 0.103811645343554 
536	 0.104444197469464 
537	 0.105013915440364 
538	 0.105657301922378 
539	 0.106384201850409 
540	 0.107128517456735 
541	 0.107685788523123 
542	 0.108329151133743 
543	 0.109030080059111 
544	 0.109593418752614 
545	 0.110197851241608 
546	 0.110782619510284 
547	 0.11132582112899 
548	 0.111944043662774 
549	 0.112545451451325 
550	 0.113052031875118 
551	 0.113445176997758 
552	 0.113988641395523 
553	 0.114542770724617 
554	 0.115009320798246 
555	 0.115364683777537 
556	 0.115773527846009 
557	 0.11621729018396 
558	 0.116635260347221 
559	 0.117003093874168 
560	 0.117426991338541 
561	 0.117831203200816 
562	 0.118063977907204 
563	 0.11843900399915 
564	 0.118792428050065 
565	 0.119026868172145 
566	 0.11929102603965 
567	 0.119625603887671 
568	 0.119928535884226 
569	 0.1200956433511 
570	 0.120370202479749 
571	 0.120632863707766 
572	 0.120853447956719 
573	 0.121117819874818 
574	 0.121318774293262 
575	 0.121458341164211 
576	 0.121586145190044 
577	 0.121815076471474 
578	 0.122083469576647 
579	 0.122310887408145 
580	 0.122416200068816 
581	 0.122408987743193 
582	 0.122493422071659 
583	 0.122721804797005 
584	 0.122838604380676 
585	 0.122864860877745 
586	 0.12286570692833 
587	 0.122900599436829 
588	 0.122817838795778 
589	 0.122817210218359 
590	 0.122910999703062 
591	 0.12289976633708 
592	 0.122880393445827 
593	 0.122914173580753 
594	 0.123000292290592 
595	 0.122966927921124 
596	 0.122964630138174 
597	 0.122997081126256 
598	 0.122979756501961 
599	 0.122839421260076 
600	 0.122815746599149 
601	 0.122940408877748 
602	 0.122821173871855 
603	 0.122710773137898 
604	 0.122667314887226 
605	 0.12268869498975 
606	 0.122800079184517 
607	 0.122784907752714 
608	 0.122664605532755 
609	 0.122703849337224 
610	 0.122605210399471 
611	 0.122478294500697 
612	 0.122447384139784 
613	 0.122431740135739 
614	 0.122369844452054 
615	 0.122318155884408 
616	 0.122372714749422 
617	 0.122320437361353 
618	 0.122197900433195 
619	 0.122081743956776 
620	 0.122068590333257 
621	 0.122084713341231 
622	 0.122047967383521 
623	 0.121941422985916 
624	 0.122082665278409 
625	 0.122120476135512 
626	 0.122026556902634 
627	 0.122086223307042 
628	 0.122027299197995 
629	 0.122018137507231 
630	 0.122131331011287 
631	 0.121952307762366 
632	 0.12192550456055 
633	 0.121964698581593 
634	 0.121774676278745 
635	 0.121593445203239 
636	 0.121319731706091 
637	 0.121039987911688 
638	 0.121156411197558 
639	 0.120989884059907 
640	 0.120669346079414 
641	 0.120480438160456 
642	 0.120292140179502 
643	 0.119947229445216 
644	 0.119561427007532 
645	 0.119448528859175 
646	 0.11922266914804 
647	 0.118930206431689 
648	 0.118695427329126 
649	 0.118648574108384 
650	 0.118428427585489 
651	 0.118194658736511 
652	 0.118223122676614 
653	 0.118049828375298 
654	 0.117896312592674 
655	 0.117833484087692 
656	 0.117671431068478 
657	 0.117462684220351 
658	 0.117227184854315 
659	 0.116993258657278 
660	 0.116887267052359 
661	 0.116657004997794 
662	 0.11631602309369 
663	 0.116049466880592 
664	 0.115860573820669 
665	 0.115732437753898 
666	 0.115603806097663 
667	 0.115340694565405 
668	 0.115159012695732 
669	 0.115125710669238 
670	 0.115202788036922 
671	 0.115123316567783 
672	 0.115060043814863 
673	 0.115104845702608 
674	 0.115246615544222 
675	 0.115376682912487 
676	 0.115529269598958 
677	 0.115734840487132 
678	 0.115929463801846 
679	 0.116217972701889 
680	 0.116568364598172 
681	 0.116914988028217 
682	 0.117416109421328 
683	 0.118081334248471 
684	 0.118826487660526 
685	 0.11952534760117 
686	 0.120629102269726 
687	 0.121791383863262 
688	 0.122651443500193 
689	 0.124023137711334 
690	 0.125208741797856 
691	 0.126275637297306 
692	 0.12772113856497 
693	 0.129201164117281 
694	 0.130727244961128 
695	 0.132210632677104 
696	 0.133484196439151 
697	 0.134823793319175 
698	 0.136346889830456 
699	 0.137946249359395 
700	 0.139211258169027 
701	 0.140497853605257 
702	 0.141786345661673 
703	 0.142798447044568 
704	 0.143871900558124 
705	 0.14495599845199 
706	 0.145918375385799 
707	 0.146645868516088 
708	 0.147356533158217 
709	 0.148001027277004 
710	 0.148463032547679 
711	 0.148845064964751 
712	 0.149151953828658 
713	 0.149358501888998 
714	 0.149418802652162 
715	 0.149362675634131 
716	 0.14934724173015 
717	 0.149414351757616 
718	 0.148962989792474 
719	 0.148646970184588 
720	 0.148455777763538 
721	 0.148104431887561 
722	 0.147852508151393 
723	 0.147393570111322 
724	 0.146710846725831 
725	 0.146160969256711 
726	 0.145596591908753 
727	 0.144844783742948 
728	 0.143843870375806 
729	 0.142831081778169 
730	 0.141824984265113 
731	 0.140847040413841 
732	 0.139885581039879 
733	 0.139080628037591 
734	 0.138523015019878 
735	 0.138130576069948 
736	 0.137584683059043 
737	 0.137312363129846 
738	 0.137171939832376 
739	 0.137009921692735 
740	 0.137072591916568 
741	 0.13708112970481 
742	 0.137039463084309 
743	 0.137091309614566 
744	 0.13716876095366 
745	 0.137218886012328 
746	 0.13725027619695 
747	 0.137351657290633 
748	 0.137426959331387 
749	 0.137531467229035 
750	 0.137690194781921 
751	 0.137702427496699 
752	 0.137743725043486 
753	 0.137843679299674 
754	 0.137942307351201 
755	 0.137981143822067 
756	 0.138039900229098 
757	 0.138165106431202 
758	 0.138381209439328 
759	 0.138807764834554 
760	 0.139186833693751 
761	 0.13905740154896 
762	 0.139103673129418 
763	 0.138923837415032 
764	 0.138851274206257 
765	 0.139186404581747 
766	 0.139301481857128 
767	 0.139351152978621 
768	 0.139424246716053 
769	 0.139527343841485 
770	 0.139700764806776 
771	 0.139879393945025 
772	 0.140021427603953 
773	 0.140207199159758 
774	 0.140410642800916 
775	 0.14063783197682 
776	 0.140890919079914 
777	 0.141054339987012 
778	 0.14128065680883 
779	 0.141565739720314 
780	 0.141742991249748 
781	 0.141963425354498 
782	 0.142283717556752 
783	 0.142664346903919 
784	 0.142898636251761 
785	 0.143066412320229 
786	 0.143285487246193 
787	 0.143633484976646 
788	 0.143890999080136 
789	 0.144149321789892 
790	 0.144493930816525 
791	 0.144964323900624 
792	 0.145277376716118 
793	 0.145625616390402 
794	 0.146017273797159 
795	 0.146033165264926 
796	 0.146385920154671 
797	 0.146821601472267 
798	 0.147000752840483 
799	 0.147228813028949 
800	 0.147500185774287 
801	 0.147778695696083 
802	 0.148005678048287 
803	 0.148115099984214 
804	 0.148196425730681 
805	 0.148338628585245 
806	 0.14859763071423 
807	 0.148651310172591 
808	 0.148623606992806 
809	 0.148662503237742 
810	 0.148764512105253 
811	 0.148463534091727 
812	 0.148142433678525 
813	 0.148333084685734 
814	 0.147899099638109 
815	 0.147630744907197 
816	 0.147563427205708 
817	 0.147122252709786 
818	 0.147011808769857 
819	 0.146766035158445 
820	 0.146238086505617 
821	 0.145814204283079 
822	 0.145036124924042 
823	 0.144285058980263 
824	 0.143716639854396 
825	 0.142332558637941 
826	 0.141384330947294 
827	 0.140521995728399 
828	 0.139090926855186 
829	 0.138213207237379 
830	 0.137306357248604 
831	 0.136485623494662 
832	 0.136288036970225 
833	 0.13526399078525 
834	 0.134559761218145 
835	 0.13452479491524 
836	 0.134107670221424 
837	 0.134041309142203 
838	 0.13385139769132 
839	 0.133295262680554 
840	 0.133372839860743 
841	 0.133440830693285 
842	 0.133222407927666 
843	 0.132745704199645 
844	 0.132751460002566 
845	 0.132718823721338 
846	 0.132535015997928 
847	 0.132403058163862 
848	 0.132353076892623 
849	 0.132228019904137 
850	 0.132021107690473 
851	 0.131928371958648 
852	 0.131655554076268 
853	 0.13150351336347 
854	 0.131606131196146 
855	 0.131487300240844 
856	 0.131392862817523 
857	 0.131335528139121 
858	 0.131255883362732 
859	 0.131060106136138 
860	 0.130951936060963 
861	 0.130905286700107 
862	 0.13079187260946 
863	 0.130690522885331 
864	 0.130514406182418 
865	 0.13031752355219 
866	 0.130262134538308 
867	 0.130171676711484 
868	 0.129934145512307 
869	 0.129587254071411 
870	 0.129341306700301 
871	 0.12950371797264 
872	 0.129560556172924 
873	 0.129205956164711 
874	 0.129008583183708 
875	 0.12873598287272 
876	 0.128448780005557 
877	 0.12827444636322 
878	 0.128296878643822 
879	 0.128082091060964 
880	 0.127893371480498 
881	 0.128083546619777 
882	 0.127503128567494 
883	 0.127061327274406 
884	 0.126879190068434 
885	 0.126474254460605 
886	 0.126338227157694 
887	 0.126316769783386 
888	 0.126243807953335 
889	 0.126042101133731 
890	 0.125897220674361 
891	 0.125717986345986 
892	 0.125448464345416 
893	 0.125194369636807 
894	 0.125084811852251 
895	 0.12511069455739 
896	 0.125103500081101 
897	 0.124621082423226 
898	 0.124040111030777 
899	 0.123912430372289 
900	 0.124393455362539 
901	 0.124460650282403 
902	 0.123760477195749 
903	 0.123090484512684 
904	 0.123303646055104 
905	 0.123300888540569 
906	 0.122801050528128 
907	 0.122442124259246 
908	 0.123109225589954 
909	 0.122253389749148 
910	 0.121347691925893 
911	 0.121155259954863 
912	 0.121307340298789 
913	 0.120997612987312 
914	 0.120984275642158 
915	 0.120979274813637 
916	 0.1196284993992 
917	 0.119803706576662 
918	 0.11986277278906 
919	 0.119184009908895 
920	 0.119282854866386 
921	 0.118888269790836 
922	 0.118214871147504 
923	 0.117649092582829 
924	 0.11734611534909 
925	 0.117034111149523 
926	 0.116892986911923 
927	 0.116956688545822 
928	 0.116226368812281 
929	 0.114333827863058 
930	 0.112965226097114 
931	 0.114965268538743 
932	 0.119245553730013 
933	 0.115257253859787 
934	 0.108181356765347 
935	 0.109257272825141 
936	 0.110560487604097 
937	 0.111298225707779 
938	 0.111769069327239 
939	 0.112224557375509 
940	 0.111259492396057 
941	 0.108095169988017 
942	 0.106776648250071 
943	 0.111475152645583 
944	 0.111640614840106 
945	 0.109429958386145 
946	 0.107481725224957 
947	 0.107675989338044 
948	 0.109328938416929 
949	 0.107667304869577 
950	 0.10630942778914 
951	 0.110633095930554 
952	 0.102009564639152 
953	 0.102296721408339 
954	 0.109489779564424 
955	 0.106276797731737 
956	 0.101841163559849 
957	 0.100921692118985 
958	 0.102269867007811 
959	 0.101804702438793 
960	 0.104421651278466 
961	 0.102804497216125 
962	 9.92321281788447E-02 
963	 0.101381658444485 
964	 0.101180132219474 
965	 0.100769582690902 
966	 0.101196546639136 
967	 0.101868023660827 
968	 0.101353525912139 
969	 0.100328975311566 
970	 0.100196793105468 
971	 0.102047216901532 
972	 0.100753492128109 
973	 9.97647924595775E-02 
974	 0.10053855751539 
975	 0.101349672924761 
976	 9.98454320771239E-02 
977	 9.96952994015465E-02 
978	 0.101312095468704 
979	 0.10188216738347 
980	 0.101825596697078 
981	 0.101911350800717 
982	 0.10233589074232 
983	 0.102674320939535 
984	 0.102131085929628 
985	 0.100936016266243 
986	 0.100286195679518 
987	 0.101498623281605 
988	 0.102394793416212 
989	 0.102443320059581 
990	 0.102207775508063 
991	 0.102721712554107 
992	 0.103270398268956 
993	 0.102985187226965 
994	 0.102742889631952 
995	 0.104178844914079 
996	 0.10615581137441 
997	 0.105119880374158 
998	 0.102877104285273 
999	 0.103517749477138 
1000	 0.102974388586375 
1001	 0.106563399896541 
1002	 0.106537252374997 
1003	 0.106729286904808 
1004	 0.106852661931463 
1005	 0.107150555659651 
1006	 0.107788069568902 
1007	 0.1082136079342 
1008	 0.108349722840747 
1009	 0.108589148886458 
1010	 0.108405950798656 
1011	 0.108429164517346 
1012	 0.108710551000146 
1013	 0.108967306491681 
1014	 0.109184006919456 
1015	 0.109433884947362 
1016	 0.109693711349458 
1017	 0.109827246167933 
1018	 0.110118692904467 
1019	 0.110716417409507 
1020	 0.11096042490924 
1021	 0.110964769232974 
1022	 0.111238412213353 
1023	 0.111299417340058 
1024	 0.111314414630093 
1025	 0.111666599277788 
1026	 0.111833638839114 
1027	 0.111856104688959 
1028	 0.111766486683258 
1029	 0.111735829313892 
1030	 0.111255193097562 
1031	 0.111531389440575 
1032	 0.112427248234341 
1033	 0.112829952481879 
1034	 0.113601092803217 
1035	 0.113938407951264 
1036	 0.113663794430002 
1037	 0.113553151000441 
1038	 0.113266578931355 
1039	 0.113230512329248 
1040	 0.113083251338874 
1041	 0.113560291889716 
1042	 0.114027356155646 
1043	 0.11504538872633 
1044	 0.115301332577876 
1045	 0.115368747742517 
1046	 0.115384644816357 
1047	 0.114806631243137 
1048	 0.114825989357645 
1049	 0.115205549705964 
1050	 0.115439561159073 
1051	 0.115917388915236 
1052	 0.116123766819374 
1053	 0.116072553653155 
1054	 0.11617446887947 
1055	 0.116095708527106 
1056	 0.116267171939594 
1057	 0.116578435680459 
1058	 0.117306588231579 
1059	 0.117275874266966 
1060	 0.116982098849159 
1061	 0.116913355565003 
1062	 0.116313685262141 
1063	 0.116312134381558 
1064	 0.117013947796356 
1065	 0.117193498685682 
1066	 0.117287572865618 
1067	 0.117321894353018 
1068	 0.117206787640898 
1069	 0.117032302458817 
1070	 0.116686859255618 
1071	 0.116493994225046 
1072	 0.11609865018495 
1073	 0.116018482649093 
1074	 0.116123162187029 
1075	 0.116566342586284 
1076	 0.116697444318007 
1077	 0.117068235179746 
1078	 0.116988626075111 
1079	 0.116481421477933 
1080	 0.116220763388348 
1081	 0.115781742322421 
1082	 0.115506085805263 
1083	 0.115368582567245 
1084	 0.115276854061647 
1085	 0.115280235341164 
1086	 0.115262905328075 
1087	 0.115238515003715 
1088	 0.11527563998999 
1089	 0.115519927385953 
1090	 0.115517172796519 
1091	 0.115362731431044 
1092	 0.115209449006152 
1093	 0.11497947535479 
1094	 0.114331204455306 
1095	 0.11405046435262 
1096	 0.114067449315751 
1097	 0.113787281878816 
1098	 0.113414979353715 
1099	 0.113024174832744 
1100	 0.112393427713943 
1101	 0.111999775807668 
1102	 0.111641854005198 
1103	 0.111522198998958 
1104	 0.112025612112353 
1105	 0.111656887200583 
1106	 0.111682234933213 
1107	 0.112145726892767 
1108	 0.111667449328461 
1109	 0.111216223217692 
1110	 0.111282399469062 
1111	 0.111520452929659 
1112	 0.111498569595589 
1113	 0.112300017217665 
1114	 0.112156610154122 
1115	 0.11050645653705 
1116	 0.109611076800764 
1117	 0.108367451364937 
1118	 0.108063137214181 
1119	 0.109575091554868 
1120	 0.109315299693801 
1121	 0.108362573804857 
1122	 0.108803077186955 
1123	 0.104970038426736 
1124	 0.102442573875142 
1125	 0.105753152328953 
1126	 0.106565945158463 
1127	 0.104938217569405 
1128	 0.105644680912443 
1129	 0.104221701033738 
1130	 9.85629446520939E-02 
1131	 0.097238674271355 
1132	 9.82254300148635E-02 
1133	 9.86612682230153E-02 
1134	 0.100565991851794 
1135	 0.100387651677704 
1136	 9.96394083879105E-02 
1137	 9.83893022518254E-02 
1138	 9.56740572020899E-02 
1139	 9.35819021379394E-02 
1140	 9.38164622984768E-02 
1141	 9.47362616390129E-02 
1142	 9.45475183836122E-02 
1143	 0.093495863172194 
1144	 0.091503448762765 
1145	 8.87775822436763E-02 
1146	 8.73610940200753E-02 
1147	 8.85498639196513E-02 
1148	 8.99385335370453E-02 
1149	 0.089630071918085 
1150	 8.89541343399494E-02 
1151	 8.78135157822515E-02 
1152	 0.086582800653488 
1153	 8.44152923137767E-02 
1154	 8.41876226931514E-02 
1155	 8.47583991567414E-02 
1156	 8.49634290385067E-02 
1157	 8.50447110966778E-02 
1158	 8.42312844578361E-02 
1159	 8.36428855189782E-02 
1160	 0.083730211268633 
1161	 8.40516920110903E-02 
1162	 8.49751347583742E-02 
1163	 8.53087728753201E-02 
1164	 8.43978940362073E-02 
1165	 8.37175425860526E-02 
1166	 8.37869910431703E-02 
1167	 8.35993739754818E-02 
1168	 8.35878068709014E-02 
1169	 8.43184057018198E-02 
1170	 8.44421863008341E-02 
1171	 0.084226457664597 
1172	 8.36949060800434E-02 
1173	 0.083698243885497 
1174	 8.36415060991437E-02 
1175	 8.32828100093726E-02 
1176	 8.33871278255964E-02 
1177	 8.38986103158909E-02 
1178	 8.37849174091462E-02 
1179	 8.33827983396796E-02 
1180	 8.32733804810177E-02 
1181	 8.30868767960839E-02 
1182	 0.082799465959516 
1183	 8.28894279274331E-02 
1184	 8.32862047241398E-02 
1185	 8.31819109890384E-02 
1186	 8.29519557175167E-02 
1187	 0.082902292186195 
1188	 8.27977505637531E-02 
1189	 0.082771232186633 
1190	 8.26880795495261E-02 
1191	 8.25897325646251E-02 
1192	 8.26109499063717E-02 
1193	 8.26606049297574E-02 
1194	 8.27667517410228E-02 
1195	 8.26208330692331E-02 
1196	 8.23299178934963E-02 
1197	 8.22665611758528E-02 
1198	 8.22566717265143E-02 
1199	 8.24427043369159E-02 
1200	 0.082624580363494 
1201	 8.23386376069165E-02 
1202	 8.21296000105637E-02 
1203	 8.19790983887523E-02 
1204	 8.18321961408872E-02 
1205	 8.22201225260071E-02 
1206	 8.24676141219774E-02 
1207	 8.23622022583167E-02 
1208	 8.24361844697963E-02 
1209	 8.24017258711666E-02 
1210	 0.082286351223442 
1211	 8.23976964690822E-02 
1212	 0.082579209487998 
1213	 8.26335730597487E-02 
1214	 8.26849586978722E-02 
1215	 8.26078405351647E-02 
1216	 8.26168619653206E-02 
1217	 8.25854746902596E-02 
1218	 8.26037931765279E-02 
1219	 8.29407771388861E-02 
1220	 8.32299075979971E-02 
1221	 8.33827415709208E-02 
1222	 8.35452267957934E-02 
1223	 8.33913222092242E-02 
1224	 8.30990355601759E-02 
1225	 8.32551850954247E-02 
1226	 8.34765043032549E-02 
1227	 8.36400350026257E-02 
1228	 8.38856252696093E-02 
1229	 8.37777738250965E-02 
1230	 8.37742662537292E-02 
1231	 8.39375574921577E-02 
1232	 8.39883624664287E-02 
1233	 8.41909725615358E-02 
1234	 8.43438229365721E-02 
1235	 8.44671621766417E-02 
1236	 8.45732265151689E-02 
1237	 8.46483781064644E-02 
1238	 8.46684820463425E-02 
1239	 8.47289058487991E-02 
1240	 8.48208321805667E-02 
1241	 8.48937465952342E-02 
1242	 8.48731925048551E-02 
1243	 8.48015779534719E-02 
1244	 8.48171821618058E-02 
1245	 8.49310270900351E-02 
1246	 8.49892917176096E-02 
1247	 8.49846417505069E-02 
1248	 8.51407894121881E-02 
1249	 8.53047294842508E-02 
1250	 8.53479588279542E-02 
1251	 8.54470436656248E-02 
1252	 8.55385253164268E-02 
1253	 0.0855120183802 
1254	 8.54675418939299E-02 
1255	 8.55967718452029E-02 
1256	 8.56892992523443E-02 
1257	 8.57142724695559E-02 
1258	 8.56723827707388E-02 
1259	 8.55570387422473E-02 
1260	 8.56000005997234E-02 
1261	 8.57506640180518E-02 
1262	 8.57368174685484E-02 
1263	 8.57211254312391E-02 
1264	 8.58201334641967E-02 
1265	 8.56834958827837E-02 
1266	 8.54487406779754E-02 
1267	 8.54171730484633E-02 
1268	 8.54389847157788E-02 
1269	 8.54162987958404E-02 
1270	 8.52914053548246E-02 
1271	 8.51954287179998E-02 
1272	 0.085232425311192 
1273	 8.52402901847093E-02 
1274	 8.51659591589374E-02 
1275	 8.50636785682947E-02 
1276	 8.50150646624356E-02 
1277	 8.48733756960527E-02 
1278	 8.45934025979699E-02 
1279	 8.47266434603727E-02 
1280	 8.47732350253567E-02 
1281	 8.45767169246552E-02 
1282	 8.42939665978837E-02 
1283	 8.43154587646004E-02 
1284	 8.42356345757114E-02 
1285	 8.40422760991159E-02 
1286	 8.41167129747451E-02 
1287	 8.39829289800931E-02 
1288	 0.083370058972444 
1289	 8.31518954243986E-02 
1290	 8.32591675469981E-02 
1291	 8.32444055532272E-02 
1292	 8.28613780921587E-02 
1293	 0.082455068145887 
1294	 8.23223991492582E-02 
1295	 8.20398769973253E-02 
1296	 8.17055329436214E-02 
1297	 8.17223116923574E-02 
1298	 8.16459098615114E-02 
1299	 8.14585134451813E-02 
1300	 8.12323091156405E-02 
1301	 8.07902042505435E-02 
1302	 8.04031466299355E-02 
1303	 7.99417257184925E-02 
1304	 7.95890957928216E-02 
1305	 7.98360182892263E-02 
1306	 0.07963958436803 
1307	 7.89194832624002E-02 
1308	 7.84668952033062E-02 
1309	 0.078241578608673 
1310	 7.77209519931921E-02 
1311	 7.69854593115623E-02 
1312	 7.64933266127711E-02 
1313	 7.59540542099992E-02 
1314	 7.54975418985822E-02 
1315	 7.51923946011235E-02 
1316	 7.48531704534218E-02 
1317	 7.46440990311381E-02 
1318	 7.42201521095026E-02 
1319	 7.37227090521218E-02 
1320	 7.34161030940472E-02 
1321	 7.32445965416805E-02 
1322	 7.24684540865321E-02 
1323	 7.24068523557231E-02 
1324	 7.22603984908132E-02 
1325	 7.12107057044017E-02 
1326	 7.06747530901457E-02 
1327	 0.070543430923504 
1328	 6.95225914292123E-02 
1329	 6.87098781484106E-02 
1330	 6.89424643543089E-02 
1331	 6.83754667848661E-02 
1332	 6.68415130529511E-02 
1333	 6.62351785887197E-02 
1334	 6.58654626628053E-02 
1335	 6.53824105384278E-02 
1336	 6.50367138377298E-02 
1337	 6.49410755203834E-02 
1338	 6.51265279236046E-02 
1339	 6.47249810039598E-02 
1340	 6.40759077419737E-02 
1341	 6.39407566936394E-02 
1342	 0.063627357679814 
1343	 6.31571588405196E-02 
1344	 6.31480929378615E-02 
1345	 6.30412550963226E-02 
1346	 0.06222590197255 
1347	 6.18917545861313E-02 
1348	 6.27664085857707E-02 
1349	 6.32647219239185E-02 
1350	 6.37177429631019E-02 
1351	 6.35952616854834E-02 
1352	 6.29817903302706E-02 
1353	 6.19400466947312E-02 
1354	 5.21415701002884E-02 
1355	 5.14586565863747E-02 
1356	 6.71044064605336E-02 
1357	 0.071242060203496 
1358	 8.59647556182783E-02 
1359	 0.172544027376785 
1360	 0.165927211556987 
1361	-0.019055933810189 
1362	-4.99456121722557E-02 
1363	 3.66959937572341E-02 
1364	 2.55988372344399E-02 
1365	 0.211067204492922 
1366	 0.190355139300915 
1367	-9.21809908547121E-02 
1368	-9.81905352148355E-02 
1369	 3.38123254195413E-02 
1370	 2.14381976031093E-02 
1371	 2.27838727090183E-02 
1372	 7.34445548910632E-02 
1373	 0.19314236709484 
1374	 0.136274847057417 
1375	 1.12257363259673E-02 
1376	 5.05098547248575E-02 
1377	 0.127682692030699 
1378	 7.96056854269577E-02 
1379	 0.116310908298919 
1380	 0.207860179200096 
1381	 4.00633716961286E-02 
1382	-3.41106677152018E-02 
1383	 0.116224954709951 
1384	 0.372821166592621 
1385	 0.637832478521416 
1386	 0.591676885527544 
1387	 0.647859303687802 
1388	 0.70531157196789 
1389	 0.287501172375136 
1390	-4.75539519847906E-02 
1391	-0.368476161569092 
1392	-0.152919985387121 
1393	-9.23369726782501E-02 
1394	-7.75845574772068E-03 
1395	 0.577161037147539 
1396	 0.893835682516575 
1397	 0.443368689499715 
1398	 0.390318679138423 
1399	 0.134080267293612 
1400	-4.16923977786684E-02 
1401	 0.131891993374967 
1402	-2.04531926094672E-03 
1403	-0.727324367659175 
1404	-0.103702226449912 
1405	-0.131579184583721 
1406	-0.327988170616606 
1407	-0.236282783674052 
1408	-3.29125281835703E-02 
1409	-3.43722446673889E-02 
1410	-6.05861716820696E-02 
1411	-7.79675158727471E-03 
1412	 2.0732646611486E-03 
1413	-3.99019709821538E-03 
1414	 2.16906104259223E-02 
1415	 5.93002547418042E-02 
1416	 0.104273305171243 
1417	 6.99530648718423E-02 
1418	 1.06063478320047E-02 
1419	 4.14648955306761E-03 
1420	-1.84959302673644E-02 
1421	-2.06979406231466E-02 
1422	 1.40806342514638E-02 
1423	 1.85833538291925E-02 
1424	-2.03519577381114E-04 
1425	 1.00528135876556E-03 
1426	 1.29036953092111E-02 
1427	 1.51987433200184E-02 
1428	 0.016328740447282 
1429	 1.78275597736057E-02 
1430	 1.69214312386424E-02 
1431	 1.64062974867705E-02 
1432	 1.68963135174289E-02 
1433	 1.79093197698612E-02 
1434	 1.97094252148031E-02 
1435	 1.86659186489985E-02 
1436	 2.29835948425674E-02 
1437	 1.62987316602576E-02 
1438	 1.74361969013377E-03 
1439	-2.56153176688118E-03 
1440	 3.70765835799868E-03 
1441	 3.60763792841217E-03 
1442	 4.79610491714314E-03 
1443	 1.07586981516449E-02 
1444	 1.41547964028487E-02 
1445	 1.58245174287126E-02 
1446	 1.76724309545961E-02 
1447	 1.83696074219859E-02 
1448	 1.53682881229499E-02 
1449	 1.46642894608735E-02 
1450	 1.64677944452302E-02 
1451	 1.54572962711416E-02 
1452	 1.65476952197999E-02 
1453	 1.80027261757797E-02 
1454	 1.74481716144673E-02 
1455	 1.63997886976559E-02 
1456	 0.016959295036989 
1457	 1.69665972222216E-02 
1458	 1.68050617866998E-02 
1459	 1.83718705405522E-02 
1460	 1.79506416266313E-02 
1461	 0.01489307771838 
1462	 1.46044839831037E-02 
1463	 1.56841538416907E-02 
1464	 1.57980793690546E-02 
1465	 1.64887910372574E-02 
1466	 1.68917971695688E-02 
1467	 1.65476652849578E-02 
1468	 1.65101508182311E-02 
1469	 1.72845712232921E-02 
1470	 1.72061004754405E-02 
1471	 1.56573659549978E-02 
1472	 1.57502067248048E-02 
1473	 1.70366232916702E-02 
1474	 1.73235729764361E-02 
1475	 1.74254848502983E-02 
1476	 1.78220465747518E-02 
1477	 1.81824863214317E-02 
1478	 1.80570782526971E-02 
1479	 1.78830232003117E-02 
1480	 1.81665485617339E-02 
1481	 0.017972485049289 
1482	 1.80721112272525E-02 
1483	 1.88176849128261E-02 
1484	 1.93287255488329E-02 
1485	 1.99130759921617E-02 
1486	 1.98771956930239E-02 
1487	 1.94061940453896E-02 
1488	 1.94999206534197E-02 
1489	 1.97020816330863E-02 
1490	 1.95236874268771E-02 
1491	 1.91018954536118E-02 
1492	 1.94238110433756E-02 
1493	 2.00221758135825E-02 
1494	 2.01462045546514E-02 
1495	 2.03698026394107E-02 
1496	 2.07372915889912E-02 
1497	 2.09314053202424E-02 
1498	 2.09777749278195E-02 
1499	 2.11043786396384E-02 
1500	 2.14741615972832E-02 
1501	 2.19353176944428E-02 
1502	 2.19578807794748E-02 
1503	 2.18629189797594E-02 
1504	 2.21397225133348E-02 
1505	 2.23901002426636E-02 
1506	 2.22286170520804E-02 
1507	 2.26182649531776E-02 
1508	 2.31511803744867E-02 
1509	 2.30229407841097E-02 
1510	 2.30816427720185E-02 
1511	 0.023575684251734 
1512	 2.36383195217548E-02 
1513	 2.35862139281419E-02 
1514	 2.40534264573702E-02 
1515	 2.44266292829213E-02 
1516	 2.45596892015263E-02 
1517	 2.47873240079464E-02 
1518	 2.48304392456027E-02 
1519	 2.46951270990941E-02 
1520	 2.47938350960502E-02 
1521	 2.50841238720887E-02 
1522	 2.52656165507723E-02 
1523	 2.56108006252176E-02 
1524	 2.59928952123193E-02 
1525	 2.60697721809232E-02 
1526	 2.62059575659296E-02 
1527	 2.64899107893005E-02 
1528	 2.66455405449097E-02 
1529	 2.66330374091127E-02 
1530	 0.026803965889769 
1531	 2.72386424230967E-02 
1532	 2.75482882216019E-02 
1533	 2.77409323965325E-02 
1534	 2.81115926965768E-02 
1535	 2.84609981027817E-02 
1536	 2.85226421591888E-02 
1537	 2.86765179565737E-02 
1538	 2.89086923907341E-02 
1539	 2.88081818723672E-02 
1540	 2.89326017987402E-02 
1541	 2.94437611101229E-02 
1542	 2.97214446313418E-02 
1543	 2.98632935613247E-02 
1544	 3.00379462426384E-02 
1545	 3.02475640609108E-02 
1546	 3.04978835558701E-02 
1547	 0.030702569168101 
1548	 0.030844512719496 
1549	 3.10771449445568E-02 
1550	 3.13101632723882E-02 
1551	 3.12254564814633E-02 
1552	 3.12442095771995E-02 
1553	 3.16508232100792E-02 
1554	 3.19688913219584E-02 
1555	 3.19066494600717E-02 
1556	 3.19496406619139E-02 
1557	 3.23615078046014E-02 
1558	 3.25713016377281E-02 
1559	 0.032568678527826 
1560	 3.28675292516422E-02 
1561	 0.033144210584206 
1562	 3.29701425140967E-02 
1563	 3.31811996463596E-02 
1564	 3.39598302531316E-02 
1565	 0.034248303551377 
1566	 3.41810470405948E-02 
1567	 0.034295267833714 
1568	 3.44175082667089E-02 
1569	 3.44358701350906E-02 
1570	 3.45178053449841E-02 
1571	 3.48209185774907E-02 
1572	 3.51257034568537E-02 
1573	 3.52383583710174E-02 
1574	 3.52264015024771E-02 
1575	 3.53822895726534E-02 
1576	 3.56672367414945E-02 
1577	 3.57857782799667E-02 
1578	 0.035960744485909 
1579	 3.63532381505895E-02 
1580	 3.66066975045049E-02 
1581	 0.036634322233575 
1582	 3.67509216653146E-02 
1583	 3.70028293704259E-02 
1584	 3.72686898101371E-02 
1585	 0.037449407882504 
1586	 3.75046307115895E-02 
1587	 3.74200831149719E-02 
1588	 3.73785775082398E-02 
1589	 3.74930873479238E-02 
1590	 3.77650209589799E-02 
1591	 3.81322622590985E-02 
1592	 3.81794185567613E-02 
1593	 3.81182167188596E-02 
1594	 0.038308495403912 
1595	 3.83803672066685E-02 
1596	 3.83375081592237E-02 
1597	 3.85515310699079E-02 
1598	 3.87789042268013E-02 
1599	 3.87289828794583E-02 
1600	 3.88168490174981E-02 
1601	 3.91448456639706E-02 
1602	 3.93043314109244E-02 
1603	 3.92083892660636E-02 
1604	 3.91792342353407E-02 
1605	 0.039473213297009 
1606	 3.98568210643216E-02 
1607	 4.00843965084031E-02 
1608	 4.00600588068012E-02 
1609	 3.98932039888581E-02 
1610	 3.98485238015977E-02 
1611	 4.01233811096736E-02 
1612	 4.05222716916367E-02 
1613	 0.040444636373507 
1614	 4.02563129946112E-02 
1615	 4.04310846399794E-02 
1616	 4.05627589196299E-02 
1617	 4.07462051521646E-02 
1618	 4.10493348717933E-02 
1619	 4.10836776167461E-02 
1620	 4.10640407562025E-02 
1621	 4.13164862551756E-02 
1622	 4.13297529767657E-02 
1623	 4.12145244303297E-02 
1624	 4.14562501432358E-02 
1625	 4.16314396529551E-02 
1626	 4.18232818587571E-02 
1627	 4.19624953213248E-02 
1628	 4.18327629189975E-02 
1629	 4.18453719167822E-02 
1630	 4.19789155389567E-02 
1631	 4.19081210293855E-02 
1632	 0.041831547910916 
1633	 4.19796110537946E-02 
1634	 4.20930216291597E-02 
1635	 4.22106342008593E-02 
1636	 4.23822641474279E-02 
1637	 4.24633946464655E-02 
1638	 4.23280805131951E-02 
1639	 4.22564183862986E-02 
1640	 4.25959902648192E-02 
1641	 4.29109087076943E-02 
1642	 4.29601100421827E-02 
1643	 4.31093410378964E-02 
1644	 4.31468229005865E-02 
1645	 4.27304955766535E-02 
1646	 4.25001557108623E-02 
1647	 4.26012355548566E-02 
1648	 4.26205967183217E-02 
1649	 4.27884108836553E-02 
1650	 4.31150222409736E-02 
1651	 4.31893733461632E-02 
1652	 4.32594425389932E-02 
1653	 4.36420714205072E-02 
1654	 4.36770854956728E-02 
1655	 4.33692046075285E-02 
1656	 4.33025898696563E-02 
1657	 4.31176861387655E-02 
1658	 4.30692797336073E-02 
1659	 4.32995866585953E-02 
1660	 4.33782006202749E-02 
1661	 0.043279185701821 
1662	 4.35134151765659E-02 
1663	 4.40752628199843E-02 
1664	 4.39881473696284E-02 
1665	 4.37074319726661E-02 
1666	 4.38040817445757E-02 
1667	 4.35962752869234E-02 
1668	 0.043456348207262 
1669	 4.38971644112032E-02 
1670	 4.41663728265102E-02 
1671	 4.39544730456597E-02 
1672	 4.40165631294855E-02 
1673	 4.41380857431601E-02 
1674	 4.39761439640744E-02 
1675	 0.043978106866327 
1676	 4.38961108827521E-02 
1677	 4.38539918414961E-02 
1678	 4.39483032714486E-02 
1679	 4.38177820792672E-02 
1680	 0.043908178545868 
1681	 4.41311122640662E-02 
1682	 4.41122333781044E-02 
1683	 4.39717848473487E-02 
1684	 4.38817047814765E-02 
1685	 0.043833457723118 
1686	 4.34605680905497E-02 
1687	 4.32875146290944E-02 
1688	 4.35498537748824E-02 
1689	 4.33771896089925E-02 
1690	 4.33657393031503E-02 
1691	 4.37147219340364E-02 
1692	 4.34487698229862E-02 
1693	 4.31732946659023E-02 
1694	 4.34455168145572E-02 
1695	 4.35575201639272E-02 
1696	 0.043292453449904 
1697	 4.30938028621076E-02 
1698	 4.29518734355184E-02 
1699	 4.28692217879617E-02 
1700	 0.043007054146959 
1701	 4.30719960313445E-02 
1702	 4.29119830106533E-02 
1703	 4.28405798550694E-02 
1704	 4.31279309745792E-02 
1705	 4.33774904154586E-02 
1706	 4.31580381870094E-02 
1707	 4.24143543209498E-02 
1708	 4.18883266117561E-02 
1709	 4.21368748930559E-02 
1710	 0.042276500009228 
1711	 4.22803313600677E-02 
1712	 4.23090554349062E-02 
1713	 4.18005767852545E-02 
1714	 4.17497179910966E-02 
1715	 4.22771032653622E-02 
1716	 4.19371630828329E-02 
1717	 4.18187043775415E-02 
1718	 4.16805593983495E-02 
1719	 4.14181589196276E-02 
1720	 4.18082856036111E-02 
1721	 4.20855492467263E-02 
1722	 4.15919744238848E-02 
1723	 4.10766241032132E-02 
1724	 4.11850080369403E-02 
1725	 4.09451290373863E-02 
1726	 4.02046530783944E-02 
1727	 4.05381517502584E-02 
1728	 0.040854114492444 
1729	 4.02050601110344E-02 
1730	 4.03235907383159E-02 
1731	 4.08667850613654E-02 
1732	 0.040421956424648 
1733	 3.99244287794946E-02 
1734	 4.02094311378256E-02 
1735	 3.98488458886731E-02 
1736	 3.89604503865734E-02 
1737	 3.94277079324837E-02 
1738	 3.98993203002562E-02 
1739	 3.93905923148435E-02 
1740	 3.92407220065141E-02 
1741	 3.88874682868412E-02 
1742	 3.83646545217865E-02 
1743	 3.83108559994402E-02 
1744	 3.79990411278288E-02 
1745	 3.78817771656178E-02 
1746	 3.81171601532042E-02 
1747	 0.038117541759999 
1748	 3.87511240406691E-02 
1749	 0.038626882959031 
1750	 3.74343145645182E-02 
1751	 3.71169845321986E-02 
1752	 3.68904977006438E-02 
1753	 3.67815476796423E-02 
1754	 3.74304578643473E-02 
1755	 3.74860597748871E-02 
1756	 3.71281314186625E-02 
1757	 3.66421439324443E-02 
1758	 3.68101118679081E-02 
1759	 3.67158342507068E-02 
1760	 3.63427195720214E-02 
1761	 0.03612919809466 
1762	 3.54331471555163E-02 
1763	 3.56677727752334E-02 
1764	 3.62004185934024E-02 
1765	 3.59338709950248E-02 
1766	 3.57708580196907E-02 
1767	 3.48540378092998E-02 
1768	 3.42122741146017E-02 
1769	 3.48365542420664E-02 
1770	 3.48092813544643E-02 
1771	 3.42844945554176E-02 
1772	 3.42088099169806E-02 
1773	 3.40801106408672E-02 
1774	 3.41220425218678E-02 
1775	 3.52626463821296E-02 
1776	 0.035364064445733 
1777	 0.03463455471997 
1778	 3.45360051459306E-02 
1779	 3.39729914288049E-02 
1780	 3.37300776956155E-02 
1781	 0.034572730119285 
1782	 3.40934425682971E-02 
1783	 3.23296869144121E-02 
1784	 3.25857892126529E-02 
1785	 3.36016875053712E-02 
1786	 3.31783519145014E-02 
1787	 3.30906769493926E-02 
1788	 3.28656089312682E-02 
1789	 3.08287569328166E-02 
1790	 3.41034767497166E-02 
1791	 3.67221481536935E-02 
1792	 3.69850347958366E-02 
1793	 3.56887357185014E-02 
1794	 0.03222126503271 
1795	 2.78457748058267E-02 
1796	 2.95507206492293E-02 
1797	 3.00514626984955E-02 
1798	 2.64392842555852E-02 
1799	 3.27652028794423E-02 
1800	 0.037149716908718 
1801	 3.83551985872815E-02 
1802	 4.04339715193721E-02 
1803	 3.69489348750524E-02 
1804	 1.28846357992554E-02 
1805	 5.0285612607466E-03 
1806	 1.58778963005138E-02 
1807	 2.14291235591482E-02 
1808	 6.04617632720255E-02 
1809	 6.74943352646455E-02 
1810	 5.54185859784684E-03 
1811	-2.94309959263062E-02 
1812	-0.094112477409018 
1813	-0.155472722998477 
1814	-0.17218566397559 
1815	-0.132038296333854 
1816	 0.049817531748327 
1817	 0.106089749977631 
1818	 0.153328920993139 
1819	-0.24005112501302 
1820	-0.260268599501896 
1821	-1.58928530658506E-04 
1822	 0.10286696898178 
1823	 1.12234756390877E-02 
1824	-7.10245871546169E-02 
1825	-0.217959784692937 
1826	-0.179302144094061 
1827	 0.174235760201833 
1828	 0.219413159608353 
1829	 0.190327308592218 
1830	 0.175703580374532 
1831	 0.445749780016849 
1832	 0.304495817763964 
1833	 2.97344203944158E-02 
1834	 0.311540052475089 
1835	 7.57909708325813 
1836	 49.0305437306832 
1837	 3.76136669204103 
1838	 3.10251476516048 
1839	 0.976948204327668 
1840	-0.408319143754018 
1841	-0.243063804918726 
1842	 0.504921394027829 
1843	 0.510338593120251 
1844	 0.205384619410172 
1845	 0.113523882981451 
1846	-0.799128095587032 
1847	-3.79599786567021 
1848	-193.451814757991 
1849	 24.9494948189311 
1850	-1.26432791635666 
1851	-0.624362976387509 
1852	-0.406079181758296 
1853	 0.131026309335866 
1854	 0.402283945698912 
1855	 0.879569988042365 
1856	 1.47395310587451 
1857	 0.277655982187104 
1858	 0.257994983280101 
1859	 9.71067045671471E-02 
1860	 0.264016615981437 
1861	 0.486253509901069 
1862	 0.625176702158269 
1863	 2.31396571869964 
1864	-0.714775382824888 
1865	-0.486684870677162 
1866	-1.58515830650744 
1867	-2.18232692954103 
1868	 1.45655510762757 
1869	-0.357386683922654 
1870	-2.73495709489248 
1871	-2.58495366906188 
1872	 30.8394976811504 
1873	 2.80504474539108 
1874	-8.16873715849048 
1875	 4.99609130812902 
1876	-2.55373714020008 
1877	-0.230981538774507 
1878	-0.283535569157291 
1879	 0.786925260853434 
1880	 0.556499377955955 
1881	 0.740828430036592 
1882	 1.89277073791296 
1883	-2.76447417842144 
1884	-0.633632622909754 
1885	-0.1995380127144 
1886	 0.132861304308855 
1887	 0.662214305622144 
1888	 0.899806096977396 
1889	 1.55801641218574 
1890	 0.437834377490306 
1891	 0.418034598385307 
1892	 0.912585674101993 
1893	 1.74694052368442 
1894	 0.373128666513137 
1895	-0.571657461239939 
1896	 2.3908949925371 
1897	 6.10009894891288 
1898	 3.93864439326995 
1899	 1.33100676529271 
1900	 1.25367748725174 
1901	-0.682107203856607 
1902	-0.843457146835619 
1903	-6.86668171050295 
1904	 12.2199513833471 
1905	-3.99897085668778 
1906	-30.13498843441 
1907	 1.086694237813 
1908	 1.04418154850563 
1909	 5.54125968634723 
1910	 9.64575267685113 
1911	 0.676089543651008 
1912	-1.37463685033188 
1913	 0.267619672415183 
1914	-0.43294123611039 
1915	-0.531162828515568 
1916	 30.0556302030813 
1917	 0.529492338190466 
1918	 0.478285411784168 
1919	 0.31020805697157 
1920	 0.505807562949141 
1921	 1.16370787949384 
1922	 0.565684768829203 
1923	 0.569028547876611 
1924	-86.3762641622477 
1925	-7.11938205318931 
1926	-4.53361897885162 
1927	-0.302326585905099 
1928	-0.253522392504294 
1929	 0.99506474784077 
1930	 3.1820126638882 
1931	 0.516814299484168 
1932	 0.218353187682584 
1933	 0.088572938189097 
1934	 0.101769257615402 
1935	 0.126747898922174 
1936	 0.184306542523987 
1937	 0.216926790177229 
1938	 0.221547887686325 
1939	 0.165317024192373 
1940	 0.038798711753679 
1941	-4.38006803842996E-02 
1942	-1.78668667894423E-02 
1943	 3.23408234281049E-02 
1944	 6.04239416405468E-02 
1945	 3.98169245049351E-02 
1946	-5.61511686213467E-03 
1947	-5.38405557210709E-02 
1948	-7.97766320252686E-02 
1949	-0.079298713284629 
1950	-6.32462868024557E-02 
1951	-3.51777510203807E-02 
1952	-1.95707538529303E-02 
1953	-6.50161126518479E-03 
1954	 1.86567446557118E-02 
1955	 3.81106090704783E-02 
1956	 2.84102178851687E-02 
1957	 2.12794059389527E-02 
1958	 2.01685087483187E-02 
1959	 1.61276207976664E-02 
1960	 1.85442657546412E-02 
1961	 0.019298340040869 
1962	 1.16677508741636E-02 
1963	 7.53240370053563E-03 
1964	 6.17771313191723E-03 
1965	 1.57494812279802E-03 
1966	 2.08314872646172E-04 
1967	 1.25631758261222E-03 
1968	 3.4903454919529E-03 
1969	 4.43035923050029E-03 
1970	 5.65513154044716E-03 
1971	 6.46980516719911E-03 
1972	 6.38138828368699E-03 
1973	 4.89923915525196E-03 
1974	 4.50565382568054E-03 
1975	 6.27258136387695E-03 
1976	 7.00897735887378E-03 
1977	 6.24642734176989E-03 
1978	 4.99886187750455E-03 
1979	 4.83239573736319E-03 
1980	 4.41097154447873E-03 
1981	 5.01886957209784E-03 
1982	 6.21373315151129E-03 
1983	 8.02342397724613E-03 
1984	 9.25964031726293E-03 
1985	 8.65172178757257E-03 
1986	 7.67011246243848E-03 
1987	 0.006712254495172 
1988	 0.006414618349906 
1989	 7.48779771719491E-03 
1990	 7.27408452550597E-03 
1991	 6.38588250697262E-03 
1992	 6.39080047573691E-03 
1993	 5.56513374534063E-03 
1994	 5.12452769760857E-03 
1995	 5.42800033251493E-03 
1996	 7.41164312942396E-03 
1997	 7.84948421474215E-03 
1998	 7.96687801730487E-03 
1999	 0.011049632924944 
2000	 1.34622302570978E-02 
2001	 1.21108712297624E-02 
2002	 1.25647227033721E-02 
2003	 1.36644986402788E-02 
2004	 1.10537145730391E-02 
2005	 1.18880395786081E-02 
2006	 1.37990584411287E-02 
2007	 1.28708686760723E-02 
2008	 1.40001035843507E-02 
2009	 1.34362312461541E-02 
2010	 1.28074117288311E-02 
2011	 1.24504973578573E-02 
2012	 1.08831194421428E-02 
2013	 9.20756555810363E-03 
2014	 9.83620346098175E-03 
2015	 8.10751912913817E-03 
2016	 9.17149385755413E-03 
2017	 9.6624616078201E-03 
2018	 0.007239474830734 
2019	 9.24140501363684E-03 
2020	 1.02422614540915E-02 
2021	 9.4434007804217E-03 
2022	 9.65241469701666E-03 
2023	 8.97978905748436E-03 
2024	 9.29893109902386E-03 
2025	 9.55841205087879E-03 
2026	 9.58163619842247E-03 
2027	 0.010080556058494 
2028	 1.07927447513868E-02 
2029	 1.04144544009905E-02 
2030	 1.02833534184477E-02 
2031	 1.03587011090138E-02 
2032	 9.62500928188204E-03 
2033	 9.41737296514722E-03 
2034	 8.74626569301482E-03 
2035	 8.3684129831903E-03 
2036	 9.62061131997224E-03 
2037	 0.010319507495939 
2038	 9.69401679958432E-03 
2039	 9.74313688526341E-03 
2040	 1.01315389970539E-02 
2041	 1.00036920088039E-02 
2042	 9.77274921522741E-03 
2043	 9.78099811647858E-03 
2044	 9.7543104828577E-03 
2045	 9.01864851905331E-03 
2046	 8.71967056168728E-03 
2047	 9.31933995429499E-03 
2048	 0.010217164884234 
2049	 0.010380350477229 
2050	 9.91005028156573E-03 
2051	 9.55335121685717E-03 
2052	 9.60576896785527E-03 
2053	 9.27071620232835E-03 
2054	 0.010761314534594 
2055	 1.24763638348181E-02 
2056	 1.26527068459124E-02 
2057	 1.13347482185559E-02 
2058	 1.17486724815646E-02 
2059	 0.011720047211322 
2060	 1.16828224112606E-02 
2061	 1.30684271410761E-02 
2062	 1.31009751259861E-02 
2063	 1.10228542239103E-02 
2064	 1.14835288184007E-02 
2065	 1.21304864374291E-02 
2066	 1.22442482212518E-02 
2067	 0.012628895935151 
2068	 1.19049679721368E-02 
2069	 0.011522392129176 
2070	 1.15446063496081E-02 
2071	 1.17416286666742E-02 
2072	 0.012463482088806 
2073	 1.28803096740922E-02 
2074	 1.28828344372715E-02 
2075	 1.29538564457732E-02 
2076	 1.33697016002845E-02 
2077	 1.33089180933063E-02 
2078	 0.012745949973311 
2079	 1.26308560413249E-02 
2080	 1.27595718638566E-02 
2081	 1.22171420525563E-02 
2082	 1.23507276837433E-02 
2083	 1.32295919684063E-02 
2084	 1.37407979301073E-02 
2085	 1.42391302074407E-02 
2086	 1.43659183829483E-02 
2087	 1.34637215238696E-02 
2088	 1.29369712434284E-02 
2089	 1.27701573501364E-02 
2090	 1.33320179246478E-02 
2091	 1.40756209114289E-02 
2092	 1.41858765075733E-02 
2093	 1.39406971566249E-02 
2094	 1.40132844241557E-02 
2095	 1.38255278813598E-02 
2096	 1.40108922905075E-02 
2097	 1.46273368582507E-02 
2098	 1.46753783240375E-02 
2099	 1.46186359462365E-02 
2100	 1.43488360912233E-02 
2101	 1.40320747237619E-02 
2102	 1.39771641792344E-02 
2103	 1.41998152993461E-02 
2104	 1.46369401184744E-02 
2105	 1.45320905820605E-02 
2106	 1.52557751944724E-02 
2107	 1.60238486643849E-02 
2108	 1.55707269655027E-02 
2109	 1.57771218992754E-02 
2110	 1.58779494946794E-02 
2111	 1.49757287393946E-02 
2112	 1.42888380367616E-02 
2113	 1.40636717914631E-02 
2114	 1.33066763354685E-02 
2115	 1.34189856210667E-02 
2116	 0.015129627356838 
2117	 1.58946098396352E-02 
2118	 1.65487564491064E-02 
2119	 1.65858458620276E-02 
2120	 1.61742642412156E-02 
2121	 1.54532342336433E-02 
2122	 1.49565164711736E-02 
2123	 1.53006563006491E-02 
2124	 1.67153329090468E-02 
2125	 1.74183164134274E-02 
2126	 1.71661575852829E-02 
2127	 1.68053717694789E-02 
2128	 1.61842329406181E-02 
2129	 1.59837825939169E-02 
2130	 1.63282818042535E-02 
2131	 1.73517039985705E-02 
2132	 0.018163526447151 
2133	 1.88815772531642E-02 
2134	 1.95500196589204E-02 
2135	 2.03332800408944E-02 
2136	 2.01792621895425E-02 
2137	 1.95230210670816E-02 
2138	 1.92496350535148E-02 
2139	 1.83211575064003E-02 
2140	 1.81115606971404E-02 
2141	 1.84655206310401E-02 
2142	 1.86816066783997E-02 
2143	 1.89245038128296E-02 
2144	 1.93971396722559E-02 
2145	 1.99530569624038E-02 
2146	 2.01622733829884E-02 
2147	 2.00279697493423E-02 
2148	 1.99138542678577E-02 
2149	 1.98940386668155E-02 
2150	 1.91441756421082E-02 
2151	 0.01815716373292 
2152	 1.88408893735867E-02 
2153	 1.95425083471793E-02 
2154	 2.00357513634684E-02 
2155	 2.09313499420916E-02 
2156	 2.04022336443079E-02 
2157	 2.01993256998098E-02 
2158	 1.94710672727471E-02 
2159	 1.95502506625239E-02 
2160	 2.03683411344893E-02 
2161	 2.00337405946385E-02 
2162	 1.90845726030736E-02 
2163	 1.85532249897105E-02 
2164	 1.73669979433781E-02 
2165	 1.68178003289281E-02 
2166	 1.71676456960779E-02 
2167	 0.017254903037037 
2168	 1.67300962878565E-02 
2169	 1.71808994922033E-02 
2170	 1.84992262868658E-02 
2171	 1.96705689296081E-02 
2172	 2.05494467079372E-02 
2173	 0.019704024419859 
2174	 1.85875484158567E-02 
2175	 0.018836663697822 
2176	 1.73220816055177E-02 
2177	 1.72542446132377E-02 
2178	 1.85681131188306E-02 
2179	 0.016993213711676 
2180	 1.59327738902107E-02 
2181	 1.72011396633076E-02 
2182	 1.78023489767237E-02 
2183	 1.67763146538572E-02 
2184	 1.67983177643239E-02 
2185	 1.84114316217169E-02 
2186	 1.96696494088937E-02 
2187	 2.17388607593363E-02 
2188	 2.22320158846358E-02 
2189	 2.18716894969129E-02 
2190	 0.021877540798539 
2191	 2.11714470789459E-02 
2192	 2.05223774004197E-02 
2193	 2.01031267396565E-02 
2194	 1.98544071286001E-02 
2195	 1.88043315613047E-02 
2196	 1.85300852301602E-02 
2197	 1.98727370756765E-02 
2198	 2.01309414051605E-02 
2199	 0.01995544261687 
2200	 1.92418925945866E-02 
2201	 1.84930404421742E-02 
2202	 0.019014608218119 
2203	 2.04321206427722E-02 
2204	 2.00554000134693E-02 
2205	 1.94424540618353E-02 
2206	 1.96924372930734E-02 
2207	 2.02527766445247E-02 
2208	 2.07767826481604E-02 
2209	 2.01586939148001E-02 
2210	 1.96190380887477E-02 
2211	 1.79058588247545E-02 
2212	 1.67993129829239E-02 
2213	 0.018742972606711 
2214	 2.01832075317347E-02 
2215	 2.04814728082849E-02 
2216	 2.05757140013266E-02 
2217	 2.05257533929633E-02 
2218	 1.91832587897244E-02 
2219	 1.83879493329196E-02 
2220	 1.80047307563399E-02 
2221	 1.85010245916204E-02 
2222	 1.90570838215007E-02 
2223	 1.93165707257599E-02 
2224	 2.09858453680822E-02 
2225	 2.09417596195012E-02 
2226	 1.85918401812808E-02 
2227	 1.82331426804589E-02 
2228	 1.88011365692666E-02 
2229	 1.87576587829325E-02 
2230	 1.90226283703183E-02 
2231	 1.99413686362267E-02 
2232	 0.021683317021785 
2233	 2.18072284139043E-02 
2234	 2.17659994976582E-02 
2235	 2.10165263559859E-02 
2236	 1.89104305610945E-02 
2237	 1.65580321351159E-02 
2238	 1.70246140810764E-02 
2239	 1.89516008644591E-02 
2240	 2.09599111045314E-02 
2241	 2.14908288563672E-02 
2242	 1.98832215492227E-02 
2243	 1.68630448833351E-02 
2244	 1.40343575156292E-02 
2245	 1.35765890473546E-02 
2246	 1.38695967270799E-02 
2247	 1.49713414076301E-02 
2248	 1.62818137710492E-02 
2249	 0.01600943306292 
2250	 1.67327779290488E-02 
2251	 1.78929197799863E-02 
2252	 1.77491947818592E-02 
2253	 1.77127493406213E-02 
2254	 1.73922804219404E-02 
2255	 1.63741825277615E-02 
2256	 1.68194023264959E-02 
2257	 1.73212110056666E-02 
2258	 0.016037365952472 
2259	 1.59723204281345E-02 
2260	 1.58662342939072E-02 
2261	 1.59544721075145E-02 
2262	 1.49381919902494E-02 
2263	 1.28071526731378E-02 
2264	 1.28862710428368E-02 
2265	 0.012681094809402 
2266	 1.42412093511863E-02 
2267	 1.99658976670997E-02 
2268	 2.07368926108744E-02 
2269	 1.92838329456252E-02 
2270	 0.019542982780893 
2271	 1.85852564600143E-02 
2272	 1.82846024272096E-02 
2273	 1.93343957519331E-02 
2274	 1.87641274404968E-02 
2275	 1.57775220068804E-02 
2276	 1.46648848991357E-02 
2277	 0.015152976496318 
2278	 1.55303760706069E-02 
2279	 1.64598842296634E-02 
2280	 1.73874137361362E-02 
2281	 1.94582507916029E-02 
2282	 1.83633415943379E-02 
2283	 1.76151465275338E-02 
2284	 1.68933686384893E-02 
2285	 0.017399396100025 
2286	 1.79694678522817E-02 
2287	 1.61661098310735E-02 
2288	 1.52356774056356E-02 
2289	 1.42293859608797E-02 
2290	 0.013273290238196 
2291	 1.58890810348956E-02 
2292	 1.76223883250168E-02 
2293	 1.74430806987465E-02 
2294	 1.85138630667556E-02 
2295	 1.91508781163423E-02 
2296	 2.27125380795779E-02 
2297	 2.56822250213095E-02 
2298	 2.31566219870891E-02 
2299	 2.04094406723397E-02 
2300	 1.96846055128051E-02 
2301	 1.91888451522266E-02 
2302	 1.82005835942052E-02 
2303	 1.46051855643099E-02 
2304	 8.93127590739542E-03 
2305	 5.88670917762454E-03 
2306	 6.59281654232221E-03 
2307	 1.07732632335668E-02 
2308	 1.30654289473845E-02 
2309	 1.31384996479564E-02 
2310	 1.55180180756759E-02 
2311	 1.75484793801805E-02 
2312	 2.02495328811909E-02 
2313	 2.15157950584953E-02 
2314	 1.93172540946393E-02 
2315	 1.86260251536194E-02 
2316	 0.017086719293414 
2317	 1.61746215736392E-02 
2318	 1.61626914899784E-02 
2319	 1.33644536899289E-02 
2320	 0.013358838722951 
2321	 1.65967035669605E-02 
2322	 1.59146835998344E-02 
2323	 1.32283383755446E-02 
2324	 1.56685953999219E-02 
2325	 1.65706549138249E-02 
2326	 0.014968049536775 
2327	 1.45422042920428E-02 
2328	 1.04761629134189E-02 
2329	 7.16345904481954E-03 
2330	 9.04728113021089E-03 
2331	 1.51915069140004E-02 
2332	 1.97497048265443E-02 
2333	 1.59447388226012E-02 
2334	 1.35955797303716E-02 
2335	 1.39748883103105E-02 
2336	 1.40786423628854E-02 
2337	 2.37914875811018E-02 
2338	 2.84806559952065E-02 
2339	 2.15279415478711E-02 
2340	 1.77342477921452E-02 
2341	 9.21236752986922E-03 
2342	 4.85432500232564E-03 
2343	 0.016510671761454 
2344	 1.74578878961042E-02 
2345	 9.56534548623894E-03 
2346	 8.98687290960805E-03 
2347	 3.20920248268867E-03 
2348	-1.22899508148476E-04 
2349	-9.00532966579271E-04 
2350	-1.02026513331834E-02 
2351	-1.43223899148057E-02 
2352	-9.65825528001124E-03 
2353	-1.35823875151719E-03 
2354	 8.4720736746189E-03 
2355	 1.08832807118951E-02 
2356	 2.32336171345243E-03 
2357	-2.85766144931136E-03 
2358	-1.84334914243721E-03 
2359	 1.89404337273847E-04 
2360	 7.35273942430918E-03 
2361	 1.47930273896851E-02 
2362	 1.70864927897733E-02 
2363	 0.012207530427864 
2364	 7.14340599718643E-03 
2365	 3.7817560654222E-03 
2366	 4.96330682061728E-03 
2367	 1.46201358531939E-02 
2368	 2.59331406229376E-02 
2369	 4.29537284570989E-02 
2370	 5.20472987077516E-02 
2371	 4.43030535166461E-02 
2372	 3.48289919958203E-02 
2373	 2.92601161161256E-02 
2374	 2.92970730428187E-02 
2375	 0.023854988245787 
2376	 1.91658216357205E-02 
2377	 0.030162762539767 
2378	 2.05118950890781E-02 
2379	 1.0123035955716E-03 
2380	 0.005667162990263 
2381	-8.5809269172444E-03 
2382	-2.92068712633943E-02 
2383	-9.10107188647277E-03 
2384	 1.49261685093759E-02 
2385	 1.90300291264353E-02 
2386	 3.44062482394408E-02 
2387	 0.042912838487888 
2388	 0.032305951632944 
2389	 2.51103789864709E-02 
2390	 7.9379977207875E-03 
2391	-1.10108886080226E-02 
2392	-2.43695307727049E-03 
2393	 2.03064142726157E-02 
2394	 2.21007678899244E-02 
2395	 0.018152570428313 
2396	 1.04075315207733E-02 
2397	-5.5969410118255E-03 
2398	-2.16349777869753E-02 
2399	-4.94930161031761E-02 
2400	-6.39118475369577E-02 
2401	-7.45427495562701E-02 
2402	-0.071205658639937 
2403	-2.62366738407995E-02 
2404	-8.98807227596807E-03 
2405	-1.74940535601783E-02 
2406	-0.012598830079661 
2407	-1.12361295021854E-02 
2408	-2.11016862290908E-02 
2409	-5.11137773107437E-02 
2410	-6.38078548629626E-02 
2411	-7.47646258096146E-02 
2412	-0.068024977527494 
2413	 4.88922461964425E-02 
2414	 0.111676952315478 
2415	 3.08480102211482E-02 
2416	 0.022324012246414 
2417	 1.12031999071842E-02 
2418	 4.89891355209333E-03 
2419	 1.98934500453357E-02 
2420	-1.59543553472057E-02 
2421	-7.33778711607438E-03 
2422	-2.12346679913796E-02 
2423	-6.86397225890684E-02 
2424	-7.00242964894167E-02 
2425	-0.165859191999453 
2426	-0.256724710240106 
2427	-0.220031783403801 
2428	-0.166001962415201 
2429	-6.68228086189847E-02 
2430	 6.14288728636202E-03 
2431	 1.51578862769558E-02 
2432	 3.99913724477148E-02 
2433	 6.26378028197458E-02 
2434	 5.74373993253408E-02 
2435	 7.15257125624418E-02 
2436	 1.17725818789623E-02 
2437	-0.140081782962651 
2438	-0.131299379613954 
2439	-0.117136116147172 
2440	-0.145531562765333 
2441	 8.12927055808436E-04 
2442	-2.74378062856574E-02 
2443	-0.123500456388603 
2444	-0.137816821033949 
2445	-0.140432036243359 
2446	-0.18074007902278 
2447	 0.126746619962508 
2448	 0.208187220255679 
2449	-3.73009202425612E-02 
2450	 1.33458809007494E-02 
2451	 3.68185595338941E-02 
2452	 0.221015590045466 
2453	 0.338914874236829 
2454	 0.17842740418207 
2455	 0.220627710940655 
2456	 0.234036283520905 
2457	 0.27747948057124 
2458	 0.30277521766588 
2459	 0.222447828928004 
2460	 7.97109603013674E-02 
2461	-0.136663608776023 
2462	-0.250801387400046 
2463	-0.509258385973948 
2464	-0.543876397496928 
2465	-1.87777551915758 
2466	-1.32667458474551 
2467	-0.814253073689186 
2468	-0.808518989716589 
2469	-0.55872116388082 
2470	-0.369109939187188 
2471	 1.12867766746586 
2472	 5.02828265072225 
2473	 2.95879564115557 
2474	 1.84536552289251 
2475	 1.56891758843808 
2476	-0.451384911622625 
2477	-0.159173599181387 
2478	 0.276104253424238 
2479	 0.795995036992032 
2480	 1.35521395798524 
2481	 0.927956075295776 
2482	 5.0913514552275 
2483	 2.61329140440698 
2484	-19.4396172252964 
2485	-0.157125298208885 
2486	 2.23679474454472E-02 
2487	 0.13300471666783 
2488	 0.541850341503829 
2489	 0.682627001452584 
2490	 0.555169185761274 
2491	 0.198396027695574 
2492	-8.82964132747496E-02 
2493	-3.67993052208481 
2494	 1.92222105522397 
2495	-0.684912854696992 
2496	 1.02701538551297 
2497	 2.16630018302042 
2498	 0.971833695728499 
2499	-69.5560153478638 
2500	 0.286303278732517 
