Wavelength	rt0708c00002.asd
350	 4.74406654843317E-02 
351	 4.65510415490179E-02 
352	 4.73282700117237E-02 
353	 4.80938023048597E-02 
354	 4.76948498504116E-02 
355	 4.71466290811373E-02 
356	 4.74646708974683E-02 
357	 4.72852495396526E-02 
358	 4.56779881545908E-02 
359	 4.68838613778904E-02 
360	 4.76075853421489E-02 
361	 4.72163275333592E-02 
362	 4.70538342729568E-02 
363	 4.71846015016261E-02 
364	 4.70397143049131E-02 
365	 4.66317623305769E-02 
366	 4.69665786606007E-02 
367	 4.72725271920702E-02 
368	 0.047191714742832 
369	 4.67408728606948E-02 
370	 4.67648456625249E-02 
371	 4.69888421416623E-02 
372	 4.71937288706481E-02 
373	 0.047217940121486 
374	 4.70607787813447E-02 
375	 4.71900275615117E-02 
376	 4.75282280791948E-02 
377	 4.72307467064122E-02 
378	 4.70654863292498E-02 
379	 4.71077997072416E-02 
380	 4.73111499048953E-02 
381	 4.78352502446411E-02 
382	 4.81627776456752E-02 
383	 4.81666490220875E-02 
384	 0.047984027069785 
385	 4.79838762071683E-02 
386	 4.77584987993912E-02 
387	 4.75502884782031E-02 
388	 4.82894296104037E-02 
389	 4.79476020835114E-02 
390	 4.77627762899167E-02 
391	 4.85072803568479E-02 
392	 4.82791721711546E-02 
393	 4.81061109705999E-02 
394	 4.83739291650555E-02 
395	 4.89479022308206E-02 
396	 4.84539865322924E-02 
397	 0.047915800387583 
398	 4.79105481761144E-02 
399	 4.84308107053499E-02 
400	 4.81336108244492E-02 
401	 4.80437967423445E-02 
402	 0.048657710440839 
403	 4.84707669694528E-02 
404	 4.85083503218185E-02 
405	 4.86309122938439E-02 
406	 4.84350221194139E-02 
407	 4.85750015470108E-02 
408	 4.86177685076301E-02 
409	 0.048578760629807 
410	 4.89275846541545E-02 
411	 4.88910020225306E-02 
412	 4.88215879435445E-02 
413	 4.89769047561042E-02 
414	 4.88631502194126E-02 
415	 4.90071035489098E-02 
416	 4.91967103642777E-02 
417	 4.90557546630519E-02 
418	 4.91620882880565E-02 
419	 4.92664334896897E-02 
420	 4.93046911283078E-02 
421	 4.94651253784684E-02 
422	 4.95914394459039E-02 
423	 4.96676401028174E-02 
424	 4.97363805775973E-02 
425	 4.99033495270026E-02 
426	 5.02387043301994E-02 
427	 5.04742236202838E-02 
428	 5.03230203647411E-02 
429	 5.06114641840912E-02 
430	 5.08135461469699E-02 
431	 0.050858698987335 
432	 5.13414833723069E-02 
433	 5.13845660869471E-02 
434	 5.12735552479666E-02 
435	 5.14163111224965E-02 
436	 5.18038224151621E-02 
437	 5.21523219852142E-02 
438	 5.23055048963113E-02 
439	 5.22520076414534E-02 
440	 5.24851454152274E-02 
441	 5.27211287077284E-02 
442	 5.28301055866297E-02 
443	 5.30373188411582E-02 
444	 5.32014381964556E-02 
445	 5.33490758273817E-02 
446	 5.35298604775623E-02 
447	 5.37115129100769E-02 
448	 5.38638692736374E-02 
449	 5.39529788140854E-02 
450	 5.39630456336013E-02 
451	 5.41160125317361E-02 
452	 5.42508558512168E-02 
453	 5.42788671340102E-02 
454	 5.43731368928574E-02 
455	 5.44728515279154E-02 
456	 5.44986775736074E-02 
457	 5.44296926521794E-02 
458	 5.45968168715941E-02 
459	 5.47211316644179E-02 
460	 5.47269727337735E-02 
461	 0.054770394795928 
462	 5.48139639769704E-02 
463	 5.48547083076978E-02 
464	 5.48921011944744E-02 
465	 5.49156030007718E-02 
466	 5.49797978870606E-02 
467	 5.50629644449768E-02 
468	 5.51041133213184E-02 
469	 5.50484297718202E-02 
470	 5.51530201601915E-02 
471	 5.53957889184256E-02 
472	 0.055354927457992 
473	 5.54051232093643E-02 
474	 0.055518422327754 
475	 5.55832312591489E-02 
476	 0.05555783504112 
477	 5.56867336208869E-02 
478	 5.58808196585426E-02 
479	 5.58571477703212E-02 
480	 0.055913341207357 
481	 5.60556120195991E-02 
482	 5.62275450242321E-02 
483	 5.63190294183498E-02 
484	 5.65398156564215E-02 
485	 5.67585521501241E-02 
486	 5.68030600485694E-02 
487	 5.70169486509448E-02 
488	 5.71123953949923E-02 
489	 5.71215006352591E-02 
490	 5.73900987490867E-02 
491	 5.75482719047564E-02 
492	 5.77176944313433E-02 
493	 5.80061051317884E-02 
494	 5.82291419606012E-02 
495	 5.84165539123854E-02 
496	 5.86416765479985E-02 
497	 5.89702507824166E-02 
498	 5.91630949019486E-02 
499	 5.94289098262599E-02 
500	 5.97935027931679E-02 
501	 5.99327702948328E-02 
502	 6.01856726571234E-02 
503	 6.05294148086349E-02 
504	 6.08436994781267E-02 
505	 6.10618593333935E-02 
506	 6.12923419126336E-02 
507	 6.15840300438017E-02 
508	 6.19226497122165E-02 
509	 0.062167093786214 
510	 6.24024697413897E-02 
511	 6.27085076849338E-02 
512	 6.30717694573917E-02 
513	 6.34311635062444E-02 
514	 6.37872562886262E-02 
515	 6.41641602268547E-02 
516	 6.45613510910474E-02 
517	 6.48866806934809E-02 
518	 6.51753078754036E-02 
519	 6.56224334801113E-02 
520	 6.59862481762036E-02 
521	 6.63430665551895E-02 
522	 6.67753764704389E-02 
523	 0.067093212594582 
524	 6.75769078417589E-02 
525	 6.81539998133286E-02 
526	 6.85305186270395E-02 
527	 6.89579128317815E-02 
528	 6.94115923219001E-02 
529	 0.069864207507151 
530	 7.03716377735708E-02 
531	 7.08410155421605E-02 
532	 7.12880201186173E-02 
533	 7.17550797889021E-02 
534	 7.21727219951847E-02 
535	 7.26791199983792E-02 
536	 7.32557641494702E-02 
537	 7.36968229257962E-02 
538	 7.42186409110379E-02 
539	 7.48110094681015E-02 
540	 0.075387358760904 
541	 7.57883979546694E-02 
542	 7.62915326002691E-02 
543	 7.68615440551901E-02 
544	 7.72897253682956E-02 
545	 7.77567546805489E-02 
546	 7.82180998482346E-02 
547	 7.86429536064296E-02 
548	 7.90758481204373E-02 
549	 7.96019297096933E-02 
550	 8.00937546540359E-02 
551	 8.04245773423771E-02 
552	 8.09379840943219E-02 
553	 8.14412318467295E-02 
554	 8.18600099156887E-02 
555	 8.22848658668934E-02 
556	 8.27135148769177E-02 
557	 8.31451312238502E-02 
558	 8.35716092424217E-02 
559	 8.39903822344435E-02 
560	 8.43661764994356E-02 
561	 8.46704944223762E-02 
562	 8.49052967681912E-02 
563	 8.53051148557477E-02 
564	 0.085668377103501 
565	 8.58891001630229E-02 
566	 8.61609546620737E-02 
567	 8.63924823798468E-02 
568	 8.66047857485586E-02 
569	 8.68443336353999E-02 
570	 8.70859770358917E-02 
571	 8.72618970606989E-02 
572	 8.74047089202078E-02 
573	 8.76511385721172E-02 
574	 8.78833666282218E-02 
575	 8.79592846340127E-02 
576	 8.78753349172806E-02 
577	 8.80980270185201E-02 
578	 8.81586777154748E-02 
579	 8.80589116635955E-02 
580	 8.80632684720219E-02 
581	 8.78868906859408E-02 
582	 8.77659634091285E-02 
583	 8.77650317561708E-02 
584	 8.75159718278386E-02 
585	 0.087335313169368 
586	 8.71702825824989E-02 
587	 8.68700746558162E-02 
588	 8.65334981275114E-02 
589	 0.086255057351727 
590	 8.60167494997852E-02 
591	 8.56671276499273E-02 
592	 8.51946480187605E-02 
593	 8.47020085881093E-02 
594	 8.42539859642571E-02 
595	 8.36974732799663E-02 
596	 8.30087957293058E-02 
597	 8.22508228740626E-02 
598	 8.15331042498649E-02 
599	 0.080797688409019 
600	 8.01032635268323E-02 
601	 7.95232758161582E-02 
602	 7.91373267833715E-02 
603	 7.87790772834985E-02 
604	 7.84922543641973E-02 
605	 7.83697295391422E-02 
606	 7.83787704491957E-02 
607	 7.83272375108284E-02 
608	 7.81990743023273E-02 
609	 7.81621001762419E-02 
610	 7.80682846441277E-02 
611	 7.79819058157856E-02 
612	 7.79567995378229E-02 
613	 7.78904060023958E-02 
614	 7.77939220577331E-02 
615	 0.077739206584382 
616	 7.77950235979924E-02 
617	 7.76700286583053E-02 
618	 7.75005653231421E-02 
619	 7.73874069797655E-02 
620	 7.73010268535076E-02 
621	 7.72118479471606E-02 
622	 7.71354641239497E-02 
623	 7.70934343785523E-02 
624	 7.70543583119683E-02 
625	 7.70281864730174E-02 
626	 7.69808568989907E-02 
627	 7.68451467290994E-02 
628	 0.076773383185616 
629	 7.66967728743867E-02 
630	 7.65681396519424E-02 
631	 7.65123339109222E-02 
632	 7.65093236754764E-02 
633	 7.64783691953193E-02 
634	 7.63297785187768E-02 
635	 7.61761805128997E-02 
636	 7.59859699603948E-02 
637	 7.58025251286616E-02 
638	 0.075794406093084 
639	 7.57970424060829E-02 
640	 7.56932226805611E-02 
641	 7.54467973904954E-02 
642	 7.52625789081617E-02 
643	 7.50848254822223E-02 
644	 7.48904408980628E-02 
645	 7.46927742542069E-02 
646	 7.45740934266137E-02 
647	 7.43715369325016E-02 
648	 7.40419380940391E-02 
649	 7.39181181548184E-02 
650	 7.37637065876996E-02 
651	 7.35052598043492E-02 
652	 7.31456192209638E-02 
653	 7.27022377426762E-02 
654	 7.22461037143687E-02 
655	 7.17835470127031E-02 
656	 7.12876204107156E-02 
657	 7.07271534315799E-02 
658	 7.02165041016475E-02 
659	 6.98422275544114E-02 
660	 6.96064385537379E-02 
661	 6.93349616805681E-02 
662	 6.90248139498689E-02 
663	 6.87813549514924E-02 
664	 6.85387607190359E-02 
665	 6.83718400689649E-02 
666	 0.068255433125473 
667	 6.79527235042913E-02 
668	 6.77743160009214E-02 
669	 6.77248224437707E-02 
670	 6.76858667194206E-02 
671	 6.74802491899803E-02 
672	 6.73530203945863E-02 
673	 6.73322519406372E-02 
674	 6.72358054668454E-02 
675	 6.72388143347221E-02 
676	 6.72247468570186E-02 
677	 6.71233847190925E-02 
678	 0.067116533936312 
679	 6.71100718661417E-02 
680	 6.70984073569403E-02 
681	 6.71077142870539E-02 
682	 0.067095552748293 
683	 6.71679723186358E-02 
684	 6.72752488427076E-02 
685	 6.71407529318536E-02 
686	 6.73668967167596E-02 
687	 6.75419608308247E-02 
688	 6.72590323368987E-02 
689	 6.73237797160578E-02 
690	 6.72577983745897E-02 
691	 6.70679367655411E-02 
692	 6.70163251217189E-02 
693	 6.68346461756107E-02 
694	 6.65930222483517E-02 
695	 6.63250277136357E-02 
696	 6.58905414425592E-02 
697	 6.55207086387107E-02 
698	 6.51251292181689E-02 
699	 6.45800680788194E-02 
700	 6.39953421135684E-02 
701	 6.34124258389788E-02 
702	 0.06277755395128 
703	 6.19688051651026E-02 
704	 6.12460498191303E-02 
705	 6.05465111823837E-02 
706	 5.97692556751418E-02 
707	 5.87850615464851E-02 
708	 5.78097338428205E-02 
709	 5.68056145260862E-02 
710	 5.56641272703501E-02 
711	 5.44597268917079E-02 
712	 5.32926699288116E-02 
713	 5.21278997451819E-02 
714	 5.07595341806836E-02 
715	 4.94044688460724E-02 
716	 4.80977618404918E-02 
717	 4.68719484177583E-02 
718	 0.045320453633174 
719	 4.38492709658569E-02 
720	 0.042662825463661 
721	 4.15693736520932E-02 
722	 4.07198131791599E-02 
723	 3.94935845990801E-02 
724	 3.79665030382279E-02 
725	 3.69354594468293E-02 
726	 3.57279516118485E-02 
727	 3.44067380960093E-02 
728	 3.31414915935093E-02 
729	 3.18507163995178E-02 
730	 3.06027364748108E-02 
731	 0.029470649991127 
732	 2.84644788755936E-02 
733	 2.76847774118975E-02 
734	 2.70749053203467E-02 
735	 2.65551316014986E-02 
736	 0.026009519864816 
737	 2.57085889384715E-02 
738	 2.55143754501927E-02 
739	 2.52919465219634E-02 
740	 2.52306322236885E-02 
741	 2.50808802572095E-02 
742	 2.49027494335737E-02 
743	 2.48790519137466E-02 
744	 2.47487878350404E-02 
745	 2.46606724366181E-02 
746	 2.46662668450233E-02 
747	 2.46331988680531E-02 
748	 2.45644820135461E-02 
749	 2.45614653139682E-02 
750	 0.024647952493717 
751	 2.44970932740004E-02 
752	 0.024439664421407 
753	 2.44670204833842E-02 
754	 2.43951175331571E-02 
755	 2.42941013026644E-02 
756	 2.42499858474234E-02 
757	 2.42680532911376E-02 
758	 2.42321001799362E-02 
759	 2.43294525393458E-02 
760	 2.46412823130913E-02 
761	 2.48323822913409E-02 
762	 2.46668065212593E-02 
763	 0.02431771347274 
764	 2.42389894010853E-02 
765	 2.46054212304295E-02 
766	 2.44674249525391E-02 
767	 2.42582142419057E-02 
768	 2.42057957571877E-02 
769	 2.43363920292576E-02 
770	 2.43452655747707E-02 
771	 2.43408317747784E-02 
772	 2.44444177232972E-02 
773	 2.45801466252028E-02 
774	 2.46483159807689E-02 
775	 2.46720608749483E-02 
776	 2.47281286026916E-02 
777	 2.48257602488353E-02 
778	 2.48346854281688E-02 
779	 2.48181675177157E-02 
780	 2.50195010898117E-02 
781	 2.51239361442077E-02 
782	 2.52274466074964E-02 
783	 2.53982358318566E-02 
784	 0.025463883541496 
785	 2.55886708683196E-02 
786	 2.57613011135761E-02 
787	 2.59032548771136E-02 
788	 2.59394932764158E-02 
789	 2.60860655782163E-02 
790	 2.63344677643662E-02 
791	 2.64974931227523E-02 
792	 2.66794060201117E-02 
793	 2.68239289246501E-02 
794	 2.69048327912848E-02 
795	 2.69685557296358E-02 
796	 2.71457858767157E-02 
797	 2.73963363954715E-02 
798	 2.76032223736434E-02 
799	 2.75363803713484E-02 
800	 2.76374501649983E-02 
801	 2.78408576569784E-02 
802	 2.78471964434688E-02 
803	 2.80058905906265E-02 
804	 2.80962915220641E-02 
805	 2.80618756261153E-02 
806	 2.80711777153525E-02 
807	 2.80016029582758E-02 
808	 0.028020562870759 
809	 0.028194541312125 
810	 2.82170738615101E-02 
811	 2.79336684525305E-02 
812	 2.75969284610026E-02 
813	 2.75743462758004E-02 
814	 2.75475531673886E-02 
815	 2.74087083290521E-02 
816	 2.70467611810781E-02 
817	 2.64742424833494E-02 
818	 2.65316667869324E-02 
819	 2.63840099216748E-02 
820	 2.58277189781921E-02 
821	 2.56298749827953E-02 
822	 2.49378962582397E-02 
823	 2.43549506421512E-02 
824	 2.42184927429108E-02 
825	 2.33627692424305E-02 
826	 0.02260178027657 
827	 2.20019414352795E-02 
828	 2.14264929114519E-02 
829	 2.10186981010294E-02 
830	 2.05660473210222E-02 
831	 2.01505284591356E-02 
832	 2.00100776497685E-02 
833	 1.94038309457377E-02 
834	 1.91531813177259E-02 
835	 1.93651245994002E-02 
836	 1.90282619048804E-02 
837	 1.87993647960586E-02 
838	 1.85818348632201E-02 
839	 1.83131736500727E-02 
840	 1.84455258902863E-02 
841	 1.85381844582558E-02 
842	 1.83960202483706E-02 
843	 1.80421584942759E-02 
844	 1.79897346489919E-02 
845	 1.79274227682411E-02 
846	 1.77772410258263E-02 
847	 1.76669050363738E-02 
848	 1.78394879548694E-02 
849	 1.78660538260834E-02 
850	 1.75865662428477E-02 
851	 1.72942413178174E-02 
852	 1.73790001058853E-02 
853	 1.74619967042924E-02 
854	 1.72951078899463E-02 
855	 1.72861818992219E-02 
856	 0.017226962365161 
857	 1.72176291074829E-02 
858	 1.72957926212595E-02 
859	 1.69618099106756E-02 
860	 1.68561740263619E-02 
861	 1.69962564301233E-02 
862	 1.70766596626145E-02 
863	 1.70810129393673E-02 
864	 1.68993180530205E-02 
865	 1.67353853523495E-02 
866	 1.69724233323068E-02 
867	 1.68066949077917E-02 
868	 0.016621821116335 
869	 1.65171141462295E-02 
870	 1.60396148560245E-02 
871	 0.016141329143652 
872	 1.63544934333283E-02 
873	 1.62124805220086E-02 
874	 1.59506515304558E-02 
875	 1.59942960700442E-02 
876	 1.60928385337682E-02 
877	 1.59454840648658E-02 
878	 0.015939168293083 
879	 1.58898825618828E-02 
880	 1.58724268763709E-02 
881	 1.59607307551628E-02 
882	 0.015510351414611 
883	 0.015315831320057 
884	 1.54421976038275E-02 
885	 1.53753975481906E-02 
886	 1.52197336132621E-02 
887	 1.51679178975605E-02 
888	 0.015287282755749 
889	 1.54619436509225E-02 
890	 1.52658693450479E-02 
891	 1.50869683670541E-02 
892	 1.50796268051234E-02 
893	 1.46777941178854E-02 
894	 1.49361113677557E-02 
895	 1.53636218594527E-02 
896	 1.53652984673049E-02 
897	 1.56420196199815E-02 
898	 1.52310345971931E-02 
899	 0.01463100529033 
900	 1.46741236779482E-02 
901	 1.54930830009265E-02 
902	 1.48835956903587E-02 
903	 1.38224553472559E-02 
904	 1.40613267170853E-02 
905	 1.46111624395856E-02 
906	 1.46671615252662E-02 
907	 1.43323327903321E-02 
908	 1.42957418982724E-02 
909	 1.38947333720977E-02 
910	 1.38127067226688E-02 
911	 1.40122481504238E-02 
912	 1.38009352545968E-02 
913	 1.37256857740138E-02 
914	 1.37890210881279E-02 
915	 1.39086387072377E-02 
916	 1.39831629948685E-02 
917	 1.39119128492562E-02 
918	 1.37370611779536E-02 
919	 1.35337543549621E-02 
920	 1.33812718770099E-02 
921	 1.35196009994187E-02 
922	 1.35404993966145E-02 
923	 1.32088782077379E-02 
924	 1.29093073876495E-02 
925	 1.30497429493864E-02 
926	 0.013225255269208 
927	 1.30269934517574E-02 
928	 1.32243908741887E-02 
929	 1.18396216179365E-02 
930	 1.12855541072619E-02 
931	 1.52010500991314E-02 
932	 1.47430375148379E-02 
933	 1.35290151688689E-02 
934	 1.23871898375569E-02 
935	 1.11939277840846E-02 
936	 1.30866737270986E-02 
937	 1.15862338305732E-02 
938	 1.17687191610652E-02 
939	 0.0173133816695 
940	 1.34990763343456E-02 
941	 8.83145843331592E-03 
942	 8.9977329701271E-03 
943	 1.53265797806573E-02 
944	 1.41264387269908E-02 
945	 1.01720648296906E-02 
946	 7.87185224897379E-03 
947	 9.28486079979586E-03 
948	 1.12702102836715E-02 
949	 8.92359613157104E-03 
950	 7.16429332653151E-03 
951	 1.31892585089703E-02 
952	 8.85309909803106E-03 
953	 1.01986362103249E-02 
954	 1.53412988628616E-02 
955	 1.14336324655457E-02 
956	 8.96257053251835E-03 
957	 1.06644077028213E-02 
958	 1.25760493797089E-02 
959	 9.12733412293223E-03 
960	 1.23245452711754E-02 
961	 1.20751009128465E-02 
962	 9.54317844354568E-03 
963	 1.27381897821202E-02 
964	 9.77169194400995E-03 
965	 8.29645160649461E-03 
966	 1.04112658739765E-02 
967	 1.26996070731459E-02 
968	 0.011853281493538 
969	 1.10251509990174E-02 
970	 1.08831909149162E-02 
971	 9.70557923807232E-03 
972	 9.20853893605689E-03 
973	 1.01045227489827E-02 
974	 1.15155929029734E-02 
975	 1.13813732020449E-02 
976	 9.69871235121475E-03 
977	 9.19290693434227E-03 
978	 1.04728144670688E-02 
979	 1.17721736136685E-02 
980	 1.08443579252879E-02 
981	 9.68925310621489E-03 
982	 9.92627537039677E-03 
983	 1.17697768170527E-02 
984	 1.13767377248372E-02 
985	 1.15580701559508E-02 
986	 1.13800293022366E-02 
987	 7.9496046414853E-03 
988	 1.00026693626624E-02 
989	 1.13343109261039E-02 
990	 1.03550075250379E-02 
991	 9.90831855227281E-03 
992	 9.56148031509093E-03 
993	 9.68622205929897E-03 
994	 1.03568510468669E-02 
995	 1.13861194611545E-02 
996	 1.30540700523915E-02 
997	 1.12565486885223E-02 
998	 8.79346633813348E-03 
999	 1.10964836545453E-02 
1000	 1.20179322024917E-02 
1001	 8.01504750256762E-03 
1002	 8.22341595619139E-03 
1003	 8.43867123915107E-03 
1004	 8.98910589559032E-03 
1005	 9.07671210927436E-03 
1006	 8.79077862971177E-03 
1007	 8.7512486189403E-03 
1008	 8.55956228027774E-03 
1009	 8.24352435987991E-03 
1010	 8.2972116812625E-03 
1011	 8.35948252743567E-03 
1012	 8.55811584376454E-03 
1013	 8.62611716855203E-03 
1014	 8.69113321613496E-03 
1015	 8.76880932573306E-03 
1016	 8.88036071433266E-03 
1017	 8.97357298701228E-03 
1018	 9.0122668242656E-03 
1019	 9.15968970352122E-03 
1020	 9.03282290396161E-03 
1021	 8.53430866589147E-03 
1022	 8.39652563919019E-03 
1023	 8.09934402010853E-03 
1024	 8.19601120733409E-03 
1025	 8.53244630226793E-03 
1026	 8.75179540649212E-03 
1027	 8.91549162593212E-03 
1028	 9.08374581447075E-03 
1029	 9.10032405741226E-03 
1030	 8.9759255637889E-03 
1031	 8.94922410750076E-03 
1032	 8.84777611967496E-03 
1033	 8.89247158443016E-03 
1034	 9.15614500810035E-03 
1035	 9.18481050310235E-03 
1036	 9.09256057511878E-03 
1037	 9.05243010208257E-03 
1038	 8.85264836549579E-03 
1039	 8.80770629223831E-03 
1040	 8.76705203045343E-03 
1041	 8.79248093435721E-03 
1042	 8.82483673127989E-03 
1043	 8.86092446607464E-03 
1044	 8.87110820804694E-03 
1045	 8.88606413115395E-03 
1046	 8.9977218376488E-03 
1047	 9.19068355113099E-03 
1048	 9.21685390254592E-03 
1049	 9.2602425265547E-03 
1050	 9.27394673337894E-03 
1051	 9.12804602816383E-03 
1052	 9.04274374049476E-03 
1053	 9.00114025574561E-03 
1054	 8.96775458752514E-03 
1055	 8.85499123825045E-03 
1056	 8.82096951820457E-03 
1057	 8.84232205649496E-03 
1058	 8.9487668667611E-03 
1059	 9.04996147381307E-03 
1060	 9.2340278425107E-03 
1061	 9.31035331955728E-03 
1062	 9.41391590260579E-03 
1063	 9.39934175568674E-03 
1064	 9.20799253600828E-03 
1065	 9.16820457299968E-03 
1066	 9.09897649517267E-03 
1067	 9.10249549774341E-03 
1068	 9.3234393640481E-03 
1069	 9.34235039660348E-03 
1070	 9.2874843500742E-03 
1071	 9.22678552945863E-03 
1072	 9.12524184529197E-03 
1073	 8.8327448391614E-03 
1074	 8.7559905737849E-03 
1075	 8.64219964227601E-03 
1076	 8.83104778042995E-03 
1077	 9.32809700708467E-03 
1078	 9.52377984927935E-03 
1079	 9.98029564634552E-03 
1080	 9.94905471781749E-03 
1081	 9.27588701942308E-03 
1082	 9.12718955218112E-03 
1083	 9.10772400439841E-03 
1084	 8.98552093101469E-03 
1085	 9.00736263108888E-03 
1086	 9.01551013724989E-03 
1087	 8.90598177461657E-03 
1088	 8.7949753759378E-03 
1089	 8.6912278742623E-03 
1090	 8.85643781520368E-03 
1091	 8.69719550522679E-03 
1092	 8.0982660477665E-03 
1093	 8.20053012543459E-03 
1094	 8.67316311462286E-03 
1095	 8.83998334544858E-03 
1096	 9.52519176291352E-03 
1097	 9.5745542563965E-03 
1098	 8.71373455718451E-03 
1099	 8.52532293325341E-03 
1100	 8.66957480195454E-03 
1101	 8.51882925821977E-03 
1102	 8.29102810983165E-03 
1103	 8.31859841132523E-03 
1104	 8.2488508330306E-03 
1105	 8.28244274742295E-03 
1106	 8.78758559746335E-03 
1107	 9.22925210472261E-03 
1108	 8.74931526981584E-03 
1109	 7.69177942996259E-03 
1110	 7.63835819213789E-03 
1111	 7.92821036825698E-03 
1112	 7.96808016581479E-03 
1113	 8.93838790363792E-03 
1114	 9.48493737296794E-03 
1115	 9.02393940529279E-03 
1116	 8.7531293052474E-03 
1117	 9.1730247294209E-03 
1118	 9.46962221429838E-03 
1119	 8.00183130681734E-03 
1120	 8.50152117559876E-03 
1121	 1.28240894137051E-02 
1122	 1.44613414775038E-02 
1123	 1.29669560630121E-02 
1124	 0.014555768473813 
1125	 1.23201480168765E-02 
1126	 9.21114136819823E-03 
1127	 0.010294001802887 
1128	 0.010202026130361 
1129	 9.6683465829444E-03 
1130	 7.8151778929754E-03 
1131	 8.04838850231461E-03 
1132	 9.83216424794164E-03 
1133	 9.91914465385432E-03 
1134	 9.78984544088981E-03 
1135	 9.6298756432064E-03 
1136	 8.70902640291372E-03 
1137	 8.29221658230362E-03 
1138	 8.02358864357932E-03 
1139	 8.1481897348174E-03 
1140	 8.91162268302871E-03 
1141	 8.21058037458391E-03 
1142	 7.04016812606666E-03 
1143	 8.31094643250331E-03 
1144	 8.02702455057561E-03 
1145	 6.54034813973745E-03 
1146	 8.03492684237713E-03 
1147	 8.93809389791499E-03 
1148	 8.13151268926566E-03 
1149	 8.11134747212511E-03 
1150	 8.45578764348841E-03 
1151	 8.24615414453545E-03 
1152	 8.04263890961881E-03 
1153	 8.27170937947852E-03 
1154	 8.52279607641247E-03 
1155	 8.69747815763413E-03 
1156	 8.16725945832716E-03 
1157	 7.62614616096899E-03 
1158	 8.08144085411637E-03 
1159	 8.15253925207812E-03 
1160	 7.59295741631701E-03 
1161	 7.33700962874472E-03 
1162	 7.69786430127128E-03 
1163	 7.93552505399642E-03 
1164	 7.67171329489332E-03 
1165	 8.02477944182448E-03 
1166	 8.35811955094259E-03 
1167	 7.38721050322494E-03 
1168	 6.83880162412361E-03 
1169	 7.40339869486279E-03 
1170	 7.40966712615861E-03 
1171	 7.27647113497881E-03 
1172	 7.68765433057361E-03 
1173	 7.82535727641227E-03 
1174	 7.36623694412158E-03 
1175	 6.95586494778669E-03 
1176	 7.53569140650548E-03 
1177	 7.88214320727597E-03 
1178	 7.57748739818058E-03 
1179	 7.52556381822778E-03 
1180	 7.53921041231467E-03 
1181	 7.19367211200529E-03 
1182	 7.12346272760618E-03 
1183	 7.36097661817264E-03 
1184	 7.33617146085761E-03 
1185	 7.35241394556502E-03 
1186	 7.58530882764478E-03 
1187	 7.61752205774327E-03 
1188	 7.5769943245191E-03 
1189	 7.3751176160632E-03 
1190	 7.29782074971431E-03 
1191	 7.46532657521079E-03 
1192	 7.38652738552035E-03 
1193	 7.15808115814902E-03 
1194	 7.19799090523873E-03 
1195	 7.29294714796279E-03 
1196	 7.14521289406306E-03 
1197	 7.26935704695669E-03 
1198	 0.007461239317071 
1199	 7.45069755498661E-03 
1200	 7.2369434179344E-03 
1201	 7.11023933355577E-03 
1202	 7.21079907783116E-03 
1203	 7.09785907936155E-03 
1204	 6.99454981572263E-03 
1205	 7.13261668265752E-03 
1206	 7.00073392064937E-03 
1207	 6.89072466467389E-03 
1208	 7.14295980641493E-03 
1209	 7.15247562792413E-03 
1210	 7.10682282873352E-03 
1211	 7.25357172971837E-03 
1212	 7.2464551910227E-03 
1213	 7.23402301071229E-03 
1214	 7.18509569699405E-03 
1215	 7.11492833681334E-03 
1216	 6.98970041540121E-03 
1217	 7.05474372153424E-03 
1218	 7.15090800557282E-03 
1219	 7.21004933618138E-03 
1220	 7.18969930607725E-03 
1221	 7.09466419312758E-03 
1222	 7.00689849368842E-03 
1223	 6.87959387190766E-03 
1224	 6.9768496302115E-03 
1225	 7.07937353723525E-03 
1226	 6.79119917032768E-03 
1227	 6.6984811895981E-03 
1228	 7.01507579124899E-03 
1229	 7.09889358630316E-03 
1230	 7.04407494898678E-03 
1231	 7.21056337001949E-03 
1232	 7.02198445815251E-03 
1233	 6.73922996426597E-03 
1234	 7.09219021791697E-03 
1235	 7.20042370483141E-03 
1236	 7.22951618966389E-03 
1237	 7.18787660791745E-03 
1238	 7.15154661828381E-03 
1239	 6.96314713224587E-03 
1240	 6.69640472008937E-03 
1241	 6.88911336024695E-03 
1242	 7.1221110715013E-03 
1243	 7.07495312707477E-03 
1244	 7.16408305866837E-03 
1245	 7.19165748540985E-03 
1246	 7.03597902879787E-03 
1247	 7.06814674751437E-03 
1248	 7.12314759375115E-03 
1249	 6.95931114181472E-03 
1250	 6.88561964964399E-03 
1251	 7.00890679285172E-03 
1252	 6.93685267738873E-03 
1253	 6.8229816117637E-03 
1254	 6.89235740339936E-03 
1255	 6.75279596426753E-03 
1256	 6.76859701415993E-03 
1257	 7.10050917921669E-03 
1258	 7.05818119982625E-03 
1259	 6.64855231281962E-03 
1260	 6.70559751508682E-03 
1261	 6.90584927356231E-03 
1262	 6.86888961074503E-03 
1263	 6.99693545558789E-03 
1264	 7.16248249555963E-03 
1265	 6.95007440917338E-03 
1266	 6.60459877368709E-03 
1267	 6.56531230740718E-03 
1268	 6.70948443478747E-03 
1269	 6.7758978514792E-03 
1270	 6.89939265808938E-03 
1271	 7.18324098565702E-03 
1272	 7.23472376710708E-03 
1273	 7.0822823724084E-03 
1274	 7.06370507119549E-03 
1275	 6.89386572822288E-03 
1276	 6.58681067071432E-03 
1277	 6.54227253771773E-03 
1278	 6.66084597174238E-03 
1279	 6.84830940634026E-03 
1280	 6.98418014420174E-03 
1281	 6.94431151774132E-03 
1282	 6.63091063423708E-03 
1283	 6.62469571682272E-03 
1284	 6.62040657124859E-03 
1285	 6.66081325321329E-03 
1286	 6.9997038045735E-03 
1287	 7.06024678530314E-03 
1288	 6.92200810812798E-03 
1289	 6.87086132120238E-03 
1290	 6.79572825619966E-03 
1291	 6.73259220921097E-03 
1292	 6.94399095746678E-03 
1293	 6.79429685129459E-03 
1294	 6.44439246042322E-03 
1295	 6.5659804122569E-03 
1296	 6.44938824560535E-03 
1297	 6.17482152622603E-03 
1298	 6.30584835601375E-03 
1299	 6.33085364314852E-03 
1300	 6.43404017794031E-03 
1301	 6.78759726527681E-03 
1302	 6.77143443501955E-03 
1303	 6.59682934372852E-03 
1304	 6.56595010094746E-03 
1305	 6.41554525115078E-03 
1306	 6.39380275040636E-03 
1307	 6.9595864974029E-03 
1308	 7.10191239472891E-03 
1309	 6.82188266523969E-03 
1310	 6.71389919938121E-03 
1311	 6.65972536910819E-03 
1312	 6.5807053191429E-03 
1313	 6.36386609696717E-03 
1314	 6.36690441580686E-03 
1315	 6.67540109651989E-03 
1316	 6.74611833567553E-03 
1317	 6.72211190220219E-03 
1318	 6.75104645284029E-03 
1319	 6.69451263606089E-03 
1320	 6.67296173881536E-03 
1321	 6.76655079309167E-03 
1322	 6.70125174388618E-03 
1323	 6.75403124238451E-03 
1324	 6.74471671713526E-03 
1325	 6.25325166407925E-03 
1326	 6.5559794213249E-03 
1327	 7.31993875465975E-03 
1328	 7.06878704160817E-03 
1329	 6.72199945892734E-03 
1330	 6.9077183993407E-03 
1331	 6.81817679155604E-03 
1332	 6.58158478115174E-03 
1333	 6.81420478968745E-03 
1334	 7.19814974848404E-03 
1335	 7.39361046536892E-03 
1336	 7.02522772495348E-03 
1337	 6.84456014164768E-03 
1338	 7.08401030944418E-03 
1339	 7.16123486652413E-03 
1340	 0.006814777169081 
1341	 6.81218704072226E-03 
1342	 7.58022756600928E-03 
1343	 6.70218384545057E-03 
1344	 3.11074120727164E-03 
1345	 2.71700956047005E-03 
1346	 4.67685658888413E-03 
1347	 4.55816359231787E-03 
1348	 8.01524529546902E-03 
1349	 1.00828676138507E-02 
1350	 6.84318022346385E-04 
1351	-2.98099846609729E-03 
1352	 1.17193245838885E-02 
1353	 1.53024584116329E-02 
1354	-9.31045601300542E-04 
1355	-4.34505400169069E-03 
1356	 3.19451152690782E-02 
1357	 5.55758986529914E-02 
1358	 0.066222411733065 
1359	 0.134333195354244 
1360	 0.114799550457917 
1361	 0.010477309831122 
1362	 3.51552716080928E-02 
1363	 0.138374393652609 
1364	 0.156430428269976 
1365	 3.11843709712627E-02 
1366	-0.226023412439739 
1367	-0.248881129505555 
1368	-0.177563643256568 
1369	-4.85115595975012E-02 
1370	 9.25633682640547E-03 
1371	 0.283841547161355 
1372	 0.304807919744471 
1373	-0.126789986072927 
1374	-7.09351553315338E-02 
1375	 0.362458453285491 
1376	 0.290701477118886 
1377	 9.80232126698142E-02 
1378	 6.47381539763312E-02 
1379	-0.480263901551715 
1380	-0.756541860270394 
1381	-0.160339759313212 
1382	 0.104795581169384 
1383	 0.113041462305576 
1384	 6.56486251179929E-02 
1385	 6.19600472813481E-02 
1386	 4.32975055565636E-02 
1387	-0.385332274633338 
1388	-0.509129747301308 
1389	-3.69429585963901E-02 
1390	 8.32863642852928E-02 
1391	 2.33261411069584E-02 
1392	 3.80786111754967E-02 
1393	 0.415773795491882 
1394	 0.328939306381683 
1395	-0.106339196702459 
1396	 0.232937566784135 
1397	 0.199124429410292 
1398	-2.73617581364328E-02 
1399	-1.1720993455747 
1400	-1.83526376686944 
1401	-0.715267635778282 
1402	-0.661921305634791 
1403	-1.6254458861624 
1404	-0.591219342894185 
1405	-3.23028907249748E-02 
1406	 0.156457598768634 
1407	-5.45411225867589E-03 
1408	 1.12892313631502E-02 
1409	 6.67439109129716E-02 
1410	-0.21780300436752 
1411	-0.213374337388358 
1412	 0.155818542550404 
1413	 0.166522820642492 
1414	-2.85284338152192E-02 
1415	-5.26698170279301E-02 
1416	-3.26012390323182E-02 
1417	-2.60476572491696E-02 
1418	-1.00221917299581E-02 
1419	 7.66962497572664E-03 
1420	 4.12506809795158E-02 
1421	 2.16411323702044E-02 
1422	-3.14196377020201E-02 
1423	-1.80083565868582E-02 
1424	 1.16919209312132E-02 
1425	 7.58149603015296E-03 
1426	 8.66717395911546E-03 
1427	 1.86217981286959E-02 
1428	 2.04216779983834E-02 
1429	 1.09036638018127E-02 
1430	 4.95909840296047E-03 
1431	 0.010285946253387 
1432	 5.76850354905713E-03 
1433	 1.66367035536463E-03 
1434	 1.60722681990982E-02 
1435	 2.22583103890359E-02 
1436	 1.46320643624154E-02 
1437	 8.70756369794158E-03 
1438	 1.04010040055626E-02 
1439	 1.49799729926266E-02 
1440	 1.01280838251511E-02 
1441	 5.93111476025697E-03 
1442	 1.16101127169826E-02 
1443	 1.05946011769924E-02 
1444	 6.12579268618074E-03 
1445	 8.34002592065915E-03 
1446	 7.32481982538555E-03 
1447	 4.11726336568223E-03 
1448	 5.47384868066557E-03 
1449	 6.97820519335419E-03 
1450	 7.13765146284094E-03 
1451	 7.44362615152433E-03 
1452	 7.75768354057583E-03 
1453	 7.18751934883384E-03 
1454	 6.81061360754813E-03 
1455	 6.30443214150365E-03 
1456	 6.2594427029621E-03 
1457	 5.80996921979326E-03 
1458	 6.24174151327221E-03 
1459	 7.53487876412403E-03 
1460	 7.77915798159413E-03 
1461	 8.21476718419067E-03 
1462	 8.35904330891194E-03 
1463	 7.96541500561833E-03 
1464	 7.14643948987309E-03 
1465	 5.27426365581531E-03 
1466	 5.37597832417614E-03 
1467	 6.45718991671358E-03 
1468	 5.97167444153729E-03 
1469	 5.67151935536698E-03 
1470	 6.93437277174007E-03 
1471	 8.11445943035918E-03 
1472	 7.87146241485269E-03 
1473	 8.87920739404355E-03 
1474	 9.36060422118777E-03 
1475	 7.05561771971579E-03 
1476	 6.73281781068223E-03 
1477	 9.36045867220908E-03 
1478	 9.24707202928833E-03 
1479	 6.91968428035054E-03 
1480	 6.58239854011216E-03 
1481	 6.54920940334104E-03 
1482	 6.29940550910991E-03 
1483	 7.04639204330063E-03 
1484	 7.22933031947885E-03 
1485	 6.40880402145434E-03 
1486	 6.42882608118129E-03 
1487	 6.9416859289882E-03 
1488	 7.13530261485652E-03 
1489	 7.84819066686633E-03 
1490	 7.64223891291233E-03 
1491	 6.68836366228166E-03 
1492	 6.45816487402566E-03 
1493	 6.10064548716425E-03 
1494	 5.90677624048145E-03 
1495	 6.25444583311743E-03 
1496	 6.21226185855551E-03 
1497	 5.67428603198294E-03 
1498	 5.70289876808073E-03 
1499	 6.19139516652744E-03 
1500	 6.20781857672401E-03 
1501	 6.09796941828831E-03 
1502	 6.20071154789828E-03 
1503	 6.22575228833193E-03 
1504	 6.13837066886685E-03 
1505	 6.14495328876582E-03 
1506	 6.20289653898521E-03 
1507	 6.07993270805976E-03 
1508	 5.94702098272316E-03 
1509	 5.87013565562151E-03 
1510	 5.86201460596116E-03 
1511	 5.74667294771723E-03 
1512	 5.52982730140229E-03 
1513	 5.55919160294174E-03 
1514	 5.87241858066247E-03 
1515	 6.06263662141032E-03 
1516	 6.0212290430772E-03 
1517	 0.0059647298751 
1518	 5.80870705694259E-03 
1519	 5.76230480319342E-03 
1520	 6.00074953176376E-03 
1521	 6.22985709868922E-03 
1522	 6.13775809792288E-03 
1523	 5.93373968969816E-03 
1524	 5.91716454842053E-03 
1525	 5.71964571847423E-03 
1526	 5.52918705011744E-03 
1527	 5.59698130141094E-03 
1528	 5.50180946973644E-03 
1529	 5.44250397883638E-03 
1530	 5.72132598843118E-03 
1531	 5.8468608566491E-03 
1532	 5.58548352375034E-03 
1533	 0.005456733042485 
1534	 5.62370621442891E-03 
1535	 5.84658940157226E-03 
1536	 5.96453649902451E-03 
1537	 5.83795865851213E-03 
1538	 5.72743492916677E-03 
1539	 5.73108941679482E-03 
1540	 5.73307471367969E-03 
1541	 5.82136344190792E-03 
1542	 5.85252144571153E-03 
1543	 5.76550399911709E-03 
1544	 5.68493347386196E-03 
1545	 5.63594730057931E-03 
1546	 5.51639033620403E-03 
1547	 5.46536639860881E-03 
1548	 5.63406961680616E-03 
1549	 0.005700884664347 
1550	 5.54128066164471E-03 
1551	 5.43717008387675E-03 
1552	 5.48517548696604E-03 
1553	 5.59571088478484E-03 
1554	 5.69570533165847E-03 
1555	 5.65406592662753E-03 
1556	 5.49991703459454E-03 
1557	 5.43818444221642E-03 
1558	 5.53113989374146E-03 
1559	 0.005768757871526 
1560	 5.93331426854271E-03 
1561	 5.74506422153083E-03 
1562	 5.67066612513724E-03 
1563	 5.84873159366435E-03 
1564	 5.70012857110302E-03 
1565	 5.43280632840482E-03 
1566	 5.4309652732448E-03 
1567	 5.61454255387492E-03 
1568	 5.67515910280015E-03 
1569	 5.65859275729919E-03 
1570	 5.91554700996993E-03 
1571	 5.97564093237786E-03 
1572	 5.78135927237482E-03 
1573	 5.79092287095186E-03 
1574	 5.87919267393636E-03 
1575	 5.87923923117797E-03 
1576	 5.79618289910468E-03 
1577	 5.67462649974951E-03 
1578	 5.55996949141124E-03 
1579	 5.73490951294407E-03 
1580	 5.93089054184719E-03 
1581	 5.88847450576825E-03 
1582	 5.94196936752411E-03 
1583	 5.76118659358489E-03 
1584	 5.42931167081303E-03 
1585	 5.45754986254734E-03 
1586	 5.60635167678845E-03 
1587	 5.67353069105384E-03 
1588	 5.6486888661906E-03 
1589	 5.56062080704412E-03 
1590	 5.56565271375951E-03 
1591	 5.61914657617286E-03 
1592	 5.40270227565159E-03 
1593	 5.30971813084186E-03 
1594	 5.67445877573011E-03 
1595	 5.77873032056337E-03 
1596	 5.71121361433776E-03 
1597	 5.70362912569327E-03 
1598	 5.45278118964704E-03 
1599	 5.31289947883107E-03 
1600	 5.50570172959506E-03 
1601	 5.75177765968899E-03 
1602	 5.73583414558615E-03 
1603	 5.46421398616099E-03 
1604	 5.43882350372722E-03 
1605	 5.63990017642637E-03 
1606	 5.57943634025157E-03 
1607	 5.50411498320614E-03 
1608	 5.73521091345952E-03 
1609	 5.83921895282884E-03 
1610	 5.56379138372684E-03 
1611	 5.43759747735096E-03 
1612	 5.55077477393109E-03 
1613	 5.47728262976279E-03 
1614	 5.64659121972136E-03 
1615	 6.13540670748151E-03 
1616	 5.96563078692535E-03 
1617	 5.35793293810389E-03 
1618	 5.19847957293216E-03 
1619	 5.50436232288276E-03 
1620	 5.79444814948027E-03 
1621	 5.75732289113253E-03 
1622	 5.71392595269298E-03 
1623	 5.75568158484161E-03 
1624	 5.66772587413876E-03 
1625	 5.65733219594358E-03 
1626	 5.80502934711283E-03 
1627	 5.69655056588037E-03 
1628	 5.52647171502027E-03 
1629	 5.72835307854022E-03 
1630	 5.93477961851131E-03 
1631	 5.77525379320231E-03 
1632	 5.48124749667974E-03 
1633	 5.42933156929268E-03 
1634	 5.68904488069835E-03 
1635	 6.00251536907633E-03 
1636	 5.95123897228771E-03 
1637	 5.58750027767635E-03 
1638	 5.44218755681962E-03 
1639	 5.42649576438969E-03 
1640	 5.45060117602089E-03 
1641	 5.75239013065469E-03 
1642	 5.70545115249033E-03 
1643	 5.43157436094405E-03 
1644	 5.4374111354027E-03 
1645	 5.45239333680578E-03 
1646	 5.47340530964937E-03 
1647	 5.56458050024417E-03 
1648	 5.60408050970996E-03 
1649	 5.39184225769651E-03 
1650	 5.45412595146064E-03 
1651	 5.88049591092111E-03 
1652	 5.8546954878173E-03 
1653	 5.6847764003261E-03 
1654	 5.76322700471139E-03 
1655	 5.55297505581567E-03 
1656	 5.34326084111578E-03 
1657	 5.53449864574562E-03 
1658	 5.50690477250021E-03 
1659	 4.9722499706528E-03 
1660	 5.03233958671354E-03 
1661	 5.62919391487664E-03 
1662	 5.63244656477546E-03 
1663	 5.41443357477633E-03 
1664	 5.46732062825808E-03 
1665	 5.45743438455783E-03 
1666	 5.45002204144316E-03 
1667	 5.69357940320906E-03 
1668	 5.52164456659433E-03 
1669	 5.29459411055971E-03 
1670	 5.43423615580011E-03 
1671	 5.45157860743231E-03 
1672	 5.31408199265901E-03 
1673	 5.48912380138613E-03 
1674	 5.15925682906671E-03 
1675	 4.88532615782725E-03 
1676	 5.43868748507696E-03 
1677	 5.7389856619069E-03 
1678	 5.72660941754422E-03 
1679	 5.84166180180731E-03 
1680	 5.73005589029221E-03 
1681	 5.52604155877401E-03 
1682	 5.48227583674369E-03 
1683	 5.44504111147081E-03 
1684	 5.34123195380392E-03 
1685	 5.21437588889975E-03 
1686	 5.36740071628262E-03 
1687	 5.59393988086667E-03 
1688	 5.42670685929313E-03 
1689	 5.27742807128677E-03 
1690	 5.33712481428393E-03 
1691	 5.36932457526599E-03 
1692	 5.50756941196187E-03 
1693	 5.7256283016721E-03 
1694	 5.64224211986629E-03 
1695	 5.42873711496613E-03 
1696	 5.76423103558547E-03 
1697	 5.97448489846186E-03 
1698	 5.58994853123097E-03 
1699	 5.68050553340757E-03 
1700	 6.02460646562977E-03 
1701	 6.0199883073883E-03 
1702	 6.24868354879971E-03 
1703	 6.37463034207092E-03 
1704	 5.60910064407112E-03 
1705	 5.05167890186721E-03 
1706	 5.43159035160159E-03 
1707	 5.40075340420744E-03 
1708	 4.96606983422854E-03 
1709	 4.97444437295327E-03 
1710	 4.79907092329256E-03 
1711	 4.84240958229681E-03 
1712	 5.58274927137997E-03 
1713	 5.48434095369765E-03 
1714	 5.56374623970148E-03 
1715	 5.38187733209694E-03 
1716	 5.59741111365473E-03 
1717	 5.90500813948215E-03 
1718	 5.5925945702401E-03 
1719	 5.68313454520817E-03 
1720	 5.62539074922599E-03 
1721	 5.1496897513604E-03 
1722	 5.26608842759043E-03 
1723	 5.32792408036258E-03 
1724	 5.48607805736967E-03 
1725	 6.16178716354735E-03 
1726	 5.9091277304822E-03 
1727	 5.19888516158057E-03 
1728	 5.20414147300571E-03 
1729	 4.96376056254592E-03 
1730	 4.83985235673035E-03 
1731	 5.45708453656644E-03 
1732	 5.62759736390982E-03 
1733	 5.22681901547292E-03 
1734	 5.28249753373818E-03 
1735	 5.74696838411408E-03 
1736	 5.90570851428769E-03 
1737	 5.86927560930766E-03 
1738	 5.62976681228132E-03 
1739	 5.08024392662672E-03 
1740	 4.83662783349877E-03 
1741	 5.13618811906035E-03 
1742	 5.51577015590117E-03 
1743	 5.60900596194161E-03 
1744	 5.09464510507438E-03 
1745	 4.62494826710261E-03 
1746	 6.12863254393503E-03 
1747	 5.92528514901547E-03 
1748	 4.78620161102736E-03 
1749	 5.09708632667532E-03 
1750	 4.97984687067287E-03 
1751	 4.57981351782339E-03 
1752	 5.54335667328781E-03 
1753	 5.86173996836974E-03 
1754	 4.86473900939064E-03 
1755	 4.90387466464039E-03 
1756	 6.04884790170361E-03 
1757	 5.37337607139649E-03 
1758	 4.93993350441915E-03 
1759	 4.69345487851616E-03 
1760	 4.84133760317497E-03 
1761	 5.02587925024723E-03 
1762	 5.24502311798976E-03 
1763	 5.73349994362837E-03 
1764	 4.79478907568452E-03 
1765	 3.85318973654078E-03 
1766	 4.54439801305969E-03 
1767	 4.58505759904272E-03 
1768	 5.33912899631372E-03 
1769	 6.38770756911151E-03 
1770	 4.99957935506195E-03 
1771	 4.02307713723578E-03 
1772	 4.32785412377492E-03 
1773	 5.15588051634935E-03 
1774	 6.25948983173559E-03 
1775	 5.51467836892339E-03 
1776	 5.50248583591309E-03 
1777	 4.73707128897894E-03 
1778	 4.57765793887604E-03 
1779	 6.27435667881679E-03 
1780	 6.80391384049064E-03 
1781	 6.64149823282391E-03 
1782	 6.55000600888896E-03 
1783	 5.63700060671267E-03 
1784	 5.32233012753763E-03 
1785	 5.16800383671874E-03 
1786	 6.10474485983638E-03 
1787	 8.86806773695506E-03 
1788	 8.63064086751072E-03 
1789	 6.71946061403652E-03 
1790	 4.78719282832711E-03 
1791	 3.79830789714341E-03 
1792	 4.97562006918758E-03 
1793	 6.66803915684736E-03 
1794	 4.50822566554783E-03 
1795	 4.43078866838032E-03 
1796	 9.20795531118057E-03 
1797	 9.25337068536981E-03 
1798	 1.27289776999926E-02 
1799	 1.57256413042865E-02 
1800	 6.18005574739085E-03 
1801	 5.71327188482343E-03 
1802	 1.27568665707497E-02 
1803	 1.30166148085855E-02 
1804	 2.29507707043756E-02 
1805	 2.13396564167218E-02 
1806	-1.63126949235893E-02 
1807	-2.39371271185246E-02 
1808	-1.67836726968434E-02 
1809	-3.94945564317359E-03 
1810	 8.76854870006499E-02 
1811	 0.110081782497154 
1812	 4.43373626893144E-02 
1813	 4.92120676831779E-02 
1814	 4.70551942468613E-02 
1815	-1.50124221812521E-02 
1816	-5.21551024688505E-02 
1817	-0.213720907924687 
1818	-0.842470404915366 
1819	-0.963016636258364 
1820	-0.440413768491299 
1821	-0.509425282873533 
1822	-0.422181785656099 
1823	-0.138243934277006 
1824	-1.18227683719232E-02 
1825	 0.11513190905719 
1826	 5.53768671076878E-02 
1827	-0.644849066963046 
1828	-0.752097136598116 
1829	-0.685724033320749 
1830	-0.434628576157317 
1831	-0.680852174470243 
1832	-0.681888252067292 
1833	 0.328433223311315 
1834	 1.07622879694788 
1835	 0.90965190090291 
1836	 10.5032112378853 
1837	 1.95536669005164 
1838	 1.3599311433598 
1839	-7.66936371511242E-03 
1840	 0.272119578830022 
1841	 0.14992481433484 
1842	 0.390270910415651 
1843	 0.380788641981395 
1844	 0.233210277683383 
1845	 0.26170637611163 
1846	-6.39199152419736E-02 
1847	 0.572282237637105 
1848	 117.10218523434 
1849	-20.8805190088564 
1850	 1.75233147618819 
1851	 0.874222938629813 
1852	 0.534581247984436 
1853	 0.402580228524588 
1854	 0.289099248485321 
1855	 1.28187001056318 
1856	 2.20892994136712 
1857	 0.852262634503461 
1858	 0.413381352544767 
1859	 1.73766342474482E-02 
1860	-0.195046229321139 
1861	 3.04868227711164E-02 
1862	 0.176061144543492 
1863	 0.889885833428187 
1864	-1.50218254323498 
1865	-1.33979061730974 
1866	-1.63834540346085 
1867	-3.18915489426219 
1868	 10.0527157296447 
1869	 5.00117364637124 
1870	 3.73300883903999 
1871	 2.15529518874958 
1872	-33.2565675142062 
1873	-4.90862230890678 
1874	 19.694386719367 
1875	-22.4666287152871 
1876	 21.9739863657015 
1877	 1.25539692040528 
1878	 0.984853514535191 
1879	-4.36939891546956 
1880	-1.91342417659964 
1881	-0.707207516211598 
1882	 0.686184350961137 
1883	-0.351961214994416 
1884	 0.228376312432306 
1885	 0.273109573220574 
1886	 0.536260954173457 
1887	 1.04142639995719 
1888	 2.57197352248194 
1889	 3.06738985314292 
1890	 0.740872140971023 
1891	 0.981476227234315 
1892	 2.2223652972017 
1893	 4.63940309807114 
1894	 1.5826701926481 
1895	 2.35981582045755 
1896	-3.40780303924745 
1897	-4.73578817389738 
1898	-1.55844454170983 
1899	-1.54636608285077 
1900	-2.01592711525166 
1901	 2.62749560464549 
1902	 1.78811289534352 
1903	 7.35242921806106 
1904	-9.33403770306318 
1905	-0.143830591943922 
1906	-14.1618516771781 
1907	 1.68333718930971 
1908	-0.409519569767813 
1909	 2.5806983638394 
1910	 12.8566633149467 
1911	 3.37356261743709 
1912	-7.15663155764268 
1913	-8.6006524467974 
1914	 0.986579770747607 
1915	 1.36155126525421 
1916	 441.949686451378 
1917	-0.707915118407227 
1918	-0.113141361691624 
1919	-0.194970693992915 
1920	-0.138946087463426 
1921	-0.320922275343166 
1922	-0.938153385063363 
1923	 0.163848166391821 
1924	 3.18642798486084 
1925	 10.0728084400554 
1926	 8.68864163326015 
1927	 2.05048508900328 
1928	 1.65609600689849 
1929	-3.13349600485859 
1930	-0.306465094704641 
1931	-0.28669808850072 
1932	 0.402643157647106 
1933	 0.471468797207362 
1934	 0.154454753805102 
1935	 0.15903541264444 
1936	 0.22454767631897 
1937	 9.15656971982982E-02 
1938	 0.129189838586353 
1939	 0.128851735117135 
1940	 9.75152646886114E-02 
1941	 9.71526707376648E-03 
1942	 0.02447956776675 
1943	-2.51381160027431E-04 
1944	-6.83858366562715E-04 
1945	 3.02181076711929E-02 
1946	 1.20623984788543E-02 
1947	 1.02395642380561E-02 
1948	 1.64838403247318E-02 
1949	-1.22446278956603E-02 
1950	 5.60866009740855E-03 
1951	 1.65974441638771E-02 
1952	 9.4174422356258E-03 
1953	-1.66155345423143E-02 
1954	-1.08608752853798E-02 
1955	-1.08622196109643E-02 
1956	-2.09743741308585E-02 
1957	-1.25100497757522E-02 
1958	 7.23281894208066E-03 
1959	 1.02548946564472E-02 
1960	 9.94930186467057E-03 
1961	 0.013739878323734 
1962	 1.23894559913738E-02 
1963	 1.33435177283532E-02 
1964	 0.012926366247126 
1965	 1.23558034231744E-02 
1966	 1.19078468103351E-02 
1967	 9.66095143708413E-03 
1968	 4.68125392486139E-03 
1969	 5.03864170354985E-03 
1970	 7.98638832139812E-03 
1971	 1.00799223526333E-02 
1972	 1.06803203361264E-02 
1973	 7.85128695115696E-03 
1974	 6.14047049455612E-03 
1975	 4.17657285606449E-03 
1976	 2.17675085255965E-03 
1977	 4.23139678131272E-03 
1978	 6.03916485873883E-03 
1979	 6.35013612218956E-03 
1980	 5.77330506438032E-03 
1981	 5.57951263823549E-03 
1982	 5.99487932481771E-03 
1983	 6.08281674273191E-03 
1984	 5.55551393237104E-03 
1985	 6.33417087478645E-03 
1986	 6.29682916793468E-03 
1987	 4.87072502877767E-03 
1988	 4.17539044760859E-03 
1989	 3.80687282120102E-03 
1990	 3.75445993893156E-03 
1991	 3.86205793572549E-03 
1992	 4.47512225049282E-03 
1993	 5.5453289141926E-03 
1994	 5.92389477115525E-03 
1995	 5.34611519352531E-03 
1996	 5.20142956081482E-03 
1997	 6.14659739143461E-03 
1998	 5.91652038584247E-03 
1999	 7.52284766772865E-03 
2000	 1.12661963567697E-02 
2001	 1.20484422305944E-02 
2002	 0.01318535765449 
2003	 1.53393473185662E-02 
2004	 1.33737912076664E-02 
2005	 9.66621857304076E-03 
2006	 1.00012171798503E-02 
2007	 9.6352450805247E-03 
2008	 5.76795495693897E-03 
2009	 4.92872619221655E-03 
2010	 8.22520040786034E-03 
2011	 8.93047317968318E-03 
2012	 9.26575342059089E-03 
2013	 8.45425952611587E-03 
2014	 6.84702207909534E-03 
2015	 6.44520356846136E-03 
2016	 5.60007177887624E-03 
2017	 3.59125637376413E-03 
2018	 3.77471349646061E-03 
2019	 5.66727509690741E-03 
2020	 7.08225895385239E-03 
2021	 7.85048920610709E-03 
2022	 8.02848828516882E-03 
2023	 6.69491961663873E-03 
2024	 5.78671458980828E-03 
2025	 3.77673489819445E-03 
2026	 3.73697773162989E-03 
2027	 5.22361941921497E-03 
2028	 4.77501563280528E-03 
2029	 3.92401323762282E-03 
2030	 4.28740617672377E-03 
2031	 3.82481256487745E-03 
2032	 3.37152587677472E-03 
2033	 3.98513692467656E-03 
2034	 4.01246409865159E-03 
2035	 3.8096368827499E-03 
2036	 4.57696849237757E-03 
2037	 5.45497894243597E-03 
2038	 5.2559135392083E-03 
2039	 5.07531825464385E-03 
2040	 4.25133124816314E-03 
2041	 4.18441281901111E-03 
2042	 4.7676356584583E-03 
2043	 4.80815945847804E-03 
2044	 5.03320070867957E-03 
2045	 4.75358201929165E-03 
2046	 4.24217758328032E-03 
2047	 3.97482306988596E-03 
2048	 4.47198987214858E-03 
2049	 5.65610375426213E-03 
2050	 6.81673444239906E-03 
2051	 6.74376472139693E-03 
2052	 7.30884678639893E-03 
2053	 7.83111536483379E-03 
2054	 7.46776310505228E-03 
2055	 8.17022494256858E-03 
2056	 8.21251080991459E-03 
2057	 7.77696970932686E-03 
2058	 7.04476928663171E-03 
2059	 5.62648049614576E-03 
2060	 4.6606018853209E-03 
2061	 2.88973813234371E-03 
2062	 3.02664386324049E-03 
2063	 4.19793653306903E-03 
2064	 4.51170357956009E-03 
2065	 5.4161221004429E-03 
2066	 6.27938268019692E-03 
2067	 6.46614784842704E-03 
2068	 7.15326915240338E-03 
2069	 6.69905600533204E-03 
2070	 5.70229799402051E-03 
2071	 5.47508341699173E-03 
2072	 5.61655974652408E-03 
2073	 5.62252280366717E-03 
2074	 6.18032082873692E-03 
2075	 6.35347712394846E-03 
2076	 6.35438576553563E-03 
2077	 6.26555157622968E-03 
2078	 6.44326008372817E-03 
2079	 6.42757475189821E-03 
2080	 6.14443277015706E-03 
2081	 5.37857965335732E-03 
2082	 5.18029678832829E-03 
2083	 4.81156412308592E-03 
2084	 4.42129681085456E-03 
2085	 4.25032844311731E-03 
2086	 3.82413389085363E-03 
2087	 3.38245139917795E-03 
2088	 3.57796893795873E-03 
2089	 3.97194384532833E-03 
2090	 3.96498520618148E-03 
2091	 3.92621306945219E-03 
2092	 4.03670131119026E-03 
2093	 3.97492780659072E-03 
2094	 3.96010583557059E-03 
2095	 4.07400022987955E-03 
2096	 4.32153633014829E-03 
2097	 4.79965157987646E-03 
2098	 4.71613109117444E-03 
2099	 4.37762019385882E-03 
2100	 4.44736852421674E-03 
2101	 3.60417529121539E-03 
2102	 2.58923796213355E-03 
2103	 2.94604271139466E-03 
2104	 3.36357780647211E-03 
2105	 3.90604806289315E-03 
2106	 4.47109296125845E-03 
2107	 4.44006789443571E-03 
2108	 4.29789652697272E-03 
2109	 4.55453356992981E-03 
2110	 4.92389243892752E-03 
2111	 4.8899148913237E-03 
2112	 5.28368641121852E-03 
2113	 5.66849029575402E-03 
2114	 6.23279955839424E-03 
2115	 6.39915969081769E-03 
2116	 6.47044184930693E-03 
2117	 6.66940501321658E-03 
2118	 6.9520726559389E-03 
2119	 6.81067234955939E-03 
2120	 6.67271053807832E-03 
2121	 5.99668220282951E-03 
2122	 5.83759450365905E-03 
2123	 5.60938485772636E-03 
2124	 5.69666316018004E-03 
2125	 6.49752061950108E-03 
2126	 6.61970238429773E-03 
2127	 6.47384403098142E-03 
2128	 6.75741937944582E-03 
2129	 6.53206480160914E-03 
2130	 6.24572191892681E-03 
2131	 6.14891670599536E-03 
2132	 4.94551243317611E-03 
2133	 0.003936346490491 
2134	 4.05259273611284E-03 
2135	 4.76606993717622E-03 
2136	 5.05462757410499E-03 
2137	 6.78542188004953E-03 
2138	 6.9491770921151E-03 
2139	 5.29103909859174E-03 
2140	 4.58398690030666E-03 
2141	 4.04764604831042E-03 
2142	 3.61618275782489E-03 
2143	 3.42207065329968E-03 
2144	 3.1928681331537E-03 
2145	 2.6562587874343E-03 
2146	 2.59027077737652E-03 
2147	 3.38599196215839E-03 
2148	 4.15734325120181E-03 
2149	 4.60135359197445E-03 
2150	 4.49300450236433E-03 
2151	 4.60512564977604E-03 
2152	 5.00510025748365E-03 
2153	 6.00222728839064E-03 
2154	 7.46931909777852E-03 
2155	 7.17452519003724E-03 
2156	 6.71700242750428E-03 
2157	 6.4330049765547E-03 
2158	 5.46140853377939E-03 
2159	 5.42298297126848E-03 
2160	 6.64151476510326E-03 
2161	 6.38686490789323E-03 
2162	 0.005303540561568 
2163	 4.95343941958347E-03 
2164	 4.00108878867869E-03 
2165	 3.81644794130532E-03 
2166	 5.01823083099252E-03 
2167	 5.56989897209277E-03 
2168	 5.98442523764392E-03 
2169	 5.90483715527434E-03 
2170	 4.76897664178544E-03 
2171	 5.46454003753708E-03 
2172	 5.95215735966244E-03 
2173	 4.95587032571123E-03 
2174	 6.24534357544652E-03 
2175	 6.92953990681489E-03 
2176	 6.56352947462675E-03 
2177	 7.26128611009218E-03 
2178	 6.90765206243241E-03 
2179	 6.79321360991251E-03 
2180	 6.78330016185999E-03 
2181	 5.63931783807219E-03 
2182	 5.37543666433426E-03 
2183	 5.89666395399442E-03 
2184	 5.45010971460273E-03 
2185	 5.22716481377772E-03 
2186	 5.27558100761576E-03 
2187	 4.96455891537801E-03 
2188	 4.09353186174112E-03 
2189	 2.92808846974164E-03 
2190	 3.0332439647396E-03 
2191	 3.06567752866279E-03 
2192	 3.54730432924312E-03 
2193	 6.01887822627966E-03 
2194	 7.15813880817593E-03 
2195	 7.71524337509991E-03 
2196	 7.37509127150181E-03 
2197	 6.12527428652548E-03 
2198	 5.43497557346944E-03 
2199	 4.06408081275743E-03 
2200	 0.003125433363474 
2201	 2.88250774846586E-03 
2202	 1.7197969115614E-03 
2203	 1.43539202232708E-03 
2204	 2.63808950530357E-03 
2205	 3.83570278922858E-03 
2206	 5.43085911426138E-03 
2207	 7.86671786831672E-03 
2208	 7.15012625346255E-03 
2209	 4.48587048104399E-03 
2210	 4.09776823128766E-03 
2211	 3.24230925301482E-03 
2212	 1.2900686308785E-03 
2213	 2.7463532725223E-03 
2214	 0.003553192253673 
2215	 1.97103630919852E-03 
2216	 2.87912972128192E-03 
2217	 0.002969973298765 
2218	 0.001992504961559 
2219	 1.89171574601961E-03 
2220	 2.02774075754133E-03 
2221	 2.58993571595653E-03 
2222	 4.53333496959325E-03 
2223	 4.68787162216488E-03 
2224	 4.58326513501553E-03 
2225	 4.34878891140035E-03 
2226	 2.4743100273869E-03 
2227	 1.24141762510572E-03 
2228	-5.21009549826854E-04 
2229	 8.06413545880724E-05 
2230	 2.54139077582844E-03 
2231	 2.81757194771203E-03 
2232	 4.69620808819855E-03 
2233	 5.65827416287981E-03 
2234	 4.53067148046099E-03 
2235	 2.71796529640351E-03 
2236	 4.65920534541216E-03 
2237	 4.44357442841647E-03 
2238	 2.71999279623242E-03 
2239	 4.47597258757394E-03 
2240	 5.71067016556688E-03 
2241	 5.63576440588921E-03 
2242	 6.27740190709245E-03 
2243	 5.87257729365518E-03 
2244	 4.48711813013091E-03 
2245	 2.24001526029981E-03 
2246	 6.47267771262226E-04 
2247	-1.35482420031773E-04 
2248	 1.13693218437585E-04 
2249	 1.62427377270046E-03 
2250	 1.62185020896129E-03 
2251	 3.57705081177849E-03 
2252	 5.5937311098103E-03 
2253	 4.64251218029659E-03 
2254	 5.88224910276638E-03 
2255	 7.40564900884443E-03 
2256	 7.92828844407278E-03 
2257	 8.77123122600202E-03 
2258	 7.27292164167447E-03 
2259	 4.86184247283513E-03 
2260	 4.46689936040514E-03 
2261	 4.19704061013942E-03 
2262	 4.11641301329458E-03 
2263	 5.6691784796605E-03 
2264	 7.06021473708413E-03 
2265	 8.66766524685604E-03 
2266	 8.07820130525173E-03 
2267	 7.42524484909342E-03 
2268	 7.87167240059776E-03 
2269	 5.78775347286765E-03 
2270	 4.93866997112967E-03 
2271	 7.59320494347403E-03 
2272	 7.18686824306616E-03 
2273	 2.68481448578911E-03 
2274	 2.46628733024909E-03 
2275	 4.52737968184225E-03 
2276	 4.99480021553342E-03 
2277	 8.01910192649277E-03 
2278	 8.7545176616988E-03 
2279	 6.97739351304165E-03 
2280	 5.37489745092432E-03 
2281	 2.07376853052867E-03 
2282	 6.14292384893595E-04 
2283	 1.63041595462338E-03 
2284	 1.66926921672088E-03 
2285	 5.21852719353289E-03 
2286	 6.3428784979156E-03 
2287	 3.87762754862637E-03 
2288	 6.25986870681124E-03 
2289	 7.4888704756719E-03 
2290	 8.06811269296861E-03 
2291	 1.09038383745731E-02 
2292	 1.03678362053067E-02 
2293	 6.53043060612863E-03 
2294	 5.30908994866066E-03 
2295	 5.38242009063522E-03 
2296	 3.7463976237708E-03 
2297	 5.08538336108926E-03 
2298	 5.62162280973531E-03 
2299	 3.24940097524097E-03 
2300	 1.13090169291051E-03 
2301	-9.1312585196911E-04 
2302	-1.68619717615821E-03 
2303	-1.31307946902619E-03 
2304	 7.30059414489473E-04 
2305	 4.96453257225705E-03 
2306	 8.19285152433366E-03 
2307	 7.71008561568323E-03 
2308	 8.72667317852884E-03 
2309	 1.00632934595603E-02 
2310	 6.67143242385955E-03 
2311	 5.73173469207012E-03 
2312	 6.47195114268623E-03 
2313	 6.37178575363882E-03 
2314	 6.22649417362311E-03 
2315	 4.84980196873641E-03 
2316	 4.16879029143534E-03 
2317	 2.22088506645122E-03 
2318	 1.11617519084737E-03 
2319	 1.87620405741491E-03 
2320	 3.64802267023963E-03 
2321	 1.29577409954074E-03 
2322	 3.3131223724319E-04 
2323	 5.7880127691667E-03 
2324	 3.58091899278893E-03 
2325	-2.72416551995253E-04 
2326	 1.69727520129212E-03 
2327	 2.82120047925425E-03 
2328	-9.43943787174836E-04 
2329	-3.09295244103453E-03 
2330	-2.35730583197779E-03 
2331	-6.16987339054377E-03 
2332	-1.96414566025944E-03 
2333	 8.64054603034469E-03 
2334	 0.013713397163391 
2335	 1.48492615464009E-02 
2336	 1.10331686685108E-02 
2337	 1.34512503107326E-02 
2338	 1.40755378864258E-02 
2339	 8.05780718252423E-03 
2340	 0.012079639860015 
2341	 1.17001379738468E-02 
2342	 5.4311945649628E-03 
2343	 6.65991588962033E-03 
2344	 7.50575093732199E-03 
2345	 4.67640121885889E-03 
2346	 5.35316828638728E-03 
2347	 1.21165039016188E-02 
2348	 1.40235941637341E-02 
2349	 7.7277777378815E-03 
2350	 5.34633704900732E-03 
2351	-5.34307799499426E-03 
2352	-1.88848959463745E-02 
2353	-1.12169062259486E-02 
2354	-1.53629795819924E-03 
2355	 2.87327448170926E-03 
2356	 8.60626319736963E-03 
2357	 5.58795003626137E-03 
2358	-2.02862279255392E-03 
2359	-5.13119637874606E-03 
2360	 1.08903620965736E-03 
2361	 7.3923298155904E-03 
2362	-8.58099031727692E-04 
2363	-7.34629124162356E-03 
2364	-8.18239135257633E-03 
2365	-1.70347629885163E-02 
2366	-1.13330274889471E-02 
2367	 8.34913105201873E-03 
2368	 1.24496834427568E-02 
2369	 1.23775951756542E-02 
2370	 1.20372041250545E-02 
2371	 8.76492963924653E-03 
2372	 1.67087231553807E-02 
2373	 3.79216319460893E-02 
2374	 5.51235488206504E-02 
2375	 3.75343199125721E-02 
2376	 8.72692181007971E-03 
2377	-7.47759979865628E-03 
2378	-2.22138139011886E-02 
2379	-5.99631071680492E-03 
2380	 9.71481980489166E-03 
2381	-2.14365677584772E-03 
2382	 7.10759012113572E-03 
2383	 3.08343223889814E-03 
2384	-3.2617931743747E-03 
2385	 2.42066774027931E-02 
2386	 2.83045069706268E-02 
2387	 2.78177232221294E-02 
2388	 4.25809348375902E-02 
2389	 2.37922403394549E-02 
2390	 3.33781057947769E-03 
2391	 8.34647726793152E-04 
2392	-1.34222962956978E-02 
2393	 6.47008832175755E-03 
2394	 3.24515393107015E-02 
2395	 1.85594054905025E-02 
2396	 1.87520976460426E-02 
2397	 1.78291661681839E-02 
2398	 6.35780761061172E-03 
2399	 2.27392100172321E-02 
2400	 3.21383995732402E-02 
2401	 5.76308447615494E-02 
2402	 9.62220475717174E-02 
2403	 8.28343800375103E-02 
2404	 7.82852976948885E-02 
2405	 6.55972993112201E-02 
2406	 1.20824159822818E-02 
2407	 1.19290894761433E-02 
2408	 2.76062174325171E-02 
2409	 1.87048578487375E-02 
2410	-6.49730367869933E-04 
2411	-5.17848498802828E-02 
2412	-3.79287002367605E-02 
2413	 3.62353761516296E-02 
2414	 0.129665039779962 
2415	 0.18606602751033 
2416	 0.160052241595427 
2417	 0.149695633788332 
2418	 4.71180582893199E-02 
2419	 1.23696838547442E-02 
2420	 0.07489334611047 
2421	-7.12224800788062E-03 
2422	-7.71873882481733E-02 
2423	-0.069434287426027 
2424	-4.81070956516251E-02 
2425	-2.45431403535481E-02 
2426	 0.067016257434164 
2427	 0.137747676732664 
2428	 8.65760325804456E-02 
2429	 9.91096286935213E-02 
2430	 0.172027833186396 
2431	 0.177762600441779 
2432	 0.126841634199589 
2433	 0.04089162086321 
2434	-5.39265080207596E-02 
2435	-0.101683397751616 
2436	-5.43309375286832E-02 
2437	 2.10641508963256E-02 
2438	 4.68031559671664E-02 
2439	 0.100816628129033 
2440	 0.102511212370348 
2441	-4.93554532157173E-03 
2442	-5.85715097064679E-02 
2443	 1.48995718398881E-02 
2444	 0.114309297734161 
2445	 0.230838796124173 
2446	 0.389960397238703 
2447	 0.125089372629921 
2448	 4.66660035049727E-02 
2449	 0.168538815200615 
2450	 0.228804578151823 
2451	 0.574379756510392 
2452	 0.753777512054457 
2453	 0.318707307134125 
2454	 0.424981551009565 
2455	 0.369423181843962 
2456	 0.19940606455136 
2457	 0.202950639091061 
2458	 0.145087935700432 
2459	 6.06658364903344E-03 
2460	 0.116226374718055 
2461	 0.374605071796238 
2462	 0.537907166813704 
2463	 0.855709533340971 
2464	 0.799934788131583 
2465	-0.127906120253787 
2466	-0.615482472346554 
2467	-9.69765482336761E-02 
2468	-0.200099467457885 
2469	 0.266375373127863 
2470	 0.762049393328347 
2471	 0.403078629128145 
2472	 4.38671146591533 
2473	 3.00530380140858 
2474	 1.80088519755883 
2475	 5.01374262238302 
2476	 1.97312111655918 
2477	 0.639640047445857 
2478	 0.810868313691725 
2479	 2.3238802429166 
2480	 3.0478046218416 
2481	 1.91314163594242 
2482	 25.0861180785419 
2483	 3.12921310493651 
2484	-24.4993461811371 
2485	-1.59088487974005 
2486	-1.38599715605842 
2487	-1.13510848350811 
2488	-0.376186242154314 
2489	-7.72325686683649E-03 
2490	 0.219116658199364 
2491	 0.262644102172439 
2492	 9.78808792387974E-02 
2493	 4.81402609208296 
2494	-3.97473927323926 
2495	 1.67981070277345 
2496	 0.012811485321081 
2497	-1.0212286600539 
2498	-1.17122493467755 
2499	 396.503537232827 
2500	 1.38197147319185 
