Wavelength	rt0708a00009.asd
350	 7.65547059438833E-02 
351	 7.64124873148889E-02 
352	 7.65994557045738E-02 
353	 7.69403975202051E-02 
354	 7.72451110736394E-02 
355	 7.75057069457529E-02 
356	 7.78479104073758E-02 
357	 0.077737889453329 
358	 7.69540216640869E-02 
359	 7.72779063006369E-02 
360	 7.81947535742556E-02 
361	 7.87911329955747E-02 
362	 7.82101641068103E-02 
363	 7.82665012349034E-02 
364	 7.83413235179087E-02 
365	 7.82615566004007E-02 
366	 7.90044076924646E-02 
367	 7.91170860679558E-02 
368	 7.90497683427976E-02 
369	 7.93860535769438E-02 
370	 0.079260352824443 
371	 7.95351957544327E-02 
372	 0.079884535739056 
373	 7.94863304791757E-02 
374	 7.97182101097063E-02 
375	 7.98932348231221E-02 
376	 7.99528986612208E-02 
377	 8.09404132779781E-02 
378	 8.10475041125627E-02 
379	 8.07963341586374E-02 
380	 8.10080931706877E-02 
381	 8.16239535046317E-02 
382	 8.18729674157383E-02 
383	 8.19194802377993E-02 
384	 8.22938129189534E-02 
385	 8.25575726638962E-02 
386	 8.23254883178498E-02 
387	 8.19241413679397E-02 
388	 8.23768315304589E-02 
389	 8.27049015467851E-02 
390	 8.29791344789465E-02 
391	 8.32967027593409E-02 
392	 8.32924242508074E-02 
393	 8.32365291609302E-02 
394	 8.34410294639787E-02 
395	 8.39795009548301E-02 
396	 8.37556166505823E-02 
397	 8.35128676761183E-02 
398	 8.35186859958494E-02 
399	 8.35415629297175E-02 
400	 0.083764744337489 
401	 8.38358462072735E-02 
402	 8.36698603705326E-02 
403	 0.083922119013432 
404	 0.084280464430053 
405	 8.44114033695766E-02 
406	 8.41595360326633E-02 
407	 8.44376925134211E-02 
408	 8.45218777381588E-02 
409	 8.43204601849861E-02 
410	 8.44254984452143E-02 
411	 0.084537073837241 
412	 8.45779033197061E-02 
413	 8.45772501139339E-02 
414	 8.47300801164705E-02 
415	 8.48292973650519E-02 
416	 8.49272265593142E-02 
417	 8.51232315981229E-02 
418	 8.51147276102617E-02 
419	 8.51285936187574E-02 
420	 8.53085399124827E-02 
421	 8.56593089430684E-02 
422	 8.58636749680966E-02 
423	 0.086093971570157 
424	 8.64487901395388E-02 
425	 8.64790349796946E-02 
426	 0.086843974524484 
427	 8.73186945469815E-02 
428	 8.73841080411976E-02 
429	 8.77793280671641E-02 
430	 8.81049236135285E-02 
431	 8.83189256752934E-02 
432	 8.89057687529768E-02 
433	 8.89790471950391E-02 
434	 8.90633455273478E-02 
435	 8.96117839668976E-02 
436	 8.99242591339628E-02 
437	 9.03191070786125E-02 
438	 9.06671456426551E-02 
439	 9.06786141718685E-02 
440	 9.08941969052414E-02 
441	 9.11691913590986E-02 
442	 9.14074172241507E-02 
443	 9.17027312224634E-02 
444	 9.19015490070478E-02 
445	 9.20148151596764E-02 
446	 9.21145767650391E-02 
447	 9.23187981378939E-02 
448	 9.24341561757184E-02 
449	 9.24889993874744E-02 
450	 9.26626587473859E-02 
451	 9.28038084948733E-02 
452	 0.092844990019037 
453	 9.28222360054203E-02 
454	 9.29582958579289E-02 
455	 9.30501260646846E-02 
456	 9.30110130724457E-02 
457	 9.28746147963776E-02 
458	 9.30646483356072E-02 
459	 9.31015588306525E-02 
460	 9.29222672597696E-02 
461	 9.29155802624842E-02 
462	 9.29679679538261E-02 
463	 9.29460669835774E-02 
464	 9.28277585764795E-02 
465	 9.29259148690996E-02 
466	 9.29421950752962E-02 
467	 9.29051439824355E-02 
468	 9.29641125331118E-02 
469	 9.28744805815866E-02 
470	 9.28314529440312E-02 
471	 9.28892057306228E-02 
472	 0.092864425659848 
473	 9.28535718022856E-02 
474	 9.29115756378939E-02 
475	 9.30253686312144E-02 
476	 9.29730957170584E-02 
477	 0.09299533855794 
478	 9.30721975857142E-02 
479	 9.30345058666568E-02 
480	 9.32232070572771E-02 
481	 9.33378243986491E-02 
482	 9.32813283537981E-02 
483	 9.35490717604334E-02 
484	 9.37231222990629E-02 
485	 9.37680166080055E-02 
486	 9.38216589980507E-02 
487	 9.41323235358798E-02 
488	 9.43472593025724E-02 
489	 9.44088616173694E-02 
490	 9.45692245611024E-02 
491	 0.094774128566271 
492	 9.50798626460988E-02 
493	 9.54596501512148E-02 
494	 9.56179380952461E-02 
495	 0.09579979863753 
496	 9.60714536107217E-02 
497	 9.64004623646306E-02 
498	 9.67402583307637E-02 
499	 9.71012107461898E-02 
500	 9.74384405497066E-02 
501	 9.76068531941775E-02 
502	 9.79957341486309E-02 
503	 0.098428703422735 
504	 9.86901022808169E-02 
505	 9.91149110686432E-02 
506	 9.94850916322627E-02 
507	 9.98056103930777E-02 
508	 0.100257103617938 
509	 0.100765379999251 
510	 0.101217567238423 
511	 0.101578161216957 
512	 0.101996653616288 
513	 0.102487238650138 
514	 0.103011592417079 
515	 0.103513663602757 
516	 0.104085834757867 
517	 0.10461513737103 
518	 0.105107507093647 
519	 0.105733872166977 
520	 0.106306216821407 
521	 0.106845204186087 
522	 0.107424789765574 
523	 0.108122101118544 
524	 0.108781472230397 
525	 0.109377919842425 
526	 0.109992850189548 
527	 0.110716481370575 
528	 0.111452655388707 
529	 0.112135133493676 
530	 0.112805789273965 
531	 0.113544910446891 
532	 0.114319072774057 
533	 0.115064594806688 
534	 0.115860435734125 
535	 0.116643068687377 
536	 0.117383972081781 
537	 0.118099820464142 
538	 0.118913383460179 
539	 0.119779398198503 
540	 0.120602495383526 
541	 0.121258370659792 
542	 0.122045005516947 
543	 0.122901757506867 
544	 0.123576279053507 
545	 0.124332593580413 
546	 0.125063683433721 
547	 0.125709234811418 
548	 0.126385882164883 
549	 0.127115426396805 
550	 0.127785677419966 
551	 0.128306921201881 
552	 0.129013852267575 
553	 0.129690179614196 
554	 0.130232685916476 
555	 0.130700086685625 
556	 0.13125377585234 
557	 0.131825569653409 
558	 0.132335879677395 
559	 0.132893200838402 
560	 0.133476985749648 
561	 0.133990986650651 
562	 0.13432815805379 
563	 0.134751827771809 
564	 0.135200867725492 
565	 0.135610716717135 
566	 0.136001498889299 
567	 0.136357242904029 
568	 0.136697220097239 
569	 0.137052915518466 
570	 0.137456500261237 
571	 0.137778305471444 
572	 0.138013315650825 
573	 0.13829807744469 
574	 0.138662706678052 
575	 0.138943918227617 
576	 0.139071100873061 
577	 0.139444629253785 
578	 0.13967876702965 
579	 0.139812243041234 
580	 0.140110026792638 
581	 0.14027302939684 
582	 0.140354457203032 
583	 0.140449536999101 
584	 0.140657753526173 
585	 0.140799203362922 
586	 0.140900683924763 
587	 0.14102405679537 
588	 0.140947348950181 
589	 0.140957643813119 
590	 0.141110394569111 
591	 0.141185684731007 
592	 0.141173942525455 
593	 0.141130780781298 
594	 0.14112498550347 
595	 0.14122479061903 
596	 0.141195041871409 
597	 0.14110623024544 
598	 0.141171058165488 
599	 0.141116325404516 
600	 0.141024667848031 
601	 0.140969113280185 
602	 0.140934043429373 
603	 0.140828563779945 
604	 0.140756578176976 
605	 0.140834696578266 
606	 0.140904698235151 
607	 0.140887135953773 
608	 0.140807921142546 
609	 0.14079420722314 
610	 0.140778399174271 
611	 0.140737812491101 
612	 0.140675730804004 
613	 0.140640811989035 
614	 0.14064646731598 
615	 0.140686451732381 
616	 0.140724781682628 
617	 0.140607130132883 
618	 0.140501318135507 
619	 0.140482176670283 
620	 0.140419433261406 
621	 0.140431986402002 
622	 0.140469990273343 
623	 0.140461514727715 
624	 0.140510962847588 
625	 0.140531674138736 
626	 0.140548095848769 
627	 0.140679318585585 
628	 0.140613956068236 
629	 0.140593739796777 
630	 0.140741690624326 
631	 0.140569206358748 
632	 0.140507766651603 
633	 0.140521503872832 
634	 0.140387787089123 
635	 0.140313031848163 
636	 0.140165721738401 
637	 0.139948022397421 
638	 0.139893944598051 
639	 0.139771671700194 
640	 0.1395954604997 
641	 0.139427487523428 
642	 0.13920909329237 
643	 0.138971851977132 
644	 0.138726507022382 
645	 0.138475339223862 
646	 0.138345553537643 
647	 0.138195593209244 
648	 0.137954528436505 
649	 0.137836501346449 
650	 0.137625412717444 
651	 0.137412632810234 
652	 0.137357839537449 
653	 0.13720154412425 
654	 0.137041651251004 
655	 0.136896464619845 
656	 0.136665095676857 
657	 0.136417274465601 
658	 0.136153480514058 
659	 0.13587550901316 
660	 0.13567602966111 
661	 0.135452803018697 
662	 0.13522445074578 
663	 0.135062495124044 
664	 0.134686187705421 
665	 0.134420871110815 
666	 0.134377767422117 
667	 0.1341609958651 
668	 0.133953672516922 
669	 0.133858888223838 
670	 0.133906270908595 
671	 0.133880982448525 
672	 0.133793682210709 
673	 0.133743813787819 
674	 0.133889164639585 
675	 0.134086799260029 
676	 0.134256548104962 
677	 0.134389109704234 
678	 0.134607347858262 
679	 0.134915965723886 
680	 0.135285140954787 
681	 0.135692336903179 
682	 0.13631323611802 
683	 0.136988749275104 
684	 0.13765528774236 
685	 0.138481917363499 
686	 0.139527470071407 
687	 0.140714621310287 
688	 0.141893958463833 
689	 0.14321273778081 
690	 0.144377182429582 
691	 0.145532148802316 
692	 0.147067830085575 
693	 0.148744301396028 
694	 0.150277071341881 
695	 0.151563437000677 
696	 0.152921839388478 
697	 0.15426597408413 
698	 0.155677630645991 
699	 0.157126974504777 
700	 0.158332562785511 
701	 0.15955299389312 
702	 0.160741269592978 
703	 0.161652109817562 
704	 0.16255519492159 
705	 0.163518015022201 
706	 0.164427025296018 
707	 0.164892726429774 
708	 0.165418636948706 
709	 0.165953697256293 
710	 0.166279839079427 
711	 0.166473963436627 
712	 0.166699358746415 
713	 0.166914483052322 
714	 0.166868126937032 
715	 0.166759827278978 
716	 0.16667282104535 
717	 0.166607788311288 
718	 0.166309116720752 
719	 0.16587720722237 
720	 0.165411070899106 
721	 0.16490967526901 
722	 0.164544118209844 
723	 0.164029610380304 
724	 0.163337144883446 
725	 0.162717796740056 
726	 0.162010532347979 
727	 0.161081466395776 
728	 0.159945904082723 
729	 0.159000639985879 
730	 0.157937283753687 
731	 0.156807349199034 
732	 0.155770178112206 
733	 0.154879548763609 
734	 0.154182478160295 
735	 0.153662167881316 
736	 0.153200477054613 
737	 0.152860631642026 
738	 0.15268769159357 
739	 0.152667604105049 
740	 0.152612693535061 
741	 0.152582285684604 
742	 0.15261898044471 
743	 0.152729695507691 
744	 0.152719574140929 
745	 0.152679815725596 
746	 0.152747623911468 
747	 0.15307680959564 
748	 0.153208219543065 
749	 0.153211916976339 
750	 0.153278298824854 
751	 0.153506824683346 
752	 0.15363051729851 
753	 0.153659369911251 
754	 0.153740133301462 
755	 0.153710653584752 
756	 0.153797109947742 
757	 0.154031678139864 
758	 0.154132971511693 
759	 0.154361776636766 
760	 0.154764574868885 
761	 0.154945155941339 
762	 0.154739217425169 
763	 0.154583620488267 
764	 0.154804884971202 
765	 0.155369546886348 
766	 0.155318373073061 
767	 0.155255682296263 
768	 0.155418845693976 
769	 0.15569254094058 
770	 0.155818666643812 
771	 0.155971285189753 
772	 0.156272355863713 
773	 0.156446529439432 
774	 0.156648963497605 
775	 0.156860333106291 
776	 0.157019774973103 
777	 0.157269169079183 
778	 0.157522253331435 
779	 0.1577262810141 
780	 0.157894438551592 
781	 0.158286985887816 
782	 0.158630865777852 
783	 0.158788330073501 
784	 0.159150641674038 
785	 0.159523916530057 
786	 0.15987556474081 
787	 0.160210048992245 
788	 0.160442878132159 
789	 0.16077106684274 
790	 0.161188527783675 
791	 0.161527702700958 
792	 0.161852829942547 
793	 0.162192048818809 
794	 0.162539071854857 
795	 0.162827351492309 
796	 0.163160439604663 
797	 0.163516785774613 
798	 0.16382977288088 
799	 0.163928924373014 
800	 0.164354094051883 
801	 0.164842878285926 
802	 0.164815555872258 
803	 0.164991737959824 
804	 0.165182516496886 
805	 0.165291316074806 
806	 0.165410737178417 
807	 0.165514720904952 
808	 0.165649922678349 
809	 0.165811965338301 
810	 0.165851069054124 
811	 0.165694933601852 
812	 0.165507538214833 
813	 0.165495230623106 
814	 0.165343829879612 
815	 0.165159614011291 
816	 0.164848518372098 
817	 0.164275653910601 
818	 0.164431676025617 
819	 0.164328661498305 
820	 0.163676171194367 
821	 0.163250401298262 
822	 0.162417249504694 
823	 0.161440762011423 
824	 0.16060773721271 
825	 0.159577221675042 
826	 0.1586315088057 
827	 0.15761347899997 
828	 0.156358854235242 
829	 0.155323280291715 
830	 0.154242905424515 
831	 0.153213522057861 
832	 0.152574395848001 
833	 0.151786105021178 
834	 0.151399186694308 
835	 0.151367498284351 
836	 0.15076237137914 
837	 0.150544691514944 
838	 0.15040488326359 
839	 0.150049169968532 
840	 0.149945126294464 
841	 0.149899794451258 
842	 0.149694505429078 
843	 0.149258551431425 
844	 0.149230431437447 
845	 0.149253735284979 
846	 0.149130149655361 
847	 0.14885494160058 
848	 0.148860875473478 
849	 0.148691764535281 
850	 0.148333801912151 
851	 0.148418284052009 
852	 0.148390177396801 
853	 0.148153790479741 
854	 0.147843295590644 
855	 0.147836842321292 
856	 0.147782181349324 
857	 0.147682910899018 
858	 0.147595725194766 
859	 0.147375074423672 
860	 0.147258395038807 
861	 0.147293951539598 
862	 0.147390284018488 
863	 0.147360767946023 
864	 0.147058838383108 
865	 0.1467367505947 
866	 0.146874587723439 
867	 0.146450495565305 
868	 0.146132896460599 
869	 0.14616795265086 
870	 0.145978681037042 
871	 0.146017155989633 
872	 0.146062429623863 
873	 0.145823819260531 
874	 0.145134345135269 
875	 0.145073566179635 
876	 0.145222733618274 
877	 0.14495979345013 
878	 0.144846058129086 
879	 0.144497341857101 
880	 0.144124187088896 
881	 0.144075700581687 
882	 0.143789870479269 
883	 0.143416990433365 
884	 0.143189474456224 
885	 0.143269204311397 
886	 0.142988722408846 
887	 0.142681807954668 
888	 0.142570841703951 
889	 0.142595403170528 
890	 0.14249144256583 
891	 0.142272171416008 
892	 0.142020007537462 
893	 0.141840510777065 
894	 0.141796957144923 
895	 0.141649358611728 
896	 0.141387126438351 
897	 0.142028852394368 
898	 0.141667115999223 
899	 0.140855873228149 
900	 0.140676899631954 
901	 0.140593789356161 
902	 0.140078728878194 
903	 0.139574194265591 
904	 0.139653765266679 
905	 0.139553539335871 
906	 0.139311303195291 
907	 0.139226328625671 
908	 0.13954257520464 
909	 0.138729333492864 
910	 0.138198722033715 
911	 0.138206480963908 
912	 0.137744286321759 
913	 0.136798498444426 
914	 0.136530841420863 
915	 0.136763943539586 
916	 0.135866464872275 
917	 0.135342179900293 
918	 0.135191953853237 
919	 0.135092246800464 
920	 0.134651478890903 
921	 0.134478344331403 
922	 0.134086209392243 
923	 0.133287375052706 
924	 0.132966497677808 
925	 0.132600368242172 
926	 0.13228966314776 
927	 0.132043386850444 
928	 0.13083503814763 
929	 0.130125912894511 
930	 0.129674602100802 
931	 0.129125950640007 
932	 0.134166668762305 
933	 0.13010147421602 
934	 0.124100512606436 
935	 0.129239873015026 
936	 0.127231258100352 
937	 0.12397120893635 
938	 0.123493866861548 
939	 0.126486838166077 
940	 0.125545923238202 
941	 0.120300452708786 
942	 0.118072948189343 
943	 0.125992369625829 
944	 0.12555217263172 
945	 0.118248167593094 
946	 0.113352770053609 
947	 0.118996470179926 
948	 0.116415365359076 
949	 0.113871282959286 
950	 0.114984849813052 
951	 0.117802618079263 
952	 0.113023533210832 
953	 0.112733108006658 
954	 0.115458848120234 
955	 0.111485489965853 
956	 0.108499807754083 
957	 0.110290206544278 
958	 0.112425563363076 
959	 0.107770760775595 
960	 0.107567681716805 
961	 0.106844997446684 
962	 0.106141028108744 
963	 0.109215177411526 
964	 0.107044329169165 
965	 0.106314172816713 
966	 0.107668407809929 
967	 0.106951318667625 
968	 0.105840516379723 
969	 0.105367314814269 
970	 0.105386628138022 
971	 0.104934661931541 
972	 0.104610737448581 
973	 0.10569436474639 
974	 0.106972893380931 
975	 0.105482442730411 
976	 0.104483145230989 
977	 0.104144121067361 
978	 0.104988786904872 
979	 0.107356789682955 
980	 0.105769241169613 
981	 0.105305075776575 
982	 0.107204876098678 
983	 0.108458381951465 
984	 0.106228893722258 
985	 0.105646151996011 
986	 0.106605965884782 
987	 0.105145153624461 
988	 0.105661503100907 
989	 0.10720156474904 
990	 0.108025686241405 
991	 0.106958174671845 
992	 0.107541680977537 
993	 0.10835215517361 
994	 0.109004037503446 
995	 0.110005788050199 
996	 0.111031205298169 
997	 0.109653830028115 
998	 0.10817228973378 
999	 0.110408810222693 
1000	 0.111075071768669 
1001	 0.116139690386953 
1002	 0.116576310537598 
1003	 0.117209378958367 
1004	 0.118207770340804 
1005	 0.118797955798691 
1006	 0.119538505330221 
1007	 0.119767356859422 
1008	 0.119696694153625 
1009	 0.119679927184652 
1010	 0.11952097246042 
1011	 0.119834526188168 
1012	 0.12038526671644 
1013	 0.120875799084789 
1014	 0.12128539050825 
1015	 0.121743808455906 
1016	 0.122118655838385 
1017	 0.12234834048738 
1018	 0.122630767332373 
1019	 0.123152202033138 
1020	 0.123354034758672 
1021	 0.123228042882673 
1022	 0.123270452494621 
1023	 0.123547856781042 
1024	 0.123558988962255 
1025	 0.123975467146007 
1026	 0.124744727294903 
1027	 0.125301268886579 
1028	 0.125883417726281 
1029	 0.126342838506554 
1030	 0.126817650693543 
1031	 0.12709359514809 
1032	 0.127153769459437 
1033	 0.127303937351608 
1034	 0.127244019911384 
1035	 0.127507542796719 
1036	 0.128001409104412 
1037	 0.12836248407122 
1038	 0.128880320853083 
1039	 0.129309854326688 
1040	 0.129359338154321 
1041	 0.129835265923172 
1042	 0.130319344906574 
1043	 0.131080161335849 
1044	 0.131322987463404 
1045	 0.131389802906062 
1046	 0.131620971746946 
1047	 0.131506011258895 
1048	 0.13172961409193 
1049	 0.132511793616938 
1050	 0.132771105654579 
1051	 0.13276958595767 
1052	 0.13284782200749 
1053	 0.132656678158114 
1054	 0.132658097740691 
1055	 0.132774322979403 
1056	 0.132928692580615 
1057	 0.13313853559348 
1058	 0.133467631513986 
1059	 0.133645368570875 
1060	 0.133875996033998 
1061	 0.133936237320788 
1062	 0.133659388036079 
1063	 0.133840021331221 
1064	 0.134316492773542 
1065	 0.134468893819993 
1066	 0.134813267240826 
1067	 0.134898080049249 
1068	 0.134394168592648 
1069	 0.134310399764862 
1070	 0.134552898450291 
1071	 0.134558567052031 
1072	 0.134580519361451 
1073	 0.134557030782823 
1074	 0.134549918226266 
1075	 0.134363500488406 
1076	 0.134354182612928 
1077	 0.134632411606211 
1078	 0.134484819833625 
1079	 0.134042284027194 
1080	 0.133843891839272 
1081	 0.133422391241268 
1082	 0.133327853233701 
1083	 0.133756821842779 
1084	 0.133758471858482 
1085	 0.133705580185127 
1086	 0.133550422359043 
1087	 0.13294031947934 
1088	 0.132602606293786 
1089	 0.132301088214643 
1090	 0.132263574102954 
1091	 0.132054310720132 
1092	 0.131952751445742 
1093	 0.131797324601819 
1094	 0.131594677669252 
1095	 0.131220421584658 
1096	 0.13067990170541 
1097	 0.130434496554395 
1098	 0.130105631848362 
1099	 0.129844965355128 
1100	 0.129934292656554 
1101	 0.129909282628319 
1102	 0.129944827955052 
1103	 0.129718118326887 
1104	 0.129512696079051 
1105	 0.128919018519447 
1106	 0.128096153221676 
1107	 0.12767289145523 
1108	 0.128124115470806 
1109	 0.128504747095407 
1110	 0.12858016872409 
1111	 0.128761370283906 
1112	 0.128691895582027 
1113	 0.128009510980063 
1114	 0.127722591428416 
1115	 0.12739315885876 
1116	 0.127236708060763 
1117	 0.127563267055013 
1118	 0.127065902312313 
1119	 0.126309502367819 
1120	 0.126078874047308 
1121	 0.126413263770547 
1122	 0.123220885885382 
1123	 0.123756201447446 
1124	 0.125189257127185 
1125	 0.123342843956513 
1126	 0.12498431910063 
1127	 0.12435999174745 
1128	 0.120835741019091 
1129	 0.118619605399192 
1130	 0.115573128558946 
1131	 0.114692691932222 
1132	 0.115432808600692 
1133	 0.114398434258608 
1134	 0.113852899738099 
1135	 0.112539064137052 
1136	 0.109370078122788 
1137	 0.108291214597818 
1138	 0.107822013726482 
1139	 0.10803877765472 
1140	 0.107584642870265 
1141	 0.106272555753339 
1142	 0.103989924542891 
1143	 0.101111760402477 
1144	 9.88192542780727E-02 
1145	 0.098803006158149 
1146	 9.92403394302741E-02 
1147	 9.70203350098255E-02 
1148	 9.67027445560436E-02 
1149	 9.67237988608562E-02 
1150	 9.54434876955271E-02 
1151	 9.40651562290707E-02 
1152	 9.32205718743576E-02 
1153	 9.17838016730885E-02 
1154	 9.05174223871395E-02 
1155	 8.95367408371626E-02 
1156	 8.91192539623181E-02 
1157	 8.84207570655988E-02 
1158	 8.78699323136301E-02 
1159	 8.84253795356632E-02 
1160	 8.90704601825118E-02 
1161	 8.88606214159713E-02 
1162	 8.82456406475085E-02 
1163	 8.74614050039384E-02 
1164	 8.71202063011654E-02 
1165	 8.73192916229288E-02 
1166	 8.76517810782339E-02 
1167	 8.80309790818334E-02 
1168	 8.78948379645389E-02 
1169	 8.72260247895258E-02 
1170	 0.087089023716591 
1171	 0.087126325776619 
1172	 8.74812476263526E-02 
1173	 8.73619416156026E-02 
1174	 0.087339910696466 
1175	 8.69888572570755E-02 
1176	 8.63930573195488E-02 
1177	 8.61126200697106E-02 
1178	 8.62261885173588E-02 
1179	 8.65731339575159E-02 
1180	 8.67559913226088E-02 
1181	 8.65897015088264E-02 
1182	 8.65228704265517E-02 
1183	 8.62961454629664E-02 
1184	 8.60151020057757E-02 
1185	 8.60677823743976E-02 
1186	 8.58903255888124E-02 
1187	 8.56591052736438E-02 
1188	 8.56270891119908E-02 
1189	 8.53990514534761E-02 
1190	 0.085228707425491 
1191	 0.085258030392237 
1192	 8.52406560262471E-02 
1193	 8.52263996875734E-02 
1194	 8.53111731595892E-02 
1195	 8.53096281081017E-02 
1196	 8.50406199163736E-02 
1197	 0.084987729167035 
1198	 8.51607590983084E-02 
1199	 0.085261469501711 
1200	 8.54003400405561E-02 
1201	 8.55023313293279E-02 
1202	 8.53595123374611E-02 
1203	 0.085109660289624 
1204	 8.51936880620464E-02 
1205	 8.54836033406498E-02 
1206	 8.54060992276719E-02 
1207	 8.52114737765867E-02 
1208	 8.52767757037036E-02 
1209	 8.53193799982291E-02 
1210	 8.51764636967496E-02 
1211	 8.52320003967763E-02 
1212	 8.54451257104071E-02 
1213	 8.54117582773458E-02 
1214	 0.085378359013096 
1215	 0.085400206778243 
1216	 8.55944241579775E-02 
1217	 0.085741283288858 
1218	 8.57595828661344E-02 
1219	 8.58501447208638E-02 
1220	 8.62766696536123E-02 
1221	 8.64044304812223E-02 
1222	 8.61945899246502E-02 
1223	 8.62922484824898E-02 
1224	 8.63404361135358E-02 
1225	 8.63614490229935E-02 
1226	 8.67721908140101E-02 
1227	 8.70904718077583E-02 
1228	 8.69078212986058E-02 
1229	 8.67957388755689E-02 
1230	 8.70361407854679E-02 
1231	 8.72037367677054E-02 
1232	 8.73178911360113E-02 
1233	 8.74722298789096E-02 
1234	 8.75103726445473E-02 
1235	 0.087605298000736 
1236	 0.08786561658192 
1237	 8.80326129549998E-02 
1238	 8.82130246723502E-02 
1239	 8.82155418319472E-02 
1240	 0.088147817279016 
1241	 8.80494794436205E-02 
1242	 0.088252972567414 
1243	 8.83313857540482E-02 
1244	 8.81604115006221E-02 
1245	 8.83816195080861E-02 
1246	 8.85312051256654E-02 
1247	 8.84365138711401E-02 
1248	 8.86586672717895E-02 
1249	 8.88674524480841E-02 
1250	 8.87861214255419E-02 
1251	 8.87162637311534E-02 
1252	 8.88698739282184E-02 
1253	 8.90314381494911E-02 
1254	 8.91019878050757E-02 
1255	 8.93941074921503E-02 
1256	 8.94996958473369E-02 
1257	 8.93835969537495E-02 
1258	 8.92988358182868E-02 
1259	 0.089113474355974 
1260	 8.91452095724907E-02 
1261	 8.94431450756893E-02 
1262	 8.94604483203131E-02 
1263	 8.95406505179349E-02 
1264	 8.92505818042206E-02 
1265	 8.90084657410871E-02 
1266	 8.90417138908441E-02 
1267	 8.90719112379054E-02 
1268	 8.92216579250186E-02 
1269	 0.089383945248251 
1270	 8.92564731055347E-02 
1271	 8.92007150371356E-02 
1272	 0.089381401773497 
1273	 8.93772799215091E-02 
1274	 8.91411902614694E-02 
1275	 8.89333519616863E-02 
1276	 8.87855276143194E-02 
1277	 8.87463603650619E-02 
1278	 8.87085587279776E-02 
1279	 8.86985594063005E-02 
1280	 8.87281532336608E-02 
1281	 8.85890552655864E-02 
1282	 8.82099465918437E-02 
1283	 8.79951855978073E-02 
1284	 8.77543769194246E-02 
1285	 8.76221459008499E-02 
1286	 8.76238158271969E-02 
1287	 8.74995546189534E-02 
1288	 8.74765967836119E-02 
1289	 8.72718766845153E-02 
1290	 8.68743105780527E-02 
1291	 8.64977586860192E-02 
1292	 0.08627446912538 
1293	 0.085846251101687 
1294	 8.55031973456694E-02 
1295	 8.53259311565402E-02 
1296	 8.50337881060928E-02 
1297	 8.46399021001985E-02 
1298	 8.42856884888179E-02 
1299	 8.40865249915085E-02 
1300	 8.36949948047035E-02 
1301	 8.32659029684518E-02 
1302	 8.31073716366752E-02 
1303	 8.26930712628431E-02 
1304	 8.21850516416084E-02 
1305	 8.20424445931955E-02 
1306	 8.16834942382705E-02 
1307	 8.10164773052929E-02 
1308	 8.06017408780882E-02 
1309	 8.03170282213727E-02 
1310	 7.98909769303316E-02 
1311	 7.94726868919564E-02 
1312	 7.91022908958872E-02 
1313	 7.89466827851267E-02 
1314	 0.078469227604742 
1315	 7.75236758704826E-02 
1316	 0.07709923447983 
1317	 7.68015898269957E-02 
1318	 7.62669158724697E-02 
1319	 7.62486517918277E-02 
1320	 7.58434676671491E-02 
1321	 7.47689960479338E-02 
1322	 7.40984427792255E-02 
1323	 7.35542082116505E-02 
1324	 0.072705094002342 
1325	 0.072436573083051 
1326	 7.24177517137239E-02 
1327	 7.19379750080365E-02 
1328	 7.13424052414646E-02 
1329	 7.07510430130809E-02 
1330	 6.99137983197446E-02 
1331	 6.96696809487344E-02 
1332	 6.97541649067203E-02 
1333	 6.89828395070173E-02 
1334	 6.78785148868818E-02 
1335	 6.73932652567878E-02 
1336	 0.067255120484948 
1337	 6.67016046737149E-02 
1338	 6.64446908382574E-02 
1339	 6.59774832845027E-02 
1340	 0.064584538386172 
1341	 0.063703499377384 
1342	 6.28449971122679E-02 
1343	 6.32080356325793E-02 
1344	 6.55185902647537E-02 
1345	 6.60426801489971E-02 
1346	 6.63764719961901E-02 
1347	 6.80669065911371E-02 
1348	 0.069646010594956 
1349	 6.99580009523241E-02 
1350	 7.08106897111019E-02 
1351	 7.35534817242745E-02 
1352	 7.27761254162016E-02 
1353	 7.04036562037485E-02 
1354	 6.95540221068014E-02 
1355	 0.083782482449413 
1356	 0.117986989325535 
1357	 0.121404864172801 
1358	 0.103784983475421 
1359	 0.163491435486454 
1360	 0.198018727710831 
1361	 0.136887772317253 
1362	 0.113893615020964 
1363	 0.19058381474522 
1364	 0.25159225459867 
1365	 0.294410003793726 
1366	 0.415233476369436 
1367	 0.461078300610183 
1368	 0.480945568714406 
1369	 0.415365831884811 
1370	 0.367586456088154 
1371	 0.25285093066346 
1372	 0.280162077818502 
1373	 0.479917533555327 
1374	 0.451278780759888 
1375	 0.355507976319926 
1376	 0.408348028160018 
1377	 0.385132933549103 
1378	 0.349456733704539 
1379	 0.517353721427451 
1380	 0.734776296253684 
1381	 0.812175162052133 
1382	 0.865019131343374 
1383	 1.30226678230565 
1384	 1.50688887203275 
1385	 1.15937070518369 
1386	 0.984495730508278 
1387	 0.70397351339191 
1388	 0.637211157869524 
1389	 0.74872538147437 
1390	 0.629221657891134 
1391	 0.544405650511844 
1392	 0.576978543425889 
1393	 0.760550721209714 
1394	 0.704876911691028 
1395	 0.273523707239209 
1396	 0.174167894779999 
1397	 0.338797108962533 
1398	 0.342267269803289 
1399	 0.561497759241794 
1400	 0.46545044144386 
1401	 0.283856740568693 
1402	 0.276331220146526 
1403	-0.205701939746201 
1404	-0.141216539472978 
1405	-3.10790017703698E-02 
1406	-0.155853609992309 
1407	-0.110988050877848 
1408	 0.156528419249826 
1409	 0.189544595545207 
1410	 0.120597129441475 
1411	 7.95165681856245E-02 
1412	 3.65228901202212E-02 
1413	 5.03604250570833E-02 
1414	 7.18058819169714E-02 
1415	 0.074265320056192 
1416	 0.10716881593584 
1417	 0.111951514838413 
1418	 0.109416013792677 
1419	 7.95712262853599E-02 
1420	 2.48583607150987E-02 
1421	 2.45261244147926E-02 
1422	 3.93162840577599E-02 
1423	 3.23070276021419E-02 
1424	 3.12310939944539E-02 
1425	 3.46091910859041E-02 
1426	 2.65752809086822E-02 
1427	 2.58322407464911E-02 
1428	 4.25930361445257E-02 
1429	 4.40679930537384E-02 
1430	 0.028645765346336 
1431	 2.64726856640459E-02 
1432	 3.16813278858215E-02 
1433	 3.17923868727878E-02 
1434	 3.83996784738151E-02 
1435	 3.76239818127882E-02 
1436	 2.52182921948614E-02 
1437	 1.66050179567914E-02 
1438	 2.35859082230201E-02 
1439	 2.35579998347362E-02 
1440	 2.21562471184294E-02 
1441	 0.027069988973044 
1442	 0.027901539581707 
1443	 2.25862734981968E-02 
1444	 1.98496745802943E-02 
1445	 2.46503738883893E-02 
1446	 2.51275227514381E-02 
1447	 2.13206199636614E-02 
1448	 2.16195474118303E-02 
1449	 2.23692111603365E-02 
1450	 2.14568423896916E-02 
1451	 2.05636378091458E-02 
1452	 1.97501993402043E-02 
1453	 1.85250825837533E-02 
1454	 1.86720284535102E-02 
1455	 1.97880059320946E-02 
1456	 0.019530231729906 
1457	 1.92151892127527E-02 
1458	 1.90039851438446E-02 
1459	 1.81345424773126E-02 
1460	 1.77047366905565E-02 
1461	 1.77124444400903E-02 
1462	 1.73905639054591E-02 
1463	 0.016564637582523 
1464	 1.65362205277427E-02 
1465	 1.68383207540549E-02 
1466	 0.017515703634732 
1467	 1.89781817566818E-02 
1468	 1.94878593988804E-02 
1469	 2.03326958635499E-02 
1470	 2.09087901664234E-02 
1471	 2.04513730793212E-02 
1472	 2.02432875176389E-02 
1473	 2.03419973282224E-02 
1474	 1.98581448563198E-02 
1475	 1.84773890816747E-02 
1476	 1.85209019999457E-02 
1477	 1.93412909712917E-02 
1478	 1.93652628512704E-02 
1479	 1.94357258594476E-02 
1480	 0.019684478125565 
1481	 0.01957033900236 
1482	 1.96600468831857E-02 
1483	 0.020572965582982 
1484	 2.05993306885678E-02 
1485	 1.96422694183781E-02 
1486	 1.95194590003236E-02 
1487	 1.97775305828389E-02 
1488	 1.96743970586812E-02 
1489	 1.94335972129098E-02 
1490	 1.97097234646094E-02 
1491	 2.01276942268458E-02 
1492	 2.02521560730247E-02 
1493	 0.02065182252381 
1494	 2.07963852946106E-02 
1495	 2.04646827189527E-02 
1496	 2.04511475472149E-02 
1497	 2.05245468282798E-02 
1498	 2.07772641938714E-02 
1499	 2.14940442404414E-02 
1500	 2.15518246154258E-02 
1501	 2.10625148009417E-02 
1502	 2.12226786014814E-02 
1503	 2.15296528100096E-02 
1504	 2.15186091678743E-02 
1505	 2.15112879309119E-02 
1506	 2.20690233938966E-02 
1507	 2.21506520336159E-02 
1508	 2.19649813309585E-02 
1509	 2.22383060126306E-02 
1510	 2.25445733419848E-02 
1511	 2.27655377902344E-02 
1512	 2.29436736813958E-02 
1513	 2.32923765843174E-02 
1514	 2.36202696472575E-02 
1515	 2.33538351720201E-02 
1516	 2.33683513166953E-02 
1517	 2.37394651413177E-02 
1518	 2.38678338643649E-02 
1519	 2.41841682276657E-02 
1520	 2.46394570935332E-02 
1521	 2.49828044198293E-02 
1522	 2.52068682108033E-02 
1523	 2.52952912686528E-02 
1524	 2.53526806623384E-02 
1525	 2.55690651730251E-02 
1526	 2.57567663000108E-02 
1527	 2.59399256690244E-02 
1528	 2.63756779480425E-02 
1529	 2.64872614478274E-02 
1530	 2.64111558578359E-02 
1531	 2.67338991826841E-02 
1532	 2.69716526276238E-02 
1533	 2.71191183062104E-02 
1534	 2.73344125160522E-02 
1535	 2.72049810658973E-02 
1536	 2.71914171957213E-02 
1537	 2.75993382592883E-02 
1538	 2.78739396406435E-02 
1539	 0.028166107829668 
1540	 2.85135677983719E-02 
1541	 2.85997446719304E-02 
1542	 2.86620471783526E-02 
1543	 2.88258207500161E-02 
1544	 2.90742599295527E-02 
1545	 0.029351671855479 
1546	 2.96478212816449E-02 
1547	 2.98792228843965E-02 
1548	 0.02995029775998 
1549	 3.02151595900645E-02 
1550	 3.04711777408098E-02 
1551	 3.04520144141031E-02 
1552	 0.030427251589592 
1553	 0.030499807391024 
1554	 0.030796352047542 
1555	 0.031099311659519 
1556	 3.12635083296756E-02 
1557	 3.14450796419434E-02 
1558	 3.15214909462811E-02 
1559	 3.15675256346761E-02 
1560	 3.18417436442778E-02 
1561	 3.20445924705852E-02 
1562	 3.19476139104281E-02 
1563	 0.032106022639117 
1564	 0.032665911636315 
1565	 3.30193890097822E-02 
1566	 3.30176974008792E-02 
1567	 0.03314904811105 
1568	 3.33257652788537E-02 
1569	 3.33413914897109E-02 
1570	 3.35063892641751E-02 
1571	 3.35755820538065E-02 
1572	 0.033543936381817 
1573	 0.033873879683686 
1574	 3.43126065146048E-02 
1575	 3.45798778444965E-02 
1576	 3.46905826961474E-02 
1577	 3.45798854148267E-02 
1578	 3.46593594352828E-02 
1579	 3.50224335830171E-02 
1580	 3.52089075822835E-02 
1581	 3.53554540697225E-02 
1582	 0.035485876664529 
1583	 3.54095096871694E-02 
1584	 3.55223496750132E-02 
1585	 3.58239825942713E-02 
1586	 3.58943832486111E-02 
1587	 0.035825919916282 
1588	 3.59724160005929E-02 
1589	 3.64383477648047E-02 
1590	 3.67187111093544E-02 
1591	 3.66337114541343E-02 
1592	 3.66279202773171E-02 
1593	 3.67199694240642E-02 
1594	 3.67895498115327E-02 
1595	 3.71955937368899E-02 
1596	 3.76811920157905E-02 
1597	 3.75661375052801E-02 
1598	 3.73943527665924E-02 
1599	 3.76216110769861E-02 
1600	 0.037761930886792 
1601	 3.76375070856729E-02 
1602	 3.76143030415986E-02 
1603	 3.78896522137047E-02 
1604	 3.80038101145153E-02 
1605	 3.81164591083074E-02 
1606	 3.85804836644497E-02 
1607	 3.87409954117452E-02 
1608	 3.85381353585475E-02 
1609	 3.83864462545876E-02 
1610	 3.85005303773849E-02 
1611	 3.87644179632767E-02 
1612	 3.89029477036267E-02 
1613	 3.93190656025275E-02 
1614	 3.96258373788605E-02 
1615	 0.039317694790881 
1616	 3.91776715925323E-02 
1617	 3.93919595393586E-02 
1618	 0.03944593175317 
1619	 3.93665460949561E-02 
1620	 3.94340658397343E-02 
1621	 3.95452546344905E-02 
1622	 3.96795191822672E-02 
1623	 3.98186252385435E-02 
1624	 3.98255179195935E-02 
1625	 3.98146069632525E-02 
1626	 3.98279797097814E-02 
1627	 4.00742004365655E-02 
1628	 4.03056758973384E-02 
1629	 4.04360300341333E-02 
1630	 4.05908192223177E-02 
1631	 4.04322117574442E-02 
1632	 4.04696933181985E-02 
1633	 4.06798522661779E-02 
1634	 4.06778040946954E-02 
1635	 4.08123203116839E-02 
1636	 4.09421738048627E-02 
1637	 4.10473460826026E-02 
1638	 4.11893647336135E-02 
1639	 4.11511889031761E-02 
1640	 0.041210999071508 
1641	 0.041405059084093 
1642	 4.13555967821043E-02 
1643	 4.13991470350202E-02 
1644	 4.15965112189848E-02 
1645	 4.16055052144888E-02 
1646	 4.17027363613789E-02 
1647	 4.17611665419006E-02 
1648	 4.17576124008039E-02 
1649	 4.19264947923856E-02 
1650	 4.19927880422699E-02 
1651	 4.21349173150555E-02 
1652	 4.22876307138554E-02 
1653	 4.20194248768668E-02 
1654	 4.20542492603308E-02 
1655	 4.20932613142917E-02 
1656	 4.20307923198325E-02 
1657	 4.22099288185657E-02 
1658	 4.22070668465551E-02 
1659	 4.17117499730827E-02 
1660	 4.17607023072664E-02 
1661	 4.23671873741196E-02 
1662	 4.23466697749117E-02 
1663	 4.21127369167389E-02 
1664	 4.21093291835276E-02 
1665	 4.17388552228317E-02 
1666	 4.19072524039776E-02 
1667	 4.28362226732651E-02 
1668	 4.27091468565085E-02 
1669	 4.25344985702796E-02 
1670	 4.22804044865175E-02 
1671	 0.042179480008397 
1672	 4.23662636707247E-02 
1673	 4.23245625824757E-02 
1674	 4.23660318694116E-02 
1675	 4.25614375263853E-02 
1676	 4.25438067128261E-02 
1677	 4.23852485732155E-02 
1678	 4.23353309779357E-02 
1679	 4.22141043351376E-02 
1680	 4.19190572373992E-02 
1681	 4.18367239423779E-02 
1682	 4.17384319954476E-02 
1683	 4.14793734223868E-02 
1684	 4.12716224264507E-02 
1685	 4.15537985614727E-02 
1686	 4.21393673239332E-02 
1687	 4.17835483617212E-02 
1688	 4.12121952165774E-02 
1689	 4.14630165135144E-02 
1690	 4.15445360916746E-02 
1691	 4.15193551755558E-02 
1692	 4.19544724852495E-02 
1693	 4.16955716210243E-02 
1694	 4.09208977947625E-02 
1695	 4.13631892528955E-02 
1696	 4.19756671309329E-02 
1697	 4.16653938860741E-02 
1698	 4.16801001439658E-02 
1699	 4.16220537713688E-02 
1700	 4.08618803095438E-02 
1701	 0.04098991380471 
1702	 4.15067462990601E-02 
1703	 4.08523700564549E-02 
1704	 4.03558003657528E-02 
1705	 4.06658537967882E-02 
1706	 4.10169334336459E-02 
1707	 4.11596686305612E-02 
1708	 4.13668284393685E-02 
1709	 4.14862253847702E-02 
1710	 4.09369777108225E-02 
1711	 4.05735275566172E-02 
1712	 4.08437708249878E-02 
1713	 4.05361495788486E-02 
1714	 4.03288995406656E-02 
1715	 4.03416341631383E-02 
1716	 4.03106016397754E-02 
1717	 4.00517901215154E-02 
1718	 3.98862497992368E-02 
1719	 4.01109715280967E-02 
1720	 0.039916095332259 
1721	 3.97068560266461E-02 
1722	 4.00008220578749E-02 
1723	 3.98705719356823E-02 
1724	 3.95671351199401E-02 
1725	 3.96545712397806E-02 
1726	 3.95950857770624E-02 
1727	 3.90898202982787E-02 
1728	 0.038693987209035 
1729	 0.038723583357193 
1730	 3.89908779470179E-02 
1731	 3.92546469464735E-02 
1732	 3.92980933918941E-02 
1733	 3.90521543195366E-02 
1734	 3.80028783725431E-02 
1735	 3.71210983196809E-02 
1736	 3.74567608082515E-02 
1737	 3.76923976386833E-02 
1738	 3.78090670561367E-02 
1739	 3.80731735799564E-02 
1740	 3.78299350352688E-02 
1741	 3.77956774460432E-02 
1742	 3.83094580474307E-02 
1743	 0.038480321612484 
1744	 3.81092043432198E-02 
1745	 3.76871847690965E-02 
1746	 3.70211705517209E-02 
1747	 3.67777114797155E-02 
1748	 3.74250799063704E-02 
1749	 3.72782736152065E-02 
1750	 3.66266936686211E-02 
1751	 3.61954698821224E-02 
1752	 3.53727215938299E-02 
1753	 3.49902900096832E-02 
1754	 3.49792061587268E-02 
1755	 0.034865052899116 
1756	 3.48441254334435E-02 
1757	 3.50385796871969E-02 
1758	 0.035193325811818 
1759	 3.52315397957636E-02 
1760	 3.52744737726928E-02 
1761	 3.52222638717992E-02 
1762	 3.47680453760725E-02 
1763	 3.44223726355703E-02 
1764	 3.40826031578625E-02 
1765	 3.40110088707986E-02 
1766	 3.42852632321501E-02 
1767	 3.41900543818354E-02 
1768	 3.38253433313301E-02 
1769	 3.37682435224935E-02 
1770	 3.40810937120911E-02 
1771	 3.43267803613526E-02 
1772	 3.47336773813048E-02 
1773	 3.39378613881485E-02 
1774	 3.26003231907924E-02 
1775	 3.46104112954092E-02 
1776	 3.46787427467607E-02 
1777	 3.40235773149165E-02 
1778	 3.42297174834081E-02 
1779	 3.28859952222425E-02 
1780	 3.24489463122586E-02 
1781	 3.49919228892571E-02 
1782	 3.49194178127196E-02 
1783	 3.23209386905123E-02 
1784	 3.21315118906395E-02 
1785	 3.14914004679977E-02 
1786	 3.16112888764169E-02 
1787	 3.41754912842921E-02 
1788	 3.50845810371811E-02 
1789	 3.61720118437142E-02 
1790	 3.67158409772885E-02 
1791	 3.59852575153163E-02 
1792	 3.67552187079849E-02 
1793	 3.17944912546016E-02 
1794	 2.87879393221759E-02 
1795	 3.19907459639598E-02 
1796	 3.37769580435317E-02 
1797	 3.88543617339759E-02 
1798	 4.00520932445214E-02 
1799	 3.38392315113199E-02 
1800	 3.75304519073698E-02 
1801	 4.02806731368045E-02 
1802	 6.03378249530322E-02 
1803	 6.96418754587695E-02 
1804	 5.61156712294634E-02 
1805	 5.02544463318295E-02 
1806	 2.66411301864444E-02 
1807	 2.36744372056608E-02 
1808	 6.17654439428291E-02 
1809	 6.96571663575501E-02 
1810	 8.64344936907116E-02 
1811	 9.23700273121505E-02 
1812	 2.70968844392464E-03 
1813	-2.05806100941141E-02 
1814	 4.24599641801867E-02 
1815	 6.13928925072576E-02 
1816	 6.99699303637128E-02 
1817	 0.10752947881302 
1818	 0.619022267897999 
1819	 0.756748220432161 
1820	 0.753212256229264 
1821	 0.401316928540765 
1822	 0.299502840884516 
1823	 0.649141452952743 
1824	 0.602632844135637 
1825	 0.367821830650556 
1826	 0.353342784933343 
1827	-3.62387203523898E-02 
1828	 1.11744285788154E-02 
1829	 1.13857522297791 
1830	 1.15224275704532 
1831	 1.04489552503418 
1832	 1.33526467065105 
1833	 2.00156793859739 
1834	 2.8866051647353 
1835	 16.4123221129178 
1836	 83.9972483701542 
1837	-0.513132918136323 
1838	-1.43826165480119 
1839	-0.139646037909226 
1840	-0.597691285282849 
1841	-0.561535350430572 
1842	-0.542036906519678 
1843	-0.426712136201977 
1844	-0.366334545354741 
1845	-7.54944866993898E-02 
1846	 3.53151134684918 
1847	 7.79940420518281 
1848	 151.17953298809 
1849	-14.7966167140625 
1850	 0.265251190020957 
1851	-0.273364687004354 
1852	-2.27695266767638E-02 
1853	-3.41782350677962E-02 
1854	 7.30629166917293E-02 
1855	 0.928450447013 
1856	 1.98064027318678 
1857	 0.907404935197384 
1858	 0.824498926341503 
1859	 0.721616986314473 
1860	 0.34213064600658 
1861	 0.150378531438437 
1862	-3.74162761962185E-02 
1863	-2.22585113100031 
1864	 0.788959667302438 
1865	 0.582644646764139 
1866	 0.59779033878769 
1867	 0.675349399416644 
1868	-1.01963510717139 
1869	-0.184183569199481 
1870	 0.294096452853648 
1871	 0.992505814903883 
1872	-13.2374159453816 
1873	-0.837114409137744 
1874	 2.18198283549409 
1875	 0.334736932853717 
1876	-3.29102302682405 
1877	-0.473986547641325 
1878	-0.414971083973454 
1879	 1.70364529292582 
1880	 0.916668691438871 
1881	-0.182129197545855 
1882	-0.430785747325558 
1883	-0.20595885910028 
1884	 0.111471033622872 
1885	-7.36662303813187E-02 
1886	-0.24941322092881 
1887	-0.155240997317052 
1888	-1.75161656780037 
1889	-1.55471618502497 
1890	 0.47892189769717 
1891	 0.720413667285367 
1892	 1.212248213627 
1893	 3.34469091597147 
1894	 1.13619876922994 
1895	 0.954209061998507 
1896	-1.60651402309117 
1897	-4.65929031479592 
1898	-0.906341050263857 
1899	-4.10878028862558E-02 
1900	 0.454811865097215 
1901	-3.1190221063179 
1902	-2.40402794454043 
1903	-6.11406948212441 
1904	-0.273682164373569 
1905	 1.7342055223135 
1906	 19.6930362122438 
1907	-2.54962598535154 
1908	-2.6056594672686 
1909	-11.7060926739974 
1910	-27.07098873749 
1911	-3.89022100967357 
1912	 3.62244839637018 
1913	 2.53607926347494 
1914	-0.460397217364302 
1915	-0.53524154913964 
1916	-159.146731613926 
1917	 0.366444800559296 
1918	 0.27083233045285 
1919	-4.74700019683744E-02 
1920	-0.443565428571736 
1921	-1.56902697074053 
1922	-1.07647725156081 
1923	-0.939929518777528 
1924	-27.3516964817516 
1925	-3.564320600075 
1926	-2.04546067447193 
1927	 0.679981478763589 
1928	 0.859131396055895 
1929	-3.22937216781132 
1930	 14.8528963736204 
1931	 1.19447543341475 
1932	 0.93624196479811 
1933	 0.682350572700427 
1934	 0.386101147045023 
1935	 0.219090976765505 
1936	 5.28694790030475E-02 
1937	-1.52804997251928E-03 
1938	-2.61498391319851E-03 
1939	-0.025513834978504 
1940	-2.61529996341065E-02 
1941	-4.3288417079355E-03 
1942	-3.29625022408278E-02 
1943	-5.73476812044187E-02 
1944	-0.047307856670996 
1945	-3.11832041907591E-02 
1946	-9.41528130503447E-03 
1947	 1.59087867509962E-03 
1948	 0.035361036959476 
1949	 7.31922040778498E-02 
1950	 7.01811878436509E-02 
1951	 5.48106056230734E-02 
1952	 4.24351489921833E-02 
1953	 1.54718615993039E-02 
1954	-1.59828049611339E-02 
1955	-2.75250057928175E-02 
1956	-2.11610052162999E-02 
1957	-0.019435912642804 
1958	-2.41458747793801E-02 
1959	-9.45406416899006E-03 
1960	 1.9831667228283E-03 
1961	 1.12365973848672E-03 
1962	 7.39099388094636E-03 
1963	 9.31348575490426E-03 
1964	 3.91291579145967E-03 
1965	 3.08046869554012E-03 
1966	 2.75690346525855E-03 
1967	 1.50168037762908E-03 
1968	 2.35761980865584E-04 
1969	 3.61788294744355E-03 
1970	 5.67553470568695E-03 
1971	 6.01630112474959E-03 
1972	 5.93702076496524E-03 
1973	 3.99717741508719E-03 
1974	 3.83215102060739E-03 
1975	 5.84091003640627E-03 
1976	 5.75772656429293E-03 
1977	 4.38010321498592E-03 
1978	 4.37883623060119E-03 
1979	 4.34683624878856E-03 
1980	 3.45145689912007E-03 
1981	 3.61209219861717E-03 
1982	 5.12657198009898E-03 
1983	 5.14648805069329E-03 
1984	 5.58670195041679E-03 
1985	 6.95139679112369E-03 
1986	 8.25632059582777E-03 
1987	 9.03509822556505E-03 
1988	 8.12206517806511E-03 
1989	 6.89657692256628E-03 
1990	 6.02861127426321E-03 
1991	 5.45901888323757E-03 
1992	 4.6453576300624E-03 
1993	 4.55717420083081E-03 
1994	 4.7729668745465E-03 
1995	 5.24253889539846E-03 
1996	 4.94482285140349E-03 
1997	 7.15179323544089E-03 
1998	 7.44522602659348E-03 
1999	 5.14441103345149E-03 
2000	 5.58881387001622E-03 
2001	 3.53775845084201E-03 
2002	 1.75759208039487E-03 
2003	 4.27737840775938E-03 
2004	 5.46668291350229E-03 
2005	 5.1161906501096E-03 
2006	 7.81566039827517E-03 
2007	 8.86546593394187E-03 
2008	 6.2121182946977E-03 
2009	 5.72040452012668E-03 
2010	 6.20872225932116E-03 
2011	 6.08853834812772E-03 
2012	 5.33806095743283E-03 
2013	 7.01186093167018E-03 
2014	 8.67112400718616E-03 
2015	 9.77058418023073E-03 
2016	 1.14237078661713E-02 
2017	 1.37559837842026E-02 
2018	 1.29469589815427E-02 
2019	 1.17152180540955E-02 
2020	 1.11476210130429E-02 
2021	 1.01138700752326E-02 
2022	 8.92643101489423E-03 
2023	 7.87093493795781E-03 
2024	 0.007911901197044 
2025	 8.33773398686834E-03 
2026	 7.85749889570579E-03 
2027	 7.1552685986789E-03 
2028	 8.42442715989844E-03 
2029	 8.55826715750937E-03 
2030	 7.35127029559834E-03 
2031	 7.70403494926783E-03 
2032	 8.46960283553806E-03 
2033	 8.02629753522617E-03 
2034	 8.82963313495706E-03 
2035	 1.00084164330558E-02 
2036	 9.72853224326373E-03 
2037	 1.00946157865533E-02 
2038	 1.06913504951929E-02 
2039	 1.06323510524421E-02 
2040	 9.99258386376487E-03 
2041	 1.01114783263834E-02 
2042	 0.010120736789065 
2043	 1.00150475716715E-02 
2044	 1.02851091172053E-02 
2045	 1.09532817553552E-02 
2046	 1.04000762677857E-02 
2047	 9.5709756221748E-03 
2048	 9.89531241063117E-03 
2049	 0.010016912154769 
2050	 9.63513834529108E-03 
2051	 9.63721420177125E-03 
2052	 9.19622039859275E-03 
2053	 8.71617607887967E-03 
2054	 8.89114145823887E-03 
2055	 1.03831881233538E-02 
2056	 1.10314920971373E-02 
2057	 1.16435965932401E-02 
2058	 1.16008679888644E-02 
2059	 1.02785814310573E-02 
2060	 9.99375944942412E-03 
2061	 9.69453917440315E-03 
2062	 1.07365633749259E-02 
2063	 0.010734829888048 
2064	 1.13722466003954E-02 
2065	 1.19844395781716E-02 
2066	 0.011166529449387 
2067	 1.18422792772022E-02 
2068	 0.013007907466978 
2069	 1.24405913398692E-02 
2070	 1.20632041900367E-02 
2071	 1.18894760585788E-02 
2072	 1.14598780880541E-02 
2073	 1.15989164760618E-02 
2074	 1.26921566408095E-02 
2075	 1.27199188917878E-02 
2076	 1.24225252609862E-02 
2077	 1.24366088143881E-02 
2078	 1.22052310246501E-02 
2079	 1.21627153332808E-02 
2080	 1.26604892535781E-02 
2081	 1.23833829513843E-02 
2082	 1.13418513216672E-02 
2083	 1.10251566968345E-02 
2084	 1.20385797916348E-02 
2085	 1.32266732468747E-02 
2086	 1.45286623027161E-02 
2087	 1.47225126235455E-02 
2088	 1.28531089983762E-02 
2089	 1.16006073459696E-02 
2090	 1.17951158605934E-02 
2091	 1.24123412125276E-02 
2092	 1.25326618708484E-02 
2093	 1.29793018937775E-02 
2094	 1.33898854769648E-02 
2095	 1.34400052192857E-02 
2096	 1.36799341086763E-02 
2097	 1.49100250318483E-02 
2098	 1.53678215074687E-02 
2099	 1.52582646772795E-02 
2100	 1.44324514125489E-02 
2101	 1.44867153132367E-02 
2102	 1.46780786441198E-02 
2103	 1.45286641621363E-02 
2104	 1.52826671760471E-02 
2105	 1.58642080395775E-02 
2106	 1.56422517717726E-02 
2107	 1.60520581423153E-02 
2108	 1.55994174015212E-02 
2109	 1.43875537279228E-02 
2110	 1.49383184397985E-02 
2111	 1.54478435753401E-02 
2112	 1.49025587675057E-02 
2113	 1.52520375172058E-02 
2114	 0.016521059406375 
2115	 1.66724218011683E-02 
2116	 1.65889136731759E-02 
2117	 1.69968508872395E-02 
2118	 1.69147417368396E-02 
2119	 1.67324943250335E-02 
2120	 0.016984811566088 
2121	 1.69490512618247E-02 
2122	 1.59726602717647E-02 
2123	 0.015767665713233 
2124	 0.015783730305782 
2125	 1.56701164563781E-02 
2126	 1.57943599807754E-02 
2127	 1.66360433319252E-02 
2128	 1.76288042753007E-02 
2129	 1.70930808437023E-02 
2130	 0.016125149275883 
2131	 1.58019657578536E-02 
2132	 1.56969956029996E-02 
2133	 0.015994735600665 
2134	 1.61354756756194E-02 
2135	 0.016855114688908 
2136	 1.73702107194774E-02 
2137	 1.74387450029328E-02 
2138	 1.74476655036486E-02 
2139	 1.82277682354376E-02 
2140	 1.79599920103119E-02 
2141	 1.57767573055634E-02 
2142	 1.58526449682486E-02 
2143	 1.74246468152747E-02 
2144	 1.75615518137665E-02 
2145	 1.76927096069603E-02 
2146	 0.018803491084807 
2147	 1.86567841695528E-02 
2148	 1.84067726610417E-02 
2149	 1.79895431300273E-02 
2150	 1.72554674995256E-02 
2151	 1.67672674290672E-02 
2152	 1.50573470615437E-02 
2153	 1.45332026734878E-02 
2154	 1.55127111174564E-02 
2155	 1.57642823401689E-02 
2156	 1.58758929915359E-02 
2157	 1.58822483831498E-02 
2158	 1.59098377040342E-02 
2159	 1.58848913046869E-02 
2160	 1.53896514943802E-02 
2161	 1.53484923901663E-02 
2162	 1.56646602735108E-02 
2163	 1.56068999092292E-02 
2164	 1.54205339388899E-02 
2165	 1.58695302888271E-02 
2166	 1.65182395379098E-02 
2167	 0.017423165395591 
2168	 1.93093344030148E-02 
2169	 2.00638703402011E-02 
2170	 2.10611677621121E-02 
2171	 1.97990124336767E-02 
2172	 1.88750811769164E-02 
2173	 1.86133669305538E-02 
2174	 1.81703571230192E-02 
2175	 1.93059559854213E-02 
2176	 2.02682943866703E-02 
2177	 2.07413175353647E-02 
2178	 2.09107611450143E-02 
2179	 2.01805469164473E-02 
2180	 2.00334739709711E-02 
2181	 0.019234247474329 
2182	 1.76555379170834E-02 
2183	 1.85438491772759E-02 
2184	 1.90514676412263E-02 
2185	 0.017543089047476 
2186	 1.75515940527229E-02 
2187	 1.88197156867698E-02 
2188	 1.85420187811008E-02 
2189	 0.017461277071245 
2190	 1.82026265929937E-02 
2191	 1.93257218573327E-02 
2192	 1.93684568678551E-02 
2193	 2.04530493113789E-02 
2194	 2.06787291667269E-02 
2195	 1.93229020287877E-02 
2196	 0.018304117896836 
2197	 0.016787570297377 
2198	 1.64104630287599E-02 
2199	 1.60923242756755E-02 
2200	 1.66115577174204E-02 
2201	 1.71884372905454E-02 
2202	 1.83235009339267E-02 
2203	 1.86378633100959E-02 
2204	 0.017157403460006 
2205	 1.58706871231165E-02 
2206	 1.59604092009532E-02 
2207	 1.72523127745394E-02 
2208	 1.79023248287058E-02 
2209	 1.60016069253704E-02 
2210	 1.43333245771814E-02 
2211	 1.33013876294139E-02 
2212	 1.26316351128004E-02 
2213	 1.49833977155231E-02 
2214	 1.80233246697035E-02 
2215	 2.03771315106916E-02 
2216	 2.23937405088399E-02 
2217	 2.21892071918469E-02 
2218	 1.95702365715475E-02 
2219	 1.97908222975674E-02 
2220	 1.95338728818111E-02 
2221	 1.90506090772367E-02 
2222	 2.09347592773169E-02 
2223	 2.11453376535262E-02 
2224	 1.97673719060159E-02 
2225	 0.018492539915257 
2226	 1.64074665182213E-02 
2227	 1.55790252483986E-02 
2228	 0.014771408843184 
2229	 1.40183820991498E-02 
2230	 1.49056134136939E-02 
2231	 1.47263925604648E-02 
2232	 1.27213060117217E-02 
2233	 1.23407928950122E-02 
2234	 1.27620641505083E-02 
2235	 1.31514079549175E-02 
2236	 1.35982168281562E-02 
2237	 1.32990328198442E-02 
2238	 1.17510927147256E-02 
2239	 1.39171410469975E-02 
2240	 1.75444727012863E-02 
2241	 1.75941396181666E-02 
2242	 1.65618852582254E-02 
2243	 1.50095016422256E-02 
2244	 1.49474666165574E-02 
2245	 1.69425396311893E-02 
2246	 1.71725658774197E-02 
2247	 1.68700676618624E-02 
2248	 1.60576833018364E-02 
2249	 1.47903922242556E-02 
2250	 1.56074119564047E-02 
2251	 1.75503859416572E-02 
2252	 1.76218970239854E-02 
2253	 1.74408531339304E-02 
2254	 1.87634653054713E-02 
2255	 1.77229084448937E-02 
2256	 1.72143155456919E-02 
2257	 1.83563078769813E-02 
2258	 1.77253174352123E-02 
2259	 1.90051878988332E-02 
2260	 1.94186912882602E-02 
2261	 1.93575102124884E-02 
2262	 1.91390417146391E-02 
2263	 1.90659088569875E-02 
2264	 1.83990555706846E-02 
2265	 1.65412288131489E-02 
2266	 1.60322555524375E-02 
2267	 1.62385491053356E-02 
2268	 1.56036279418009E-02 
2269	 0.015910698287561 
2270	 1.59091236538274E-02 
2271	 1.39302379825482E-02 
2272	 1.37285127809448E-02 
2273	 0.015518790782019 
2274	 1.58606203439475E-02 
2275	 1.56738532744391E-02 
2276	 1.62492725055755E-02 
2277	 1.65966788256759E-02 
2278	 1.61169546898192E-02 
2279	 1.54900490074077E-02 
2280	 1.63278483880578E-02 
2281	 1.78342612745844E-02 
2282	 1.79217895270869E-02 
2283	 1.78802628249947E-02 
2284	 1.88923823377447E-02 
2285	 1.67300242436162E-02 
2286	 1.59980036268875E-02 
2287	 1.76940785183615E-02 
2288	 1.74449837385884E-02 
2289	 1.83550650186956E-02 
2290	 1.85129249819668E-02 
2291	 1.88948144908856E-02 
2292	 2.04366891295095E-02 
2293	 0.016876503487422 
2294	 1.27677911361787E-02 
2295	 1.24122022319685E-02 
2296	 1.38741772540291E-02 
2297	 1.71526679233317E-02 
2298	 1.78563952849263E-02 
2299	 1.62166425893334E-02 
2300	 1.34994697018828E-02 
2301	 1.12521774041226E-02 
2302	 1.32560330241161E-02 
2303	 1.41187103271005E-02 
2304	 1.23625190583296E-02 
2305	 1.02735841727238E-02 
2306	 8.21555542234707E-03 
2307	 9.8500341416175E-03 
2308	 0.012742979685958 
2309	 1.54911625555439E-02 
2310	 1.70278559836395E-02 
2311	 1.61947766930678E-02 
2312	 1.63126961105632E-02 
2313	 1.50025110726294E-02 
2314	 1.55377715797562E-02 
2315	 1.89334441628449E-02 
2316	 1.65651748557512E-02 
2317	 9.48417142322677E-03 
2318	 7.76457748979901E-03 
2319	 9.4945215873561E-03 
2320	 8.8990412482554E-03 
2321	 1.44237901830749E-02 
2322	 2.20257368256842E-02 
2323	 1.99809721433704E-02 
2324	 0.015834290894407 
2325	 1.54534466130617E-02 
2326	 1.11130311261202E-02 
2327	 8.22108683083383E-03 
2328	 1.06308174819624E-02 
2329	 0.013053437020421 
2330	 1.48621306947642E-02 
2331	 1.03970354637157E-02 
2332	 9.8679002735437E-03 
2333	 1.15790716732261E-02 
2334	 6.48894565313935E-03 
2335	 8.49158582628761E-03 
2336	 1.37573237150921E-02 
2337	 1.48139652100734E-02 
2338	 1.48931451877606E-02 
2339	 1.27420260684684E-02 
2340	 8.94980009944615E-03 
2341	 4.73577122783991E-03 
2342	 4.25406975021606E-03 
2343	 1.62367087383428E-02 
2344	 2.85102748450492E-02 
2345	 2.49688132742031E-02 
2346	 2.32699729192588E-02 
2347	 2.34396669559532E-02 
2348	 1.54374311908023E-02 
2349	 0.019033675058379 
2350	 2.87073679399411E-02 
2351	 3.35312179384068E-02 
2352	 3.06455579202524E-02 
2353	 1.83124617677684E-02 
2354	 0.010220420231446 
2355	-1.0243904534845E-03 
2356	-1.11876569680973E-02 
2357	-4.12861987531386E-03 
2358	-3.64103779476876E-03 
2359	-9.40852627265093E-03 
2360	-3.23572970043639E-03 
2361	-5.38893991957665E-03 
2362	-9.35226465918881E-03 
2363	-7.67169157440026E-04 
2364	 5.53678338514179E-03 
2365	 7.38760836198236E-03 
2366	 1.53653423033073E-02 
2367	 1.26670522953088E-02 
2368	 3.77401372887847E-03 
2369	 1.23100935198097E-02 
2370	 5.81719699588836E-03 
2371	-0.011701970762747 
2372	-1.28585797763252E-02 
2373	-1.33079279942183E-02 
2374	-9.87658869510199E-03 
2375	 2.73506757802014E-03 
2376	 0.011488643121155 
2377	 1.56384384012865E-02 
2378	 2.94280699894277E-02 
2379	 4.27828577150533E-02 
2380	 5.38071185796309E-02 
2381	 0.056054372777852 
2382	 3.31414449079405E-02 
2383	 1.11822810865921E-02 
2384	-1.68940197836012E-02 
2385	-4.82479095165273E-02 
2386	-0.061106826413084 
2387	-7.40804710548549E-02 
2388	-7.58210797563944E-02 
2389	-7.43212263406529E-02 
2390	-7.82314597300069E-02 
2391	-0.071958739848611 
2392	-5.98917537339002E-02 
2393	-3.50616435529181E-02 
2394	-2.59149957489594E-02 
2395	-3.42830636477029E-02 
2396	-2.96948664915982E-02 
2397	-4.49507337947311E-02 
2398	-6.30110634239663E-02 
2399	-3.67746183943434E-02 
2400	 4.59403305464281E-03 
2401	 3.35584372761925E-02 
2402	 5.64550915840132E-02 
2403	 4.09684083701879E-02 
2404	-1.03809742892288E-02 
2405	-1.98942511211005E-02 
2406	-3.68910765330876E-04 
2407	 1.87338150691606E-02 
2408	 2.69462976410365E-02 
2409	-5.16232671322801E-03 
2410	-2.81215869606069E-02 
2411	-5.21138321955039E-02 
2412	-2.46000609231082E-02 
2413	 7.72832569533851E-02 
2414	 6.97905789200632E-02 
2415	 0.024621816697283 
2416	 3.79907550534822E-03 
2417	-9.32828118696069E-02 
2418	-7.06909178101421E-02 
2419	-0.020970641264255 
2420	-4.68622711712175E-02 
2421	-6.25347528863568E-02 
2422	-0.146821080535463 
2423	-0.135500153790439 
2424	-5.66371844660998E-02 
2425	-0.11409482114583 
2426	-0.094549037033539 
2427	-0.035745852479552 
2428	-3.82583408301456E-02 
2429	 0.05850161307354 
2430	 8.24963560856299E-02 
2431	-4.15242031215571E-02 
2432	-0.118509038293068 
2433	-8.52389168328194E-02 
2434	-3.33448313638676E-02 
2435	-3.30818679715445E-02 
2436	-7.75900647398303E-03 
2437	-5.25219312989365E-02 
2438	-0.115410042924917 
2439	-4.90405463026756E-02 
2440	-1.10024104470457E-02 
2441	 6.34836802222375E-02 
2442	 0.169750264921967 
2443	 0.184490543177068 
2444	 0.118160151480316 
2445	-6.80423283983219E-02 
2446	-0.176149372360455 
2447	-5.38424337230771E-02 
2448	-4.89647910229119E-02 
2449	-2.34665404918591E-02 
2450	-0.115427806231318 
2451	-0.577466382738712 
2452	-0.518520430837515 
2453	-5.91901482835338E-02 
2454	 2.36554128754626E-03 
2455	 7.80304001704503E-03 
2456	-9.72512975833824E-02 
2457	-6.68618940112332E-02 
2458	 8.85704946941227E-02 
2459	 0.130993332299364 
2460	 7.96639988864235E-02 
2461	-0.235618182718371 
2462	-0.584714538679047 
2463	-1.3681110877324 
2464	-1.34574036712355 
2465	-5.3930927906406 
2466	-2.66747137132112 
2467	-0.897141318475868 
2468	-0.899084663484976 
2469	-0.931196191071065 
2470	 0.126688592718498 
2471	 1.1998643905322 
2472	 2.80714602411847 
2473	 1.37185514175689 
2474	-0.100058157000181 
2475	-0.839347722848728 
2476	-0.81060131865366 
2477	-0.455837802617775 
2478	-0.19317393986225 
2479	 7.53209325013428E-02 
2480	 1.47865002660036 
2481	 0.448676065788754 
2482	 16.2549209669473 
2483	 2.81740487327034 
2484	 1.57371695518679 
2485	 0.190131693920715 
2486	 0.232988911126842 
2487	 1.02631727492025 
2488	 1.48840031155737 
2489	 0.570977999652204 
2490	 0.19130984836817 
2491	 0.335645984317544 
2492	 0.182470354371041 
2493	 5.34417336326664 
2494	-1.46260434648949 
2495	-0.873443814546896 
2496	 0.129611226552389 
2497	-0.367517088088341 
2498	-1.3993432210739 
2499	 276.927034857628 
2500	 0.900510008040837 
