Wavelength	rt0708a00005.asd
350	 7.34908286322198E-02 
351	 0.072632543783441 
352	 7.29693391944597E-02 
353	 7.34502765549197E-02 
354	 7.33753798301279E-02 
355	 0.073811534147968 
356	 7.41001348327468E-02 
357	 7.41405028428719E-02 
358	 7.40243615866429E-02 
359	 0.073782883991537 
360	 7.42136348667212E-02 
361	 7.47634635690989E-02 
362	 0.074211195328188 
363	 7.44490158028298E-02 
364	 7.46577144743443E-02 
365	 7.45212369044476E-02 
366	 7.49896434183832E-02 
367	 7.49375629866181E-02 
368	 7.50031703421327E-02 
369	 7.57018462461071E-02 
370	 7.54843733475135E-02 
371	 7.50748959134823E-02 
372	 7.50938863578202E-02 
373	 7.58375859455857E-02 
374	 7.55923861114557E-02 
375	 7.56478876182761E-02 
376	 7.64304294566379E-02 
377	 7.67813164603764E-02 
378	 7.67144371925808E-02 
379	 7.65651936546898E-02 
380	 7.66566917507479E-02 
381	 0.076937037080795 
382	 7.73698082522379E-02 
383	 7.76221174530567E-02 
384	 7.73987920760949E-02 
385	 7.76144799449484E-02 
386	 7.76474791507984E-02 
387	 7.74873356047371E-02 
388	 7.78877961458987E-02 
389	 7.81037105399244E-02 
390	 7.82178799859646E-02 
391	 7.83251894874403E-02 
392	 7.80591642857913E-02 
393	 7.83417490437001E-02 
394	 7.90043483432704E-02 
395	 7.94114858839105E-02 
396	 7.89142612883461E-02 
397	 7.85162303101511E-02 
398	 7.86267207727653E-02 
399	 7.90230115496982E-02 
400	 0.078921675125456 
401	 7.88622272116991E-02 
402	 7.91795210019029E-02 
403	 7.93073617371869E-02 
404	 7.93750012865608E-02 
405	 7.93188577203136E-02 
406	 7.91154261476173E-02 
407	 7.92965343432687E-02 
408	 7.94484442967329E-02 
409	 7.94457124783836E-02 
410	 7.94940510541794E-02 
411	 7.94212540725257E-02 
412	 7.94092324814486E-02 
413	 0.079552935539935 
414	 7.96144355793457E-02 
415	 7.95772357282421E-02 
416	 7.96015711968549E-02 
417	 7.98503692701195E-02 
418	 8.00439734789581E-02 
419	 8.00199817880645E-02 
420	 7.99157457198823E-02 
421	 8.01531030872622E-02 
422	 8.03988333870578E-02 
423	 8.05731527272547E-02 
424	 8.07003684820278E-02 
425	 8.09247236659057E-02 
426	 0.081292090586074 
427	 8.16204810156777E-02 
428	 8.17114323850907E-02 
429	 8.21330295370278E-02 
430	 8.23743921415202E-02 
431	 8.24086659442827E-02 
432	 8.28716277722864E-02 
433	 8.31495657599041E-02 
434	 8.32390898164576E-02 
435	 8.33191112012714E-02 
436	 8.36749426564121E-02 
437	 8.41157801415871E-02 
438	 8.44151234897249E-02 
439	 8.44078474333417E-02 
440	 8.46020727628247E-02 
441	 8.48348515570765E-02 
442	 8.50130499895385E-02 
443	 8.52632026776828E-02 
444	 8.53919405926571E-02 
445	 8.54639002145032E-02 
446	 8.55908497605606E-02 
447	 8.57877823242869E-02 
448	 8.58479554805067E-02 
449	 8.58110272305039E-02 
450	 8.58912611077151E-02 
451	 8.60238954437781E-02 
452	 8.60860881832496E-02 
453	 8.60632289788374E-02 
454	 8.61829639175171E-02 
455	 8.62393254905851E-02 
456	 8.62099843442752E-02 
457	 8.61581195657855E-02 
458	 8.62211699651528E-02 
459	 8.62120563768328E-02 
460	 8.61308307450098E-02 
461	 8.61705005549375E-02 
462	 8.61518957836913E-02 
463	 0.08608326986468 
464	 8.60208248802967E-02 
465	 8.60526559662178E-02 
466	 8.60446059169361E-02 
467	 8.60208562239992E-02 
468	 8.60552455568112E-02 
469	 8.59549176315282E-02 
470	 8.59023233959664E-02 
471	 8.59354533381044E-02 
472	 8.58566641743216E-02 
473	 8.59431473021928E-02 
474	 8.60527037692389E-02 
475	 8.60058863854831E-02 
476	 8.58658456713218E-02 
477	 8.59463888040622E-02 
478	 8.61321634941874E-02 
479	 8.60591557307522E-02 
480	 8.61607191534247E-02 
481	 8.62193592567557E-02 
482	 8.61502405050879E-02 
483	 8.63106649905107E-02 
484	 8.65158993652376E-02 
485	 8.66412291228494E-02 
486	 8.66451139663019E-02 
487	 8.68210483647462E-02 
488	 8.69338992844449E-02 
489	 8.70062195291771E-02 
490	 8.73111105332547E-02 
491	 8.73910328271654E-02 
492	 8.75030620311499E-02 
493	 8.78561784572851E-02 
494	 0.0881687367876 
495	 8.83546580658938E-02 
496	 8.84818379914885E-02 
497	 0.088700210320925 
498	 8.90106759748127E-02 
499	 8.94270502011102E-02 
500	 8.98277930339348E-02 
501	 8.98807010489001E-02 
502	 9.02989313445648E-02 
503	 9.07200034047695E-02 
504	 9.07646564713493E-02 
505	 9.13123198769869E-02 
506	 9.17544540953042E-02 
507	 9.20180221696987E-02 
508	 9.24606612141127E-02 
509	 9.28260041408784E-02 
510	 9.31729669437261E-02 
511	 9.35537549906341E-02 
512	 9.38655320599068E-02 
513	 9.44185338737096E-02 
514	 9.50692045557675E-02 
515	 9.55093749638062E-02 
516	 9.58983554994114E-02 
517	 9.64055789209161E-02 
518	 9.70178386861333E-02 
519	 9.75040539365418E-02 
520	 9.80487830252649E-02 
521	 9.86169673465756E-02 
522	 9.91527822953649E-02 
523	 9.96774741099958E-02 
524	 0.10032601536482 
525	 0.101031547476092 
526	 0.101605322325505 
527	 0.102211910361022 
528	 0.102802709612312 
529	 0.103364469178022 
530	 0.104018299102098 
531	 0.104671824018498 
532	 0.105327790844607 
533	 0.106010557963668 
534	 0.10667572880306 
535	 0.107344901530004 
536	 0.108026308252168 
537	 0.108704499308398 
538	 0.109388465042371 
539	 0.110106185472776 
540	 0.110843149039166 
541	 0.111413225419987 
542	 0.112148890094996 
543	 0.112963066596783 
544	 0.113542658328395 
545	 0.114145508195826 
546	 0.114771816858275 
547	 0.115384043572665 
548	 0.115931092347772 
549	 0.116557037996756 
550	 0.117181121640093 
551	 0.117679847516944 
552	 0.118174884914621 
553	 0.118697728330829 
554	 0.119210235598763 
555	 0.119603442496602 
556	 0.120095351243169 
557	 0.120573664577357 
558	 0.120934425959048 
559	 0.121388744079445 
560	 0.121840621400351 
561	 0.122241504293333 
562	 0.12258325232396 
563	 0.122920028125942 
564	 0.123275551619268 
565	 0.123635314941054 
566	 0.123925337590882 
567	 0.124158509473139 
568	 0.124413859153178 
569	 0.124757404716151 
570	 0.12503782723615 
571	 0.1252305810915 
572	 0.125412217909963 
573	 0.125748539163884 
574	 0.12598065653584 
575	 0.126095947360501 
576	 0.126186902910386 
577	 0.126494594380865 
578	 0.12671447569267 
579	 0.126849045464025 
580	 0.127065703610374 
581	 0.127111607871383 
582	 0.127117316038473 
583	 0.127199478787195 
584	 0.127372877536873 
585	 0.127509370931516 
586	 0.127563378936014 
587	 0.127533556638777 
588	 0.127456348501015 
589	 0.127464024515042 
590	 0.127564838367135 
591	 0.127631350951404 
592	 0.127552444957907 
593	 0.127425795405788 
594	 0.12737459601732 
595	 0.127457544922076 
596	 0.127471868978688 
597	 0.127397097529417 
598	 0.127320937828918 
599	 0.127233251699376 
600	 0.12719093534968 
601	 0.127198980513243 
602	 0.127165205278559 
603	 0.127107466963477 
604	 0.127029659066894 
605	 0.126957787815084 
606	 0.1270486502051 
607	 0.127023679177564 
608	 0.126882776381839 
609	 0.126922312127116 
610	 0.126916100948766 
611	 0.126817886449024 
612	 0.126683218206063 
613	 0.126761694894076 
614	 0.126776769908045 
615	 0.126702072027095 
616	 0.126655276853687 
617	 0.126661809401962 
618	 0.126573482324513 
619	 0.126400000473961 
620	 0.126437109805299 
621	 0.126459841515211 
622	 0.12643993237133 
623	 0.126421219149941 
624	 0.126487193824995 
625	 0.126518808017341 
626	 0.126481308987297 
627	 0.126430103905884 
628	 0.126406504568345 
629	 0.126472171054936 
630	 0.126580957657255 
631	 0.126382558646282 
632	 0.126367986219925 
633	 0.126441959640914 
634	 0.126270913239714 
635	 0.126073356576995 
636	 0.125859375646309 
637	 0.125657324412597 
638	 0.125547174613764 
639	 0.125409613534055 
640	 0.125212305353225 
641	 0.124956665612152 
642	 0.124634952582165 
643	 0.124415091773942 
644	 0.124259562684571 
645	 0.123975583198713 
646	 0.123716028019392 
647	 0.12355565189753 
648	 0.123455296472281 
649	 0.123126489634618 
650	 0.122911112854354 
651	 0.122854397768064 
652	 0.122848480535985 
653	 0.1225955267386 
654	 0.122392982015687 
655	 0.122377501193601 
656	 0.122394117510697 
657	 0.12212919251951 
658	 0.121829220569978 
659	 0.12170735958759 
660	 0.121572817135368 
661	 0.12135248657298 
662	 0.121089217282148 
663	 0.120895118280787 
664	 0.120697426636639 
665	 0.120471290175042 
666	 0.120246551700216 
667	 0.120149316248664 
668	 0.120029129378218 
669	 0.11993066259441 
670	 0.119923731592999 
671	 0.119859360479983 
672	 0.119827556741532 
673	 0.119875214381669 
674	 0.119996592969003 
675	 0.120170473089156 
676	 0.120359242363275 
677	 0.120538190738787 
678	 0.120700816714331 
679	 0.121005758898676 
680	 0.121384526381989 
681	 0.121698581317951 
682	 0.122115458833791 
683	 0.122735157848057 
684	 0.123495487511768 
685	 0.124193587943483 
686	 0.125303753046627 
687	 0.126484097041444 
688	 0.127354871279703 
689	 0.128640306673275 
690	 0.129893399010203 
691	 0.131090768666576 
692	 0.132468057032645 
693	 0.134004260489948 
694	 0.135515203425848 
695	 0.136895994909317 
696	 0.138352613193148 
697	 0.139774543792347 
698	 0.141316335891314 
699	 0.142997759284444 
700	 0.144341415276242 
701	 0.14560178326923 
702	 0.14687785484057 
703	 0.148135444925471 
704	 0.149193090475975 
705	 0.150252463630841 
706	 0.151345174309516 
707	 0.152069698188921 
708	 0.152761521353572 
709	 0.153436657021412 
710	 0.15398868337991 
711	 0.154306183302145 
712	 0.154581730358673 
713	 0.154807587687857 
714	 0.154759796347734 
715	 0.154718376236017 
716	 0.154795437092442 
717	 0.154929754534656 
718	 0.154555246128106 
719	 0.154073205072363 
720	 0.15365451124787 
721	 0.153234670756103 
722	 0.152914227829839 
723	 0.152440594653634 
724	 0.151762086014599 
725	 0.151048525696219 
726	 0.150294763156978 
727	 0.149427655177576 
728	 0.148408939487633 
729	 0.147322354208386 
730	 0.146140969878846 
731	 0.144975845249725 
732	 0.143920664412766 
733	 0.142984905305829 
734	 0.142224352571241 
735	 0.141661807134366 
736	 0.141251492453507 
737	 0.140910948180958 
738	 0.140642600803852 
739	 0.140482540394983 
740	 0.140489795370116 
741	 0.140446183173785 
742	 0.140418258533483 
743	 0.140577672034548 
744	 0.140623421785851 
745	 0.140592048531573 
746	 0.140608956678713 
747	 0.140866068058948 
748	 0.140970861688836 
749	 0.141052105434438 
750	 0.141249456092387 
751	 0.141275220995626 
752	 0.141283765857911 
753	 0.141369993946398 
754	 0.141544010371396 
755	 0.141416784346819 
756	 0.141511965501254 
757	 0.141914760693801 
758	 0.141956604290165 
759	 0.142300854674047 
760	 0.142872589401286 
761	 0.142894488466373 
762	 0.14270016182104 
763	 0.142652264224738 
764	 0.142826033367781 
765	 0.143089807237675 
766	 0.143110719596793 
767	 0.143099370539284 
768	 0.14317808110032 
769	 0.143383797993374 
770	 0.143552653253744 
771	 0.143775695365048 
772	 0.144084200638084 
773	 0.144197316160788 
774	 0.144358846567631 
775	 0.144622433780999 
776	 0.144935074185923 
777	 0.145141175164174 
778	 0.145414010204423 
779	 0.145729692492981 
780	 0.145868427070324 
781	 0.146173945862094 
782	 0.146524933930251 
783	 0.146812466899127 
784	 0.147159526998149 
785	 0.147454255220174 
786	 0.147740440758805 
787	 0.148102109706731 
788	 0.148539518250823 
789	 0.148817170486352 
790	 0.149070517835429 
791	 0.149677091407586 
792	 0.15010336356739 
793	 0.150415641907836 
794	 0.150719945403354 
795	 0.151032939140712 
796	 0.151329348733395 
797	 0.151686666455723 
798	 0.152114539751267 
799	 0.152240928039541 
800	 0.152556540875597 
801	 0.1529743230962 
802	 0.153142982185081 
803	 0.153426818208029 
804	 0.153588059824542 
805	 0.153648510706687 
806	 0.153937351792963 
807	 0.153855711150527 
808	 0.153846705310701 
809	 0.154167812893642 
810	 0.154070145358002 
811	 0.153818661154939 
812	 0.153602782518795 
813	 0.153565660960234 
814	 0.153553965735624 
815	 0.153276378217197 
816	 0.152827484456943 
817	 0.152581183542481 
818	 0.152371803354795 
819	 0.152044212590719 
820	 0.15156093501572 
821	 0.151032358544614 
822	 0.150304738713509 
823	 0.149501277579838 
824	 0.148660880767352 
825	 0.147300203356156 
826	 0.146167742576299 
827	 0.145082250303659 
828	 0.143696453753339 
829	 0.142579699845589 
830	 0.141375292237365 
831	 0.140357699715565 
832	 0.140129105460977 
833	 0.139218358890646 
834	 0.138498763325622 
835	 0.138292083998537 
836	 0.137855643668556 
837	 0.13761139935027 
838	 0.137357430958077 
839	 0.13697082291348 
840	 0.13685873632371 
841	 0.136788991858395 
842	 0.136673757597601 
843	 0.136481494427435 
844	 0.136163762985603 
845	 0.13611699621745 
846	 0.136122805848125 
847	 0.135660782916421 
848	 0.135651873995818 
849	 0.135640645584496 
850	 0.135363162739546 
851	 0.135016309928885 
852	 0.134925828622903 
853	 0.134890862212579 
854	 0.134750948480198 
855	 0.134702312002919 
856	 0.134514991211651 
857	 0.134264758765382 
858	 0.134110144805461 
859	 0.134224509403905 
860	 0.134017455018272 
861	 0.133669604245799 
862	 0.133682012188712 
863	 0.133870526024661 
864	 0.133682275922084 
865	 0.133294335700686 
866	 0.133446471977434 
867	 0.133137656897057 
868	 0.132827686590364 
869	 0.132685542920722 
870	 0.132272309242929 
871	 0.132435635705873 
872	 0.132448415843662 
873	 0.13189903646794 
874	 0.131853119833745 
875	 0.131492700193938 
876	 0.1311886189945 
877	 0.131311131095725 
878	 0.130897971775978 
879	 0.130472131115606 
880	 0.130318371860476 
881	 0.130410979142556 
882	 0.129804414037396 
883	 0.129615775520393 
884	 0.129737448019489 
885	 0.129221233125786 
886	 0.129059549477388 
887	 0.128634268220555 
888	 0.128047024001602 
889	 0.128292706097786 
890	 0.128383976439539 
891	 0.128106921635879 
892	 0.127681129248293 
893	 0.127866640861885 
894	 0.127412832878205 
895	 0.126926068133142 
896	 0.127140730151594 
897	 0.127378859495577 
898	 0.126742859069703 
899	 0.125986327451454 
900	 0.12601660036029 
901	 0.125994902709009 
902	 0.125849895934593 
903	 0.125297561379493 
904	 0.124355407718883 
905	 0.124778454661476 
906	 0.125104660929124 
907	 0.125030468671155 
908	 0.125035263899093 
909	 0.124147677262219 
910	 0.123407093047651 
911	 0.123222174397337 
912	 0.123181148888004 
913	 0.122803281343938 
914	 0.122515566064942 
915	 0.122529797501463 
916	 0.122566354259166 
917	 0.121198719781286 
918	 0.120582360070612 
919	 0.12100563385184 
920	 0.119838015083597 
921	 0.119965715928743 
922	 0.119951623667589 
923	 0.118784225089121 
924	 0.118087021235879 
925	 0.117402276991863 
926	 0.117323251095641 
927	 0.118070435094839 
928	 0.117428659398594 
929	 0.115058481912143 
930	 0.114138377642358 
931	 0.118485608591745 
932	 0.11794048632717 
933	 0.113498929263347 
934	 0.110341732008242 
935	 0.112671046456949 
936	 0.113934443093911 
937	 0.113463382511297 
938	 0.111953913434988 
939	 0.110723238946877 
940	 0.112262442597344 
941	 0.107494991287211 
942	 0.10347350913181 
943	 0.1111353314484 
944	 0.110986637233722 
945	 0.10625359790566 
946	 0.103332126299989 
947	 0.106665549241486 
948	 0.105263484209298 
949	 0.10320796887667 
950	 0.104188838478801 
951	 0.108575833361109 
952	 0.103258548527609 
953	 0.102506928749787 
954	 0.105721478297619 
955	 0.102708860489489 
956	 0.100936929580501 
957	 0.101922831596327 
958	 0.102034998408429 
959	 9.69247193270978E-02 
960	 9.87998178658109E-02 
961	 9.85821109148616E-02 
962	 9.70410123623878E-02 
963	 0.100929895769076 
964	 9.86759353784774E-02 
965	 9.70356219199788E-02 
966	 9.78822600411505E-02 
967	 9.84312095265957E-02 
968	 9.81630164823076E-02 
969	 9.74506582190945E-02 
970	 9.71392720167856E-02 
971	 9.78862122679559E-02 
972	 9.59841265003607E-02 
973	 9.66834253296606E-02 
974	 9.89285315642246E-02 
975	 9.60730724752261E-02 
976	 9.58418641040155E-02 
977	 0.096867983674662 
978	 9.80481361641076E-02 
979	 9.93425147702373E-02 
980	 9.87788126565537E-02 
981	 9.79577313104341E-02 
982	 9.78402056826798E-02 
983	 9.82259377140187E-02 
984	 9.71787605924883E-02 
985	 9.75853147722758E-02 
986	 9.89677823294248E-02 
987	 0.098355656180586 
988	 9.74539844743868E-02 
989	 9.78518153699129E-02 
990	 9.94475301231047E-02 
991	 0.100670836839327 
992	 9.95248857812754E-02 
993	 9.93996008032408E-02 
994	 0.100235639247251 
995	 9.97648696685378E-02 
996	 0.100394866840727 
997	 9.93004860023469E-02 
998	 9.87001646022836E-02 
999	 0.102014852573502 
1000	 0.100360161850051 
1001	 9.75129563781241E-02 
1002	 9.77301949752246E-02 
1003	 9.80380917604051E-02 
1004	 9.82651632708592E-02 
1005	 9.85656967961823E-02 
1006	 9.90262216072373E-02 
1007	 9.94395221595736E-02 
1008	 9.94890908491332E-02 
1009	 9.92324796065645E-02 
1010	 9.94740126859326E-02 
1011	 9.96623232945278E-02 
1012	 0.100091553657975 
1013	 0.100553183388367 
1014	 0.100594795158565 
1015	 9.99933859580238E-02 
1016	 0.100098153926756 
1017	 0.100212608469184 
1018	 0.100601752587864 
1019	 0.101578536406126 
1020	 0.102182344430955 
1021	 0.102890451488919 
1022	 0.10327201558725 
1023	 0.103142088275365 
1024	 0.103195647098298 
1025	 0.103008576456532 
1026	 0.102682087079231 
1027	 0.102792243853439 
1028	 0.103273021934204 
1029	 0.103610075663734 
1030	 0.104040030052318 
1031	 0.104448995011198 
1032	 0.105086006992308 
1033	 0.105273814459261 
1034	 0.105168602436396 
1035	 0.105299010778403 
1036	 0.105080992565509 
1037	 0.105178162139763 
1038	 0.105692238371386 
1039	 0.106023751949634 
1040	 0.106382400080262 
1041	 0.106985982058023 
1042	 0.107162755799009 
1043	 0.107168628861317 
1044	 0.107278478088468 
1045	 0.107144191591618 
1046	 0.107183354970973 
1047	 0.107306954005647 
1048	 0.107545153758958 
1049	 0.107819086470854 
1050	 0.108142482682451 
1051	 0.108930484591494 
1052	 0.109175814403904 
1053	 0.108979537364046 
1054	 0.109022025609892 
1055	 0.108825140470121 
1056	 0.108763853315614 
1057	 0.108816575744343 
1058	 0.109189919413144 
1059	 0.109250432353296 
1060	 0.109140532007188 
1061	 0.109245180907826 
1062	 0.109402832949339 
1063	 0.109500797023931 
1064	 0.109688026681984 
1065	 0.109828080787865 
1066	 0.109940465426365 
1067	 0.109959368995559 
1068	 0.110024261742315 
1069	 0.109969833460518 
1070	 0.109583957467574 
1071	 0.109439374397185 
1072	 0.109507370426164 
1073	 0.109310737335271 
1074	 0.109371330182219 
1075	 0.109743140919253 
1076	 0.109675792752032 
1077	 0.109420388625066 
1078	 0.109306187424674 
1079	 0.108984055407124 
1080	 0.10884746279133 
1081	 0.109077935831284 
1082	 0.108932182861061 
1083	 0.108404314524861 
1084	 0.108241053881963 
1085	 0.108040737537547 
1086	 0.107964928484721 
1087	 0.108438586804341 
1088	 0.108511143267004 
1089	 0.108379166988648 
1090	 0.108255576122724 
1091	 0.107892871006162 
1092	 0.107129946392849 
1093	 0.106792467807085 
1094	 0.106335030113776 
1095	 0.106227900288401 
1096	 0.106726881890208 
1097	 0.106656019594193 
1098	 0.106512820790307 
1099	 0.106329033727001 
1100	 0.105579796508065 
1101	 0.105316438570721 
1102	 0.105522041485607 
1103	 0.105396974351674 
1104	 0.105374591935541 
1105	 0.105200480076845 
1106	 0.104484312998381 
1107	 0.104074852549059 
1108	 0.103829827783117 
1109	 0.103906638297216 
1110	 0.103812565781113 
1111	 0.103871869314423 
1112	 0.103849220319426 
1113	 0.103957457963729 
1114	 0.103392252361239 
1115	 0.101971086889224 
1116	 0.101474075799107 
1117	 0.100624843135491 
1118	 9.97903999510132E-02 
1119	 0.101336501667127 
1120	 0.101612146993994 
1121	 0.100162409052581 
1122	 9.77463784918847E-02 
1123	 0.10080610116602 
1124	 0.102349552114909 
1125	 9.93766792171305E-02 
1126	 0.100015762516506 
1127	 0.097726242493933 
1128	 9.10223184778508E-02 
1129	 9.08092928525964E-02 
1130	 9.72452685625229E-02 
1131	 0.095947929550832 
1132	 9.28718366409829E-02 
1133	 9.20600583994752E-02 
1134	 0.088351048610143 
1135	 8.74508794381307E-02 
1136	 9.04495071476554E-02 
1137	 0.090379517910649 
1138	 8.81680196774007E-02 
1139	 8.87783090866162E-02 
1140	 9.02268444807935E-02 
1141	 8.79589618439008E-02 
1142	 8.65905780314079E-02 
1143	 8.62865966597132E-02 
1144	 0.083013808128365 
1145	 8.24022622166529E-02 
1146	 8.52528859119095E-02 
1147	 8.45294612909278E-02 
1148	 8.22308675554793E-02 
1149	 8.09459397352296E-02 
1150	 7.94975949172384E-02 
1151	 7.66460819123838E-02 
1152	 0.075808498484239 
1153	 7.63741284864167E-02 
1154	 7.62442861027673E-02 
1155	 7.63404037765029E-02 
1156	 7.58525992449738E-02 
1157	 7.53312472207079E-02 
1158	 7.53903699434964E-02 
1159	 7.55196028774935E-02 
1160	 7.56820112006083E-02 
1161	 7.58824678533335E-02 
1162	 7.57464088971701E-02 
1163	 7.51757513771827E-02 
1164	 7.47612937823638E-02 
1165	 7.46435155084764E-02 
1166	 7.48096403448056E-02 
1167	 0.075319911848224 
1168	 0.075460561028327 
1169	 7.53328140797514E-02 
1170	 7.53573763906645E-02 
1171	 7.51710523194912E-02 
1172	 7.44209086187462E-02 
1173	 7.43525017159951E-02 
1174	 7.46056661768872E-02 
1175	 7.48231727532442E-02 
1176	 7.48599017060509E-02 
1177	 7.49934298834125E-02 
1178	 7.48682456441243E-02 
1179	 7.42280288807421E-02 
1180	 7.39833364676338E-02 
1181	 7.42712368560692E-02 
1182	 7.39632284614579E-02 
1183	 7.37665074429353E-02 
1184	 7.38967294647791E-02 
1185	 0.073401617434522 
1186	 7.33878333875993E-02 
1187	 7.40985190186498E-02 
1188	 0.074055485411493 
1189	 7.35943803617001E-02 
1190	 7.36665390701683E-02 
1191	 7.37567295794588E-02 
1192	 7.36269572470179E-02 
1193	 7.34359916335749E-02 
1194	 7.36247826009577E-02 
1195	 7.36391390304005E-02 
1196	 7.33493092677346E-02 
1197	 7.32486255591025E-02 
1198	 7.34222449618253E-02 
1199	 7.35211539334093E-02 
1200	 7.34237893190083E-02 
1201	 7.33309651548097E-02 
1202	 7.34141042012551E-02 
1203	 7.34037609995881E-02 
1204	 7.30996683091056E-02 
1205	 7.32129122744258E-02 
1206	 7.35395065387741E-02 
1207	 7.33536380644936E-02 
1208	 7.31934805546412E-02 
1209	 7.33529828596196E-02 
1210	 7.34058925609923E-02 
1211	 7.33238929798023E-02 
1212	 7.33583580112445E-02 
1213	 7.33829316503717E-02 
1214	 7.34640830086143E-02 
1215	 7.34009715896701E-02 
1216	 7.37111992376755E-02 
1217	 7.40911992714264E-02 
1218	 7.40094144945938E-02 
1219	 7.39131946278506E-02 
1220	 7.41285754569482E-02 
1221	 7.41571271003333E-02 
1222	 7.41634446512463E-02 
1223	 7.44090042031969E-02 
1224	 0.074468279961601 
1225	 7.43133316063737E-02 
1226	 7.45602735744863E-02 
1227	 7.48645295041002E-02 
1228	 7.47058196500013E-02 
1229	 7.47371432707475E-02 
1230	 7.50340475393373E-02 
1231	 7.49856628677658E-02 
1232	 7.48832128942354E-02 
1233	 7.51365264769542E-02 
1234	 7.53538992819878E-02 
1235	 7.54173294871919E-02 
1236	 7.53705151595805E-02 
1237	 7.54905179944976E-02 
1238	 7.56552896852237E-02 
1239	 0.075545137313272 
1240	 7.56119551435077E-02 
1241	 7.59233353984768E-02 
1242	 7.58848082999799E-02 
1243	 7.57147206339443E-02 
1244	 7.57685493536034E-02 
1245	 7.58995690962367E-02 
1246	 7.60790611407979E-02 
1247	 7.62100066988436E-02 
1248	 7.61754199293768E-02 
1249	 7.59416838502019E-02 
1250	 7.58549112273038E-02 
1251	 7.61738253284637E-02 
1252	 7.62233472144724E-02 
1253	 7.61079315524919E-02 
1254	 7.63469006507121E-02 
1255	 0.076460859574666 
1256	 7.64416027589852E-02 
1257	 7.66581148515923E-02 
1258	 7.67476234163371E-02 
1259	 7.64412920470199E-02 
1260	 7.62266987877585E-02 
1261	 7.61284334713419E-02 
1262	 7.62229816847925E-02 
1263	 7.63624567205893E-02 
1264	 0.076278447029082 
1265	 7.63656068564174E-02 
1266	 7.65845060245097E-02 
1267	 7.64891179588146E-02 
1268	 7.62929847928034E-02 
1269	 7.63867186452691E-02 
1270	 7.64063826543747E-02 
1271	 7.62606696333605E-02 
1272	 7.62447077354054E-02 
1273	 7.62533320547073E-02 
1274	 7.61751674076566E-02 
1275	 7.60062000938361E-02 
1276	 7.58236284828734E-02 
1277	 7.58730986275803E-02 
1278	 7.59653311029327E-02 
1279	 7.57285358489143E-02 
1280	 7.55004037126789E-02 
1281	 7.53971768692616E-02 
1282	 7.51785708144257E-02 
1283	 7.50022974679067E-02 
1284	 7.51060352674919E-02 
1285	 7.51079180704848E-02 
1286	 7.49637697576602E-02 
1287	 7.48109117841432E-02 
1288	 7.47462515787856E-02 
1289	 7.45044804109117E-02 
1290	 7.40447206065348E-02 
1291	 7.36918002483582E-02 
1292	 7.34371560880355E-02 
1293	 7.33538644751742E-02 
1294	 7.32674568602206E-02 
1295	 7.30507107527964E-02 
1296	 7.27352160103756E-02 
1297	 7.24549467597831E-02 
1298	 7.22234278898972E-02 
1299	 7.20045425351319E-02 
1300	 7.19024969354394E-02 
1301	 7.15690879035598E-02 
1302	 7.11794425285765E-02 
1303	 7.10313592417941E-02 
1304	 7.09251429889464E-02 
1305	 7.07140903985776E-02 
1306	 7.03430825663287E-02 
1307	 6.96787219619431E-02 
1308	 6.93434971456804E-02 
1309	 6.89590094430624E-02 
1310	 6.86752595563483E-02 
1311	 6.87981308830622E-02 
1312	 6.83954150476768E-02 
1313	 6.76654387647159E-02 
1314	 6.72901697295461E-02 
1315	 6.68842244153625E-02 
1316	 0.066386518143833 
1317	 6.59286050953529E-02 
1318	 6.56572167205535E-02 
1319	 6.54677051734111E-02 
1320	 6.50158515147434E-02 
1321	 6.45169180097062E-02 
1322	 0.064355031328937 
1323	 6.41456125348165E-02 
1324	 0.063877384920549 
1325	 6.35917514389887E-02 
1326	 6.31105843603546E-02 
1327	 6.24954082510557E-02 
1328	 6.19521567612675E-02 
1329	 6.18569595590802E-02 
1330	 6.15966361366594E-02 
1331	 6.03072216469811E-02 
1332	 5.89783463026071E-02 
1333	 5.84436580915292E-02 
1334	 5.82877394450062E-02 
1335	 5.77852739700423E-02 
1336	 5.74728537464809E-02 
1337	 5.71868017714657E-02 
1338	 5.66765197509795E-02 
1339	 5.62530252136538E-02 
1340	 5.58925890825671E-02 
1341	 5.60865829001627E-02 
1342	 5.69744310090748E-02 
1343	 5.70347402340433E-02 
1344	 5.72953610330115E-02 
1345	 5.76546673246543E-02 
1346	 5.66648613651802E-02 
1347	 5.54524937508846E-02 
1348	 5.57929523484109E-02 
1349	 5.52284592545593E-02 
1350	 4.75451086506807E-02 
1351	 4.30233596822198E-02 
1352	 4.84738701401966E-02 
1353	 4.84708298954168E-02 
1354	 4.62050686680245E-02 
1355	 5.92511818615035E-02 
1356	 8.37304251690803E-02 
1357	 7.68664682970781E-02 
1358	 7.90641735127602E-02 
1359	 0.115441402390736 
1360	 4.35831709540765E-02 
1361	-2.20353675319616E-02 
1362	 5.66651314852208E-02 
1363	 0.089828258842155 
1364	-1.44728326437623E-02 
1365	-2.07870065950123E-02 
1366	 0.122982796974802 
1367	 0.116499689162888 
1368	 0.106100785491309 
1369	 0.330253550724442 
1370	 0.372390412838674 
1371	-0.044257240364888 
1372	-7.83038937984272E-02 
1373	 0.322965297540133 
1374	 0.31828281095564 
1375	 1.83277007327386E-02 
1376	 4.91611773551582E-02 
1377	 0.177278884371691 
1378	 0.127188162502522 
1379	 0.158557077744549 
1380	 0.199901897739031 
1381	-7.00155605850599E-02 
1382	-0.221837427239363 
1383	-0.286626873598153 
1384	-0.216198693187152 
1385	 0.126398163099727 
1386	 7.46318450766349E-02 
1387	-6.26863780162152E-02 
1388	-0.173271402232245 
1389	-1.05413444530744 
1390	-0.984637325630255 
1391	-0.351053951081762 
1392	 5.26468294227483E-02 
1393	 0.290761278259412 
1394	 0.455467492382078 
1395	 0.650887786650818 
1396	 0.874304161955057 
1397	 5.86629948115607E-02 
1398	-9.89958762123481E-02 
1399	 0.272474879674666 
1400	 0.101980380307763 
1401	 0.187140495427605 
1402	 0.508335863044841 
1403	-0.330591676509281 
1404	-0.568301361234413 
1405	-0.313677221449414 
1406	 0.25578229312123 
1407	 0.24625678823132 
1408	 0.131974288245061 
1409	 0.148618967175375 
1410	 0.142510186599378 
1411	 0.101158815514134 
1412	 8.73261785378615E-02 
1413	 0.134888408075419 
1414	 0.192889171529591 
1415	 0.152920224488735 
1416	 0.142158043168027 
1417	 0.117477615259705 
1418	 8.64007255658477E-03 
1419	-2.30838613914838E-03 
1420	 5.77098210044604E-02 
1421	 5.53250787422105E-02 
1422	 3.86353180970577E-02 
1423	 3.11403742204719E-02 
1424	 7.55450298929089E-03 
1425	 8.52964820089907E-03 
1426	 2.36271984025262E-02 
1427	 2.90298216356888E-02 
1428	 4.61790922963719E-02 
1429	 4.53774958693563E-02 
1430	 2.49125837789913E-02 
1431	 2.13869843490142E-02 
1432	 2.24755956111239E-02 
1433	 1.73669013139062E-02 
1434	 1.51533531060565E-02 
1435	 1.70182766155956E-02 
1436	 2.06392816116453E-02 
1437	 1.29817588043535E-02 
1438	 7.8598509792203E-03 
1439	 1.43603768164548E-02 
1440	 2.43150897706558E-02 
1441	 2.00069480280235E-02 
1442	 1.26781211551342E-02 
1443	 1.82858359969773E-02 
1444	 1.69844097534749E-02 
1445	 9.15212219249818E-03 
1446	 9.41276013310455E-03 
1447	 0.011398015030832 
1448	 1.49321648015093E-02 
1449	 1.99321807867125E-02 
1450	 2.10066326178241E-02 
1451	 2.24202098634018E-02 
1452	 2.31975641001821E-02 
1453	 1.97901452265332E-02 
1454	 0.017906871385511 
1455	 1.70494722126885E-02 
1456	 1.68328287161631E-02 
1457	 1.55153663688838E-02 
1458	 1.52493913555261E-02 
1459	 1.64685204388135E-02 
1460	 0.017276887438271 
1461	 1.79462444512631E-02 
1462	 1.79491548175036E-02 
1463	 1.83487874773636E-02 
1464	 1.84319425516271E-02 
1465	 1.69406556080949E-02 
1466	 1.64840283067898E-02 
1467	 1.75397724810979E-02 
1468	 1.77255303113089E-02 
1469	 1.63916233252374E-02 
1470	 1.67277615963211E-02 
1471	 1.86900116373779E-02 
1472	 1.92465355423698E-02 
1473	 1.95738964367148E-02 
1474	 1.99251842031458E-02 
1475	 2.01965203643072E-02 
1476	 1.94713906080836E-02 
1477	 1.79560928682324E-02 
1478	 1.79847873481014E-02 
1479	 1.75273296025618E-02 
1480	 1.76208215631595E-02 
1481	 1.94663971950685E-02 
1482	 2.00339182867196E-02 
1483	 2.00441813165499E-02 
1484	 1.99490358009762E-02 
1485	 1.92593039952993E-02 
1486	 1.91909840268325E-02 
1487	 1.93693586604468E-02 
1488	 1.92184185133936E-02 
1489	 1.89789878344411E-02 
1490	 1.92979802937803E-02 
1491	 1.96421813694195E-02 
1492	 1.99130769807633E-02 
1493	 2.08128610047287E-02 
1494	 2.10238795674406E-02 
1495	 2.06459773641422E-02 
1496	 2.06214703132273E-02 
1497	 0.020399691667888 
1498	 2.03457258135385E-02 
1499	 2.04260412858157E-02 
1500	 0.020765988182851 
1501	 2.15561281644482E-02 
1502	 2.18868337952586E-02 
1503	 2.21468038815196E-02 
1504	 2.23140733455847E-02 
1505	 2.19620542370769E-02 
1506	 2.20661449719442E-02 
1507	 2.25377763827355E-02 
1508	 2.25386251796146E-02 
1509	 2.24224531786557E-02 
1510	 2.23628090668691E-02 
1511	 2.26998549347234E-02 
1512	 2.32180568406047E-02 
1513	 2.31595203088268E-02 
1514	 2.33495190737765E-02 
1515	 2.38158337538241E-02 
1516	 0.023682200849483 
1517	 0.023801338045891 
1518	 2.44785965450036E-02 
1519	 0.024537753597288 
1520	 2.43543620407488E-02 
1521	 2.45957885879059E-02 
1522	 2.48094866533493E-02 
1523	 0.024790496714023 
1524	 2.49074806351843E-02 
1525	 2.54091429486066E-02 
1526	 2.56586112291239E-02 
1527	 2.56322195617081E-02 
1528	 2.58003103821948E-02 
1529	 0.02589378465132 
1530	 2.59919243523694E-02 
1531	 2.62388776897697E-02 
1532	 2.63972691976454E-02 
1533	 2.63776784411811E-02 
1534	 2.62718432914304E-02 
1535	 2.64371359322527E-02 
1536	 2.67707032394227E-02 
1537	 2.70499203946033E-02 
1538	 2.73736181433497E-02 
1539	 0.027622580907878 
1540	 2.77852924197945E-02 
1541	 2.79873587124266E-02 
1542	 2.82554952468943E-02 
1543	 2.84166438962642E-02 
1544	 2.84649268985872E-02 
1545	 2.85234230448696E-02 
1546	 2.85565578594966E-02 
1547	 2.87271664356051E-02 
1548	 2.91661935578532E-02 
1549	 2.94430263247859E-02 
1550	 2.93025542228206E-02 
1551	 2.93098826529692E-02 
1552	 2.96204485061615E-02 
1553	 0.029804377777184 
1554	 0.029973300943464 
1555	 3.03487588699853E-02 
1556	 3.04759759119944E-02 
1557	 3.03508355944242E-02 
1558	 3.05374616259568E-02 
1559	 3.07623178512288E-02 
1560	 3.08048563462478E-02 
1561	 3.09271169998272E-02 
1562	 3.11452900656697E-02 
1563	 3.12948283400095E-02 
1564	 3.13386471943226E-02 
1565	 3.15173616834481E-02 
1566	 3.18588698032428E-02 
1567	 3.20319675327375E-02 
1568	 3.20877932805574E-02 
1569	 3.23203886759118E-02 
1570	 3.25087282943993E-02 
1571	 3.26091037564402E-02 
1572	 3.27253211794781E-02 
1573	 3.28467093047291E-02 
1574	 3.29764512784159E-02 
1575	 3.31273174673338E-02 
1576	 3.32845716493429E-02 
1577	 3.32522553332417E-02 
1578	 3.32952021632327E-02 
1579	 3.36060209849115E-02 
1580	 0.033790579599874 
1581	 0.033638350800332 
1582	 3.35983958531043E-02 
1583	 3.40338660183982E-02 
1584	 3.41726834507821E-02 
1585	 3.38200004877051E-02 
1586	 3.39732592786939E-02 
1587	 3.42761352414633E-02 
1588	 3.42238877739164E-02 
1589	 3.45516626555863E-02 
1590	 3.50410702738072E-02 
1591	 3.50295540583444E-02 
1592	 3.49086979356272E-02 
1593	 3.50142975394797E-02 
1594	 3.50701395932968E-02 
1595	 3.50212245235223E-02 
1596	 3.51670393893563E-02 
1597	 3.54286482876382E-02 
1598	 3.55536738789959E-02 
1599	 0.03557716499414 
1600	 3.56155596973872E-02 
1601	 3.58608839253825E-02 
1602	 3.60993962350449E-02 
1603	 3.61687227779935E-02 
1604	 3.61454169701848E-02 
1605	 3.60675947763678E-02 
1606	 3.62195713191363E-02 
1607	 3.66017104624789E-02 
1608	 3.68431418450051E-02 
1609	 3.66058621935582E-02 
1610	 0.036477847728896 
1611	 3.67327944616267E-02 
1612	 3.68077755564868E-02 
1613	 3.70970546974012E-02 
1614	 3.74701150319893E-02 
1615	 3.73034475904109E-02 
1616	 3.73336385122442E-02 
1617	 3.76426378092049E-02 
1618	 3.73914987619745E-02 
1619	 3.72925724703305E-02 
1620	 3.75811333088944E-02 
1621	 3.75847344805945E-02 
1622	 3.80561625949004E-02 
1623	 3.85027118023502E-02 
1624	 3.81843617659292E-02 
1625	 3.79283371501762E-02 
1626	 0.037856762320034 
1627	 3.80961623385197E-02 
1628	 3.83193981872147E-02 
1629	 3.82581349820169E-02 
1630	 3.84267055355968E-02 
1631	 3.85475555586943E-02 
1632	 3.84202758403427E-02 
1633	 3.85360908156527E-02 
1634	 3.88782598818553E-02 
1635	 3.87580615468889E-02 
1636	 3.85192217543209E-02 
1637	 3.87102265396771E-02 
1638	 3.88558943240113E-02 
1639	 3.87024833304253E-02 
1640	 0.038700828827969 
1641	 3.90941299454356E-02 
1642	 3.91842720461766E-02 
1643	 3.89789777967659E-02 
1644	 3.91923223707016E-02 
1645	 3.96056068894667E-02 
1646	 3.96687228464787E-02 
1647	 0.039494646411775 
1648	 0.039531272159504 
1649	 3.95124409112494E-02 
1650	 3.92652988967634E-02 
1651	 3.95311818015932E-02 
1652	 0.039991023299249 
1653	 3.97563160059887E-02 
1654	 3.97228680137284E-02 
1655	 3.97319609210243E-02 
1656	 3.97617204579989E-02 
1657	 3.98519754326006E-02 
1658	 3.98803855252608E-02 
1659	 3.98437053133812E-02 
1660	 3.98230327117072E-02 
1661	 3.99685676141357E-02 
1662	 3.99300259938034E-02 
1663	 3.96284194339024E-02 
1664	 3.96502516978167E-02 
1665	 3.97431239410257E-02 
1666	 3.98173985060205E-02 
1667	 4.01962409526418E-02 
1668	 4.01582521447458E-02 
1669	 3.97124164646053E-02 
1670	 3.91262527383737E-02 
1671	 3.91429512140485E-02 
1672	 3.94643170859196E-02 
1673	 3.96766447546992E-02 
1674	 3.99504572530522E-02 
1675	 3.99950839818487E-02 
1676	 3.98081843064985E-02 
1677	 3.97639389607755E-02 
1678	 0.039924459288626 
1679	 3.99460998389359E-02 
1680	 3.96235446572069E-02 
1681	 3.95748013494312E-02 
1682	 3.98883312007974E-02 
1683	 3.99541526670945E-02 
1684	 4.00191700552401E-02 
1685	 4.00668652263962E-02 
1686	 3.96103083720045E-02 
1687	 3.93688157703515E-02 
1688	 3.97466549955133E-02 
1689	 4.00535906651693E-02 
1690	 3.98969451768016E-02 
1691	 3.94148992621316E-02 
1692	 3.93778840969203E-02 
1693	 3.96770279857762E-02 
1694	 3.96018545441271E-02 
1695	 3.93501300825619E-02 
1696	 3.91681809446498E-02 
1697	 3.91314787588612E-02 
1698	 3.92053077197119E-02 
1699	 3.94479617830304E-02 
1700	 3.95165408808952E-02 
1701	 3.91307513008227E-02 
1702	 3.90417501450561E-02 
1703	 3.91975024130075E-02 
1704	 3.89537254435795E-02 
1705	 3.85980336897997E-02 
1706	 3.85214026584427E-02 
1707	 3.86429337682979E-02 
1708	 3.89513415243426E-02 
1709	 3.90593338349193E-02 
1710	 3.87569300720017E-02 
1711	 3.87362201184922E-02 
1712	 3.87078151245669E-02 
1713	 3.87191082962916E-02 
1714	 3.87516886490236E-02 
1715	 3.87997632241029E-02 
1716	 3.87932613650049E-02 
1717	 3.81809124475807E-02 
1718	 3.75986938662935E-02 
1719	 3.78392926329877E-02 
1720	 3.81430347112402E-02 
1721	 3.83217699955718E-02 
1722	 3.84006437729569E-02 
1723	 3.77856923905072E-02 
1724	 3.70759911546963E-02 
1725	 3.72334193648517E-02 
1726	 0.037588163345501 
1727	 3.77927093127557E-02 
1728	 0.037831381033195 
1729	 3.69322126813367E-02 
1730	 3.61715879914884E-02 
1731	 3.61895988453335E-02 
1732	 0.036594578527081 
1733	 3.72021667524755E-02 
1734	 3.71548152585055E-02 
1735	 3.70130046465616E-02 
1736	 3.68808081277658E-02 
1737	 3.63318258687931E-02 
1738	 3.64531356402846E-02 
1739	 0.03649997223197 
1740	 3.57091185500436E-02 
1741	 3.58338823095966E-02 
1742	 0.036181025942969 
1743	 3.55093153179388E-02 
1744	 0.035477498522938 
1745	 3.58010484975076E-02 
1746	 3.57179050783147E-02 
1747	 0.035519399952238 
1748	 3.43406006594472E-02 
1749	 3.39218907754781E-02 
1750	 3.41229489540111E-02 
1751	 3.42766662232296E-02 
1752	 3.53466822685658E-02 
1753	 3.53062442334934E-02 
1754	 3.40833447547833E-02 
1755	 3.38285467393232E-02 
1756	 3.35519342198285E-02 
1757	 3.36878424287481E-02 
1758	 3.41957411391191E-02 
1759	 3.38781041406225E-02 
1760	 3.39120563916975E-02 
1761	 3.41901360462785E-02 
1762	 3.38944429117481E-02 
1763	 3.40407591648543E-02 
1764	 3.39907072648805E-02 
1765	 3.31555181806691E-02 
1766	 3.28349298625566E-02 
1767	 3.28162377471297E-02 
1768	 3.20988611650179E-02 
1769	 0.032125978856369 
1770	 3.25911437613958E-02 
1771	 3.17243797574168E-02 
1772	 3.14582226790827E-02 
1773	 3.20530439338815E-02 
1774	 3.16804946320874E-02 
1775	 3.22827394052737E-02 
1776	 3.23334873514413E-02 
1777	 0.031813730974732 
1778	 0.031867364538846 
1779	 0.031911249603422 
1780	 3.16788213870487E-02 
1781	 3.10406337643207E-02 
1782	 3.12961053120248E-02 
1783	 3.23606086854244E-02 
1784	 0.032666224439534 
1785	 0.034204811795689 
1786	 3.46514856743459E-02 
1787	 3.30018714490332E-02 
1788	 3.14520925082156E-02 
1789	 2.86542596830477E-02 
1790	 2.72060898408067E-02 
1791	 0.029259018515561 
1792	 3.46542907068306E-02 
1793	 0.037935863128816 
1794	 3.33041513637384E-02 
1795	 3.11852546659576E-02 
1796	 3.32317973204908E-02 
1797	 3.57084889423009E-02 
1798	 4.07683517122048E-02 
1799	 4.08451270866223E-02 
1800	 0.021162793230676 
1801	 1.39120814371591E-02 
1802	 2.58154338479308E-02 
1803	 3.17535222276193E-02 
1804	 5.15869574763985E-02 
1805	 6.18987493421599E-02 
1806	 5.10580602872808E-02 
1807	 5.38379613910053E-02 
1808	 6.42671727454403E-02 
1809	 5.32330152691486E-02 
1810	 1.37852900193175E-02 
1811	 6.60567661508633E-03 
1812	-8.94349438644675E-03 
1813	-1.38659392415063E-02 
1814	 8.69266474619246E-02 
1815	 0.135803756763847 
1816	 9.56207061245948E-02 
1817	 0.167194765883266 
1818	 0.634763589219886 
1819	 1.32513580942946 
1820	 0.782828706754768 
1821	 0.437542848789138 
1822	 0.354550789013973 
1823	 0.306889237786319 
1824	 0.326144995458997 
1825	 0.742863047762741 
1826	 0.765708575928923 
1827	 0.51280325010619 
1828	 0.231765131346096 
1829	-0.582756111486018 
1830	-0.834220550274598 
1831	-1.107863406327 
1832	-1.42952650663892 
1833	-1.8135466355342 
1834	-2.81834361703292 
1835	-32.6056450440705 
1836	-257.73196865447 
1837	-7.10183392490484 
1838	-4.64761353381375 
1839	-2.66788447080711 
1840	-1.42873169454948 
1841	-0.909631726353227 
1842	-1.47461308567617 
1843	-1.40656222381438 
1844	-0.564476815621461 
1845	-0.693920291919936 
1846	-4.07827091309129 
1847	-7.69940973223377 
1848	-192.340088459177 
1849	 19.5972612101784 
1850	-0.812599087179802 
1851	 0.152108800166741 
1852	 0.284352777640747 
1853	 0.3093261393755 
1854	 0.235396880848088 
1855	-0.332977458321291 
1856	-1.84034023864197 
1857	-1.77450558651068 
1858	-1.14142289133133 
1859	-0.144366446283511 
1860	 0.232145643276535 
1861	 0.871486575651172 
1862	 1.31605583348901 
1863	 1.61696440227122 
1864	 0.155237896351822 
1865	 0.502332962682282 
1866	 2.070676156765 
1867	 3.0957654630763 
1868	-1.31367553023571 
1869	-0.180621008351537 
1870	 0.636467739194552 
1871	 0.592377144690427 
1872	 4.32709274366462 
1873	 0.370742521405394 
1874	-3.76320696496387 
1875	 6.72180866087672 
1876	-3.89211656152174 
1877	 0.202774401157585 
1878	 0.175860220826985 
1879	-1.08532726260651 
1880	-0.492239597032107 
1881	 0.322385497228097 
1882	 1.89632488718298 
1883	-2.73064380215089 
1884	-0.52966887000456 
1885	-0.793595885937957 
1886	-1.49306467631152 
1887	-2.122401443743 
1888	-4.11951511907859 
1889	-3.06200762160565 
1890	 0.32504059003268 
1891	 0.498924464063631 
1892	 0.427550699093608 
1893	 2.44877561709703 
1894	 1.65018450311061 
1895	 1.81452862898279 
1896	-2.58757447774169 
1897	-5.59230914634703 
1898	 2.20674259268385 
1899	 0.762144773982421 
1900	 0.772163315286915 
1901	 0.105016464338563 
1902	-0.247600192468148 
1903	-4.51466595748476 
1904	 5.21232315825507 
1905	-1.86074254370972 
1906	-24.1077697640132 
1907	 8.96000307202783E-02 
1908	 0.972627339607208 
1909	 0.573428288540513 
1910	 10.7107956459946 
1911	 1.09880813123501 
1912	 7.18283053438394 
1913	 10.5297816545918 
1914	-1.21880028213293 
1915	-1.39540803249437 
1916	-58.9631986059617 
1917	-0.340781173224074 
1918	 0.276328981059715 
1919	 0.3483883803019 
1920	 0.2366545147088 
1921	 0.485575735385049 
1922	-0.209091483178864 
1923	-1.58118295109083 
1924	 126.864903690151 
1925	 6.19584014070726 
1926	 5.36977660327135 
1927	 2.07427599097743 
1928	 2.2329910899989 
1929	-5.42467276631528 
1930	 4.80678248313378 
1931	-0.667268021592529 
1932	-0.795356098249255 
1933	-0.317684233563148 
1934	-0.165269371713619 
1935	-0.163130212034007 
1936	-0.147014451212319 
1937	-0.140854302546179 
1938	-0.127704942140117 
1939	-8.95118474582705E-02 
1940	 9.26643482284967E-03 
1941	 5.73391589271551E-02 
1942	 2.88231541242412E-02 
1943	 1.43729455602362E-03 
1944	-2.86517831286413E-02 
1945	-2.98357813077636E-02 
1946	-1.99084417722237E-03 
1947	-3.28930981096118E-03 
1948	-7.86964205359793E-03 
1949	-3.30072473500321E-03 
1950	-7.18903432520054E-03 
1951	-1.21826161168227E-02 
1952	-1.91020038615151E-02 
1953	-2.63727183607237E-02 
1954	-0.034429205019158 
1955	-3.21017630439702E-02 
1956	-1.84986687792156E-02 
1957	 8.80501306959702E-03 
1958	 2.92800593469522E-02 
1959	 2.80835309726854E-02 
1960	 2.22671290628906E-02 
1961	 1.89361293864727E-02 
1962	 1.59677221375167E-02 
1963	 1.48702267259451E-02 
1964	 1.18900867067278E-02 
1965	 6.92567668469213E-03 
1966	 5.22965690785865E-03 
1967	 3.56460280487294E-03 
1968	 1.89289162860355E-03 
1969	-1.2677362564554E-04 
1970	 1.8721907471188E-03 
1971	 3.46271574580637E-03 
1972	 1.44305035621309E-03 
1973	 1.70333813078902E-03 
1974	 3.51177332351893E-03 
1975	 2.80849290185521E-03 
1976	 2.92180278287374E-03 
1977	 4.68031357971543E-03 
1978	 5.36067178812729E-03 
1979	 5.75283321464686E-03 
1980	 5.38121887246653E-03 
1981	 5.92579666552423E-03 
1982	 7.34163922438703E-03 
1983	 8.11305815083868E-03 
1984	 8.21483134562901E-03 
1985	 9.12026778545313E-03 
1986	 9.30798148139588E-03 
1987	 8.42867041044892E-03 
1988	 8.31152570813668E-03 
1989	 8.51607119804204E-03 
1990	 8.23506020416631E-03 
1991	 7.56251516901006E-03 
1992	 7.11994553917364E-03 
1993	 6.44178320922899E-03 
1994	 6.13847352015167E-03 
1995	 5.82563457779741E-03 
1996	 7.29917818209404E-03 
1997	 7.36758078333488E-03 
1998	 6.13046108669085E-03 
1999	 6.37224716755901E-03 
2000	 6.17665046559904E-03 
2001	 7.12676514445181E-03 
2002	 0.010878711512035 
2003	 1.10457546173558E-02 
2004	 8.26716559701154E-03 
2005	 9.27403058512938E-03 
2006	 9.66878488864454E-03 
2007	 9.98394841498389E-03 
2008	 1.09884743275345E-02 
2009	 1.05437607702846E-02 
2010	 5.13303174879244E-03 
2011	 5.43841523041924E-03 
2012	 9.54587199495794E-03 
2013	 1.04775162188286E-02 
2014	 9.39511593808669E-03 
2015	 8.40285558153185E-03 
2016	 6.95500687137611E-03 
2017	 6.98627821234179E-03 
2018	 7.25683982825982E-03 
2019	 6.79266374497048E-03 
2020	 5.68663094223756E-03 
2021	 5.19255046263309E-03 
2022	 6.34525908282327E-03 
2023	 8.09278767120203E-03 
2024	 8.85634891331866E-03 
2025	 9.08296933555785E-03 
2026	 9.39696895497493E-03 
2027	 9.69452383194441E-03 
2028	 9.41884598860202E-03 
2029	 9.59915784926482E-03 
2030	 9.23424413368602E-03 
2031	 8.51227042928643E-03 
2032	 8.87425615316301E-03 
2033	 9.73054806595278E-03 
2034	 1.08392825708475E-02 
2035	 1.14958658143475E-02 
2036	 1.14608022815826E-02 
2037	 1.11272775068609E-02 
2038	 1.07421144992944E-02 
2039	 1.06912085705048E-02 
2040	 1.12546244115798E-02 
2041	 1.14083486713919E-02 
2042	 1.16717742465542E-02 
2043	 1.15621228778761E-02 
2044	 1.11202439975062E-02 
2045	 1.04026829791451E-02 
2046	 1.03229942968158E-02 
2047	 1.00320131787585E-02 
2048	 1.04637807933664E-02 
2049	 1.12461996495201E-02 
2050	 1.09420122192739E-02 
2051	 1.09219700254818E-02 
2052	 1.06164576755085E-02 
2053	 9.98937295480026E-03 
2054	 9.49822736539131E-03 
2055	 8.85368842043421E-03 
2056	 8.74931583331676E-03 
2057	 8.5379362825118E-03 
2058	 9.14277376151283E-03 
2059	 0.011294228010589 
2060	 1.18180161740967E-02 
2061	 1.18353972000289E-02 
2062	 1.16216463619155E-02 
2063	 1.16045113570791E-02 
2064	 1.19976656089861E-02 
2065	 1.21535389470613E-02 
2066	 1.23711388680685E-02 
2067	 0.0118841659945 
2068	 1.09576086180391E-02 
2069	 1.15167637440379E-02 
2070	 1.17197268901833E-02 
2071	 1.14267563280543E-02 
2072	 1.21737362894865E-02 
2073	 1.26902947523516E-02 
2074	 1.34265658172518E-02 
2075	 1.34359726410926E-02 
2076	 1.28359864227304E-02 
2077	 1.31369182577413E-02 
2078	 1.34647762784324E-02 
2079	 1.36007451583927E-02 
2080	 1.41689405703934E-02 
2081	 1.51949716231551E-02 
2082	 1.51380373509394E-02 
2083	 1.44872730441234E-02 
2084	 0.014342085394021 
2085	 1.36891191628851E-02 
2086	 1.32570869053381E-02 
2087	 1.35673520300329E-02 
2088	 1.36077977049195E-02 
2089	 1.40142682198516E-02 
2090	 1.39557099237553E-02 
2091	 1.35172339176955E-02 
2092	 1.34161899186739E-02 
2093	 1.30477466279169E-02 
2094	 1.32582753609501E-02 
2095	 1.43655933899786E-02 
2096	 1.48012577167134E-02 
2097	 1.56610530619668E-02 
2098	 1.61830791303201E-02 
2099	 0.016421958727021 
2100	 0.015438594316222 
2101	 1.55817789634802E-02 
2102	 1.55766841195161E-02 
2103	 1.55100516720538E-02 
2104	 1.58927244916269E-02 
2105	 1.59446388150092E-02 
2106	 1.58328668211055E-02 
2107	 1.64678793855063E-02 
2108	 1.73990301107456E-02 
2109	 1.78065040466146E-02 
2110	 1.79934594973314E-02 
2111	 1.77318840609716E-02 
2112	 0.01726055007742 
2113	 1.70813617519431E-02 
2114	 1.72201960613329E-02 
2115	 1.73440895903158E-02 
2116	 1.77202552428595E-02 
2117	 1.75945071047591E-02 
2118	 1.69464888357926E-02 
2119	 1.67515862478518E-02 
2120	 1.66308661769042E-02 
2121	 1.65041927548864E-02 
2122	 1.57824824749989E-02 
2123	 1.58958325335309E-02 
2124	 1.69210989972028E-02 
2125	 1.62425813987559E-02 
2126	 1.52852390084654E-02 
2127	 1.61521483570199E-02 
2128	 1.62103863248759E-02 
2129	 1.61723826182192E-02 
2130	 1.66982422834099E-02 
2131	 1.63410700860526E-02 
2132	 1.55413094890278E-02 
2133	 0.01499362978411 
2134	 1.50548484177387E-02 
2135	 1.61946611377421E-02 
2136	 1.66797264782742E-02 
2137	 0.017359544628169 
2138	 1.76271266712154E-02 
2139	 0.017394514104784 
2140	 1.77331122929667E-02 
2141	 1.84561778053485E-02 
2142	 1.83644457210666E-02 
2143	 1.82583904691819E-02 
2144	 1.76663120733923E-02 
2145	 1.68637359957791E-02 
2146	 1.68510056258403E-02 
2147	 1.77436199043467E-02 
2148	 0.019094008192311 
2149	 2.01642445306581E-02 
2150	 2.03324091047033E-02 
2151	 1.88008747960392E-02 
2152	 1.78743653847958E-02 
2153	 1.75281261080022E-02 
2154	 1.64614999795873E-02 
2155	 1.73656591329074E-02 
2156	 1.91948511513966E-02 
2157	 1.95185884200635E-02 
2158	 1.90048394840282E-02 
2159	 1.89142854451519E-02 
2160	 1.81590904080972E-02 
2161	 1.78112547156118E-02 
2162	 1.82756841336464E-02 
2163	 1.84187358653558E-02 
2164	 1.79291298079352E-02 
2165	 1.77552027443054E-02 
2166	 1.78273485014191E-02 
2167	 1.79344012848711E-02 
2168	 1.82933884875287E-02 
2169	 1.86074256044968E-02 
2170	 1.91202624681962E-02 
2171	 1.92489927973276E-02 
2172	 1.86234802921095E-02 
2173	 1.74337997388939E-02 
2174	 0.017713282129582 
2175	 1.85107496606921E-02 
2176	 1.90121671832606E-02 
2177	 1.96874724993877E-02 
2178	 2.02431566537096E-02 
2179	 2.01553279352674E-02 
2180	 2.00657167238148E-02 
2181	 2.07697734188315E-02 
2182	 2.09082792482961E-02 
2183	 0.019821024958364 
2184	 1.92356162658421E-02 
2185	 1.96268682871023E-02 
2186	 1.91802838653309E-02 
2187	 1.77455831189651E-02 
2188	 1.74403551419025E-02 
2189	 1.77441866982422E-02 
2190	 1.76203065267108E-02 
2191	 0.017625971872565 
2192	 1.77701603689788E-02 
2193	 1.80482429143634E-02 
2194	 1.77724895170637E-02 
2195	 1.75180007188162E-02 
2196	 1.75555982113578E-02 
2197	 1.64579017484338E-02 
2198	 1.65127308051026E-02 
2199	 1.77668029383968E-02 
2200	 1.87270770772411E-02 
2201	 1.96510155044769E-02 
2202	 1.97066904851191E-02 
2203	 1.95697757505892E-02 
2204	 1.97240459725136E-02 
2205	 1.90268870338921E-02 
2206	 1.85062778555699E-02 
2207	 1.84025735876507E-02 
2208	 1.86655953866527E-02 
2209	 1.87129965246516E-02 
2210	 1.91866467224932E-02 
2211	 1.80865902035153E-02 
2212	 1.55819424186327E-02 
2213	 1.66129429220222E-02 
2214	 1.91883765810286E-02 
2215	 2.06568169469486E-02 
2216	 2.23917203780424E-02 
2217	 2.25070191022141E-02 
2218	 1.99629376169808E-02 
2219	 1.87165724826796E-02 
2220	 1.72698415190802E-02 
2221	 1.65921989525421E-02 
2222	 1.66086698437689E-02 
2223	 1.56643170931239E-02 
2224	 1.43651487307941E-02 
2225	 1.40349264598453E-02 
2226	 1.34333473246772E-02 
2227	 1.35519797994463E-02 
2228	 1.46879835057636E-02 
2229	 1.52045327647872E-02 
2230	 1.59140251557009E-02 
2231	 1.66028935283037E-02 
2232	 1.80090454270167E-02 
2233	 0.018809034135892 
2234	 2.00303965378609E-02 
2235	 1.80764478523487E-02 
2236	 0.017072228310346 
2237	 1.63882341740886E-02 
2238	 1.60779179602464E-02 
2239	 1.79821456785656E-02 
2240	 0.020364288839765 
2241	 2.04142728556172E-02 
2242	 1.66970994706762E-02 
2243	 1.27195370987782E-02 
2244	 9.8061098994888E-03 
2245	 8.00499452715709E-03 
2246	 0.010689043698293 
2247	 1.49826585490254E-02 
2248	 1.60794009053157E-02 
2249	 1.63552616093457E-02 
2250	 1.62924677034953E-02 
2251	 1.54282270052317E-02 
2252	 1.56122846790941E-02 
2253	 1.60430476146935E-02 
2254	 1.84820486192334E-02 
2255	 1.92463915245686E-02 
2256	 1.66098405588043E-02 
2257	 1.57920735232724E-02 
2258	 1.50482093463263E-02 
2259	 1.44573298903376E-02 
2260	 1.47998721960467E-02 
2261	 1.86212888985206E-02 
2262	 0.019740803946191 
2263	 1.94948168074038E-02 
2264	 1.95261762040179E-02 
2265	 1.82988464276165E-02 
2266	 1.90265377084602E-02 
2267	 2.16042056900216E-02 
2268	 2.09222428458668E-02 
2269	 2.03573733959587E-02 
2270	 1.95572746005729E-02 
2271	 1.41944597549309E-02 
2272	 1.26324589274557E-02 
2273	 1.51479427592831E-02 
2274	 1.51779322163831E-02 
2275	 1.51977684602624E-02 
2276	 1.45111992524955E-02 
2277	 1.16490695038116E-02 
2278	 1.03764776287477E-02 
2279	 8.59809095150564E-03 
2280	 9.60144112056395E-03 
2281	 1.31587666925519E-02 
2282	 1.66634179681577E-02 
2283	 1.97486106665356E-02 
2284	 1.95711007716816E-02 
2285	 2.04550243145457E-02 
2286	 0.018538345973763 
2287	 1.44740209914708E-02 
2288	 1.68589235098641E-02 
2289	 0.01452185810209 
2290	 1.18253035541509E-02 
2291	 1.37186377934615E-02 
2292	 1.21305773714562E-02 
2293	 1.22745098679016E-02 
2294	 1.52129045498056E-02 
2295	 1.62733303658794E-02 
2296	 1.75417915658165E-02 
2297	 1.88796255953447E-02 
2298	 1.61747743727448E-02 
2299	 1.33609902309277E-02 
2300	 1.28574142960536E-02 
2301	 1.17398343069388E-02 
2302	 1.21507229016139E-02 
2303	 1.50897610859805E-02 
2304	 1.34059538690055E-02 
2305	 0.01110114534683 
2306	 1.09673550858293E-02 
2307	 8.91108090712518E-03 
2308	 8.24202360801435E-03 
2309	 6.58734614126518E-03 
2310	 7.15502290269475E-03 
2311	 9.65053858715848E-03 
2312	 1.11399786559263E-02 
2313	 1.30286025642351E-02 
2314	 1.43996646993976E-02 
2315	 1.23723583653218E-02 
2316	 8.7002237771614E-03 
2317	 1.13631306422688E-02 
2318	 1.09029580809843E-02 
2319	 9.18937942378084E-03 
2320	 1.03126881340005E-02 
2321	 9.88881232763435E-03 
2322	 1.07579860356777E-02 
2323	 1.03059863413653E-02 
2324	 1.03728683965862E-02 
2325	 6.4837499932827E-03 
2326	-1.86643749837145E-03 
2327	-5.10073919442497E-03 
2328	-5.22620120781419E-04 
2329	 3.45467128123762E-03 
2330	 8.00602905215726E-03 
2331	 1.45549082378538E-02 
2332	 0.011202920505906 
2333	 7.72446947231791E-03 
2334	 1.02990586317995E-02 
2335	 9.84300107998157E-03 
2336	 8.19531173258102E-03 
2337	 7.58166577194769E-03 
2338	 1.02840418820201E-02 
2339	 1.91857683382159E-02 
2340	 2.79541518986178E-02 
2341	 0.02394956439853 
2342	 1.78928168734875E-02 
2343	 1.53622103979344E-02 
2344	 3.54872397053673E-03 
2345	 3.68822373839695E-04 
2346	 4.42914236466785E-03 
2347	-1.3353944068602E-04 
2348	-2.83616156851685E-03 
2349	-6.9183896144566E-04 
2350	 7.72493343400671E-03 
2351	 1.83613838565607E-02 
2352	 2.29438296188212E-02 
2353	 0.02695026380514 
2354	 2.76197026302005E-02 
2355	 0.018745355068188 
2356	 8.04522979183874E-03 
2357	 1.75841557439708E-03 
2358	 1.14162411273603E-03 
2359	 1.3355762060072E-03 
2360	 4.14477664904497E-04 
2361	 1.64708750690516E-03 
2362	 4.88015880583417E-03 
2363	 4.79869763221967E-03 
2364	 3.12504585778867E-03 
2365	 3.85240528952689E-03 
2366	 4.34278158636834E-03 
2367	 1.19554925061932E-03 
2368	 1.16186214114945E-03 
2369	 0.001391461051037 
2370	-3.74437961078185E-03 
2371	-2.92196261878643E-03 
2372	 2.56460219562133E-03 
2373	 2.10214239889064E-02 
2374	 0.031978539950743 
2375	 2.93487842745434E-02 
2376	 2.01625220414307E-02 
2377	-1.21445668602176E-02 
2378	-3.81849600739122E-02 
2379	-5.06111372474204E-02 
2380	-4.37925182493837E-02 
2381	-2.42667971952257E-02 
2382	-9.10669909204716E-03 
2383	 5.2104886745256E-04 
2384	-5.42203241524011E-04 
2385	-1.24155982527813E-02 
2386	-4.70792044400339E-02 
2387	-5.03562764745837E-02 
2388	-2.33703490893503E-02 
2389	-6.90981855514535E-03 
2390	 3.46279281310801E-02 
2391	 6.48021574495849E-02 
2392	 4.80879459034437E-02 
2393	 2.13947319443392E-02 
2394	 6.90156795644379E-03 
2395	-1.18914974026299E-02 
2396	-3.60999831854671E-02 
2397	-3.87861894515657E-02 
2398	-2.80184109603103E-02 
2399	-0.019959107849063 
2400	-1.04991967869941E-02 
2401	-1.12863845070654E-02 
2402	-1.63319325298284E-02 
2403	-1.61856301393583E-02 
2404	-0.035104536015726 
2405	-6.46472179517487E-02 
2406	-6.66214545606019E-02 
2407	-5.26988860025654E-02 
2408	-6.06271704151407E-02 
2409	-3.70499309795114E-02 
2410	 1.23316984376236E-02 
2411	-9.21515158486317E-03 
2412	-1.38745132756641E-02 
2413	-4.91389926904296E-02 
2414	-0.181478080134913 
2415	-0.185184386125246 
2416	-0.196392124273999 
2417	-0.163507818811623 
2418	-6.61930877511557E-02 
2419	-7.12979118768444E-02 
2420	-6.44152140264531E-02 
2421	 1.49994246816243E-02 
2422	 1.15786497789027E-02 
2423	-1.86271282990508E-02 
2424	 6.73355094213957E-03 
2425	-4.30963204629442E-02 
2426	-0.066485646999293 
2427	-0.102121681688812 
2428	-0.1659140472557 
2429	-9.18551805964109E-02 
2430	-4.68334792545077E-02 
2431	-6.43779854182099E-02 
2432	 3.05033160894574E-02 
2433	 1.13676127958097E-02 
2434	-8.49234849741741E-02 
2435	 2.30115918626589E-03 
2436	 4.03013388927642E-02 
2437	-1.62126507019187E-03 
2438	 3.20040066766764E-02 
2439	-0.121770467490203 
2440	-0.280201617204622 
2441	-0.16685046516926 
2442	-0.192088677638647 
2443	-5.56047844854407E-02 
2444	 0.139365283174018 
2445	 9.20282564795993E-02 
2446	 8.06923150188567E-02 
2447	 0.35826742152774 
2448	 0.332954510303062 
2449	-2.04402384183173E-02 
2450	-0.139985963649016 
2451	-0.264724597303637 
2452	-0.885980576257701 
2453	-0.955624347466923 
2454	-0.93116536467313 
2455	-0.808326459341019 
2456	-0.631213821255017 
2457	-0.726355124805027 
2458	-0.694516660653972 
2459	-0.582591070736868 
2460	-0.66824481860424 
2461	-0.546272048486039 
2462	-0.44191225238091 
2463	-1.33213634960376 
2464	-1.77749969140378 
2465	-1.47136388000719 
2466	-0.30815367429171 
2467	-0.475063932640753 
2468	-0.536386153154446 
2469	-0.885318261414306 
2470	-1.17991230648565 
2471	-0.513898111072542 
2472	 0.584138257553942 
2473	 0.321245078639357 
2474	-0.241552685783323 
2475	-0.191543667541081 
2476	-0.422162291767149 
2477	-0.355971536683828 
2478	-0.3296086745014 
2479	-2.33508804896799 
2480	-4.22425236871706 
2481	-2.07029803618281 
2482	-16.5574839088195 
2483	-0.348730221768203 
2484	-14.364836943471 
2485	-0.54492091513117 
2486	 0.17476612992265 
2487	 0.107983887361516 
2488	 0.478369692089326 
2489	 0.908898021305599 
2490	 0.295975837856499 
2491	 0.582663591027486 
2492	 1.23925054486876 
2493	 13.4529219377349 
2494	-9.95766259709835 
2495	 3.78519289282831 
2496	 2.42480724334755 
2497	 1.63948098367198 
2498	 0.255712086205947 
2499	-47.8098635175929 
2500	 4.09363972863716E-03 
