Wavelength	rt0708a00001.asd
350	 9.24804813755563E-02 
351	 9.22427104841989E-02 
352	 9.28188318859304E-02 
353	 9.35908246643302E-02 
354	 9.38822252305815E-02 
355	 9.30470283314833E-02 
356	 9.36289112497271E-02 
357	 0.094300030556627 
358	 9.35041174233767E-02 
359	 9.42600633168636E-02 
360	 9.45172464292978E-02 
361	 9.42853780297612E-02 
362	 9.49213923136646E-02 
363	 9.54534746408155E-02 
364	 9.53003166137303E-02 
365	 9.48160165814735E-02 
366	 0.095668622735016 
367	 9.54534436169825E-02 
368	 9.49578856235696E-02 
369	 9.53087929001125E-02 
370	 9.57384444020501E-02 
371	 9.59872332962488E-02 
372	 9.59816226900383E-02 
373	 9.58318336763341E-02 
374	 9.59389593725611E-02 
375	 9.62565761570847E-02 
376	 9.67296676785103E-02 
377	 9.73637238014641E-02 
378	 9.74352764196995E-02 
379	 0.097341703917725 
380	 9.75977128212725E-02 
381	 9.82092448175145E-02 
382	 9.85380155128389E-02 
383	 9.86635681076328E-02 
384	 9.89219922797889E-02 
385	 9.86455389627147E-02 
386	 9.86445370685791E-02 
387	 9.90698409153448E-02 
388	 0.099236639647617 
389	 9.93317632294986E-02 
390	 9.96572922239738E-02 
391	 0.100153368669642 
392	 9.97692755923768E-02 
393	 0.100015126827261 
394	 0.100460167341307 
395	 0.100272937735317 
396	 0.1006726834825 
397	 0.100656530500316 
398	 0.100305884440206 
399	 0.100639205011073 
400	 0.100602015459151 
401	 0.100686123475138 
402	 0.101115853199824 
403	 0.100973698233479 
404	 0.101022754890155 
405	 0.101225552621041 
406	 0.101288038429 
407	 0.101267898657158 
408	 0.101230767013147 
409	 0.101244168894658 
410	 0.101364769386112 
411	 0.101455345403954 
412	 0.101567667365528 
413	 0.101705019743457 
414	 0.101630580152478 
415	 0.101865564714694 
416	 0.102135467912688 
417	 0.102009278085985 
418	 0.102252706768078 
419	 0.102382698013041 
420	 0.102430681822218 
421	 0.10302916897053 
422	 0.10314466484715 
423	 0.103172742424817 
424	 0.103513821734406 
425	 0.103696245594512 
426	 0.104206488960522 
427	 0.104675891822095 
428	 0.104550722843493 
429	 0.105109514531443 
430	 0.105569768303743 
431	 0.105705447668591 
432	 0.106155150340847 
433	 0.106251830982436 
434	 0.106429750427668 
435	 0.107013371126717 
436	 0.107289626533432 
437	 0.107686983621426 
438	 0.108051234340048 
439	 0.108012209237851 
440	 0.108249565861581 
441	 0.108582620641284 
442	 0.108862072253409 
443	 0.109134189321966 
444	 0.109257879495262 
445	 0.10936229553164 
446	 0.109579301156443 
447	 0.109756090857585 
448	 0.109863264343238 
449	 0.109954246701662 
450	 0.110126558423553 
451	 0.110230538177915 
452	 0.110270920751522 
453	 0.110299614696356 
454	 0.110423470275445 
455	 0.110464219475027 
456	 0.110397785701699 
457	 0.11030213221594 
458	 0.110451886534143 
459	 0.110497642609008 
460	 0.110381154050166 
461	 0.11036053081409 
462	 0.110340081207435 
463	 0.11029205600831 
464	 0.11022626121023 
465	 0.110224730524934 
466	 0.110253498827081 
467	 0.110242359488245 
468	 0.110139970298823 
469	 0.110177409551004 
470	 0.11019282343388 
471	 0.110132590856467 
472	 0.110133655802333 
473	 0.110196019811128 
474	 0.110270701399815 
475	 0.110304292940902 
476	 0.11027970328302 
477	 0.110306299890487 
478	 0.110370855930545 
479	 0.110382847449477 
480	 0.110404012700217 
481	 0.110491067268109 
482	 0.110625872324137 
483	 0.110624271790307 
484	 0.110853829948463 
485	 0.111095703596916 
486	 0.111056851865654 
487	 0.111300068762844 
488	 0.111519365177181 
489	 0.111639104469582 
490	 0.111843208888635 
491	 0.112007804801312 
492	 0.112217726033623 
493	 0.112534402134974 
494	 0.112877214808963 
495	 0.113085254708336 
496	 0.113244867103457 
497	 0.113554036408513 
498	 0.113935562212649 
499	 0.114279165612502 
500	 0.114527462031692 
501	 0.114700613382078 
502	 0.115135850990118 
503	 0.115624149167668 
504	 0.115913717044273 
505	 0.116276345275827 
506	 0.116601519215718 
507	 0.116907690396362 
508	 0.117313462504409 
509	 0.117778293065675 
510	 0.118181124441814 
511	 0.118524775391802 
512	 0.119152371377428 
513	 0.119691754846206 
514	 0.12014536997408 
515	 0.120660614823578 
516	 0.121194328557171 
517	 0.121682588819978 
518	 0.122155737928175 
519	 0.122760231641809 
520	 0.123300179042301 
521	 0.123812561275848 
522	 0.124386131715422 
523	 0.1250881182842 
524	 0.12575001544128 
525	 0.126377480247669 
526	 0.127086613548114 
527	 0.127662039968828 
528	 0.128263600320028 
529	 0.128995876581926 
530	 0.129779706399706 
531	 0.130411529921067 
532	 0.13104300713723 
533	 0.131888941047594 
534	 0.132655197591327 
535	 0.133364600092608 
536	 0.134079193855168 
537	 0.134873877063084 
538	 0.135661088372208 
539	 0.136442357459907 
540	 0.137223960718686 
541	 0.137943169812903 
542	 0.13874711858107 
543	 0.139556428519706 
544	 0.140189320015741 
545	 0.140962618555401 
546	 0.141685296428335 
547	 0.142278550952411 
548	 0.14300906344011 
549	 0.143715221354134 
550	 0.144352583422508 
551	 0.14493498132499 
552	 0.145561519463361 
553	 0.14616487447087 
554	 0.146719332985902 
555	 0.147252988435161 
556	 0.147753749806434 
557	 0.14827272601931 
558	 0.148835105554998 
559	 0.149359594195056 
560	 0.149857820720912 
561	 0.150318588659254 
562	 0.150728969942733 
563	 0.151165339977211 
564	 0.151614721060787 
565	 0.152040473517893 
566	 0.152383436597475 
567	 0.152749936383235 
568	 0.153113290370665 
569	 0.153417498596085 
570	 0.153751332890654 
571	 0.15404923181073 
572	 0.154310297667075 
573	 0.15461128750517 
574	 0.154981523825345 
575	 0.155255121396308 
576	 0.155362452186421 
577	 0.155697687391744 
578	 0.156000692206833 
579	 0.156211778963853 
580	 0.156396681140008 
581	 0.156529100304867 
582	 0.156700786578545 
583	 0.156930855101158 
584	 0.157085421345856 
585	 0.157197140962555 
586	 0.157295305082392 
587	 0.157390429561264 
588	 0.15734125057289 
589	 0.157428037523564 
590	 0.157616313530699 
591	 0.157543627767859 
592	 0.157544828547146 
593	 0.157619420688213 
594	 0.157711258704171 
595	 0.157832857261744 
596	 0.157825722391133 
597	 0.157738660814165 
598	 0.157735080055368 
599	 0.157804455997097 
600	 0.157829746619313 
601	 0.157778848892018 
602	 0.157794565702535 
603	 0.157717658573158 
604	 0.157620797418609 
605	 0.157634058979293 
606	 0.157792838564114 
607	 0.157790795120689 
608	 0.157615921674618 
609	 0.157573370813348 
610	 0.157659851313831 
611	 0.157662590630238 
612	 0.157480057924702 
613	 0.157479814132063 
614	 0.157439383688097 
615	 0.157392213665087 
616	 0.157476473559265 
617	 0.157432284523013 
618	 0.157326452832267 
619	 0.157249519705729 
620	 0.157271977934012 
621	 0.157350349124543 
622	 0.157378073927693 
623	 0.157295919870368 
624	 0.157379987961645 
625	 0.157410493001293 
626	 0.157388836098018 
627	 0.15752426092107 
628	 0.157488550245562 
629	 0.157438144138214 
630	 0.157504354874179 
631	 0.157500170958189 
632	 0.157516267701405 
633	 0.157511436874151 
634	 0.157404133595799 
635	 0.157314491771147 
636	 0.157103237280002 
637	 0.156841260306687 
638	 0.1569333686183 
639	 0.156839991846339 
640	 0.156623369329745 
641	 0.156478705555468 
642	 0.156364859722539 
643	 0.156158123010741 
644	 0.155887582720319 
645	 0.155707013942779 
646	 0.155587675633816 
647	 0.15542455064157 
648	 0.155188253938394 
649	 0.155057680176608 
650	 0.154889600466399 
651	 0.154734989976361 
652	 0.154686058316828 
653	 0.154570892262719 
654	 0.154407790545456 
655	 0.15422942662981 
656	 0.154091763320446 
657	 0.153872894824315 
658	 0.15358456980801 
659	 0.153296392545419 
660	 0.153232492986259 
661	 0.152958479171759 
662	 0.152587175492756 
663	 0.152518270172859 
664	 0.152199759646911 
665	 0.151905453200448 
666	 0.151778870105723 
667	 0.151548634683601 
668	 0.151415269985256 
669	 0.151331233945387 
670	 0.151205418820395 
671	 0.151133683122314 
672	 0.151177257227042 
673	 0.151274485409538 
674	 0.151268430859774 
675	 0.151401010148489 
676	 0.151596322094028 
677	 0.151773820200624 
678	 0.151990168851103 
679	 0.152293529688452 
680	 0.152670313722211 
681	 0.153090511419744 
682	 0.153639388734151 
683	 0.154277518905709 
684	 0.154968667678078 
685	 0.155762416338376 
686	 0.156966215303236 
687	 0.158206896157538 
688	 0.159140477540203 
689	 0.160641164963449 
690	 0.161829832508282 
691	 0.162817710316932 
692	 0.164276304241674 
693	 0.16587725640034 
694	 0.167362431587856 
695	 0.168648738217438 
696	 0.17005249309185 
697	 0.171358382287895 
698	 0.172667608659015 
699	 0.174037847376798 
700	 0.175320440391778 
701	 0.17655827243438 
702	 0.177713535437255 
703	 0.178717307322324 
704	 0.179504635490073 
705	 0.180344785332744 
706	 0.181301542165992 
707	 0.181949568659775 
708	 0.182537891247711 
709	 0.183079335576182 
710	 0.183503374862857 
711	 0.183721410132059 
712	 0.184021311028266 
713	 0.184343549372634 
714	 0.184261583063989 
715	 0.184166868183192 
716	 0.184088599034268 
717	 0.183992830206125 
718	 0.183921272594665 
719	 0.183646108438023 
720	 0.183344336554656 
721	 0.183189575851833 
722	 0.182927326579325 
723	 0.182517737087385 
724	 0.182023228398055 
725	 0.181543235762889 
726	 0.181034169810581 
727	 0.180450324559543 
728	 0.179758879575591 
729	 0.178925249258968 
730	 0.178166287486226 
731	 0.177515910713706 
732	 0.176870239929213 
733	 0.176143183180383 
734	 0.175632509056987 
735	 0.175386288864056 
736	 0.175082531645723 
737	 0.174825701328758 
738	 0.174721675517766 
739	 0.174801593259531 
740	 0.174861950049959 
741	 0.174923077178763 
742	 0.174998137489961 
743	 0.175097218801765 
744	 0.175209764859537 
745	 0.175262021525863 
746	 0.175304921714913 
747	 0.175560495788836 
748	 0.175683920512275 
749	 0.175826320054677 
750	 0.176109776591464 
751	 0.176135150850948 
752	 0.176146884406997 
753	 0.176223958472548 
754	 0.176345123337308 
755	 0.176501053504641 
756	 0.176611987977186 
757	 0.176657889214434 
758	 0.176711606068036 
759	 0.17690258128422 
760	 0.17737029002694 
761	 0.177753855354988 
762	 0.177691062457398 
763	 0.177571449199338 
764	 0.177646921638662 
765	 0.177946203003906 
766	 0.178064504086769 
767	 0.178143673618032 
768	 0.178255034126755 
769	 0.178389184351531 
770	 0.178499455602849 
771	 0.178652049609906 
772	 0.178878927726932 
773	 0.179061016256361 
774	 0.179245803294663 
775	 0.179439217070682 
776	 0.179640862722046 
777	 0.179910245800549 
778	 0.180101959451652 
779	 0.180236772195145 
780	 0.180505247232695 
781	 0.180758938911219 
782	 0.181003978710914 
783	 0.181257055822898 
784	 0.181499026297387 
785	 0.181696251755779 
786	 0.181950233210265 
787	 0.182338848644005 
788	 0.182566765733904 
789	 0.182757435964856 
790	 0.183054052991801 
791	 0.183558814640715 
792	 0.183973369049138 
793	 0.184282585504326 
794	 0.184501227168305 
795	 0.184601068566384 
796	 0.184991146223675 
797	 0.185420294517791 
798	 0.185591063509596 
799	 0.185654623684627 
800	 0.18596680590776 
801	 0.186398376625891 
802	 0.186583788499023 
803	 0.186705914431416 
804	 0.186835938732096 
805	 0.187010335978228 
806	 0.187229189769281 
807	 0.187328733195972 
808	 0.187354735678381 
809	 0.187371971634407 
810	 0.187386547320716 
811	 0.187248695245351 
812	 0.187063238881519 
813	 0.187006665110991 
814	 0.186886615005078 
815	 0.186883676575439 
816	 0.186807806986831 
817	 0.186316007057952 
818	 0.18636520103763 
819	 0.186318431870633 
820	 0.185915578554252 
821	 0.185539953120568 
822	 0.185006901775233 
823	 0.184334333719076 
824	 0.183624490018683 
825	 0.182958910045732 
826	 0.182176246936682 
827	 0.181267655974973 
828	 0.180362508820551 
829	 0.179639335773606 
830	 0.178851819845056 
831	 0.17814814607142 
832	 0.177899066478361 
833	 0.177346456057398 
834	 0.176906590020519 
835	 0.176739136000561 
836	 0.176496088883974 
837	 0.176284946661299 
838	 0.176064865447388 
839	 0.175853802459952 
840	 0.175900210166487 
841	 0.175920854879294 
842	 0.175820215667204 
843	 0.175622817122599 
844	 0.175509359528221 
845	 0.175515740504572 
846	 0.17552444336349 
847	 0.17535629242254 
848	 0.175261590711667 
849	 0.17510449253543 
850	 0.174881746415524 
851	 0.174803224019059 
852	 0.174930529405308 
853	 0.174838540212849 
854	 0.174424476207346 
855	 0.174453039097336 
856	 0.174506685740299 
857	 0.174491144121801 
858	 0.174450756410244 
859	 0.174619554289066 
860	 0.174503327740101 
861	 0.174267728889587 
862	 0.174314310653945 
863	 0.174207119239997 
864	 0.174071508487182 
865	 0.174040183806504 
866	 0.17415864626044 
867	 0.173900280463828 
868	 0.173718646861509 
869	 0.173667236137559 
870	 0.173145226475592 
871	 0.173141394292709 
872	 0.173314477998629 
873	 0.173262513355564 
874	 0.17313542532414 
875	 0.172772184985029 
876	 0.172600646969877 
877	 0.172904131152121 
878	 0.172861986916191 
879	 0.17243821270751 
880	 0.172071395526848 
881	 0.172218889644225 
882	 0.172101938158693 
883	 0.171801345905761 
884	 0.171461745350197 
885	 0.171229165198312 
886	 0.171063759248048 
887	 0.171069567185942 
888	 0.17116267571953 
889	 0.171058861825092 
890	 0.170874229913221 
891	 0.170880217193185 
892	 0.171036359677887 
893	 0.170672606678119 
894	 0.17000270974055 
895	 0.16965394314592 
896	 0.169998035027 
897	 0.170194673614309 
898	 0.169950786983334 
899	 0.169602552745317 
900	 0.169539313291335 
901	 0.16937372134795 
902	 0.169197448508967 
903	 0.168851571643 
904	 0.168279046346115 
905	 0.168374431201815 
906	 0.168357342203893 
907	 0.168251639463637 
908	 0.168502192323415 
909	 0.167800680510022 
910	 0.167196141041636 
911	 0.167132108383945 
912	 0.167209284075885 
913	 0.166836109662341 
914	 0.166380161221638 
915	 0.166388142517145 
916	 0.16717360957711 
917	 0.166328843067289 
918	 0.16505307518151 
919	 0.164659121679443 
920	 0.165711612796669 
921	 0.165076249957647 
922	 0.164197985161755 
923	 0.164163153698145 
924	 0.163365850662237 
925	 0.16278150258248 
926	 0.162452353200879 
927	 0.16226686399708 
928	 0.162674154256322 
929	 0.161410521956153 
930	 0.159494713239831 
931	 0.159690733642632 
932	 0.159834718952548 
933	 0.156983101121805 
934	 0.154930349101292 
935	 0.157524585243598 
936	 0.154540634229368 
937	 0.153523885279883 
938	 0.155646456849424 
939	 0.158390720565974 
940	 0.154423145572233 
941	 0.150583792157701 
942	 0.150481564338592 
943	 0.154159768799005 
944	 0.152409020702409 
945	 0.149936049148761 
946	 0.149298462525106 
947	 0.150319767269874 
948	 0.150642731840515 
949	 0.149082540057486 
950	 0.148682156131319 
951	 0.152127118941857 
952	 0.143753910607533 
953	 0.142554229985924 
954	 0.148239410021463 
955	 0.147155461967922 
956	 0.142623464778688 
957	 0.142179595494939 
958	 0.143995755596217 
959	 0.141370801082852 
960	 0.142271201992467 
961	 0.142213906741541 
962	 0.141537507411701 
963	 0.143624451380926 
964	 0.142870744048407 
965	 0.143522181073371 
966	 0.144451261558074 
967	 0.141484016594021 
968	 0.142209635911861 
969	 0.142737505974542 
970	 0.141631640495498 
971	 0.140553396824244 
972	 0.140526186602427 
973	 0.141587009327763 
974	 0.142812255465121 
975	 0.142756512749615 
976	 0.141862043337867 
977	 0.141799455253465 
978	 0.142387956694753 
979	 0.141992967616157 
980	 0.141548923152252 
981	 0.141844616341619 
982	 0.142932615079219 
983	 0.144093288610419 
984	 0.14350875077736 
985	 0.143315047309847 
986	 0.143622937823129 
987	 0.142999509718664 
988	 0.143421920096583 
989	 0.1444025198906 
990	 0.144802289963132 
991	 0.143789100114229 
992	 0.14429688040373 
993	 0.145109576791807 
994	 0.145837734771254 
995	 0.146790527902767 
996	 0.147558546431237 
997	 0.14521047759459 
998	 0.143840381681631 
999	 0.148836169574123 
1000	 0.147999028242372 
1001	 0.152987804142032 
1002	 0.153480050886163 
1003	 0.1538389953008 
1004	 0.15413392647749 
1005	 0.1544269555389 
1006	 0.154566891353321 
1007	 0.154955711205167 
1008	 0.155222522636663 
1009	 0.155259062341298 
1010	 0.155564260671644 
1011	 0.155663411951645 
1012	 0.155810529351613 
1013	 0.156343933097709 
1014	 0.156632669830706 
1015	 0.156691458147305 
1016	 0.157133676383815 
1017	 0.157935883314537 
1018	 0.158237071188405 
1019	 0.158580560654485 
1020	 0.15872357452915 
1021	 0.158428015159314 
1022	 0.158093284401824 
1023	 0.158277217982346 
1024	 0.158587715410437 
1025	 0.158972958021182 
1026	 0.159790696113841 
1027	 0.160401538241922 
1028	 0.161109421977359 
1029	 0.16164467751241 
1030	 0.16211308599116 
1031	 0.162527030665498 
1032	 0.162947990994796 
1033	 0.163164277939543 
1034	 0.163206805080632 
1035	 0.163318552773462 
1036	 0.163233071264986 
1037	 0.163262129777208 
1038	 0.163348292156148 
1039	 0.163417846906282 
1040	 0.164020124560307 
1041	 0.164615249636835 
1042	 0.164946300364749 
1043	 0.165557844693022 
1044	 0.165678338510962 
1045	 0.164953142113406 
1046	 0.165227484489473 
1047	 0.166054269970538 
1048	 0.166353230096243 
1049	 0.166936340881926 
1050	 0.167194279886361 
1051	 0.166793623960547 
1052	 0.16678344595106 
1053	 0.167035471965365 
1054	 0.167162703358952 
1055	 0.16743825817745 
1056	 0.167437300635964 
1057	 0.167294675891673 
1058	 0.166806496388041 
1059	 0.166935735236909 
1060	 0.167064871214005 
1061	 0.167431997703948 
1062	 0.168596800352287 
1063	 0.168915662013715 
1064	 0.168912841296971 
1065	 0.168869234167719 
1066	 0.168264813555931 
1067	 0.168133981145572 
1068	 0.168169704400598 
1069	 0.16820042811151 
1070	 0.168626678021589 
1071	 0.16870504062359 
1072	 0.168495863045262 
1073	 0.168427380835618 
1074	 0.168260803149791 
1075	 0.167772588437055 
1076	 0.16783168186332 
1077	 0.168290396857847 
1078	 0.168317256640014 
1079	 0.168501578166396 
1080	 0.168419534167136 
1081	 0.167824404020787 
1082	 0.167565471707667 
1083	 0.167377579002138 
1084	 0.167263632693344 
1085	 0.167284453370551 
1086	 0.167293212597303 
1087	 0.167591319349383 
1088	 0.167483335441305 
1089	 0.167134613209497 
1090	 0.166652429483254 
1091	 0.166376946577223 
1092	 0.165905398074393 
1093	 0.165765149128456 
1094	 0.166069687640618 
1095	 0.165951707601708 
1096	 0.165648723653821 
1097	 0.165389014067146 
1098	 0.165071576601628 
1099	 0.164740873128393 
1100	 0.164275954338858 
1101	 0.164012733110295 
1102	 0.163668711334477 
1103	 0.163500757125887 
1104	 0.163620066653687 
1105	 0.16394778591564 
1106	 0.163752413600566 
1107	 0.163408577965322 
1108	 0.162660550534159 
1109	 0.16200225583446 
1110	 0.16185520906138 
1111	 0.162359180779474 
1112	 0.162429220658478 
1113	 0.162980863340575 
1114	 0.162742708706748 
1115	 0.161476690292036 
1116	 0.160693660390719 
1117	 0.159103522897328 
1118	 0.158671944894558 
1119	 0.160254933908758 
1120	 0.160019474422708 
1121	 0.159522636092435 
1122	 0.159112023211366 
1123	 0.157130709554883 
1124	 0.157867710230059 
1125	 0.157359538497838 
1126	 0.155035180572895 
1127	 0.155486320761527 
1128	 0.154799333836742 
1129	 0.153938673455283 
1130	 0.156925358882717 
1131	 0.155034597542369 
1132	 0.148815302604638 
1133	 0.14617154937357 
1134	 0.142802776335519 
1135	 0.142130748744472 
1136	 0.145281460430926 
1137	 0.144830562579775 
1138	 0.143623302951608 
1139	 0.142359587122091 
1140	 0.140168555687122 
1141	 0.138101389752696 
1142	 0.138917779671638 
1143	 0.139684480394529 
1144	 0.139482103596903 
1145	 0.137570596535534 
1146	 0.134266137693737 
1147	 0.132476111172935 
1148	 0.130478048914708 
1149	 0.128414515993836 
1150	 0.127854709502023 
1151	 0.129196902725298 
1152	 0.128196438267351 
1153	 0.126702801397856 
1154	 0.126487788090245 
1155	 0.126350552057112 
1156	 0.125399105386223 
1157	 0.125294265878023 
1158	 0.125377543937857 
1159	 0.124592295053831 
1160	 0.124153432927164 
1161	 0.124648680380953 
1162	 0.124513966458592 
1163	 0.123704023911735 
1164	 0.123651962828764 
1165	 0.123819134313017 
1166	 0.123591265346284 
1167	 0.123798677643731 
1168	 0.124054769848633 
1169	 0.123532265792747 
1170	 0.123326895237363 
1171	 0.123377799251918 
1172	 0.123760789556607 
1173	 0.123607606763341 
1174	 0.123259350687369 
1175	 0.12345667144337 
1176	 0.123567119428675 
1177	 0.1233999344254 
1178	 0.123445395943964 
1179	 0.123409765680835 
1180	 0.123016507487152 
1181	 0.122928217341373 
1182	 0.123067444704693 
1183	 0.122919206879291 
1184	 0.122659044938337 
1185	 0.12265468275206 
1186	 0.122753478624826 
1187	 0.122606904463872 
1188	 0.12248310532512 
1189	 0.122252315237868 
1190	 0.121879660664165 
1191	 0.121875113805238 
1192	 0.121943354121898 
1193	 0.12215661540707 
1194	 0.122238127219336 
1195	 0.122221537887943 
1196	 0.12211396628739 
1197	 0.12198817720833 
1198	 0.121989387217286 
1199	 0.122083120904691 
1200	 0.122008695066337 
1201	 0.12200833600781 
1202	 0.122070155987747 
1203	 0.122045402125436 
1204	 0.122200213878518 
1205	 0.122230872982257 
1206	 0.121919432145439 
1207	 0.121965835628527 
1208	 0.122227364974742 
1209	 0.122271497344745 
1210	 0.122336911165225 
1211	 0.122148025325629 
1212	 0.122119794323543 
1213	 0.122571833544626 
1214	 0.122748947074198 
1215	 0.12294161120888 
1216	 0.123137705868724 
1217	 0.123338119278732 
1218	 0.123263816857478 
1219	 0.123389227102928 
1220	 0.123770768615691 
1221	 0.123796426668741 
1222	 0.123619673884965 
1223	 0.123813912182731 
1224	 0.124047786498509 
1225	 0.124096362933445 
1226	 0.124290209473002 
1227	 0.124515541826929 
1228	 0.12477714672775 
1229	 0.124974199614617 
1230	 0.124938484732743 
1231	 0.12511785239936 
1232	 0.125315157309103 
1233	 0.125293262395995 
1234	 0.125451947632323 
1235	 0.125673638188637 
1236	 0.125712964711334 
1237	 0.125826918265486 
1238	 0.126082750421644 
1239	 0.126568608961399 
1240	 0.126520304118279 
1241	 0.126372148338725 
1242	 0.126647418146021 
1243	 0.126682040946357 
1244	 0.126775122216427 
1245	 0.127158694929326 
1246	 0.127099931411907 
1247	 0.126884034920736 
1248	 0.127105113963798 
1249	 0.127297663848859 
1250	 0.1271951439539 
1251	 0.127358490750195 
1252	 0.127683397540128 
1253	 0.127689787248978 
1254	 0.127832570517229 
1255	 0.128028227381577 
1256	 0.128053236834649 
1257	 0.127729375946541 
1258	 0.127823173326711 
1259	 0.128126640023272 
1260	 0.128208184966326 
1261	 0.128373403669458 
1262	 0.128498300551975 
1263	 0.128549823636963 
1264	 0.128357261721129 
1265	 0.128205501859769 
1266	 0.128292285112228 
1267	 0.128253086237448 
1268	 0.128261585190516 
1269	 0.12859188324483 
1270	 0.12872864964124 
1271	 0.128253868982662 
1272	 0.127874096240059 
1273	 0.128172677535597 
1274	 0.128279403738955 
1275	 0.127995189480288 
1276	 0.128057050131207 
1277	 0.128014255466863 
1278	 0.127431448185394 
1279	 0.127062682643471 
1280	 0.127325423045565 
1281	 0.12728810280687 
1282	 0.126906210288811 
1283	 0.126724425924849 
1284	 0.126809727274655 
1285	 0.126646788080791 
1286	 0.126439365447668 
1287	 0.126192588598562 
1288	 0.12565165953134 
1289	 0.12538198459726 
1290	 0.125256443076819 
1291	 0.124974214476273 
1292	 0.124564224335579 
1293	 0.124424583341563 
1294	 0.123993377802587 
1295	 0.123447943647778 
1296	 0.123200502078306 
1297	 0.122975333182682 
1298	 0.122653947340525 
1299	 0.122253861888111 
1300	 0.121804009395835 
1301	 0.121214736144403 
1302	 0.120677885032168 
1303	 0.120443586336622 
1304	 0.120138828534198 
1305	 0.119657746091554 
1306	 0.119250778287692 
1307	 0.118593467137103 
1308	 0.118092292097547 
1309	 0.117881024699599 
1310	 0.117316155210342 
1311	 0.116431145888328 
1312	 0.115828649180021 
1313	 0.115216602579343 
1314	 0.114641319941317 
1315	 0.114433649527906 
1316	 0.113810101059978 
1317	 0.112715780478171 
1318	 0.112079029258075 
1319	 0.111581970625369 
1320	 0.110918624137389 
1321	 0.110265701125055 
1322	 0.109946086041852 
1323	 0.109279891417346 
1324	 0.108519406192572 
1325	 0.108082304160659 
1326	 0.107331984117065 
1327	 0.106198877166314 
1328	 0.105618001908302 
1329	 0.105479851663844 
1330	 0.105101361776884 
1331	 0.104974685159381 
1332	 0.104601191730159 
1333	 0.102976786457032 
1334	 0.101546574929141 
1335	 0.100859437075891 
1336	 0.100920680769236 
1337	 0.100306576501431 
1338	 0.100096969512479 
1339	 9.99188354148895E-02 
1340	 9.91173946366163E-02 
1341	 9.83616501179591E-02 
1342	 9.76505874409273E-02 
1343	 9.74287057888085E-02 
1344	 9.73278286120762E-02 
1345	 9.76280749878501E-02 
1346	 0.100233987843359 
1347	 0.101505256137206 
1348	 0.100634082658391 
1349	 0.100666697786879 
1350	 0.101660899299405 
1351	 0.10263223002832 
1352	 0.100425166450378 
1353	 0.104000263463428 
1354	 0.128930767423708 
1355	 0.131462244618483 
1356	 0.101956215884103 
1357	 9.67872619873043E-02 
1358	 0.107568750474365 
1359	 0.122460676826387 
1360	 0.108273712950756 
1361	 0.202338240528958 
1362	 0.413911440513374 
1363	 0.452435308145249 
1364	 0.411484811029157 
1365	 0.322044436909639 
1366	 0.219588328300444 
1367	 0.214358276065501 
1368	 0.134437696991004 
1369	 0.319234796413908 
1370	 0.434209440896996 
1371	 0.223545524276041 
1372	 0.262983591372466 
1373	 1.21876879554749 
1374	 1.27439951350531 
1375	 0.265546657564921 
1376	 0.22007961843002 
1377	 0.22559955139777 
1378	 5.88737922517121E-02 
1379	 0.142026896597425 
1380	 0.210934288295585 
1381	 0.029147962230462 
1382	-4.09002001289292E-02 
1383	 0.130736886146965 
1384	 0.355056261352083 
1385	 0.511786906984997 
1386	 0.375417374361128 
1387	 0.104384452475026 
1388	 7.15811492916264E-02 
1389	-2.40684458005041E-02 
1390	-0.270062333865259 
1391	-0.208759978147741 
1392	-0.184471686330138 
1393	-0.355944419913685 
1394	-0.412135486487 
1395	 9.39247350840523E-02 
1396	 0.849946819952838 
1397	 0.411640569947042 
1398	 0.248785954878041 
1399	 0.289624985849996 
1400	 0.236106399995497 
1401	 0.387064859570319 
1402	 0.772021274972014 
1403	 1.16661228995897 
1404	 0.725730805751909 
1405	 0.322877509266028 
1406	-0.171329494812955 
1407	-0.20637531786684 
1408	-0.212836437242495 
1409	-0.108771603765736 
1410	 0.277362341146589 
1411	 0.325799161689057 
1412	 0.254012119131159 
1413	 0.232121124466698 
1414	 0.14775715398376 
1415	 0.103838960300753 
1416	 8.76708846740332E-02 
1417	 8.66592070849172E-02 
1418	 8.36567431866305E-02 
1419	 7.08121143029091E-02 
1420	 8.67638945908944E-02 
1421	 6.93083725818354E-02 
1422	 1.65078591496057E-02 
1423	 1.70360311603249E-02 
1424	 3.61777978435078E-02 
1425	 3.34465217297243E-02 
1426	 3.22617847117078E-02 
1427	 3.68979858406166E-02 
1428	 0.038118208045895 
1429	 3.64169365036003E-02 
1430	 4.20295015736738E-02 
1431	 4.38813099735282E-02 
1432	 3.63506203789132E-02 
1433	 0.031927328781721 
1434	 3.06058647772439E-02 
1435	 2.96358442848013E-02 
1436	 2.61854654198073E-02 
1437	 2.50515962723305E-02 
1438	 3.00095843893568E-02 
1439	 3.07263436746991E-02 
1440	 2.61805672184668E-02 
1441	 2.84544615169301E-02 
1442	 3.16813996962821E-02 
1443	 3.14642425286117E-02 
1444	 3.72075204400974E-02 
1445	 3.88486082641578E-02 
1446	 3.04045852313127E-02 
1447	 0.027901302030964 
1448	 2.93114415326273E-02 
1449	 0.027812352191875 
1450	 2.64752602771641E-02 
1451	 2.60645488145042E-02 
1452	 2.72391217806611E-02 
1453	 2.84325797309931E-02 
1454	 2.90737439455041E-02 
1455	 0.032619599971277 
1456	 3.17163493824316E-02 
1457	 2.72521723983563E-02 
1458	 2.69529235057247E-02 
1459	 2.76127500771627E-02 
1460	 0.027606613683436 
1461	 2.87316752002097E-02 
1462	 2.87164779063841E-02 
1463	 2.72708034713373E-02 
1464	 2.70893767978849E-02 
1465	 2.75700927047914E-02 
1466	 2.80216553398586E-02 
1467	 2.91609572455164E-02 
1468	 0.029242099749452 
1469	 2.83148374351443E-02 
1470	 2.91665414908187E-02 
1471	 0.031106651264137 
1472	 3.06727145268151E-02 
1473	 2.98372206407255E-02 
1474	 3.01356614248109E-02 
1475	 2.88156818436282E-02 
1476	 2.89314295976729E-02 
1477	 3.15137194972577E-02 
1478	 3.19505178155801E-02 
1479	 3.07528678768033E-02 
1480	 0.03100638528328 
1481	 0.031810927997719 
1482	 3.20793898245862E-02 
1483	 3.25906698187282E-02 
1484	 3.29660329435557E-02 
1485	 3.24737777321627E-02 
1486	 0.032848693065496 
1487	 3.44003687468376E-02 
1488	 3.44918472654155E-02 
1489	 3.39308171641299E-02 
1490	 3.39033484402426E-02 
1491	 3.32154345820621E-02 
1492	 3.33479373460027E-02 
1493	 3.42460668950791E-02 
1494	 3.47147190090695E-02 
1495	 3.52569205627798E-02 
1496	 3.56053352357461E-02 
1497	 0.035806352787326 
1498	 3.60508656575733E-02 
1499	 3.62088598161213E-02 
1500	 3.64790352852078E-02 
1501	 3.68543211074231E-02 
1502	 3.70716174180222E-02 
1503	 3.72060086441179E-02 
1504	 3.74736289197339E-02 
1505	 0.037692815280145 
1506	 3.79630644607714E-02 
1507	 3.83534411152037E-02 
1508	 3.88063339776328E-02 
1509	 3.91031579011057E-02 
1510	 3.93935399142454E-02 
1511	 3.99394946462639E-02 
1512	 4.02465137058478E-02 
1513	 4.02691420870658E-02 
1514	 0.040547740109035 
1515	 4.09127176895396E-02 
1516	 4.11237125164677E-02 
1517	 4.15271370017708E-02 
1518	 4.20641626431763E-02 
1519	 4.25080645224078E-02 
1520	 4.28976568812497E-02 
1521	 4.31243573099925E-02 
1522	 4.34607223459984E-02 
1523	 4.37466363273513E-02 
1524	 0.043894265594112 
1525	 4.43807430076875E-02 
1526	 4.47975925068662E-02 
1527	 4.50053361447577E-02 
1528	 4.54381796336738E-02 
1529	 4.58719815878207E-02 
1530	 4.60782649444387E-02 
1531	 4.62670718784134E-02 
1532	 4.65518628198334E-02 
1533	 4.68296865645932E-02 
1534	 0.047208146401282 
1535	 4.76894639448382E-02 
1536	 4.79626114351573E-02 
1537	 4.80138027076639E-02 
1538	 4.82345927917901E-02 
1539	 4.88000060242557E-02 
1540	 4.91554797289005E-02 
1541	 4.92373366674745E-02 
1542	 4.95910502169734E-02 
1543	 0.049975564425363 
1544	 5.01723825864609E-02 
1545	 5.05722939095782E-02 
1546	 5.11602662704857E-02 
1547	 5.14909108256116E-02 
1548	 5.15796424862921E-02 
1549	 5.18217249452587E-02 
1550	 5.21480891740552E-02 
1551	 5.22537778705543E-02 
1552	 5.25128101545031E-02 
1553	 5.30328929569707E-02 
1554	 5.32914821932724E-02 
1555	 5.35304637476042E-02 
1556	 5.39592374308407E-02 
1557	 5.42842690478892E-02 
1558	 5.45212697292241E-02 
1559	 5.47875653154615E-02 
1560	 5.51094803431654E-02 
1561	 5.54730961642074E-02 
1562	 5.58472049226769E-02 
1563	 5.61092757824948E-02 
1564	 5.63664456073022E-02 
1565	 5.65104434446042E-02 
1566	 5.65563094998902E-02 
1567	 5.69552803971573E-02 
1568	 5.73390582643803E-02 
1569	 5.74470816277499E-02 
1570	 5.76991574503554E-02 
1571	 5.81046960081213E-02 
1572	 5.83323351594995E-02 
1573	 5.85577669507827E-02 
1574	 5.89793308440202E-02 
1575	 0.059184236296541 
1576	 5.90928057833974E-02 
1577	 5.92448956703239E-02 
1578	 0.059738104584337 
1579	 6.02645813079633E-02 
1580	 6.06599385865887E-02 
1581	 6.08155167553968E-02 
1582	 0.06098924599741 
1583	 6.09999011503812E-02 
1584	 6.09702550568416E-02 
1585	 0.061459729279978 
1586	 6.17164244719151E-02 
1587	 6.17437415274845E-02 
1588	 6.21581810174428E-02 
1589	 6.24198454262542E-02 
1590	 6.25513618264378E-02 
1591	 6.28696141362762E-02 
1592	 6.30700841713363E-02 
1593	 6.31675243438136E-02 
1594	 6.32956475563825E-02 
1595	 6.34807545475696E-02 
1596	 0.063767773456219 
1597	 6.40037511043504E-02 
1598	 6.42638172028216E-02 
1599	 6.42713791854049E-02 
1600	 6.42687507308655E-02 
1601	 6.47486414935127E-02 
1602	 6.49870117019806E-02 
1603	 6.52066344246832E-02 
1604	 6.56045836408035E-02 
1605	 6.55589585658367E-02 
1606	 6.55428049611464E-02 
1607	 6.59412585937241E-02 
1608	 6.62409071191002E-02 
1609	 6.65355865843464E-02 
1610	 6.70045646260216E-02 
1611	 6.73060245355619E-02 
1612	 6.74162127377353E-02 
1613	 6.72232978732241E-02 
1614	 6.71309617455772E-02 
1615	 0.067466650148847 
1616	 6.76684598123204E-02 
1617	 6.79097358611567E-02 
1618	 6.82873416609031E-02 
1619	 6.81918869198523E-02 
1620	 6.82196334229564E-02 
1621	 6.86225268747709E-02 
1622	 6.87803555077333E-02 
1623	 6.89443899830311E-02 
1624	 6.89278869039811E-02 
1625	 6.87540903292611E-02 
1626	 6.90500323937962E-02 
1627	 6.93593051596205E-02 
1628	 6.94862321675437E-02 
1629	 6.97517599933708E-02 
1630	 6.98462740871865E-02 
1631	 6.98315236163231E-02 
1632	 7.00196758029407E-02 
1633	 7.01503363251889E-02 
1634	 7.00013658240737E-02 
1635	 6.98998403288527E-02 
1636	 7.01610316820212E-02 
1637	 7.04350954509043E-02 
1638	 7.04868009782517E-02 
1639	 7.05968690730703E-02 
1640	 0.07060022134841 
1641	 7.03434948001238E-02 
1642	 7.04081297255265E-02 
1643	 7.08384827450409E-02 
1644	 7.10126110655414E-02 
1645	 7.11488402207538E-02 
1646	 7.13978657884626E-02 
1647	 0.071279355942551 
1648	 7.12158299279242E-02 
1649	 7.15183128341714E-02 
1650	 7.17911742303876E-02 
1651	 7.20068565661394E-02 
1652	 7.21634988365791E-02 
1653	 7.18877847861487E-02 
1654	 0.071881205823075 
1655	 7.20745305922772E-02 
1656	 0.072066713677131 
1657	 7.18830531294025E-02 
1658	 7.21194983782408E-02 
1659	 7.27099535267226E-02 
1660	 7.27353607046979E-02 
1661	 7.25262681186939E-02 
1662	 7.27190957963791E-02 
1663	 7.27792459751153E-02 
1664	 7.27348109831885E-02 
1665	 7.33145369448635E-02 
1666	 7.32930583218308E-02 
1667	 7.21376232947425E-02 
1668	 7.23902445883919E-02 
1669	 7.29782998552218E-02 
1670	 7.29559108846467E-02 
1671	 7.30002665953342E-02 
1672	 7.31078038109819E-02 
1673	 7.32005183650803E-02 
1674	 7.35391478091965E-02 
1675	 7.38481271258969E-02 
1676	 7.34154251681894E-02 
1677	 7.28754628415478E-02 
1678	 7.30917630332525E-02 
1679	 7.30366186215535E-02 
1680	 0.072804400678536 
1681	 7.30960475160244E-02 
1682	 7.29289383484336E-02 
1683	 7.28086167598594E-02 
1684	 0.073501459658927 
1685	 7.35072006782455E-02 
1686	 0.073094262688956 
1687	 7.29992272050276E-02 
1688	 7.27129102062623E-02 
1689	 7.26419775982746E-02 
1690	 7.25418838804421E-02 
1691	 7.25942601179435E-02 
1692	 7.31330682709941E-02 
1693	 7.31199604738867E-02 
1694	 7.27571708977737E-02 
1695	 7.30235159869947E-02 
1696	 7.32676810527047E-02 
1697	 7.27567128338263E-02 
1698	 7.25600314849845E-02 
1699	 0.072586866592377 
1700	 7.18910861473379E-02 
1701	 0.071620547266284 
1702	 7.22668240951048E-02 
1703	 7.26062557523728E-02 
1704	 7.23123946423565E-02 
1705	 7.22511182852775E-02 
1706	 7.22971508079681E-02 
1707	 0.072045177990669 
1708	 7.18769116642184E-02 
1709	 7.20308490771573E-02 
1710	 7.19655141248749E-02 
1711	 7.12825218014134E-02 
1712	 7.11760846957814E-02 
1713	 0.071242133876617 
1714	 0.071127178666989 
1715	 7.11165314685614E-02 
1716	 7.12887405754896E-02 
1717	 7.07949097153054E-02 
1718	 0.070263735228668 
1719	 7.03974617085286E-02 
1720	 7.01521760958764E-02 
1721	 7.03922971056261E-02 
1722	 7.06449941550253E-02 
1723	 6.99934071502007E-02 
1724	 6.95740509634742E-02 
1725	 0.069486004082057 
1726	 6.89355669464272E-02 
1727	 6.88704211382579E-02 
1728	 6.91256614472846E-02 
1729	 6.84412850554803E-02 
1730	 0.068163354160349 
1731	 6.82312541316072E-02 
1732	 0.068054366544352 
1733	 6.85018252210217E-02 
1734	 6.86860934280569E-02 
1735	 6.81692843536987E-02 
1736	 0.067355113239371 
1737	 6.64777518044333E-02 
1738	 0.066476533269734 
1739	 6.68253693845946E-02 
1740	 6.68673451926705E-02 
1741	 6.69179889570032E-02 
1742	 6.64047928565717E-02 
1743	 6.61001598084213E-02 
1744	 6.62237143143974E-02 
1745	 6.59824523091221E-02 
1746	 6.59904862425155E-02 
1747	 0.065542202693185 
1748	 6.46282112482889E-02 
1749	 6.44537064207033E-02 
1750	 0.064469039130258 
1751	 6.42172271368772E-02 
1752	 6.43072685105718E-02 
1753	 6.41545923298676E-02 
1754	 6.36754787560854E-02 
1755	 6.31745492162436E-02 
1756	 0.062678389925481 
1757	 6.24107930747162E-02 
1758	 6.14862517768867E-02 
1759	 6.12411030429965E-02 
1760	 6.18637373376179E-02 
1761	 6.13490895198857E-02 
1762	 0.061394230614466 
1763	 6.22111775117014E-02 
1764	 6.19907102341296E-02 
1765	 6.12400737744036E-02 
1766	 6.06850004767332E-02 
1767	 5.98083743316117E-02 
1768	 5.89326062523544E-02 
1769	 6.01570907494931E-02 
1770	 6.14041918740817E-02 
1771	 6.02149813707875E-02 
1772	 5.92958432653844E-02 
1773	 5.90388532178473E-02 
1774	 5.81729558827765E-02 
1775	 6.04450898295854E-02 
1776	 6.12766631856668E-02 
1777	 0.061016414643889 
1778	 6.02323043506809E-02 
1779	 5.67591588800129E-02 
1780	 5.63040469054611E-02 
1781	 0.057759711062635 
1782	 5.85834360657411E-02 
1783	 6.29573049084666E-02 
1784	 6.37802761595653E-02 
1785	 6.09708417464624E-02 
1786	 5.93521304560243E-02 
1787	 5.55587118463428E-02 
1788	 5.53934997772167E-02 
1789	 5.85419183149032E-02 
1790	 5.75114973727742E-02 
1791	 5.78832245748914E-02 
1792	 6.12638779195608E-02 
1793	 5.99719373462993E-02 
1794	 6.07336670943262E-02 
1795	 6.58291228133367E-02 
1796	 5.89622632192438E-02 
1797	 5.53244411458403E-02 
1798	 6.38670481358219E-02 
1799	 6.48014288908157E-02 
1800	 6.98048788106248E-02 
1801	 7.49115108061653E-02 
1802	 7.87080775416422E-02 
1803	 8.01603145767798E-02 
1804	 8.22845538757966E-02 
1805	 7.77803535211432E-02 
1806	 3.41603053149584E-02 
1807	 2.80301417480695E-02 
1808	 6.43871575683064E-02 
1809	 8.60892783143802E-02 
1810	 0.176361488707298 
1811	 0.225793007251411 
1812	 0.180906818318198 
1813	 0.185943940729606 
1814	 0.181703022133161 
1815	 0.217855726382641 
1816	 0.327720494140971 
1817	 0.454584594409152 
1818	 0.460866366452354 
1819	 0.133383856990426 
1820	-0.168952251487227 
1821	 0.127187528236549 
1822	 0.314325924454928 
1823	 1.06132655891812 
1824	 1.27792310949483 
1825	 0.621415692724925 
1826	 0.431654186178199 
1827	-0.151115736343021 
1828	-0.290962717908093 
1829	 0.142091993420126 
1830	 0.249479194889092 
1831	-7.27216803413803E-02 
1832	-1.61024020752984E-02 
1833	-0.163998979777717 
1834	 0.112598570903958 
1835	 8.79758692156427 
1836	 71.9061991680669 
1837	 3.36094254099165 
1838	 2.11077490520357 
1839	-6.40003396256494E-02 
1840	-0.261168112275642 
1841	-0.113965366172997 
1842	-0.882066684592811 
1843	-0.877801136654138 
1844	-0.191503206695719 
1845	-0.260067725417016 
1846	-1.85249053772891 
1847	-2.07392218275893 
1848	 17.2154836753349 
1849	-0.853592625529507 
1850	 1.13681440673668 
1851	 0.887845451801738 
1852	 0.679708447913041 
1853	 0.853609442187449 
1854	 0.817904524431771 
1855	 2.67895808918809 
1856	 3.23359327461433 
1857	 3.83919995334965E-02 
1858	-0.336807284703147 
1859	-0.364637607505991 
1860	-0.235467888915618 
1861	-0.332855240312001 
1862	-1.30229558278335 
1863	-5.27464914607877 
1864	 1.63455746804434 
1865	 1.02909774580844 
1866	 0.702309506685974 
1867	 0.526537425596214 
1868	-1.94573120883257 
1869	-0.79908465012858 
1870	-0.959801315880585 
1871	 0.142566486893731 
1872	-0.796811247828406 
1873	-1.20403982624765 
1874	 7.0096481064352 
1875	 0.181560861248396 
1876	-2.51499765366042 
1877	-0.274738485639717 
1878	-0.213311263142391 
1879	 0.493830945618009 
1880	-0.553449458467485 
1881	-1.84721267312971 
1882	-2.40832916987786 
1883	 1.92999519721173 
1884	 0.579969056118329 
1885	 0.473833834339838 
1886	 0.90093825339227 
1887	 1.83900051750413 
1888	 3.46900273016364 
1889	 3.84034748734409 
1890	 0.776546982924869 
1891	 0.726479844437643 
1892	 1.02749474346572 
1893	 1.49979773170605 
1894	 1.59264299730316 
1895	 3.43768332049636 
1896	-4.09443631575565 
1897	-12.3286916923331 
1898	-4.21394865003996 
1899	 0.372716232874382 
1900	 1.28036450382406 
1901	-2.29688113376399 
1902	-1.78379751067456 
1903	-5.84558048383832 
1904	 6.51166224539156 
1905	 0.590129496566494 
1906	 19.8237194432002 
1907	-3.0408241057489 
1908	 2.26850067737626 
1909	 4.29507681910657 
1910	 13.4220521637257 
1911	 3.58198531098721 
1912	-5.00634463753035 
1913	-6.18762461162095 
1914	 0.667815297940513 
1915	 0.932826356073886 
1916	 343.039892816996 
1917	-1.00539582775705 
1918	-0.73957012033365 
1919	-0.347920286766235 
1920	-0.361057572617278 
1921	-2.3102486563226 
1922	-2.24883392728014 
1923	-2.03437077235742 
1924	 160.683859280211 
1925	 9.24680052217734 
1926	 6.20134443979715 
1927	 1.31398634242638 
1928	 1.24535218377989 
1929	-5.09883594624597 
1930	 8.65064203767449 
1931	 0.633782070724259 
1932	 0.544417187697113 
1933	 0.279342471823394 
1934	 0.246270631217379 
1935	 0.165659006208298 
1936	 6.49193538678895E-02 
1937	 6.92092081998722E-02 
1938	 2.56995149794051E-03 
1939	-3.06007815252532E-02 
1940	-4.68393687907619E-02 
1941	 1.60253260633485E-02 
1942	-1.11933566304156E-02 
1943	-6.59637811660796E-02 
1944	-0.052363699520396 
1945	-3.82461887951245E-02 
1946	-9.60470387608954E-04 
1947	 5.22470513110854E-02 
1948	 5.59232501266485E-02 
1949	 0.038191653893896 
1950	 3.36438727691445E-02 
1951	 3.69163319493876E-02 
1952	 2.86498469746833E-02 
1953	 2.07028952774003E-02 
1954	 2.40261565895524E-02 
1955	 2.39261214687482E-02 
1956	 5.40586356883745E-03 
1957	 8.16971652482941E-04 
1958	 1.70494085662865E-03 
1959	-4.54501623145546E-03 
1960	 1.58443778352772E-03 
1961	 1.46949299610603E-02 
1962	 1.74968444475571E-02 
1963	 0.016895381258495 
1964	 1.42836403592487E-02 
1965	 1.06915741431633E-02 
1966	 9.41972237115047E-03 
1967	 8.9661976885449E-03 
1968	 9.22534555574619E-03 
1969	 1.03514356935388E-02 
1970	 1.09442540753746E-02 
1971	 1.12864611874307E-02 
1972	 1.16378763959927E-02 
1973	 1.04864963365786E-02 
1974	 0.011027066961365 
1975	 1.26206099776847E-02 
1976	 1.17982473747444E-02 
1977	 1.10874011594593E-02 
1978	 1.08024343828893E-02 
1979	 1.05301826215925E-02 
1980	 0.00932113016973 
1981	 9.87844970369282E-03 
1982	 1.02349162812942E-02 
1983	 8.82778033071225E-03 
1984	 8.23036917813171E-03 
1985	 8.92098278313963E-03 
1986	 9.89178010594704E-03 
1987	 1.02670117719175E-02 
1988	 1.09978010896639E-02 
1989	 1.20679247760576E-02 
1990	 1.14857683635904E-02 
1991	 0.011572070940875 
1992	 1.16772943429827E-02 
1993	 1.02846108507253E-02 
1994	 9.58102754548552E-03 
1995	 9.41701821123527E-03 
1996	 9.21560088413057E-03 
1997	 9.36757459849727E-03 
1998	 1.11174919439219E-02 
1999	 1.20470471380692E-02 
2000	 1.33349213824694E-02 
2001	 1.52084943777543E-02 
2002	 1.60431510184871E-02 
2003	 1.57745002560189E-02 
2004	 1.85507744403367E-02 
2005	 2.09725318500471E-02 
2006	 1.77029544896298E-02 
2007	 1.47519602263102E-02 
2008	 1.42415156989856E-02 
2009	 1.31205054536834E-02 
2010	 1.12505031668562E-02 
2011	 1.21155520439982E-02 
2012	 1.54840477298534E-02 
2013	 1.50063278311197E-02 
2014	 0.015610665388148 
2015	 1.76623793214744E-02 
2016	 1.61091189522257E-02 
2017	 1.66906387315702E-02 
2018	 1.73455529510695E-02 
2019	 1.66619978530645E-02 
2020	 1.73884539818267E-02 
2021	 0.01633589394641 
2022	 1.52303151383839E-02 
2023	 1.50460817105788E-02 
2024	 1.50586953728624E-02 
2025	 1.53728537786999E-02 
2026	 1.56697865362218E-02 
2027	 1.64404188694633E-02 
2028	 1.61605998774741E-02 
2029	 1.64492955874637E-02 
2030	 1.63493349877957E-02 
2031	 1.55776280394972E-02 
2032	 1.57308695977993E-02 
2033	 1.61110829205254E-02 
2034	 1.63884665907582E-02 
2035	 1.69952021651236E-02 
2036	 1.71537770795889E-02 
2037	 1.78077563875134E-02 
2038	 0.01753051421133 
2039	 1.71704814242995E-02 
2040	 1.67579317005042E-02 
2041	 1.73185201481991E-02 
2042	 0.018144729208938 
2043	 1.82005775627291E-02 
2044	 1.87857211179507E-02 
2045	 1.86399594699975E-02 
2046	 1.77134081085671E-02 
2047	 1.69886847378157E-02 
2048	 1.72417906412959E-02 
2049	 1.73778308057112E-02 
2050	 1.69251190199976E-02 
2051	 1.77369746379004E-02 
2052	 1.93266855240719E-02 
2053	 2.05924148152454E-02 
2054	 2.19239316375533E-02 
2055	 2.20872495677536E-02 
2056	 2.21511366138227E-02 
2057	 2.13078067208368E-02 
2058	 0.021292249034853 
2059	 2.14709679125265E-02 
2060	 2.14273572380002E-02 
2061	 0.021578580931166 
2062	 2.12096989139144E-02 
2063	 2.08993017957397E-02 
2064	 2.18075418846684E-02 
2065	 2.23181602839463E-02 
2066	 2.20828407423583E-02 
2067	 2.21951637357877E-02 
2068	 2.21335834578622E-02 
2069	 0.022172955757971 
2070	 2.19344157355701E-02 
2071	 2.15411310120974E-02 
2072	 2.13112208572013E-02 
2073	 2.16842033296031E-02 
2074	 2.30578495546422E-02 
2075	 2.36048066876141E-02 
2076	 2.41527677517071E-02 
2077	 2.40754802882932E-02 
2078	 2.29335156122169E-02 
2079	 2.27464376725589E-02 
2080	 0.022646068016695 
2081	 2.33450590520108E-02 
2082	 2.41888553595271E-02 
2083	 2.37142404555813E-02 
2084	 2.32503270212208E-02 
2085	 2.32545197024806E-02 
2086	 2.33338781063192E-02 
2087	 2.36863518407918E-02 
2088	 2.41460072464987E-02 
2089	 2.41822784233264E-02 
2090	 2.34079115932185E-02 
2091	 2.38787955497283E-02 
2092	 2.42903884694904E-02 
2093	 2.47351333273953E-02 
2094	 2.50286175931163E-02 
2095	 2.56233154067741E-02 
2096	 2.61491989840327E-02 
2097	 2.66616028821267E-02 
2098	 2.71124510752622E-02 
2099	 2.79342232270369E-02 
2100	 2.80887961971225E-02 
2101	 2.78814552721589E-02 
2102	 2.79192002455348E-02 
2103	 2.74902377212063E-02 
2104	 2.73678816139807E-02 
2105	 2.76674541221341E-02 
2106	 2.84541869198108E-02 
2107	 2.99793102261861E-02 
2108	 3.06212087499661E-02 
2109	 3.05246857618235E-02 
2110	 2.97434429468816E-02 
2111	 2.83607138610614E-02 
2112	 2.81573404192704E-02 
2113	 2.78314566716193E-02 
2114	 2.75145933824892E-02 
2115	 2.75581032624303E-02 
2116	 2.80195753579228E-02 
2117	 0.02817203199492 
2118	 2.87057921948985E-02 
2119	 2.88144820842149E-02 
2120	 2.83522482337095E-02 
2121	 2.87184174013993E-02 
2122	 2.85814073148856E-02 
2123	 2.88216510675174E-02 
2124	 3.00393117360223E-02 
2125	 2.96759213076423E-02 
2126	 2.93669149276585E-02 
2127	 2.98585853533811E-02 
2128	 3.01495533160507E-02 
2129	 3.07971138001115E-02 
2130	 3.14106602585365E-02 
2131	 3.16284276028443E-02 
2132	 3.17039548821657E-02 
2133	 3.21087834764631E-02 
2134	 3.22797798923005E-02 
2135	 3.28099552111137E-02 
2136	 0.032309437290278 
2137	 3.07729530629044E-02 
2138	 3.03822067758313E-02 
2139	 2.97760062604816E-02 
2140	 2.98105768643934E-02 
2141	 0.031153884272964 
2142	 3.15849181181085E-02 
2143	 3.15109101883361E-02 
2144	 3.18681997361012E-02 
2145	 3.28464114754444E-02 
2146	 3.28582524937836E-02 
2147	 3.26209239244267E-02 
2148	 3.29161955178748E-02 
2149	 3.25244912190473E-02 
2150	 3.22637568421635E-02 
2151	 0.03242751579333 
2152	 3.26223538948668E-02 
2153	 0.034177949575811 
2154	 3.59815521295527E-02 
2155	 3.60421977860694E-02 
2156	 3.55735182189684E-02 
2157	 3.48957156354471E-02 
2158	 3.11296213861586E-02 
2159	 3.11812010117604E-02 
2160	 3.47530370006184E-02 
2161	 3.51960191893695E-02 
2162	 3.52494278280798E-02 
2163	 3.53865951499245E-02 
2164	 3.35918375539306E-02 
2165	 3.32626702975641E-02 
2166	 3.45551514593362E-02 
2167	 0.03514331025918 
2168	 3.55536959220793E-02 
2169	 0.03568774657653 
2170	 3.54384802992369E-02 
2171	 3.60927068850277E-02 
2172	 3.58224972997533E-02 
2173	 3.42045876365101E-02 
2174	 3.27348887052157E-02 
2175	 3.17442697552498E-02 
2176	 3.22687339382314E-02 
2177	 3.25530691438806E-02 
2178	 3.28662362628117E-02 
2179	 3.39177823186145E-02 
2180	 3.24961203729763E-02 
2181	 3.08816017915432E-02 
2182	 3.13803862110708E-02 
2183	 3.18426528436157E-02 
2184	 3.27574450281968E-02 
2185	 3.40275095605409E-02 
2186	 3.47165358379109E-02 
2187	 3.43734975270739E-02 
2188	 0.034030079973858 
2189	 0.033452572468791 
2190	 3.32846539343482E-02 
2191	 3.27777565874879E-02 
2192	 3.24693004998928E-02 
2193	 3.26799260120169E-02 
2194	 0.032790272126988 
2195	 0.032300360155246 
2196	 3.26827252472784E-02 
2197	 3.37564952552445E-02 
2198	 0.0354263928499 
2199	 3.87322360072038E-02 
2200	 4.00240512033134E-02 
2201	 4.09306900200094E-02 
2202	 4.15067026091427E-02 
2203	 4.22165205672588E-02 
2204	 4.16874056405129E-02 
2205	 3.74823993046942E-02 
2206	 3.37906571535166E-02 
2207	 0.032396215605748 
2208	 3.11809927896565E-02 
2209	 0.032717431205187 
2210	 3.58214949154693E-02 
2211	 3.47837526788298E-02 
2212	 3.21535120060517E-02 
2213	 3.13538481037658E-02 
2214	 3.09488383763739E-02 
2215	 3.22625359641827E-02 
2216	 3.50503127071268E-02 
2217	 3.53323840765566E-02 
2218	 3.40977726491548E-02 
2219	 3.45938644508372E-02 
2220	 3.45483213742259E-02 
2221	 3.38173048131661E-02 
2222	 3.42712684447467E-02 
2223	 3.48063590082188E-02 
2224	 3.40324272095117E-02 
2225	 0.034066702174593 
2226	 3.57635960467105E-02 
2227	 3.58649982043436E-02 
2228	 3.39246214001031E-02 
2229	 0.033294994903493 
2230	 3.39578454454942E-02 
2231	 3.40340463000742E-02 
2232	 3.38608737917034E-02 
2233	 3.39547968352018E-02 
2234	 3.31969863628685E-02 
2235	 3.42933775321791E-02 
2236	 0.035062532702091 
2237	 3.54171044116873E-02 
2238	 3.83453809239557E-02 
2239	 3.67404025822173E-02 
2240	 3.33119655298431E-02 
2241	 0.03260729310162 
2242	 3.09952019447098E-02 
2243	 3.12432192480989E-02 
2244	 3.28621806685663E-02 
2245	 0.032437270322493 
2246	 3.20578525489734E-02 
2247	 0.031801273045556 
2248	 3.14583795132843E-02 
2249	 3.27453837732273E-02 
2250	 3.30731595283788E-02 
2251	 3.12767601803598E-02 
2252	 3.13973471835954E-02 
2253	 3.36677423134158E-02 
2254	 3.50411983851629E-02 
2255	 0.035782621727686 
2256	 3.50924752800994E-02 
2257	 3.21387133055013E-02 
2258	 0.031306217314142 
2259	 3.09471183426652E-02 
2260	 3.02352505182432E-02 
2261	 2.98762206343365E-02 
2262	 3.05128706112924E-02 
2263	 3.19120717884358E-02 
2264	 3.25054156816698E-02 
2265	 3.32233282192864E-02 
2266	 3.33565080008793E-02 
2267	 3.24790530847345E-02 
2268	 3.16363525855723E-02 
2269	 0.031195323983328 
2270	 3.19326218479178E-02 
2271	 3.18870554380388E-02 
2272	 3.23020145625741E-02 
2273	 3.53677728346039E-02 
2274	 3.55542784617024E-02 
2275	 3.33068116515646E-02 
2276	 3.31643645911228E-02 
2277	 3.22732000320976E-02 
2278	 3.19173629850762E-02 
2279	 3.44008584187009E-02 
2280	 3.49933037461837E-02 
2281	 3.45037020054823E-02 
2282	 3.36366380072702E-02 
2283	 3.29299320391497E-02 
2284	 3.36196205786284E-02 
2285	 3.39626031990411E-02 
2286	 0.032540223327138 
2287	 3.36546278509693E-02 
2288	 3.46823452679138E-02 
2289	 3.39563390172044E-02 
2290	 3.65405632334043E-02 
2291	 0.039586755532549 
2292	 3.76564798885152E-02 
2293	 3.61275306150124E-02 
2294	 3.89308764063293E-02 
2295	 3.88563983239413E-02 
2296	 3.51444564594312E-02 
2297	 3.41293409680489E-02 
2298	 3.18505743890711E-02 
2299	 2.73848762248953E-02 
2300	 2.64976803144999E-02 
2301	 0.025773864259554 
2302	 2.68580830764232E-02 
2303	 2.89081484138478E-02 
2304	 2.74936133783565E-02 
2305	 0.028159843817311 
2306	 0.028111815735192 
2307	 2.73810529278988E-02 
2308	 2.91938409179639E-02 
2309	 2.99103622533551E-02 
2310	 2.82337952510547E-02 
2311	 2.05521335506024E-02 
2312	 1.46504836335907E-02 
2313	 1.80197890394171E-02 
2314	 2.07128651518032E-02 
2315	 2.52419896330901E-02 
2316	 3.18950352909244E-02 
2317	 3.02994159292504E-02 
2318	 2.79512362606763E-02 
2319	 3.16262657306809E-02 
2320	 3.39883653306407E-02 
2321	 3.24121364108037E-02 
2322	 2.86395388904172E-02 
2323	 2.41208031222616E-02 
2324	 2.01790685487431E-02 
2325	 2.07221251501596E-02 
2326	 2.69199775346936E-02 
2327	 2.95117284021439E-02 
2328	 2.89979538348371E-02 
2329	 2.99851282964848E-02 
2330	 2.23029763141141E-02 
2331	 1.32461416780713E-02 
2332	 1.80342058373404E-02 
2333	 2.20643386632921E-02 
2334	 2.18012110830538E-02 
2335	 2.75434059740938E-02 
2336	 3.01590620881924E-02 
2337	 2.43788074318804E-02 
2338	 2.29592711800636E-02 
2339	 2.67409899429096E-02 
2340	 2.11213368497855E-02 
2341	 1.56521047822968E-02 
2342	 1.80474758965445E-02 
2343	 2.01433579620325E-02 
2344	 2.41257563050037E-02 
2345	 2.25440303051093E-02 
2346	 1.84275943706953E-02 
2347	 2.37735773711694E-02 
2348	 2.49601722837871E-02 
2349	 2.15816718414187E-02 
2350	 2.01721683047279E-02 
2351	 8.95231840407974E-03 
2352	-3.09682899289359E-03 
2353	-1.29135254079441E-03 
2354	 5.99289659139969E-03 
2355	 1.39680239858473E-02 
2356	 1.80001647535929E-02 
2357	 1.96017007093508E-02 
2358	 2.71031609251361E-02 
2359	 3.19955794292017E-02 
2360	 3.34025267781664E-02 
2361	 3.67326526446046E-02 
2362	 0.03857955195791 
2363	 3.89333553649649E-02 
2364	 0.036317071189855 
2365	 3.61837983094986E-02 
2366	 3.90910743552302E-02 
2367	 3.14143161635161E-02 
2368	 1.79767087617421E-02 
2369	 7.4609131784559E-03 
2370	 9.34022265662581E-05 
2371	 1.01797126464528E-02 
2372	 3.07342067484601E-02 
2373	 4.22102167195687E-02 
2374	 4.42224924055943E-02 
2375	 0.02599625332631 
2376	 0.010915881678009 
2377	 1.28842838923015E-02 
2378	 1.68871493071434E-02 
2379	 3.51161981884407E-02 
2380	 3.72063953458458E-02 
2381	 2.38986723641914E-02 
2382	 2.39498424778711E-02 
2383	 1.88147791408009E-02 
2384	 0.016427392663781 
2385	 2.02648296524776E-02 
2386	 0.026786837466447 
2387	 0.042461629614154 
2388	 4.37685725501643E-02 
2389	 2.76803071442028E-02 
2390	 1.57731074742687E-02 
2391	 8.34017909565661E-04 
2392	 4.78708058257995E-03 
2393	 0.03907606531574 
2394	 5.16981160263633E-02 
2395	 6.86138469943171E-02 
2396	 8.72667280025786E-02 
2397	 6.33192016331291E-02 
2398	 5.86395744987588E-02 
2399	 6.44185915193552E-02 
2400	 2.58783396935688E-02 
2401	 1.48938375126411E-02 
2402	 4.12069539143288E-02 
2403	 0.039976670165986 
2404	 1.75761461308817E-02 
2405	 1.80928073191357E-03 
2406	-1.47756945828126E-02 
2407	-2.32711633902974E-02 
2408	 0.021637575441711 
2409	 5.63936044856992E-02 
2410	 3.89462256040403E-02 
2411	 4.76719295124929E-02 
2412	 5.62468142667157E-02 
2413	 0.121668996871309 
2414	 0.227535006738095 
2415	 0.181680020194647 
2416	 0.156609386497322 
2417	 0.142410083695852 
2418	 0.101228306668667 
2419	 0.114513976202077 
2420	 7.51701566137148E-02 
2421	 2.59667370306379E-02 
2422	-1.66826234284256E-02 
2423	-7.16954250615284E-02 
2424	-4.02293613354382E-02 
2425	-1.42518669922682E-02 
2426	 0.031143213731705 
2427	 8.45870729056719E-02 
2428	 3.77363595523042E-02 
2429	-0.01733274224392 
2430	-6.06499521574815E-02 
2431	-6.57969639924181E-02 
2432	 5.57124613568281E-02 
2433	 0.101069063881405 
2434	 0.117204758258718 
2435	 0.106463799135268 
2436	-9.39655060088158E-03 
2437	-8.87541236750006E-02 
2438	-9.89621668871927E-02 
2439	-0.114689422449357 
2440	-0.102732097594335 
2441	-0.149445743125719 
2442	-0.181153349159456 
2443	-7.65126183435767E-02 
2444	-2.26728667401157E-02 
2445	 6.05456749664577E-02 
2446	 0.173811336373799 
2447	 0.258318848139588 
2448	 0.226855483517699 
2449	 0.106886178289673 
2450	 0.126697878358274 
2451	 0.135462913339153 
2452	 0.128701129971514 
2453	 0.154398275680868 
2454	 0.195988884588856 
2455	 0.156913166961992 
2456	 0.118037215257646 
2457	-6.17783723577997E-03 
2458	-0.315989701498635 
2459	-0.693777126386211 
2460	-0.84657750821242 
2461	-0.610165680831091 
2462	-0.510407471118657 
2463	-0.49569829073831 
2464	-0.348534250540945 
2465	-1.88433011542133 
2466	-0.356801957433675 
2467	 8.87064833717416E-02 
2468	 0.270784783441368 
2469	 0.525828680240959 
2470	 1.07279353937508 
2471	 0.895913893897408 
2472	-0.587329847092585 
2473	-0.843568016898488 
2474	-0.745417462669942 
2475	-1.3201133436937 
2476	-0.334380316410398 
2477	-0.15167983190802 
2478	-0.528390207509509 
2479	-1.06284360033917 
2480	-1.11226189296921 
2481	-0.581965849794364 
2482	 11.8144091144421 
2483	 1.60193556509684 
2484	-13.5268816899078 
2485	-0.612603976906672 
2486	-0.149467534559559 
2487	-0.1496668561531 
2488	 0.268381906708828 
2489	 0.612671288383054 
2490	 0.533740285122693 
2491	 0.498269992577587 
2492	 0.2988837476148 
2493	-1.79311886734757 
2494	 0.819163334443434 
2495	 5.88860804111738E-02 
2496	 0.182309729755297 
2497	 0.815162632253379 
2498	 0.703360185590175 
2499	-176.177230084532 
2500	-0.467303219453862 
