Wavelength	rt0718west_algea00008.asd
350	 4.00386430287741E-02 
351	 4.10565585755664E-02 
352	 4.10747125801888E-02 
353	 4.07920784718361E-02 
354	 4.09535816724328E-02 
355	 4.16633792301293E-02 
356	 4.19734121220912E-02 
357	 4.20479865737062E-02 
358	 0.042370915627543 
359	 4.31895695728827E-02 
360	 4.31365654867289E-02 
361	 0.042614069679497 
362	 4.31057121784813E-02 
363	 4.39295537252758E-02 
364	 4.40466542993755E-02 
365	 0.043438150298065 
366	 4.36212605711771E-02 
367	 4.38571914154555E-02 
368	 0.044225088256859 
369	 4.48056401821092E-02 
370	 4.49959217849762E-02 
371	 4.53558659742819E-02 
372	 4.56611523975687E-02 
373	 4.54399298069072E-02 
374	 4.63696990086697E-02 
375	 4.67557720067602E-02 
376	 4.61695304251304E-02 
377	 4.63392341864975E-02 
378	 4.67506719619143E-02 
379	 0.047115006565984 
380	 4.72939349833885E-02 
381	 0.047512668829919 
382	 4.78155311331461E-02 
383	 4.80897321393498E-02 
384	 4.82258432261436E-02 
385	 4.87599154348857E-02 
386	 4.89389224174719E-02 
387	 4.87388282791393E-02 
388	 4.90149136709268E-02 
389	 4.93793381672085E-02 
390	 4.97028342919968E-02 
391	 4.99516199528974E-02 
392	 0.0502071977842 
393	 5.03976891949061E-02 
394	 5.04623812427204E-02 
395	 5.03990807952208E-02 
396	 5.03986870636047E-02 
397	 5.06128976421171E-02 
398	 0.050850685683443 
399	 5.06921032270233E-02 
400	 5.08497045445943E-02 
401	 5.10105653225417E-02 
402	 5.09565520671264E-02 
403	 5.10191650268839E-02 
404	 5.12100536909509E-02 
405	 5.13603383793886E-02 
406	 5.13171764442475E-02 
407	 5.14621514993384E-02 
408	 5.15961110328005E-02 
409	 5.16761737152514E-02 
410	 5.18384747607653E-02 
411	 5.19516855332176E-02 
412	 5.19491695263199E-02 
413	 5.19141384325601E-02 
414	 5.22765354957322E-02 
415	 5.25288996734976E-02 
416	 5.25867093322461E-02 
417	 0.052563787212547 
418	 5.25762888376245E-02 
419	 5.27064100615925E-02 
420	 5.29217206759566E-02 
421	 0.053080331959676 
422	 0.053240725987852 
423	 5.34211685154233E-02 
424	 0.05364051625961 
425	 5.39581649464284E-02 
426	 5.41363448701577E-02 
427	 5.43082353700563E-02 
428	 5.47298046442465E-02 
429	 5.51310218854482E-02 
430	 5.54955673931013E-02 
431	 5.58429844306957E-02 
432	 5.62066291720459E-02 
433	 5.64934764413968E-02 
434	 5.67555873476677E-02 
435	 0.057057534347208 
436	 5.74002609289618E-02 
437	 5.77930068010296E-02 
438	 5.81453458197418E-02 
439	 5.83428015284767E-02 
440	 5.85539668768907E-02 
441	 5.88457691657161E-02 
442	 5.91921758887003E-02 
443	 5.94510896980819E-02 
444	 5.97859598841495E-02 
445	 0.06010290865793 
446	 6.02944307843691E-02 
447	 6.04787947444043E-02 
448	 6.06382684385606E-02 
449	 6.08237942272169E-02 
450	 6.11101497882231E-02 
451	 6.11991902797369E-02 
452	 6.12414358026217E-02 
453	 6.13848468631026E-02 
454	 6.16531206498308E-02 
455	 6.17537155672347E-02 
456	 6.17668154488291E-02 
457	 6.18714788281913E-02 
458	 6.19383216861197E-02 
459	 6.20319601475918E-02 
460	 6.21592815586035E-02 
461	 6.22623273283618E-02 
462	 6.23585516620513E-02 
463	 6.24890354360707E-02 
464	 6.26406154688468E-02 
465	 6.26291670117996E-02 
466	 6.26602630820377E-02 
467	 6.27518196724807E-02 
468	 6.28272434500549E-02 
469	 6.28573762298485E-02 
470	 6.29440926394271E-02 
471	 6.31304501590635E-02 
472	 6.33664727067172E-02 
473	 6.35288928907197E-02 
474	 6.35972802782698E-02 
475	 6.36238678193869E-02 
476	 6.37861655207618E-02 
477	 6.39312110600064E-02 
478	 0.064062277894678 
479	 6.42775704396685E-02 
480	 0.064423785267551 
481	 6.46267786376424E-02 
482	 6.49180808959222E-02 
483	 6.50513718773549E-02 
484	 6.53223831480827E-02 
485	 6.56514609967813E-02 
486	 6.58825898769062E-02 
487	 6.62544109334888E-02 
488	 6.66022973370904E-02 
489	 6.68732635877887E-02 
490	 6.71480314590061E-02 
491	 6.75864883860597E-02 
492	 6.80591063711992E-02 
493	 6.84489247983506E-02 
494	 0.068840723422864 
495	 0.069260512670769 
496	 6.97216323334372E-02 
497	 7.02175762455429E-02 
498	 7.06686874891617E-02 
499	 7.10524136878888E-02 
500	 7.14709117998094E-02 
501	 7.22078167964828E-02 
502	 7.27703490418108E-02 
503	 7.32047622629835E-02 
504	 7.36798379705969E-02 
505	 7.41447950435489E-02 
506	 0.074645930960723 
507	 7.51867553679196E-02 
508	 7.57337343119229E-02 
509	 7.62761100150505E-02 
510	 7.68005730675034E-02 
511	 7.73134063403604E-02 
512	 7.78651132801405E-02 
513	 7.84488669201018E-02 
514	 7.90766971735767E-02 
515	 7.97622766985722E-02 
516	 8.05327253903045E-02 
517	 8.12299279453569E-02 
518	 8.18622761102825E-02 
519	 8.26577561611169E-02 
520	 8.33110411842949E-02 
521	 8.39798455851249E-02 
522	 0.084826518707348 
523	 8.56393287686363E-02 
524	 8.64845889284078E-02 
525	 8.73403901095895E-02 
526	 8.81428458661858E-02 
527	 0.089073484082464 
528	 8.99748320743637E-02 
529	 9.07815700943449E-02 
530	 9.17070486872286E-02 
531	 9.26320272391072E-02 
532	 9.36240045818368E-02 
533	 0.094751697409697 
534	 9.57121677223531E-02 
535	 9.67350003835881E-02 
536	 9.78334634011518E-02 
537	 9.87377908615362E-02 
538	 9.97813279866174E-02 
539	 0.100941717595218 
540	 0.102087996194612 
541	 0.103037217280146 
542	 0.10405273870677 
543	 0.105114296016949 
544	 0.106049125962144 
545	 0.107054180711781 
546	 0.108076383279767 
547	 0.10904862369546 
548	 0.109933031856318 
549	 0.110861725543565 
550	 0.111806495274658 
551	 0.112696412543752 
552	 0.11357215094162 
553	 0.114430684915424 
554	 0.115291735706889 
555	 0.116195985591182 
556	 0.117084468866724 
557	 0.11791865392051 
558	 0.118694288222145 
559	 0.1195226292631 
560	 0.120332956356098 
561	 0.121112224135445 
562	 0.121882998649937 
563	 0.12259225261336 
564	 0.123277368115189 
565	 0.123959631431856 
566	 0.124610611301591 
567	 0.12523354679996 
568	 0.12579844973177 
569	 0.126279644938405 
570	 0.126739716936644 
571	 0.127218287732638 
572	 0.127678017058456 
573	 0.128005800958551 
574	 0.128349468277647 
575	 0.128675790583511 
576	 0.128927361694643 
577	 0.129110805647776 
578	 0.129315245131708 
579	 0.129475848648352 
580	 0.129463302943584 
581	 0.129517964355462 
582	 0.129595913512837 
583	 0.12960689977797 
584	 0.129431924799866 
585	 0.129290387625672 
586	 0.129189163324872 
587	 0.129041396331145 
588	 0.128718539406345 
589	 0.12845775356723 
590	 0.128262781671697 
591	 0.127863246240128 
592	 0.127518936857092 
593	 0.127085333283858 
594	 0.126441110950313 
595	 0.125763284814466 
596	 0.124943915448892 
597	 0.123975341267392 
598	 0.122938259917315 
599	 0.122102935729309 
600	 0.121324409084073 
601	 0.120568201141074 
602	 0.120081853747048 
603	 0.119741793639262 
604	 0.119544762942284 
605	 0.119489146902005 
606	 0.119390448367934 
607	 0.119374348142894 
608	 0.119423575462603 
609	 0.119366973008378 
610	 0.11936762013268 
611	 0.119421069954059 
612	 0.119459413613969 
613	 0.119316210576822 
614	 0.119309390280739 
615	 0.119368875781722 
616	 0.119242007871889 
617	 0.119204257744953 
618	 0.119179823266084 
619	 0.119117423265955 
620	 0.119068248914917 
621	 0.118992573947381 
622	 0.118922940918019 
623	 0.118905825743649 
624	 0.118960669231395 
625	 0.118813105825551 
626	 0.118600720015184 
627	 0.118813222732168 
628	 0.118703580541636 
629	 0.118542769081308 
630	 0.118579772967001 
631	 0.118471036646458 
632	 0.118374266477696 
633	 0.118306260489328 
634	 0.118217471041501 
635	 0.118069931917488 
636	 0.11793177757791 
637	 0.117832023655208 
638	 0.117730142478236 
639	 0.117560476285749 
640	 0.117408295775338 
641	 0.117340274020376 
642	 0.11714606011224 
643	 0.116956801948881 
644	 0.116816074601442 
645	 0.116688320250744 
646	 0.116509779705593 
647	 0.116334559630309 
648	 0.116173222122748 
649	 0.115861643003153 
650	 0.115678774736651 
651	 0.115450674083057 
652	 0.114928441808827 
653	 0.114575380831364 
654	 0.114077743719332 
655	 0.113324267914875 
656	 0.112660221158365 
657	 0.111981628244394 
658	 0.111363237978472 
659	 0.11085528741439 
660	 0.110420667166718 
661	 0.110001620070825 
662	 0.109556686608401 
663	 0.109082493587143 
664	 0.108745091994038 
665	 0.108425382734664 
666	 0.108089109305566 
667	 0.107937477464995 
668	 0.107748376481092 
669	 0.107475217324155 
670	 0.10718126213214 
671	 0.107139264803815 
672	 0.107115194864722 
673	 0.10701689427938 
674	 0.106915502982553 
675	 0.106936847092943 
676	 0.106981794478267 
677	 0.106976409835637 
678	 0.107020856484175 
679	 0.107121947081745 
680	 0.107277241085773 
681	 0.107473270909027 
682	 0.107680041838623 
683	 0.107948345141486 
684	 0.108256079679975 
685	 0.108499796370612 
686	 0.108799085847294 
687	 0.109037073835861 
688	 0.109087766603573 
689	 0.109046136313786 
690	 0.10908579450833 
691	 0.109111525771622 
692	 0.108881312456512 
693	 0.108534237495279 
694	 0.108141776628645 
695	 0.107714571507188 
696	 0.107122775133915 
697	 0.106579473181104 
698	 0.105996737659571 
699	 0.105248887436037 
700	 0.104343257610938 
701	 0.103400913009309 
702	 0.102466062564097 
703	 0.101480260775725 
704	 0.100388341817056 
705	 9.92588211722434E-02 
706	 9.81267993231125E-02 
707	 9.68376590694472E-02 
708	 9.55163376995025E-02 
709	 9.40827981926663E-02 
710	 9.24216415105484E-02 
711	 9.06694872582817E-02 
712	 8.88945833403562E-02 
713	 8.71494842088901E-02 
714	 8.54295925142438E-02 
715	 8.37322933380271E-02 
716	 8.19001798266806E-02 
717	 7.99009242512575E-02 
718	 7.78008859709277E-02 
719	 7.56411307372417E-02 
720	 7.37481137108428E-02 
721	 0.072048629620846 
722	 7.03982892925025E-02 
723	 6.86224933182818E-02 
724	 6.68150406859399E-02 
725	 6.48886502890442E-02 
726	 6.29674282032009E-02 
727	 6.09748920636895E-02 
728	 5.88938430153202E-02 
729	 5.69041842700557E-02 
730	 5.48461752722068E-02 
731	 5.29003189159505E-02 
732	 5.12538501423868E-02 
733	 4.97882815532011E-02 
734	 4.86009900813378E-02 
735	 4.77361018444358E-02 
736	 4.71127811389863E-02 
737	 4.64271595635908E-02 
738	 4.59325893080655E-02 
739	 4.58083455335998E-02 
740	 4.55512996915105E-02 
741	 4.52775745944672E-02 
742	 4.50775768793945E-02 
743	 4.50080520153783E-02 
744	 4.49774277680599E-02 
745	 4.49540540064774E-02 
746	 4.49158194027404E-02 
747	 4.48446350358604E-02 
748	 4.48006670670618E-02 
749	 4.47628985569444E-02 
750	 4.47124557638491E-02 
751	 4.47171308980916E-02 
752	 4.46614646374297E-02 
753	 4.46062496114752E-02 
754	 4.46735330339611E-02 
755	 4.46281066652435E-02 
756	 4.45759101043021E-02 
757	 4.46036516822134E-02 
758	 4.47684846188043E-02 
759	 4.47341890669916E-02 
760	 4.47594265711041E-02 
761	 4.51408106446598E-02 
762	 4.48477869707883E-02 
763	 4.46585793176293E-02 
764	 4.46729028008356E-02 
765	 4.47340474048505E-02 
766	 4.48870599423107E-02 
767	 4.49820972849906E-02 
768	 4.49990566185118E-02 
769	 0.045028503208674 
770	 4.51247046722239E-02 
771	 4.52649387710716E-02 
772	 0.045411296898365 
773	 4.55462844384099E-02 
774	 4.56249331955044E-02 
775	 4.57256802613321E-02 
776	 4.59431523014842E-02 
777	 0.046107491060487 
778	 4.62627723225617E-02 
779	 4.64663987260479E-02 
780	 4.67590017422526E-02 
781	 0.046868080282533 
782	 4.70514584174095E-02 
783	 4.74279541661873E-02 
784	 4.75773968810851E-02 
785	 4.78049138125029E-02 
786	 4.80851564351031E-02 
787	 4.83238633918876E-02 
788	 4.87166507632117E-02 
789	 4.89864831047964E-02 
790	 4.91967402492364E-02 
791	 4.96450258979184E-02 
792	 4.97657385249532E-02 
793	 5.00375438763531E-02 
794	 5.05989522928746E-02 
795	 5.08008195550701E-02 
796	 5.10909786488107E-02 
797	 5.14207543911165E-02 
798	 5.16811333060048E-02 
799	 0.05200568804137 
800	 0.052233781699599 
801	 5.23866079367094E-02 
802	 5.25852654627754E-02 
803	 5.28253656133276E-02 
804	 5.29002182430779E-02 
805	 5.28520744720339E-02 
806	 5.29928607081022E-02 
807	 5.30849721493255E-02 
808	 5.29670240082685E-02 
809	 5.26840009974191E-02 
810	 5.27658853429076E-02 
811	 5.28199107917163E-02 
812	 5.26763642456676E-02 
813	 5.22971019471934E-02 
814	 0.051921479677724 
815	 5.17481781103669E-02 
816	 5.15469854727031E-02 
817	 5.08754828928396E-02 
818	 5.04937347053434E-02 
819	 0.049940369931413 
820	 4.91445534532859E-02 
821	 4.87028562680368E-02 
822	 4.78259178048761E-02 
823	 4.67413548187485E-02 
824	 4.58073565555162E-02 
825	 4.49003193944298E-02 
826	 0.044010488654669 
827	 4.29302290698542E-02 
828	 4.16046510166673E-02 
829	 4.08476782212125E-02 
830	 3.99348882228739E-02 
831	 3.90039235143071E-02 
832	 3.87794503739858E-02 
833	 3.84167434160043E-02 
834	 3.78939415727407E-02 
835	 0.037428869833782 
836	 3.73890634774798E-02 
837	 3.71293309547459E-02 
838	 0.036779784127936 
839	 3.65498389963696E-02 
840	 3.63730171672742E-02 
841	 3.63718990023778E-02 
842	 3.63521242516911E-02 
843	 3.61168223712771E-02 
844	 3.60576358480001E-02 
845	 3.58045229861703E-02 
846	 3.55734619786534E-02 
847	 3.58499741687154E-02 
848	 3.55690219836952E-02 
849	 3.53063117670859E-02 
850	 0.035302416742179 
851	 3.51464939937204E-02 
852	 3.52556650458194E-02 
853	 3.51757614959116E-02 
854	 3.47409821934715E-02 
855	 3.47436899523326E-02 
856	 3.47723537838816E-02 
857	 3.47911580508843E-02 
858	 3.47976076921501E-02 
859	 3.45230815717274E-02 
860	 3.43290962889782E-02 
861	 3.43745503806978E-02 
862	 3.45623817722274E-02 
863	 3.40195437802187E-02 
864	 0.03397293088596 
865	 3.42854911994978E-02 
866	 3.36644867915749E-02 
867	 3.37983672995221E-02 
868	 0.033836238532015 
869	 3.34983332633504E-02 
870	 3.36513843122899E-02 
871	 0.033424894351951 
872	 3.30838320374882E-02 
873	 3.30278776508677E-02 
874	 3.34403057321747E-02 
875	 3.31047277319731E-02 
876	 0.032662244940185 
877	 3.29065683778628E-02 
878	 3.29003797391274E-02 
879	 3.28229056822077E-02 
880	 3.26636046506131E-02 
881	 3.23974677481346E-02 
882	 3.23552908440179E-02 
883	 0.032297447310239 
884	 3.21346837507214E-02 
885	 3.19499017342094E-02 
886	 3.20355207814488E-02 
887	 0.03192951467441 
888	 0.031673962377819 
889	 3.19019140275756E-02 
890	 3.18727309444119E-02 
891	 3.16529179682308E-02 
892	 3.14714160787423E-02 
893	 0.031582097160258 
894	 3.16038137440101E-02 
895	 3.13576786444227E-02 
896	 3.10013868364769E-02 
897	 3.14939466613008E-02 
898	 3.12387479911977E-02 
899	 0.031123107582094 
900	 3.19226952592569E-02 
901	 3.08696580281988E-02 
902	 3.12234403367635E-02 
903	 3.18556975597622E-02 
904	 3.07896718666198E-02 
905	 3.08726862914376E-02 
906	 3.09153942889385E-02 
907	 3.05364027573803E-02 
908	 3.00817159926864E-02 
909	 2.99190960005968E-02 
910	 3.03223006821904E-02 
911	 3.06506437428403E-02 
912	 2.98128299800527E-02 
913	 2.97505453592582E-02 
914	 3.03910040516383E-02 
915	 3.07932553715564E-02 
916	 2.97428774880788E-02 
917	 3.00868556958792E-02 
918	 3.06247052525585E-02 
919	 3.02380185551089E-02 
920	 2.88565409027788E-02 
921	 2.95093397231562E-02 
922	 3.02974092200937E-02 
923	 2.97439580760529E-02 
924	 2.92959271160669E-02 
925	 3.04974422883316E-02 
926	 3.10643819017862E-02 
927	 2.92663660583579E-02 
928	 3.04377158830026E-02 
929	 0.030495322257672 
930	 2.96981945562616E-02 
931	 3.00513901350164E-02 
932	 2.80364968432418E-02 
933	 2.94973664037428E-02 
934	 3.10328395855529E-02 
935	 2.75100861144195E-02 
936	 2.81046998515415E-02 
937	 2.83608172280152E-02 
938	 2.83161455734941E-02 
939	 2.89422459493483E-02 
940	 2.86162607554164E-02 
941	 2.73546713511189E-02 
942	 2.75069348376148E-02 
943	 3.06173015425302E-02 
944	 0.026154416911245 
945	 2.61513238180805E-02 
946	 0.029682698206472 
947	 2.82874251699144E-02 
948	 2.54492043572621E-02 
949	 2.58106024460111E-02 
950	 2.78597867265787E-02 
951	 2.72475669022116E-02 
952	 2.84354469735341E-02 
953	 2.64352298291954E-02 
954	 2.42587896318555E-02 
955	 2.80582416160481E-02 
956	 2.47088482954837E-02 
957	 2.30734109761572E-02 
958	 2.43057351091233E-02 
959	 2.36795173185119E-02 
960	 2.58215998888607E-02 
961	 2.70392256998273E-02 
962	 2.66367975221212E-02 
963	 0.026531065707744 
964	 2.65347633182398E-02 
965	 2.76843021211686E-02 
966	 2.87026481594176E-02 
967	 2.73184917824669E-02 
968	 2.68387585208513E-02 
969	 2.69252326612538E-02 
970	 2.66116311377207E-02 
971	 2.51205090420987E-02 
972	 2.50314660011522E-02 
973	 2.65141430221176E-02 
974	 2.78464550986367E-02 
975	 2.65358449742089E-02 
976	 2.62906770665188E-02 
977	 2.58484781668664E-02 
978	 0.025043980209867 
979	 2.51166233225981E-02 
980	 2.66651050282156E-02 
981	 2.63955069120824E-02 
982	 2.52784623180114E-02 
983	 2.70425368806192E-02 
984	 2.68183239085966E-02 
985	 2.60862788253148E-02 
986	 2.60753310395805E-02 
987	 2.68692929519584E-02 
988	 2.59356651621887E-02 
989	 2.59948797990204E-02 
990	 2.66591466733427E-02 
991	 2.54898171979035E-02 
992	 2.53796902437871E-02 
993	 2.59322491280555E-02 
994	 2.63628011923522E-02 
995	 2.61107482286678E-02 
996	 2.63425348283417E-02 
997	 2.62420741671418E-02 
998	 2.61786953383589E-02 
999	 2.69694885196495E-02 
1000	 2.73569987620526E-02 
1001	 2.55859911032324E-02 
1002	 2.56880522229104E-02 
1003	 2.57651678512894E-02 
1004	 2.57692400419572E-02 
1005	 2.58255058058691E-02 
1006	 2.60104151379458E-02 
1007	 2.60977775595604E-02 
1008	 2.61572291193608E-02 
1009	 2.60296569761819E-02 
1010	 2.56291571826113E-02 
1011	 2.56699457391594E-02 
1012	 2.55598408315042E-02 
1013	 2.56795908432945E-02 
1014	 2.57987066731979E-02 
1015	 2.61219529097169E-02 
1016	 2.60370820101692E-02 
1017	 2.58053992369181E-02 
1018	 2.56256475852578E-02 
1019	 2.50321748342752E-02 
1020	 2.50237108193424E-02 
1021	 0.025475371865638 
1022	 2.56915374023612E-02 
1023	 2.61151446726641E-02 
1024	 2.62509493606232E-02 
1025	 0.026054449942526 
1026	 2.61188637799709E-02 
1027	 2.60154694139731E-02 
1028	 0.025766959839593 
1029	 0.025758042352225 
1030	 2.57823189380356E-02 
1031	 2.57622946748654E-02 
1032	 2.59479442093891E-02 
1033	 2.59666043243625E-02 
1034	 2.58396137722058E-02 
1035	 2.57348410164207E-02 
1036	 2.54092474088166E-02 
1037	 2.53997877850142E-02 
1038	 2.54749954523866E-02 
1039	 0.025783054653727 
1040	 2.58725951809979E-02 
1041	 2.61961506737876E-02 
1042	 2.64136223133666E-02 
1043	 2.65540213852024E-02 
1044	 2.65179291408376E-02 
1045	 2.64847347899507E-02 
1046	 2.64452261488942E-02 
1047	 2.61004229194659E-02 
1048	 0.025987020475598 
1049	 0.026095329704719 
1050	 2.61166788681768E-02 
1051	 2.60379010600636E-02 
1052	 2.60825023294573E-02 
1053	 2.63055171874425E-02 
1054	 0.026404586041604 
1055	 2.66459182019468E-02 
1056	 2.66317115349847E-02 
1057	 2.64674477787981E-02 
1058	 2.60001685607311E-02 
1059	 2.59283651480483E-02 
1060	 2.57991727822077E-02 
1061	 2.58353735015879E-02 
1062	 2.62676508034619E-02 
1063	 2.63812542406454E-02 
1064	 2.63362005860711E-02 
1065	 2.63653316697406E-02 
1066	 2.64222345186478E-02 
1067	 2.63744343356281E-02 
1068	 0.026246179121246 
1069	 2.61770769186992E-02 
1070	 2.60284533090907E-02 
1071	 2.59428388271967E-02 
1072	 2.60291611295442E-02 
1073	 2.58449343142027E-02 
1074	 2.60334040201468E-02 
1075	 2.64943863002181E-02 
1076	 2.64484799484085E-02 
1077	 2.63962222856663E-02 
1078	 2.62707695123957E-02 
1079	 2.55013195411945E-02 
1080	 2.54481554939154E-02 
1081	 2.60734330453985E-02 
1082	 2.61270010776874E-02 
1083	 2.61107091637732E-02 
1084	 2.60958139592307E-02 
1085	 2.56926632499851E-02 
1086	 0.025523891391784 
1087	 2.55279257509738E-02 
1088	 2.56169173095141E-02 
1089	 2.58775544821008E-02 
1090	 2.60448937202253E-02 
1091	 0.026084064341593 
1092	 2.61207001013249E-02 
1093	 2.61481248178599E-02 
1094	 2.59817904498065E-02 
1095	 2.58787574703561E-02 
1096	 0.025885318973742 
1097	 0.025916548124811 
1098	 2.58127184893322E-02 
1099	 2.58272967783876E-02 
1100	 2.62309037087175E-02 
1101	 2.61518181872002E-02 
1102	 2.55512282193886E-02 
1103	 2.54976913014392E-02 
1104	 2.58013719948527E-02 
1105	 2.54578251411521E-02 
1106	 2.54737226718628E-02 
1107	 2.55195209176376E-02 
1108	 2.53663864841098E-02 
1109	 2.53476191125654E-02 
1110	 2.53042442119026E-02 
1111	 2.57666648183917E-02 
1112	 2.58704759543289E-02 
1113	 2.53909010894369E-02 
1114	 2.52606476654086E-02 
1115	 2.52458027785661E-02 
1116	 2.53234090706541E-02 
1117	 2.62332896648117E-02 
1118	 0.026111489599278 
1119	 2.47129515909508E-02 
1120	 2.43912149848778E-02 
1121	 2.35393258581928E-02 
1122	 2.26598544352404E-02 
1123	 2.45605379107848E-02 
1124	 2.56963920468457E-02 
1125	 2.49172051111686E-02 
1126	 2.42633479385332E-02 
1127	 2.54900486290272E-02 
1128	 2.69194346657057E-02 
1129	 2.69324938164007E-02 
1130	 2.71239285642127E-02 
1131	 2.70422334236201E-02 
1132	 2.55758028564212E-02 
1133	 0.025121492534388 
1134	 2.50472382462358E-02 
1135	 2.48548785006898E-02 
1136	 0.025430605867027 
1137	 2.50344786278611E-02 
1138	 2.38871125075132E-02 
1139	 2.34337302746015E-02 
1140	 2.42064005717995E-02 
1141	 2.38118107992829E-02 
1142	 2.38676852149363E-02 
1143	 2.52134695239705E-02 
1144	 2.47314538594599E-02 
1145	 2.30885610726603E-02 
1146	 2.26697530074066E-02 
1147	 2.26227172931848E-02 
1148	 2.22969681194691E-02 
1149	 2.20423641768035E-02 
1150	 2.20814194632614E-02 
1151	 2.22208825020525E-02 
1152	 2.19541942000101E-02 
1153	 2.21080668584052E-02 
1154	 2.20838834663058E-02 
1155	 2.18719950297862E-02 
1156	 2.11067492364498E-02 
1157	 0.021463620732528 
1158	 2.17109128993082E-02 
1159	 0.021271111672166 
1160	 2.15583009173605E-02 
1161	 2.17924699172988E-02 
1162	 2.11481742653117E-02 
1163	 2.10346324212982E-02 
1164	 2.14578706201864E-02 
1165	 2.10699559927576E-02 
1166	 2.08684005789679E-02 
1167	 2.11548151674037E-02 
1168	 2.08974795583378E-02 
1169	 2.08048179650918E-02 
1170	 2.08998126467167E-02 
1171	 2.09111047297727E-02 
1172	 2.08077273875578E-02 
1173	 2.08183197599082E-02 
1174	 2.09429006841764E-02 
1175	 2.08048853556749E-02 
1176	 2.11030146508725E-02 
1177	 2.12937048053518E-02 
1178	 2.10082682330685E-02 
1179	 2.10960857890414E-02 
1180	 2.11704865313289E-02 
1181	 2.06445678782082E-02 
1182	 2.05813526049421E-02 
1183	 2.10460547924058E-02 
1184	 2.09508982437655E-02 
1185	 2.06574690432664E-02 
1186	 2.07032293802495E-02 
1187	 2.08214861432833E-02 
1188	 0.02083327840054 
1189	 2.08689360493338E-02 
1190	 2.09204907789654E-02 
1191	 2.07875412252979E-02 
1192	 2.06580547647878E-02 
1193	 2.04403235102295E-02 
1194	 2.04109309677036E-02 
1195	 2.04513120022023E-02 
1196	 2.04809247672863E-02 
1197	 2.04728075247647E-02 
1198	 2.04430262051471E-02 
1199	 2.03966051913743E-02 
1200	 2.03210426038688E-02 
1201	 2.02187477857556E-02 
1202	 2.02739057870127E-02 
1203	 0.020438648971886 
1204	 2.04911241644445E-02 
1205	 2.05108580866223E-02 
1206	 0.020499498169468 
1207	 0.020419324333328 
1208	 2.04660783751009E-02 
1209	 2.06698735750696E-02 
1210	 2.07189518490303E-02 
1211	 2.06403697362003E-02 
1212	 2.06406799069271E-02 
1213	 2.05634798506885E-02 
1214	 2.04710459617126E-02 
1215	 2.04405031551595E-02 
1216	 2.05127200640506E-02 
1217	 2.05228229021312E-02 
1218	 2.04678430353174E-02 
1219	 0.020476967827377 
1220	 2.07878523636468E-02 
1221	 2.08691764219482E-02 
1222	 2.06228498644116E-02 
1223	 2.05855941788372E-02 
1224	 0.020495113845162 
1225	 2.04103680130083E-02 
1226	 2.05667420363923E-02 
1227	 0.020519491675175 
1228	 2.04307449503799E-02 
1229	 2.05650937939751E-02 
1230	 2.06092221736967E-02 
1231	 2.06180914949272E-02 
1232	 2.07073506432512E-02 
1233	 2.07239069570968E-02 
1234	 2.06037942442994E-02 
1235	 2.05641206124774E-02 
1236	 2.07007460764105E-02 
1237	 2.07066303657011E-02 
1238	 0.020554152347459 
1239	 2.06129282956799E-02 
1240	 2.07814674768321E-02 
1241	 2.07480398834763E-02 
1242	 0.02072362113949 
1243	 2.06817627058421E-02 
1244	 2.06313474998899E-02 
1245	 2.06867673166112E-02 
1246	 2.06501443951336E-02 
1247	 2.06337704617732E-02 
1248	 2.08646069653885E-02 
1249	 2.10215025374097E-02 
1250	 2.08999627047111E-02 
1251	 2.07905173107504E-02 
1252	 2.08465326504573E-02 
1253	 2.08532641581823E-02 
1254	 2.09325455327193E-02 
1255	 2.12341177208164E-02 
1256	 2.12709566300315E-02 
1257	 0.020770587185166 
1258	 2.06481002793288E-02 
1259	 2.07721144276552E-02 
1260	 2.07199976988098E-02 
1261	 0.020595354275966 
1262	 2.06173632285683E-02 
1263	 2.06708519593602E-02 
1264	 2.07187345021081E-02 
1265	 2.08434582774158E-02 
1266	 2.08231575641024E-02 
1267	 2.05538020503317E-02 
1268	 2.04363729346255E-02 
1269	 2.04626405460164E-02 
1270	 2.04372334120793E-02 
1271	 2.05703244598123E-02 
1272	 2.06994317565115E-02 
1273	 2.05420210440546E-02 
1274	 2.03512397787048E-02 
1275	 2.03289609755037E-02 
1276	 2.04253472197677E-02 
1277	 2.05822676845627E-02 
1278	 0.020637717991836 
1279	 2.06264209155676E-02 
1280	 2.05875738645362E-02 
1281	 2.05184289968957E-02 
1282	 2.03770091046861E-02 
1283	 2.03834683516537E-02 
1284	 2.04135917764058E-02 
1285	 2.03598803535683E-02 
1286	 0.020384953273805 
1287	 2.04502950418249E-02 
1288	 2.05238417353557E-02 
1289	 2.04327483175047E-02 
1290	 2.02463687263209E-02 
1291	 2.01725269990528E-02 
1292	 2.00829409779469E-02 
1293	 2.00748574687463E-02 
1294	 2.03156950410813E-02 
1295	 2.03342629514942E-02 
1296	 2.00888024858039E-02 
1297	 0.020011677585126 
1298	 1.99121888411243E-02 
1299	 1.97830021067608E-02 
1300	 1.98514110860849E-02 
1301	 2.00084444093647E-02 
1302	 2.01316441822403E-02 
1303	 2.00603919339565E-02 
1304	 1.98950708638451E-02 
1305	 1.95549525251792E-02 
1306	 1.93494939741181E-02 
1307	 1.93572171305857E-02 
1308	 1.92653337799937E-02 
1309	 1.89655368321955E-02 
1310	 1.89298474182587E-02 
1311	 1.91537581220681E-02 
1312	 1.90419905729847E-02 
1313	 1.88088950646466E-02 
1314	 0.018794158295317 
1315	 1.88066207836904E-02 
1316	 1.86495480411671E-02 
1317	 1.84285221912726E-02 
1318	 1.84915494908502E-02 
1319	 1.86344301610997E-02 
1320	 1.85451332745066E-02 
1321	 1.84382614224259E-02 
1322	 1.87927712893942E-02 
1323	 0.018884416497787 
1324	 1.82686857902133E-02 
1325	 1.79545429701099E-02 
1326	 0.01803153606999 
1327	 1.83171454077061E-02 
1328	 1.87273838716035E-02 
1329	 1.84009195887181E-02 
1330	 1.80275319782357E-02 
1331	 1.79538071313845E-02 
1332	 1.75758027501896E-02 
1333	 1.76989876859779E-02 
1334	 1.78096938224229E-02 
1335	 1.76240822594988E-02 
1336	 1.61291145540392E-02 
1337	 1.60423811359707E-02 
1338	 1.72633705346935E-02 
1339	 1.74322997616116E-02 
1340	 1.74737874158527E-02 
1341	 1.74412270828138E-02 
1342	 1.66919702242231E-02 
1343	 1.61950994806448E-02 
1344	 1.55821101048123E-02 
1345	 1.59494502824249E-02 
1346	 1.77482420873098E-02 
1347	 1.75832102693901E-02 
1348	 0.016347235747787 
1349	 1.72530027188035E-02 
1350	 1.79349144219744E-02 
1351	 1.71625486172901E-02 
1352	 1.95650213238014E-02 
1353	 2.46611407834169E-02 
1354	 2.81240897939289E-02 
1355	 2.26994637670897E-02 
1356	 2.68095773299667E-03 
1357	 4.89885080163933E-03 
1358	 1.02910666419622E-02 
1359	 7.7139370870288E-03 
1360	 8.79804164725218E-02 
1361	 0.119431670873301 
1362	 1.82136541240735E-02 
1363	-0.020335167935035 
1364	 9.58969466674898E-02 
1365	 0.149678187397289 
1366	 5.95415010793327E-02 
1367	 7.05557957750771E-02 
1368	 6.94081400059763E-02 
1369	 1.42691031503664E-05 
1370	-2.46976511902084E-03 
1371	 0.142573143551124 
1372	 0.105463246037609 
1373	-0.11107571152006 
1374	-0.103925479364044 
1375	 0.052294054203188 
1376	 6.03916040146472E-02 
1377	 0.128183195285011 
1378	 0.213453714428061 
1379	 0.13689145868104 
1380	 2.27839826729167E-02 
1381	-8.87970957979605E-02 
1382	-6.66678817192405E-02 
1383	-0.118431067033169 
1384	-0.215275699876815 
1385	-0.109557666620644 
1386	-1.36817629870982E-02 
1387	-4.17867555029293E-02 
1388	-6.75158812073186E-02 
1389	-3.46985812154639E-02 
1390	 1.77676095380739E-02 
1391	 0.051928862518858 
1392	 2.45953819933816E-02 
1393	-0.093789523149048 
1394	-7.44969487407545E-02 
1395	 0.186516314236773 
1396	 0.241764719568243 
1397	 3.14797415568461E-02 
1398	 4.36440770803232E-02 
1399	 0.231523518678834 
1400	 0.163540166339542 
1401	 0.142064338993972 
1402	 0.559961820131446 
1403	 0.576917364418031 
1404	 0.110072922327206 
1405	-5.94061333865175E-02 
1406	-8.18440956432123E-02 
1407	-3.08022295870434E-02 
1408	-3.29940625006609E-02 
1409	-4.88117023535134E-02 
1410	 0.042633305158856 
1411	 5.87274599861943E-02 
1412	-3.35224928518513E-02 
1413	-4.65613839850076E-02 
1414	 1.75117603382399E-02 
1415	 2.51960297958779E-02 
1416	-1.84392464070611E-02 
1417	-4.11799917720981E-03 
1418	 5.15794510461484E-02 
1419	 4.49699085320416E-02 
1420	 2.04323073633752E-02 
1421	 1.47488783314792E-02 
1422	-1.57444421772279E-03 
1423	-1.46112862563913E-03 
1424	 9.26865260345007E-03 
1425	 1.53970906353762E-02 
1426	 2.94362230267053E-02 
1427	 2.55648169539015E-02 
1428	 1.11899746147022E-02 
1429	 6.98291229855003E-03 
1430	-5.11137201146889E-03 
1431	-7.46533826756515E-03 
1432	 7.72138005094708E-03 
1433	 9.10239012835296E-03 
1434	-3.99806158968733E-04 
1435	-5.4037809232966E-05 
1436	 1.30084704093044E-03 
1437	 8.57846943711127E-04 
1438	-3.16823965833949E-03 
1439	-2.01492066305841E-03 
1440	 5.05808833746207E-03 
1441	 5.92533605847773E-03 
1442	 9.55507478817875E-03 
1443	 1.54431981594936E-02 
1444	 0.010632622632985 
1445	 3.8205183154706E-03 
1446	 4.20157646949374E-03 
1447	 4.67898532064796E-03 
1448	 1.27471895358944E-03 
1449	 1.06894742833021E-03 
1450	 2.99637717409419E-03 
1451	 3.76259315373225E-03 
1452	 5.01197667513266E-03 
1453	 5.80643356407778E-03 
1454	 6.29076855209247E-03 
1455	 5.89850655573616E-03 
1456	 5.52635675775627E-03 
1457	 5.2157940261053E-03 
1458	 5.24765586697787E-03 
1459	 4.9276587855206E-03 
1460	 4.93135183710663E-03 
1461	 5.93006601094314E-03 
1462	 5.57079904331298E-03 
1463	 3.81887325069242E-03 
1464	 3.45768749106853E-03 
1465	 3.0786240161715E-03 
1466	 3.45222302851021E-03 
1467	 5.78118042318435E-03 
1468	 5.91847857684313E-03 
1469	 4.80048964703657E-03 
1470	 4.64432593314434E-03 
1471	 4.29051884781029E-03 
1472	 3.7826657955953E-03 
1473	 3.1549106679339E-03 
1474	 3.28194495246141E-03 
1475	 3.41093301734481E-03 
1476	 3.5432762352178E-03 
1477	 4.68546709573019E-03 
1478	 5.24240419296606E-03 
1479	 0.004961158209225 
1480	 5.08358472676112E-03 
1481	 5.49693505307761E-03 
1482	 5.74399693013249E-03 
1483	 6.0890600325642E-03 
1484	 6.03343568285517E-03 
1485	 5.8552651111763E-03 
1486	 5.7209686232926E-03 
1487	 5.4291973281621E-03 
1488	 5.25937861992067E-03 
1489	 4.88342756211727E-03 
1490	 4.86388993109129E-03 
1491	 5.40691343514774E-03 
1492	 5.25703245904174E-03 
1493	 4.52735087364114E-03 
1494	 4.64311175333266E-03 
1495	 5.14096051769316E-03 
1496	 5.04137145406149E-03 
1497	 4.84171041865414E-03 
1498	 5.14256060762582E-03 
1499	 5.45205061486632E-03 
1500	 5.41400906668982E-03 
1501	 5.62117484326479E-03 
1502	 5.90409583451138E-03 
1503	 5.90850724677409E-03 
1504	 5.76393991633053E-03 
1505	 5.64674539052533E-03 
1506	 5.77667697051579E-03 
1507	 5.94422661349686E-03 
1508	 5.98268902214035E-03 
1509	 6.16343152446715E-03 
1510	 6.36028245115355E-03 
1511	 6.22475890055827E-03 
1512	 6.01620679142718E-03 
1513	 6.15201941356336E-03 
1514	 6.3575299646895E-03 
1515	 6.32422229614091E-03 
1516	 6.14542364533253E-03 
1517	 6.14507113072808E-03 
1518	 6.34774348358166E-03 
1519	 6.38458590997509E-03 
1520	 6.50292852298617E-03 
1521	 6.63554363030302E-03 
1522	 6.56979556681486E-03 
1523	 6.7156334421708E-03 
1524	 0.006845877447351 
1525	 6.70838980647717E-03 
1526	 6.62856309334976E-03 
1527	 6.71606264910533E-03 
1528	 6.79746291305233E-03 
1529	 6.79611093983353E-03 
1530	 6.76312485439098E-03 
1531	 6.74700405825601E-03 
1532	 6.82875946594946E-03 
1533	 6.98595568624502E-03 
1534	 7.16191385807915E-03 
1535	 7.13936426154216E-03 
1536	 6.96224894463382E-03 
1537	 7.08590866325944E-03 
1538	 7.36261240095604E-03 
1539	 7.4556580238069E-03 
1540	 7.46796838548153E-03 
1541	 7.52904114822778E-03 
1542	 7.52595370870118E-03 
1543	 7.4952847016009E-03 
1544	 7.64426738461045E-03 
1545	 7.7889895952733E-03 
1546	 7.8353701248874E-03 
1547	 7.95486422129348E-03 
1548	 8.02276534623905E-03 
1549	 7.93865327602013E-03 
1550	 7.95934682418449E-03 
1551	 8.01443414062702E-03 
1552	 8.07681040054302E-03 
1553	 8.18027165515791E-03 
1554	 8.16769425516324E-03 
1555	 8.25954328491809E-03 
1556	 8.26126409268187E-03 
1557	 8.17697832097279E-03 
1558	 8.3533869464629E-03 
1559	 8.39921280740976E-03 
1560	 8.30653427218594E-03 
1561	 8.39838124651809E-03 
1562	 8.39570147536765E-03 
1563	 8.34871491081236E-03 
1564	 8.43797704330419E-03 
1565	 8.40057811592274E-03 
1566	 8.37697697959787E-03 
1567	 8.54387588946544E-03 
1568	 8.67019761259344E-03 
1569	 8.66432247388073E-03 
1570	 8.62622922925798E-03 
1571	 8.52778785788154E-03 
1572	 8.49073598744723E-03 
1573	 8.69135234947777E-03 
1574	 8.85371388971602E-03 
1575	 8.84665785992136E-03 
1576	 8.91338854511634E-03 
1577	 8.94609315527428E-03 
1578	 9.02324025041041E-03 
1579	 9.29528060704156E-03 
1580	 9.32919410274015E-03 
1581	 9.30963142890854E-03 
1582	 9.40710835010805E-03 
1583	 9.32053297848638E-03 
1584	 9.29563647360785E-03 
1585	 9.46745313157244E-03 
1586	 9.60375884048381E-03 
1587	 9.4992441404907E-03 
1588	 9.33176034969553E-03 
1589	 9.30188715178529E-03 
1590	 9.24755524116082E-03 
1591	 9.29139540895095E-03 
1592	 9.50324491698804E-03 
1593	 9.81196732148681E-03 
1594	 9.93218016931839E-03 
1595	 9.75743323836652E-03 
1596	 9.73218208091459E-03 
1597	 9.7674242351236E-03 
1598	 9.70761711342216E-03 
1599	 9.6125570241198E-03 
1600	 9.58960886151662E-03 
1601	 9.75758161575973E-03 
1602	 9.90898103730136E-03 
1603	 1.01492845911909E-02 
1604	 1.03443074080754E-02 
1605	 1.02915305671267E-02 
1606	 0.010348095691147 
1607	 1.03425919139531E-02 
1608	 1.01394676719115E-02 
1609	 9.96841659181878E-03 
1610	 9.7766630372649E-03 
1611	 9.78820879419975E-03 
1612	 1.01377706257885E-02 
1613	 1.03746583230869E-02 
1614	 1.03189363425438E-02 
1615	 1.00879416725555E-02 
1616	 1.00111568803431E-02 
1617	 1.02323581779843E-02 
1618	 1.01952977009659E-02 
1619	 1.00628057230348E-02 
1620	 1.02421814302731E-02 
1621	 1.02545415566438E-02 
1622	 1.03478771927947E-02 
1623	 1.06929416153099E-02 
1624	 1.06535944765523E-02 
1625	 0.010420994546134 
1626	 1.03019471471316E-02 
1627	 1.04121994570056E-02 
1628	 1.05754862035064E-02 
1629	 0.010291814838326 
1630	 1.01674389669575E-02 
1631	 1.04320162335235E-02 
1632	 1.04968324725124E-02 
1633	 1.06532181871196E-02 
1634	 1.07709538911498E-02 
1635	 1.04956980407674E-02 
1636	 1.03910623491368E-02 
1637	 1.06896081253725E-02 
1638	 1.09465128629559E-02 
1639	 1.08964722915213E-02 
1640	 1.06592785970645E-02 
1641	 1.03799900960422E-02 
1642	 1.03591338394145E-02 
1643	 1.06114240561002E-02 
1644	 1.07736367132675E-02 
1645	 1.10582597570188E-02 
1646	 1.12092190498588E-02 
1647	 1.08668516472563E-02 
1648	 1.07500469215858E-02 
1649	 1.08677086591116E-02 
1650	 1.08446523172842E-02 
1651	 1.08125354664516E-02 
1652	 1.07363497366668E-02 
1653	 1.08943093500964E-02 
1654	 1.08544591148273E-02 
1655	 1.08533342953839E-02 
1656	 1.09863735712748E-02 
1657	 1.08914010282851E-02 
1658	 1.08848045419749E-02 
1659	 1.13382563098475E-02 
1660	 1.12630734218741E-02 
1661	 1.06453859521783E-02 
1662	 1.06638878305098E-02 
1663	 1.09246772689733E-02 
1664	 1.08470961654894E-02 
1665	 1.08294493023448E-02 
1666	 1.08906383610736E-02 
1667	 1.07620667479487E-02 
1668	 1.10555502497377E-02 
1669	 1.11435460389462E-02 
1670	 1.08266767310278E-02 
1671	 1.06639990915405E-02 
1672	 0.010988007993535 
1673	 1.11330007125692E-02 
1674	 1.09959304760786E-02 
1675	 1.10899517762787E-02 
1676	 1.11057044793646E-02 
1677	 1.08510570151195E-02 
1678	 1.08198833736966E-02 
1679	 1.10722580350984E-02 
1680	 1.12038364964598E-02 
1681	 1.10808688148262E-02 
1682	 1.11776703954725E-02 
1683	 1.12857258764093E-02 
1684	 1.08661715807049E-02 
1685	 1.09120235271749E-02 
1686	 1.15373788313342E-02 
1687	 1.13812477165941E-02 
1688	 1.08330799481634E-02 
1689	 1.08717495930362E-02 
1690	 1.08960179394493E-02 
1691	 1.08908674730807E-02 
1692	 1.13404086031634E-02 
1693	 1.12670756682089E-02 
1694	 0.010565796236028 
1695	 1.05767870732722E-02 
1696	 1.10652346169738E-02 
1697	 1.11026795084278E-02 
1698	 1.10039129920672E-02 
1699	 1.09507140759436E-02 
1700	 1.05532992833899E-02 
1701	 1.04090313318817E-02 
1702	 1.12367940635749E-02 
1703	 1.16741489813639E-02 
1704	 1.12508732960308E-02 
1705	 1.13325812197256E-02 
1706	 1.12656020380032E-02 
1707	 1.07636972736498E-02 
1708	 1.10659925247066E-02 
1709	 1.13154342217138E-02 
1710	 1.06935246687972E-02 
1711	 1.03579664057049E-02 
1712	 1.05563437452911E-02 
1713	 0.01088641538391 
1714	 1.08699593040841E-02 
1715	 1.06993490687095E-02 
1716	 1.01729760245733E-02 
1717	 0.01007814540413 
1718	 1.05904717941153E-02 
1719	 0.010790047989863 
1720	 1.08337517530278E-02 
1721	 1.09134005158639E-02 
1722	 1.04842805041608E-02 
1723	 1.00489117779798E-02 
1724	 0.01039052109909 
1725	 0.010771352147038 
1726	 0.010668746341944 
1727	 1.06234501359412E-02 
1728	 1.03736717961177E-02 
1729	 1.00620767987628E-02 
1730	 1.03928866353739E-02 
1731	 1.08015120521087E-02 
1732	 1.04076300407468E-02 
1733	 9.68063501771073E-03 
1734	 9.38874570130052E-03 
1735	 9.27884253627171E-03 
1736	 9.2747920665582E-03 
1737	 9.73591817210675E-03 
1738	 1.01459993736283E-02 
1739	 1.00722231868096E-02 
1740	 9.90766873890641E-03 
1741	 9.77477950638949E-03 
1742	 9.50024714586796E-03 
1743	 8.99457682022032E-03 
1744	 9.15961545190903E-03 
1745	 9.99395957126905E-03 
1746	 1.07729917652502E-02 
1747	 1.06639954275656E-02 
1748	 9.23314068210948E-03 
1749	 8.88902218572914E-03 
1750	 8.76908103206036E-03 
1751	 8.86651869701159E-03 
1752	 1.03235838485707E-02 
1753	 1.05990039072386E-02 
1754	 9.7471239671083E-03 
1755	 9.15630891559703E-03 
1756	 8.18283445824408E-03 
1757	 8.02164831525451E-03 
1758	 8.66019600392348E-03 
1759	 8.88317404995344E-03 
1760	 8.83609789631685E-03 
1761	 9.09921600938808E-03 
1762	 8.68700123639487E-03 
1763	 8.60573504359789E-03 
1764	 9.21850928091904E-03 
1765	 9.05537527938536E-03 
1766	 8.58015565080622E-03 
1767	 8.75306875684258E-03 
1768	 8.92280730312731E-03 
1769	 8.53078545789517E-03 
1770	 8.44240294776587E-03 
1771	 8.41139348209148E-03 
1772	 7.85962162474369E-03 
1773	 8.20463624718898E-03 
1774	 8.73965765785869E-03 
1775	 9.23408219274684E-03 
1776	 9.40653858945895E-03 
1777	 9.19337905850094E-03 
1778	 9.04777749456131E-03 
1779	 8.22059142066485E-03 
1780	 7.94999458410932E-03 
1781	 8.28359926187221E-03 
1782	 8.44182165560426E-03 
1783	 9.23994406380581E-03 
1784	 9.37169239219768E-03 
1785	 8.54318849869375E-03 
1786	 8.75517464581163E-03 
1787	 9.71615439840972E-03 
1788	 8.71197494445276E-03 
1789	 6.9935483407431E-03 
1790	 7.42335899921562E-03 
1791	 5.32978927465661E-03 
1792	 6.91030670789987E-03 
1793	 8.46612747547306E-03 
1794	 6.80625219422567E-03 
1795	 7.11262323845085E-03 
1796	 6.95483467661718E-03 
1797	 7.23835646854027E-03 
1798	 6.0442438696548E-03 
1799	 4.53109718609361E-03 
1800	 7.81389466239337E-03 
1801	 6.81984660082829E-03 
1802	 1.89673986096183E-03 
1803	-5.47119094285636E-04 
1804	-9.6823030101208E-03 
1805	-1.28896986166163E-02 
1806	 2.68076907240406E-03 
1807	 1.35228669936708E-02 
1808	 2.51455268493702E-02 
1809	 3.73318934250634E-02 
1810	 5.03836001267525E-02 
1811	 4.36973095654717E-02 
1812	 5.29673553548905E-03 
1813	-2.43306115139873E-02 
1814	-0.137123893313189 
1815	-7.55891521175743E-02 
1816	 0.256521368695007 
1817	 0.406706101450542 
1818	 0.468721534244975 
1819	 0.105885031974014 
1820	-0.27825023272337 
1821	-0.484293023120754 
1822	-0.544143438760079 
1823	-5.95930319620054E-02 
1824	 0.216831730970068 
1825	 0.53726246111318 
1826	 0.655308664105448 
1827	 0.284417254255769 
1828	 0.216064961650929 
1829	 0.25715414705319 
1830	 0.236890253035846 
1831	 5.96215283235853 
1832	 6.41961203917146 
1833	-2.92021049760274 
1834	-1.90785450068017 
1835	 0.458998208720172 
1836	 0.72498703909164 
1837	-1.5194178319599 
1838	-13.7856303401046 
1839	 2.79846330911217 
1840	 8.41338683614753 
1841	 3.29344616525613 
1842	 0.6917737853686 
1843	 0.344842758532013 
1844	 0.715382590795991 
1845	 0.869152829190218 
1846	 0.882538614668927 
1847	 0.728578418509906 
1848	-7.31627976849824 
1849	 0.807788333137773 
1850	 1.19577701424931 
1851	 2.04238032654278 
1852	 3.08239300606552 
1853	-8.72582488371852 
1854	-2.46237528934434 
1855	-1.09945775167177 
1856	-0.78029860329056 
1857	-2.17231503144696 
1858	 3.37955821587715 
1859	-3.07850832011463 
1860	 4.01529590722614 
1861	 0.645448088083479 
1862	 4.99543200132319 
1863	-15.0661703153971 
1864	-1.93635036277497 
1865	-2.15262543170941 
1866	 9.07756461086487 
1867	 9.91471019929567 
1868	-4.72907432802217 
1869	-2.77702120288641 
1870	-1.17538825291597 
1871	-0.565146313109617 
1872	 2.15496267825101 
1873	 1.14002686293142 
1874	 0.939089349324602 
1875	-0.850890589912474 
1876	-13.0336331201357 
1877	 0.923407487489876 
1878	 0.678573776145168 
1879	 3.78730647148203 
1880	 2.75391144355339 
1881	 2.36192289366248 
1882	 0.503057120392414 
1883	 1.50691140387896 
1884	 1.96721880000323 
1885	 0.603396916649459 
1886	-3.65831935917889 
1887	-1.65338678745489 
1888	-3.07158709592712 
1889	-1.86414382090189 
1890	 0.279898629791752 
1891	 0.540343026199148 
1892	 0.762171750901398 
1893	 0.2269036540025 
1894	-0.787212105238362 
1895	-9.17854922191584 
1896	 8.6596318942452 
1897	 1.71744538951324 
1898	 4.5490616678684 
1899	 7.52329732907859 
1900	 11.6319720514751 
1901	 4.42602944093949 
1902	 4.03333049305496 
1903	-2.00187230302738 
1904	 0.264353892412216 
1905	-5.49017791050994 
1906	 6.27921507937826 
1907	-3.27853957668503 
1908	-0.23526949429502 
1909	-0.169150810059088 
1910	 0.310842808334011 
1911	 0.207390754558181 
1912	-0.147878508425975 
1913	-0.212563304470809 
1914	-0.294890489244295 
1915	-0.470734099756609 
1916	-2.15654724346958 
1917	-0.31919479632572 
1918	 0.700514698129907 
1919	 0.538114629883549 
1920	 0.591875171886798 
1921	-0.226225529983037 
1922	-1.61737795950273 
1923	-2.7657015472628 
1924	-10.5447826975096 
1925	 7.73746571426165 
1926	 7.83610977133863 
1927	 11.9471126553477 
1928	-4.80502032907115 
1929	-0.645085698259655 
1930	-0.296609481898778 
1931	-0.413767492407028 
1932	-0.353132832316117 
1933	-0.160905566933007 
1934	 9.97558746888661E-03 
1935	 0.128567392159544 
1936	 0.135766623648474 
1937	 1.57997721696796E-02 
1938	-9.10885668793986E-02 
1939	-7.45751568780127E-02 
1940	-2.11236933629258E-02 
1941	 2.94833756406332E-02 
1942	 6.41450335807904E-02 
1943	 7.29378191825485E-02 
1944	 6.78578189327976E-02 
1945	 4.93187889136765E-02 
1946	 2.67432709503714E-02 
1947	 1.01602640341694E-02 
1948	-1.65500454547471E-02 
1949	-1.48310709280244E-02 
1950	-4.03629281348376E-03 
1951	-1.34416810833231E-02 
1952	-9.19327011344979E-03 
1953	 3.51447249658774E-03 
1954	 5.92491228554149E-03 
1955	 7.98994324472921E-03 
1956	 1.62657530407604E-02 
1957	 1.47859203459107E-02 
1958	 1.38994280031336E-02 
1959	 9.42094830374614E-03 
1960	 5.50198124604587E-03 
1961	 0.004963690813369 
1962	 1.78142067786822E-03 
1963	 1.04009242575991E-03 
1964	 2.80440090106989E-03 
1965	 7.19709030096308E-04 
1966	-1.990227413759E-04 
1967	-2.18200626406893E-03 
1968	-2.0797942280304E-03 
1969	-1.37777355653119E-03 
1970	 1.65686696321265E-03 
1971	 4.60757125235231E-03 
1972	 3.6103451081638E-03 
1973	 2.85809788430501E-03 
1974	 1.8284549713285E-03 
1975	 4.80669125896168E-04 
1976	 8.50664179366243E-04 
1977	-2.36392072478456E-04 
1978	-7.83449269037603E-04 
1979	-1.18455805471729E-03 
1980	-1.53684882448619E-03 
1981	-2.64359886697623E-03 
1982	-9.96553401388397E-04 
1983	 9.29880917570273E-04 
1984	 1.23729865133718E-03 
1985	 2.2626847303939E-03 
1986	 3.19516074512252E-03 
1987	 2.21337555760258E-03 
1988	 2.40304480098925E-03 
1989	 3.88786085117434E-03 
1990	 2.56606394005602E-03 
1991	 1.27386866220519E-03 
1992	 2.4088020358647E-03 
1993	 2.44298270591494E-03 
1994	 2.81445062355651E-03 
1995	 4.21708747250584E-03 
1996	 6.67897812020907E-03 
1997	 6.4817051448835E-03 
1998	 6.5804793060755E-03 
1999	 6.66842480994862E-03 
2000	 6.55152984814453E-03 
2001	 9.02020618592294E-03 
2002	 1.04963988865907E-02 
2003	 1.03891353238874E-02 
2004	 9.36673344671944E-03 
2005	 3.56092438918141E-03 
2006	-1.05126400788011E-04 
2007	 1.92120711189516E-03 
2008	 2.78989557469937E-03 
2009	 3.73422041770518E-03 
2010	 6.51774507040513E-03 
2011	 7.65437457568393E-03 
2012	 7.58377850266756E-03 
2013	 7.68916962130739E-03 
2014	 7.04857078542593E-03 
2015	 4.44194921257423E-03 
2016	 3.05623961412035E-03 
2017	 2.74593982292676E-03 
2018	 2.69262491256406E-03 
2019	 4.42714959566791E-03 
2020	 3.87111905888586E-03 
2021	 3.24992600889924E-03 
2022	 3.18027231807053E-03 
2023	 2.5889875925656E-03 
2024	 2.3994195946575E-03 
2025	 2.59466274973814E-03 
2026	 2.23213299831679E-03 
2027	 1.81689595863435E-03 
2028	 1.24262426673103E-03 
2029	 4.1427985566475E-04 
2030	 6.43927483199853E-04 
2031	 1.34783619891288E-03 
2032	 2.22693457109431E-03 
2033	 2.96640623197263E-03 
2034	 3.0530462362855E-03 
2035	 2.63959787832358E-03 
2036	 2.05886120354029E-03 
2037	 2.44349452564736E-03 
2038	 3.57514411278561E-03 
2039	 3.87846273790442E-03 
2040	 4.09254394982785E-03 
2041	 4.4446803752798E-03 
2042	 4.4745186001267E-03 
2043	 4.10069275290318E-03 
2044	 3.61971998851937E-03 
2045	 3.68075436221178E-03 
2046	 2.92395917916474E-03 
2047	 1.89080181430447E-03 
2048	 2.22446885044499E-03 
2049	 2.70934878719455E-03 
2050	 2.0103854609884E-03 
2051	 1.54881891602276E-03 
2052	 1.56355374517613E-03 
2053	 1.17401034899522E-03 
2054	 1.91753306033181E-03 
2055	 3.44591886345371E-03 
2056	 3.88062534396556E-03 
2057	 3.2712956709813E-03 
2058	 3.49218383962087E-03 
2059	 3.89481810886276E-03 
2060	 3.85937416934321E-03 
2061	 3.99527631052149E-03 
2062	 3.92021022411941E-03 
2063	 3.22123883383057E-03 
2064	 2.13802315678256E-03 
2065	 1.80049248069294E-03 
2066	 2.31259894645925E-03 
2067	 3.31381417009302E-03 
2068	 4.59598868534423E-03 
2069	 5.6707021695909E-03 
2070	 5.19597969191472E-03 
2071	 3.71727106940513E-03 
2072	 2.76116624120773E-03 
2073	 2.23452260813807E-03 
2074	 1.56860645780933E-03 
2075	 1.72088343327501E-03 
2076	 2.90692601712706E-03 
2077	 3.22699501752708E-03 
2078	 3.66723517557258E-03 
2079	 3.75439670384337E-03 
2080	 3.44004870809827E-03 
2081	 3.04728302026812E-03 
2082	 3.44685925308647E-03 
2083	 3.30939816509969E-03 
2084	 3.59374353939039E-03 
2085	 3.80481394543124E-03 
2086	 2.80684647724411E-03 
2087	 2.88048981443446E-03 
2088	 3.95103020565896E-03 
2089	 4.40966135761247E-03 
2090	 4.05518187893123E-03 
2091	 3.50384307525995E-03 
2092	 3.75559035025482E-03 
2093	 4.08234347910136E-03 
2094	 3.98457583664312E-03 
2095	 4.35173899252315E-03 
2096	 4.59992320458115E-03 
2097	 3.63440742555995E-03 
2098	 3.43660070602433E-03 
2099	 4.01283125746474E-03 
2100	 5.35773027336507E-03 
2101	 4.74058065836565E-03 
2102	 4.53986359246355E-03 
2103	 4.15475150092894E-03 
2104	 3.30211244917763E-03 
2105	 3.47862242671244E-03 
2106	 3.36136175430257E-03 
2107	 3.4114848432291E-03 
2108	 3.53382053965191E-03 
2109	 3.24757382349091E-03 
2110	 3.08278353996776E-03 
2111	 3.27963848888636E-03 
2112	 3.66405299777614E-03 
2113	 3.70949653426259E-03 
2114	 3.79236482595731E-03 
2115	 4.19173796142335E-03 
2116	 4.17416109064981E-03 
2117	 4.27286208873641E-03 
2118	 5.51401094856127E-03 
2119	 5.65809171656923E-03 
2120	 4.93406500933982E-03 
2121	 4.30187771233588E-03 
2122	 4.02382652338657E-03 
2123	 3.60084595901037E-03 
2124	 4.22917404559299E-03 
2125	 5.06712141222125E-03 
2126	 5.09788507479201E-03 
2127	 4.79834444961798E-03 
2128	 4.06181766056361E-03 
2129	 4.17659017470533E-03 
2130	 5.34823577376766E-03 
2131	 6.32845572654279E-03 
2132	 6.28122681269666E-03 
2133	 6.09950279766934E-03 
2134	 6.17447581727011E-03 
2135	 6.09519736866529E-03 
2136	 5.78427251373535E-03 
2137	 5.44609169341496E-03 
2138	 5.18075264961189E-03 
2139	 4.62860743121395E-03 
2140	 4.41509760608426E-03 
2141	 4.97874839517957E-03 
2142	 4.96187621783307E-03 
2143	 4.61520551559532E-03 
2144	 3.94697585411077E-03 
2145	 4.27604651042781E-03 
2146	 4.01589743867767E-03 
2147	 3.48589308586292E-03 
2148	 3.89719997259696E-03 
2149	 4.41370261880611E-03 
2150	 4.57120647621464E-03 
2151	 5.37414195018558E-03 
2152	 6.29778591847288E-03 
2153	 5.26475646693417E-03 
2154	 4.36191323959437E-03 
2155	 5.26067259978894E-03 
2156	 4.95099695481091E-03 
2157	 4.65732131945426E-03 
2158	 4.77076414290875E-03 
2159	 4.78488937154771E-03 
2160	 4.09512320753212E-03 
2161	 4.10032106710816E-03 
2162	 4.72362305986683E-03 
2163	 4.88377421575361E-03 
2164	 5.2025256477582E-03 
2165	 4.87605884713426E-03 
2166	 3.71462807937648E-03 
2167	 3.82825305926248E-03 
2168	 4.4241181651012E-03 
2169	 4.31590017501052E-03 
2170	 4.75109319263368E-03 
2171	 4.46750156756725E-03 
2172	 4.34556963369963E-03 
2173	 4.98722760672343E-03 
2174	 4.55439008988878E-03 
2175	 4.97304861715775E-03 
2176	 5.64568526964582E-03 
2177	 4.51030288783576E-03 
2178	 3.88889124567551E-03 
2179	 4.4201566805768E-03 
2180	 4.81017029752726E-03 
2181	 4.18521999117437E-03 
2182	 4.03456596451091E-03 
2183	 5.21363827364657E-03 
2184	 4.8855754429237E-03 
2185	 4.00573248906884E-03 
2186	 3.87458433844567E-03 
2187	 4.31071966553043E-03 
2188	 4.08232157809791E-03 
2189	 3.74426217370616E-03 
2190	 3.54940167919872E-03 
2191	 3.31934513319081E-03 
2192	 2.95717505596897E-03 
2193	 2.02949724242036E-03 
2194	 2.43091552360257E-03 
2195	 4.09923580332267E-03 
2196	 4.09363901285039E-03 
2197	 4.02855239580286E-03 
2198	 4.23729993418274E-03 
2199	 3.29045364030522E-03 
2200	 2.55062213488195E-03 
2201	 3.41432144336319E-03 
2202	 4.17669572534462E-03 
2203	 4.85605035658557E-03 
2204	 5.07421476518814E-03 
2205	 4.38013429591266E-03 
2206	 4.84275423744545E-03 
2207	 5.05297776609916E-03 
2208	 5.10382237660294E-03 
2209	 5.15064744634869E-03 
2210	 4.1030755151799E-03 
2211	 4.39579366331833E-03 
2212	 3.80656221862937E-03 
2213	 2.64840792976778E-03 
2214	 3.64939260859561E-03 
2215	 4.00820020660046E-03 
2216	 4.12141044424606E-03 
2217	 4.65419257845945E-03 
2218	 6.68182673319483E-03 
2219	 6.53911060468285E-03 
2220	 4.72769093329026E-03 
2221	 5.15019108194767E-03 
2222	 6.59673342834182E-03 
2223	 5.88340165431197E-03 
2224	 4.48367550540245E-03 
2225	 4.28004869355144E-03 
2226	 3.17680271381396E-03 
2227	 2.72471267762081E-03 
2228	 4.53965827906139E-03 
2229	 4.95271845957845E-03 
2230	 3.44803107640965E-03 
2231	 3.17172725110206E-03 
2232	 3.13330635225866E-03 
2233	 3.73403661194612E-03 
2234	 5.41641376841438E-03 
2235	 6.06131935643853E-03 
2236	 6.40777925970028E-03 
2237	 7.2223671294372E-03 
2238	 5.06677863922655E-03 
2239	 3.89501882286216E-03 
2240	 4.13253641248668E-03 
2241	 3.89951152320846E-03 
2242	 5.34841983024575E-03 
2243	 5.7395873448666E-03 
2244	 5.51088971453205E-03 
2245	 6.49635830706573E-03 
2246	 6.00945332152078E-03 
2247	 6.0634101880502E-03 
2248	 6.42517356472424E-03 
2249	 5.3853629775964E-03 
2250	 5.64970719579117E-03 
2251	 6.06885672683466E-03 
2252	 4.56036716850564E-03 
2253	 3.50751882368709E-03 
2254	 3.8795821298767E-03 
2255	 3.77891399718899E-03 
2256	 3.74878845445437E-03 
2257	 5.37702534569732E-03 
2258	 6.78749121165636E-03 
2259	 7.23192263417813E-03 
2260	 7.45956569409922E-03 
2261	 7.5834053882735E-03 
2262	 7.6691338736054E-03 
2263	 7.3610702845359E-03 
2264	 7.05597922113702E-03 
2265	 7.21301966960515E-03 
2266	 7.17237706061014E-03 
2267	 5.97616239712907E-03 
2268	 4.77347641921429E-03 
2269	 4.05207687893282E-03 
2270	 3.74554526609081E-03 
2271	 2.83460515608044E-03 
2272	 3.45901892507688E-03 
2273	 6.02055550082489E-03 
2274	 6.45866011236272E-03 
2275	 6.41384445957898E-03 
2276	 6.31914700954122E-03 
2277	 4.82585779485229E-03 
2278	 4.15648320811855E-03 
2279	 4.43374430425145E-03 
2280	 4.27227956359663E-03 
2281	 4.07739769541452E-03 
2282	 3.55162171003281E-03 
2283	 2.72836002874214E-03 
2284	 3.68588518118752E-03 
2285	 3.63740032995888E-03 
2286	 3.64785441612232E-03 
2287	 4.95771143706797E-03 
2288	 3.54239515568355E-03 
2289	 2.65356712369413E-03 
2290	 1.60759607026852E-03 
2291	 5.3316432019198E-04 
2292	 1.77899032775417E-03 
2293	 2.42752562073895E-03 
2294	 3.39051916374181E-03 
2295	 3.79992275866395E-03 
2296	 1.41070681008124E-03 
2297	-1.23746299508613E-03 
2298	-1.12920682193915E-03 
2299	 1.66851006993416E-03 
2300	 3.22242756314147E-03 
2301	 5.01555706456061E-03 
2302	 6.75316675079821E-03 
2303	 3.91337808208188E-03 
2304	 4.16532660342174E-03 
2305	 7.60501821908124E-03 
2306	 7.29148541710445E-03 
2307	 7.17017136935467E-03 
2308	 4.95796868710332E-03 
2309	 1.06394169671418E-04 
2310	-1.42219479238382E-03 
2311	 6.43512874861558E-04 
2312	 0.005157574802008 
2313	 6.97114949301853E-03 
2314	 4.98561194606128E-03 
2315	 2.30893115601191E-03 
2316	-1.22504616189477E-03 
2317	-3.01462558630463E-03 
2318	-1.9930910735653E-03 
2319	-1.24725915364474E-03 
2320	-2.4176466571939E-03 
2321	-4.18638990768395E-03 
2322	-3.29795017179954E-03 
2323	-8.48359244018045E-04 
2324	-1.25236113141692E-03 
2325	-2.16156372708475E-03 
2326	-3.26836958097412E-03 
2327	-4.20321880133843E-03 
2328	-1.11408158698426E-03 
2329	 2.97528513056284E-03 
2330	 3.49691266747649E-03 
2331	 2.10355634285487E-03 
2332	 2.86791492681317E-03 
2333	 3.17858269588167E-03 
2334	 2.72006161655021E-03 
2335	 3.45589182894437E-03 
2336	 3.26868762892903E-03 
2337	 1.96859640057271E-03 
2338	 7.47427423513679E-04 
2339	 1.21852894491256E-03 
2340	 1.78396601480807E-04 
2341	-4.43533722312023E-03 
2342	-6.16282118995436E-03 
2343	-2.74209868044957E-03 
2344	-1.64210491069259E-03 
2345	-1.52062264600575E-03 
2346	-2.84100603873948E-04 
2347	-8.67146624524596E-03 
2348	-1.78802217809885E-02 
2349	-1.52973767316434E-02 
2350	-0.018665552955844 
2351	-2.27919274562727E-02 
2352	-1.90346607796438E-02 
2353	-2.35090110949169E-02 
2354	-1.63680710097022E-02 
2355	-3.14537809484667E-03 
2356	-3.58008452277113E-03 
2357	 1.75839977079805E-03 
2358	 1.28762554820466E-03 
2359	-1.03936959383181E-03 
2360	 0.010789740258532 
2361	 1.24014589701876E-02 
2362	 8.68764069977975E-03 
2363	 1.14665547414275E-02 
2364	-1.33190857691766E-05 
2365	-1.54730753499849E-02 
2366	-2.21399533009947E-02 
2367	-2.87632612763895E-02 
2368	-2.21696721204048E-02 
2369	-5.20196208433618E-03 
2370	-2.72646195723941E-03 
2371	-9.51958590573535E-03 
2372	-6.11314043140205E-03 
2373	-6.58799866801829E-04 
2374	 4.75929953269769E-03 
2375	 8.17917246102199E-03 
2376	-8.84195946469899E-03 
2377	-3.27722957924908E-02 
2378	-4.37191202579231E-02 
2379	-3.43402200173364E-02 
2380	-2.23139496684808E-02 
2381	-1.43272837091864E-02 
2382	 2.37596458548231E-03 
2383	-3.17205068525915E-03 
2384	-1.15054381164378E-02 
2385	-1.56477404288318E-02 
2386	-3.56892923496045E-02 
2387	-2.02629822863259E-02 
2388	 2.42746436498008E-03 
2389	 1.92882916713784E-02 
2390	 0.04080980110917 
2391	 2.76797392245678E-02 
2392	 1.15235587031032E-02 
2393	-7.08290711749983E-03 
2394	-4.16797866924087E-02 
2395	-0.057500458151514 
2396	-6.14713055774937E-02 
2397	-5.79229074849384E-02 
2398	-3.28468675633652E-02 
2399	-2.21035930302668E-02 
2400	-2.34277035043633E-02 
2401	-1.22265347575664E-02 
2402	-1.31026553410679E-02 
2403	-1.65361146246005E-02 
2404	-3.02239345901207E-02 
2405	-5.40861939265592E-02 
2406	-4.43997969972731E-02 
2407	-1.94188041578492E-02 
2408	 1.61951866746856E-02 
2409	 0.039319040017333 
2410	 1.04270320100683E-02 
2411	-6.02566344994881E-03 
2412	-2.26099080968241E-03 
2413	-3.39989097247042E-02 
2414	-7.42205531997622E-02 
2415	-0.119840501924266 
2416	-0.184050551621711 
2417	-0.143464323306838 
2418	-0.038636550051384 
2419	 2.51837660133515E-02 
2420	 7.19066939421825E-02 
2421	 5.61684482751757E-02 
2422	-9.09199800814196E-02 
2423	-0.151303743842402 
2424	-7.95002893467779E-02 
2425	-1.03939588971901E-02 
2426	 2.72786660470046E-02 
2427	 3.97310834998484E-02 
2428	-1.53600877532178E-03 
2429	-7.36189997531674E-02 
2430	-4.97224486648346E-02 
2431	-1.36742408386395E-02 
2432	-5.69706664859608E-02 
2433	-8.19591890936724E-02 
2434	-6.55654594965573E-02 
2435	-3.55525665761406E-02 
2436	-4.21933066362988E-04 
2437	-1.21525945700826E-03 
2438	-5.13779293064912E-02 
2439	-6.35784937719321E-02 
2440	-1.37752821965819E-02 
2441	 3.70270089108683E-02 
2442	 0.122584277696136 
2443	 0.144115326778929 
2444	 0.115698046423418 
2445	 0.102930379928983 
2446	 9.27224767708887E-03 
2447	-3.05682202311362E-02 
2448	-9.95489268195795E-02 
2449	-4.34908807391272E-03 
2450	 0.11137741674436 
2451	 9.50767301917208E-02 
2452	 5.78776886886722E-02 
2453	-7.69225690982057E-02 
2454	-0.188334960786167 
2455	-0.244200984421169 
2456	-0.190622302324709 
2457	-9.23203706779708E-02 
2458	-0.236174163005752 
2459	-0.317373020100197 
2460	-0.214474905076674 
2461	-0.191412626359903 
2462	-0.168510671677066 
2463	-0.181932590157989 
2464	-0.271435576426073 
2465	-0.427794762944153 
2466	-0.371719994994675 
2467	 0.164605697867693 
2468	 0.158776218116044 
2469	-0.173035669994616 
2470	-0.192344128548509 
2471	-0.696935989795902 
2472	 13.3689311813956 
2473	 118.355558057112 
2474	 7.15705147803725 
2475	-25.0310871061605 
2476	-2.12368619369441 
2477	 12.9098550648841 
2478	 2.96240732505534 
2479	-1.74114170254346 
2480	 0.238096040941558 
2481	-0.168218663089965 
2482	 0.782141079734305 
2483	-0.698598178283185 
2484	 0.251468736121816 
2485	 0.205880858195008 
2486	 0.229001262415649 
2487	 0.826955212847198 
2488	 0.963075767870257 
2489	 0.955437533747991 
2490	 1.20102330619233 
2491	-0.713354445271295 
2492	 0.972672962779222 
2493	 3.03153718531045 
2494	 7.06393375839637 
2495	 14.8448496592412 
2496	 7.58887229026516 
2497	 16.8911311923658 
2498	 61.8983482732411 
2499	-1086.67146857817 
2500	 7.40725512915533 
