Wavelength	rt0718west_algea00006.asd
350	 2.69126245924784E-02 
351	 2.75503985869344E-02 
352	 2.71243237566616E-02 
353	 2.71176105019461E-02 
354	 2.80360667676079E-02 
355	 2.76363676424567E-02 
356	 2.74035889206818E-02 
357	 2.75863550578961E-02 
358	 2.80293497964237E-02 
359	 2.86776026227165E-02 
360	 2.88375644886187E-02 
361	 2.85957603994511E-02 
362	 2.85882048344414E-02 
363	 2.92034634151438E-02 
364	 2.95074446229413E-02 
365	 2.91680221542478E-02 
366	 0.028963394269076 
367	 2.92052693960384E-02 
368	 2.97192894928252E-02 
369	 3.01307101780434E-02 
370	 2.99340379618254E-02 
371	 3.00271259021456E-02 
372	 3.03729277046449E-02 
373	 3.04475580937978E-02 
374	 3.08005538552584E-02 
375	 0.031173999755845 
376	 3.14654717310383E-02 
377	 0.031889558591014 
378	 3.16764033343841E-02 
379	 3.14842720987028E-02 
380	 3.19539578042566E-02 
381	 3.26346647455668E-02 
382	 3.30391756531817E-02 
383	 3.30767298746108E-02 
384	 3.29900645952648E-02 
385	 3.35836152447048E-02 
386	 3.38470546374242E-02 
387	 3.36867083632884E-02 
388	 3.41369353754506E-02 
389	 3.44663537107503E-02 
390	 3.45243163423421E-02 
391	 3.44597230911191E-02 
392	 0.034854344150602 
393	 3.50560788888539E-02 
394	 3.51206655278793E-02 
395	 3.53148251572117E-02 
396	 0.035451377278978 
397	 3.57495389488689E-02 
398	 3.60538554543089E-02 
399	 3.59283643046811E-02 
400	 3.60714357108508E-02 
401	 3.62872710231634E-02 
402	 3.63656844200085E-02 
403	 3.63663278183693E-02 
404	 3.64723759177847E-02 
405	 3.66041961958187E-02 
406	 3.66417013641972E-02 
407	 3.68702089885124E-02 
408	 3.70514696120545E-02 
409	 3.71417622856056E-02 
410	 3.73092782782496E-02 
411	 3.74282721430138E-02 
412	 3.75536584621068E-02 
413	 3.77410134333499E-02 
414	 3.79740268059539E-02 
415	 3.82629722211394E-02 
416	 3.84636330368809E-02 
417	 3.84470202046798E-02 
418	 3.85376063748616E-02 
419	 3.87077989082096E-02 
420	 3.89263067715518E-02 
421	 3.91865070684761E-02 
422	 3.94293572331593E-02 
423	 3.95548129651845E-02 
424	 3.96130267691556E-02 
425	 4.01060500548988E-02 
426	 4.04297066631377E-02 
427	 4.05979918387854E-02 
428	 4.09126340618193E-02 
429	 4.13698827290521E-02 
430	 4.17621910104289E-02 
431	 4.20591548878686E-02 
432	 4.24583555670558E-02 
433	 4.27328910832537E-02 
434	 4.30345267379641E-02 
435	 0.043450900342146 
436	 4.36117406971082E-02 
437	 4.39297867374977E-02 
438	 4.43958514472917E-02 
439	 4.47697676648535E-02 
440	 4.50336183315529E-02 
441	 4.53074172204487E-02 
442	 4.56336446073381E-02 
443	 4.59161496666643E-02 
444	 4.62302224511791E-02 
445	 4.65326163784041E-02 
446	 4.67772733895456E-02 
447	 4.70293261062151E-02 
448	 4.73115634460999E-02 
449	 4.75809501094882E-02 
450	 4.77551637546004E-02 
451	 0.047879272810918 
452	 4.80310936185745E-02 
453	 4.82466460368622E-02 
454	 0.048482803903827 
455	 4.85820922059186E-02 
456	 4.86701468105103E-02 
457	 4.89057133725704E-02 
458	 4.90051206164953E-02 
459	 4.91407221454051E-02 
460	 4.93079653176383E-02 
461	 4.93199204822211E-02 
462	 4.95183738411092E-02 
463	 4.97437930441418E-02 
464	 4.98280215460002E-02 
465	 4.98429700590379E-02 
466	 4.99668495603407E-02 
467	 5.01973401439916E-02 
468	 5.04211657022673E-02 
469	 5.05209852859402E-02 
470	 5.05575650017074E-02 
471	 5.06524710246727E-02 
472	 5.09782315276646E-02 
473	 5.11957557076107E-02 
474	 5.13077054816209E-02 
475	 5.14123471020837E-02 
476	 5.15852848584793E-02 
477	 5.17471393622626E-02 
478	 5.18918298755571E-02 
479	 5.20728101187296E-02 
480	 0.052406673244442 
481	 5.26300709147523E-02 
482	 5.26974178588188E-02 
483	 5.31109776134455E-02 
484	 5.34690611066714E-02 
485	 5.36686624027002E-02 
486	 5.37806691278897E-02 
487	 5.41431645453913E-02 
488	 5.45393199121722E-02 
489	 5.48836569834855E-02 
490	 5.52503219976762E-02 
491	 5.56157564362957E-02 
492	 5.59945849858502E-02 
493	 5.64006797650186E-02 
494	 5.68435666724618E-02 
495	 5.72411438135024E-02 
496	 5.75965732013932E-02 
497	 5.79729789434648E-02 
498	 5.85139347586832E-02 
499	 5.89708541107347E-02 
500	 5.92922893386856E-02 
501	 5.97866174356477E-02 
502	 6.02561730462398E-02 
503	 6.07305926930499E-02 
504	 6.12620261278012E-02 
505	 6.17331683454529E-02 
506	 6.21911602126231E-02 
507	 6.26624221333706E-02 
508	 6.31503891682885E-02 
509	 6.36327279080288E-02 
510	 6.41237650854546E-02 
511	 6.46263262694043E-02 
512	 6.51014100635799E-02 
513	 6.56075535652769E-02 
514	 6.61632499344707E-02 
515	 6.67716970810623E-02 
516	 6.75041848906892E-02 
517	 6.81728019068879E-02 
518	 6.87527753365511E-02 
519	 6.94450717395418E-02 
520	 7.00855891296564E-02 
521	 7.07320983215903E-02 
522	 7.14593866031563E-02 
523	 7.22203131888842E-02 
524	 7.29296789906101E-02 
525	 7.36257183630604E-02 
526	 7.44320959949329E-02 
527	 7.53481192389938E-02 
528	 7.61247466498814E-02 
529	 7.67355950636271E-02 
530	 7.76614927032067E-02 
531	 7.85776386154398E-02 
532	 7.94697587256414E-02 
533	 8.04082303933415E-02 
534	 8.13058774138554E-02 
535	 8.22131738745848E-02 
536	 8.31471103371448E-02 
537	 8.40715190946647E-02 
538	 8.49832978033395E-02 
539	 8.59808336956735E-02 
540	 8.70822364773842E-02 
541	 8.79777276764045E-02 
542	 8.88644542627539E-02 
543	 0.089803269783329 
544	 9.07631434780151E-02 
545	 9.16818996266958E-02 
546	 9.25623560511802E-02 
547	 9.34269275404576E-02 
548	 9.43155377511056E-02 
549	 9.52313126813664E-02 
550	 9.61176450768974E-02 
551	 9.69299720378337E-02 
552	 9.78084083580736E-02 
553	 9.87089271439751E-02 
554	 9.95650014015855E-02 
555	 0.100298555113845 
556	 0.101218635549265 
557	 0.102138576263592 
558	 0.102872261156588 
559	 0.103675966894956 
560	 0.104508232335024 
561	 0.105294283439523 
562	 0.105963659865297 
563	 0.10670610839678 
564	 0.107399841049501 
565	 0.107994777835883 
566	 0.108662449462537 
567	 0.109323245441996 
568	 0.109905945611706 
569	 0.110378637903547 
570	 0.110937760949635 
571	 0.111445814189864 
572	 0.111853354240836 
573	 0.112227469898259 
574	 0.112637449501548 
575	 0.112975440914272 
576	 0.113173946851222 
577	 0.11344298982683 
578	 0.11368510905629 
579	 0.113853976815284 
580	 0.113942744643716 
581	 0.114004206419839 
582	 0.113996228175242 
583	 0.113923177561193 
584	 0.113897977766229 
585	 0.113844310621119 
586	 0.113712935745517 
587	 0.113488585079781 
588	 0.113314054228418 
589	 0.11312811682244 
590	 0.112890165666514 
591	 0.112584811813037 
592	 0.112189311080261 
593	 0.111693709360622 
594	 0.11110301183492 
595	 0.110430454562375 
596	 0.109619432165807 
597	 0.10869429022113 
598	 0.107734418086479 
599	 0.106782401412653 
600	 0.105946489935369 
601	 0.105299440757779 
602	 0.104847423196039 
603	 0.104472697835557 
604	 0.10424299079531 
605	 0.104225661850572 
606	 0.104135897125628 
607	 0.104144611136097 
608	 0.104250688534241 
609	 0.104257072047784 
610	 0.104151069299595 
611	 0.104164336953651 
612	 0.104362764162499 
613	 0.10414227793571 
614	 0.104145742899546 
615	 0.104327886600712 
616	 0.104285133162744 
617	 0.104217098837263 
618	 0.104161551218545 
619	 0.104130325248377 
620	 0.104124646110274 
621	 0.104079538037763 
622	 0.103999667675541 
623	 0.103934444490315 
624	 0.104027510524304 
625	 0.103991487121446 
626	 0.103857981829544 
627	 0.103949590947074 
628	 0.103822777049472 
629	 0.103745683102696 
630	 0.103875067144491 
631	 0.103701787473481 
632	 0.10364217606961 
633	 0.103698718590858 
634	 0.103676644814524 
635	 0.103496304236814 
636	 0.103411185648592 
637	 0.103463756692615 
638	 0.103352741514334 
639	 0.10325203070702 
640	 0.10319309615754 
641	 0.103160143724197 
642	 0.103110404547896 
643	 0.103047152478465 
644	 0.102955807692781 
645	 0.102813701541978 
646	 0.102711724517993 
647	 0.10262642015704 
648	 0.10251324837613 
649	 0.102326011754536 
650	 0.102161770806241 
651	 0.101908239017197 
652	 0.101428672676727 
653	 0.100938253472497 
654	 0.100415715279755 
655	 9.97921975290881E-02 
656	 9.90495684689417E-02 
657	 0.098354065499817 
658	 9.77689910396492E-02 
659	 9.72802876916362E-02 
660	 9.67896382181895E-02 
661	 9.64490169933973E-02 
662	 9.61573708736516E-02 
663	 9.57018547295106E-02 
664	 9.54226313710804E-02 
665	 9.51813441727457E-02 
666	 9.48952796560648E-02 
667	 0.094699002866673 
668	 9.45292844232084E-02 
669	 9.43810029008409E-02 
670	 9.42574085652773E-02 
671	 9.41037339252205E-02 
672	 9.40278612159248E-02 
673	 9.40180688150088E-02 
674	 9.39540976066435E-02 
675	 0.093973087339067 
676	 9.39692043165698E-02 
677	 9.38950779415729E-02 
678	 9.39580993982418E-02 
679	 9.41085095537077E-02 
680	 9.42423333595684E-02 
681	 9.42603807833718E-02 
682	 0.094306161126864 
683	 9.44445143536936E-02 
684	 9.46206086359025E-02 
685	 9.46381849836061E-02 
686	 9.47824777064525E-02 
687	 9.48365848729135E-02 
688	 9.46022688915685E-02 
689	 9.44500965182757E-02 
690	 9.43445029821973E-02 
691	 0.094150654868944 
692	 9.36977539963415E-02 
693	 9.32878043585631E-02 
694	 9.27837920680425E-02 
695	 9.21403139073654E-02 
696	 9.14859450061987E-02 
697	 9.07644279347593E-02 
698	 8.99963700821676E-02 
699	 8.92210813261981E-02 
700	 8.82232422106771E-02 
701	 8.71994819416531E-02 
702	 8.61877113610469E-02 
703	 8.50617034285642E-02 
704	 8.39668389895877E-02 
705	 8.27652522806514E-02 
706	 8.14308146742223E-02 
707	 8.02157198915131E-02 
708	 7.87556988555296E-02 
709	 7.71816085456112E-02 
710	 7.57032288494362E-02 
711	 7.38715164378798E-02 
712	 7.20254888396859E-02 
713	 7.02726214121937E-02 
714	 6.83916098935217E-02 
715	 6.65730530852833E-02 
716	 6.47176083418328E-02 
717	 6.27851523485247E-02 
718	 0.060636425246912 
719	 5.83290389153601E-02 
720	 5.62836342322511E-02 
721	 5.44912237662746E-02 
722	 0.05282033025774 
723	 5.10227060657082E-02 
724	 4.91591547714067E-02 
725	 4.71705732876921E-02 
726	 4.51971621826917E-02 
727	 4.31418365327813E-02 
728	 4.09719987742509E-02 
729	 3.88955141040731E-02 
730	 3.66929826903145E-02 
731	 3.46269050015807E-02 
732	 0.032973598760895 
733	 3.13877002316265E-02 
734	 3.01216906224588E-02 
735	 2.92779603301216E-02 
736	 2.86720704228229E-02 
737	 2.79964037138845E-02 
738	 2.74415751875445E-02 
739	 2.71994832987159E-02 
740	 0.027045896309915 
741	 2.68117518546919E-02 
742	 2.65650131679595E-02 
743	 2.64836088721952E-02 
744	 2.64998088004783E-02 
745	 2.64820456307659E-02 
746	 2.63884570067196E-02 
747	 2.63048444935475E-02 
748	 2.63240700515894E-02 
749	 0.026333727451485 
750	 2.62389905794948E-02 
751	 2.61817245034701E-02 
752	 2.61970222926324E-02 
753	 2.62400994322643E-02 
754	 2.62340046178484E-02 
755	 2.62626740175879E-02 
756	 2.62302540011652E-02 
757	 2.61664578621904E-02 
758	 2.63520421701272E-02 
759	 2.64196710787419E-02 
760	 2.64666835275884E-02 
761	 2.66685378997148E-02 
762	 2.63863155410508E-02 
763	 2.62399912353838E-02 
764	 2.63478588592912E-02 
765	 2.65655927024955E-02 
766	 2.66803436331168E-02 
767	 2.67299499231064E-02 
768	 2.67575447290702E-02 
769	 2.68030735745205E-02 
770	 2.69168294940269E-02 
771	 0.027088081934882 
772	 0.027268797131138 
773	 2.73475610430097E-02 
774	 2.74818435852299E-02 
775	 2.76567390807086E-02 
776	 0.027804324206703 
777	 2.80297479173402E-02 
778	 2.82595945278816E-02 
779	 2.84525470530245E-02 
780	 2.86192563307384E-02 
781	 2.88307009368491E-02 
782	 2.91266296470853E-02 
783	 2.94701550180939E-02 
784	 2.96636988499362E-02 
785	 2.99743878498205E-02 
786	 3.03112189052991E-02 
787	 3.05202472411881E-02 
788	 3.08401921911429E-02 
789	 3.11773689904367E-02 
790	 3.15447308728504E-02 
791	 3.20107354805984E-02 
792	 3.20883181696796E-02 
793	 3.23117108079027E-02 
794	 0.032836347015982 
795	 3.29644608328408E-02 
796	 3.34100006521833E-02 
797	 3.38414290957018E-02 
798	 3.39287340758983E-02 
799	 3.43202612672577E-02 
800	 3.46364484749452E-02 
801	 3.48085146247838E-02 
802	 0.034975684139663 
803	 3.53331696156089E-02 
804	 3.55578212301709E-02 
805	 3.55567328344926E-02 
806	 0.035542778487629 
807	 3.56842794721023E-02 
808	 3.55881322994287E-02 
809	 3.51533224692781E-02 
810	 3.53348065517584E-02 
811	 3.53402859715949E-02 
812	 3.50724806710752E-02 
813	 3.47228884165747E-02 
814	 3.44190092112563E-02 
815	 3.42077109040394E-02 
816	 3.39360466915763E-02 
817	 3.33689815690933E-02 
818	 3.28716843026754E-02 
819	 3.23158146798808E-02 
820	 3.16601056032236E-02 
821	 3.10720051413552E-02 
822	 3.01077520299789E-02 
823	 2.90863212382618E-02 
824	 2.82706893505181E-02 
825	 2.72177811430171E-02 
826	 0.02615421707524 
827	 2.49846804141478E-02 
828	 2.36937689029105E-02 
829	 2.29257825283361E-02 
830	 2.21087246134892E-02 
831	 2.11843472535459E-02 
832	 2.05505130444091E-02 
833	 2.04370229328061E-02 
834	 2.00773750746383E-02 
835	 1.93734380340407E-02 
836	 1.92158834964073E-02 
837	 1.90511340156432E-02 
838	 1.88350485673714E-02 
839	 1.86289026790407E-02 
840	 1.84847534224327E-02 
841	 1.83125054562596E-02 
842	 1.81930303818904E-02 
843	 1.81954820103145E-02 
844	 1.80301268350744E-02 
845	 1.78861746911421E-02 
846	 1.78218701095481E-02 
847	 1.77682922177384E-02 
848	 1.75031094900052E-02 
849	 1.73665925690523E-02 
850	 1.73693843860068E-02 
851	 1.70630877839658E-02 
852	 1.72540240356649E-02 
853	 1.72789686607446E-02 
854	 1.68116264500978E-02 
855	 1.68819752061413E-02 
856	 1.68313790957245E-02 
857	 1.67199831423381E-02 
858	 1.66911927366469E-02 
859	 1.64498969653407E-02 
860	 1.62795136300264E-02 
861	 0.016383524455395 
862	 1.67089452156018E-02 
863	 1.60147250855446E-02 
864	 1.58203304628212E-02 
865	 1.62197167426255E-02 
866	 1.59512390239791E-02 
867	 1.59096153695811E-02 
868	 1.57741217858084E-02 
869	 1.55334722498557E-02 
870	 1.57382164772229E-02 
871	 1.54211504392398E-02 
872	 1.50970417293137E-02 
873	 1.52092998458084E-02 
874	 1.53211871137028E-02 
875	 1.52317851172654E-02 
876	 1.50629856596927E-02 
877	 1.49849061875939E-02 
878	 1.48868442446464E-02 
879	 1.46849738658666E-02 
880	 1.45209021834787E-02 
881	 1.45837921615951E-02 
882	 1.47113857740359E-02 
883	 1.46249711188458E-02 
884	 1.43758434328691E-02 
885	 1.42727316734698E-02 
886	 1.45196543406068E-02 
887	 1.43199876496616E-02 
888	 1.38540896029859E-02 
889	 1.43790317741911E-02 
890	 0.014423884103873 
891	 1.39984658214144E-02 
892	 1.35925009857686E-02 
893	 1.40702850888734E-02 
894	 1.42824243958636E-02 
895	 1.38432775938438E-02 
896	 1.31353462266577E-02 
897	 0.014094812279065 
898	 1.35386830189307E-02 
899	 1.31291739703738E-02 
900	 1.45886011586187E-02 
901	 1.37193589258782E-02 
902	 1.38647135720008E-02 
903	 1.44397790937712E-02 
904	 0.013838192203875 
905	 1.35052048160124E-02 
906	 1.34889623982912E-02 
907	 1.34683526986794E-02 
908	 1.30216061006809E-02 
909	 1.29919327695859E-02 
910	 1.33629172719725E-02 
911	 1.35739015430069E-02 
912	 1.29150302369591E-02 
913	 0.012907755687786 
914	 1.30181664808934E-02 
915	 1.28154839997914E-02 
916	 1.23843993053992E-02 
917	 1.25437227964621E-02 
918	 1.28363133403126E-02 
919	 0.012701416869035 
920	 1.18037042996665E-02 
921	 1.27237630192702E-02 
922	 1.32014905213158E-02 
923	 1.20638077059502E-02 
924	 1.23583943440145E-02 
925	 0.012522598152165 
926	 1.26942342973712E-02 
927	 0.013118554534753 
928	 1.26805016277685E-02 
929	 1.19169624759027E-02 
930	 1.15710493243622E-02 
931	 1.21540110174337E-02 
932	 0.01101918097 
933	 1.19534369943549E-02 
934	 1.33381436700555E-02 
935	 1.19411541597822E-02 
936	 1.12042262994082E-02 
937	 1.25471615377287E-02 
938	 0.012443287582836 
939	 9.00642415659185E-03 
940	 1.19296796002158E-02 
941	 1.36938737726461E-02 
942	 1.36600696093259E-02 
943	 0.013949751936238 
944	 1.02433890808744E-02 
945	 1.14610092082611E-02 
946	 1.41941834710315E-02 
947	 9.87889261508168E-03 
948	 8.38008172034456E-03 
949	 1.04563903715534E-02 
950	 1.32787370973251E-02 
951	 1.28803134195574E-02 
952	 1.00760126615661E-02 
953	 8.49743843860687E-03 
954	 9.81151696887888E-03 
955	 1.27668978641826E-02 
956	 9.98583183318082E-03 
957	 9.2396874533771E-03 
958	 1.09332051527625E-02 
959	 1.01491923048664E-02 
960	 1.02896855647612E-02 
961	 9.92081246411902E-03 
962	 9.78023931928362E-03 
963	 0.011539127594091 
964	 1.05174479612416E-02 
965	 1.12632226066472E-02 
966	 0.01321451066837 
967	 1.22426899213596E-02 
968	 1.06522889121897E-02 
969	 1.06505176072348E-02 
970	 1.11021089910301E-02 
971	 8.98348855309221E-03 
972	 0.010417539768544 
973	 1.13930651582583E-02 
974	 1.06315639048591E-02 
975	 1.05375064281654E-02 
976	 1.08287004900753E-02 
977	 1.13971851483114E-02 
978	 1.17382348003759E-02 
979	 1.12149642340911E-02 
980	 1.02378301385574E-02 
981	 1.02580130084433E-02 
982	 1.12418941530868E-02 
983	 1.19214597784441E-02 
984	 1.22136767220601E-02 
985	 1.12917582467589E-02 
986	 1.05982068309769E-02 
987	 1.23317524673168E-02 
988	 1.08406907350906E-02 
989	 1.12659986651504E-02 
990	 1.24355719670491E-02 
991	 9.39038732691259E-03 
992	 1.02869472265131E-02 
993	 0.01048530003991 
994	 1.03029995531923E-02 
995	 1.29771359750097E-02 
996	 1.29308777640528E-02 
997	 1.17654638436691E-02 
998	 1.12151695227252E-02 
999	 1.18989136573173E-02 
1000	 1.00065618577013E-02 
1001	 1.02503614436194E-02 
1002	 1.04684264134032E-02 
1003	 1.06563304997745E-02 
1004	 1.09407549820043E-02 
1005	 1.10937405086414E-02 
1006	 1.12160643955707E-02 
1007	 1.13453758181451E-02 
1008	 1.13929171121809E-02 
1009	 1.12826110030126E-02 
1010	 1.13743546928924E-02 
1011	 1.13528066707969E-02 
1012	 1.13117213591967E-02 
1013	 1.14358576118001E-02 
1014	 1.12833128259543E-02 
1015	 1.09452368838756E-02 
1016	 1.07223497729707E-02 
1017	 1.03260998137431E-02 
1018	 1.00659292734098E-02 
1019	 9.89374996439372E-03 
1020	 9.83629126563224E-03 
1021	 9.78866519699038E-03 
1022	 9.83454529027547E-03 
1023	 1.03001081338084E-02 
1024	 1.06968101024889E-02 
1025	 1.10026646951556E-02 
1026	 1.14092526144363E-02 
1027	 1.14776438449773E-02 
1028	 1.11574669217264E-02 
1029	 1.11291363455125E-02 
1030	 1.11825198506922E-02 
1031	 1.10067975152448E-02 
1032	 1.06475970019363E-02 
1033	 1.06024634520191E-02 
1034	 1.04795544050288E-02 
1035	 1.05171824474633E-02 
1036	 1.11475226241235E-02 
1037	 1.12893005981587E-02 
1038	 1.12391326713217E-02 
1039	 1.10023857710021E-02 
1040	 1.06845310730621E-02 
1041	 1.02909613270925E-02 
1042	 1.03205028553069E-02 
1043	 1.06223421548525E-02 
1044	 1.07588636552838E-02 
1045	 1.11663706927795E-02 
1046	 1.12709652441365E-02 
1047	 1.11715919100729E-02 
1048	 1.11054239500976E-02 
1049	 1.08580730862576E-02 
1050	 1.08444098476325E-02 
1051	 1.10012228998439E-02 
1052	 1.09626184855543E-02 
1053	 1.09243948388698E-02 
1054	 1.09302520397765E-02 
1055	 1.07720045050933E-02 
1056	 1.06984063063653E-02 
1057	 1.06885390939206E-02 
1058	 1.07889729767829E-02 
1059	 1.09621819921334E-02 
1060	 1.13579463699343E-02 
1061	 1.12758349204777E-02 
1062	 1.08997666489205E-02 
1063	 0.010967030546259 
1064	 1.08560639150394E-02 
1065	 1.09588080208344E-02 
1066	 0.011913699138493 
1067	 1.20420842238806E-02 
1068	 1.15321885816544E-02 
1069	 1.13154852696256E-02 
1070	 1.06831610084016E-02 
1071	 1.04819427200311E-02 
1072	 1.06879860111557E-02 
1073	 1.09566407071134E-02 
1074	 1.09343074829985E-02 
1075	 1.08794748480541E-02 
1076	 1.09678129971704E-02 
1077	 1.09123463952078E-02 
1078	 1.09313252047895E-02 
1079	 0.011229006259083 
1080	 1.13100821672894E-02 
1081	 1.11672254025751E-02 
1082	 1.11274343649654E-02 
1083	 1.12208013273598E-02 
1084	 0.011146843916913 
1085	 0.010785240922428 
1086	 1.07029143312766E-02 
1087	 0.010811329304345 
1088	 1.07896915828818E-02 
1089	 1.08158581990269E-02 
1090	 1.08678917439988E-02 
1091	 0.010984737929814 
1092	 1.10304780628329E-02 
1093	 1.10379844720283E-02 
1094	 1.12190802224751E-02 
1095	 1.12153540931943E-02 
1096	 1.10045720156924E-02 
1097	 1.08226836237769E-02 
1098	 1.05147275344292E-02 
1099	 1.04340333357572E-02 
1100	 1.03481209341753E-02 
1101	 1.03260479734573E-02 
1102	 1.06533966068725E-02 
1103	 1.07943892775609E-02 
1104	 0.010830629323305 
1105	 1.09071562154733E-02 
1106	 1.08994389554577E-02 
1107	 1.07562471253699E-02 
1108	 0.010651636084844 
1109	 1.01442215656571E-02 
1110	 1.01655653786298E-02 
1111	 0.010786001713196 
1112	 0.010758510871371 
1113	 0.010399447053352 
1114	 1.05092332760107E-02 
1115	 1.02132710118949E-02 
1116	 1.02272529893838E-02 
1117	 1.20525536264657E-02 
1118	 1.25544748351906E-02 
1119	 1.12276498790053E-02 
1120	 1.03527502836871E-02 
1121	 7.63024799897155E-03 
1122	 7.26320938426955E-03 
1123	 7.93580681335504E-03 
1124	 1.09113157137486E-02 
1125	 1.51021391257638E-02 
1126	 1.48264819518752E-02 
1127	 1.31923849391785E-02 
1128	 1.21035260083432E-02 
1129	 1.12355620977443E-02 
1130	 9.64300290707438E-03 
1131	 9.60294712168438E-03 
1132	 1.02903789566813E-02 
1133	 0.010928067573797 
1134	 1.27531521454837E-02 
1135	 0.012386723609103 
1136	 1.05783133970055E-02 
1137	 1.04550529320171E-02 
1138	 9.52678883347931E-03 
1139	 1.00220343597164E-02 
1140	 1.29279659401094E-02 
1141	 1.40068663340089E-02 
1142	 1.25222343945106E-02 
1143	 1.09961270679818E-02 
1144	 8.69438557989666E-03 
1145	 8.1447663585437E-03 
1146	 1.01406400151123E-02 
1147	 0.011013443621759 
1148	 0.010747049508896 
1149	 1.01149847628116E-02 
1150	 9.81269619896699E-03 
1151	 8.98431928228904E-03 
1152	 8.98358433433239E-03 
1153	 9.57693943093601E-03 
1154	 0.009696685444666 
1155	 9.79934584994059E-03 
1156	 9.85228219140258E-03 
1157	 9.44378564949219E-03 
1158	 9.21792355837082E-03 
1159	 8.96735607706802E-03 
1160	 8.71946876951727E-03 
1161	 9.10742606473036E-03 
1162	 9.53186574793998E-03 
1163	 9.53525499350543E-03 
1164	 9.40982420128572E-03 
1165	 9.06900735369574E-03 
1166	 9.10126376621701E-03 
1167	 9.75928811578618E-03 
1168	 9.77092216959574E-03 
1169	 9.36042126070051E-03 
1170	 9.36442199929982E-03 
1171	 9.30128936576832E-03 
1172	 8.98435614898431E-03 
1173	 9.05159022254763E-03 
1174	 9.69568742929677E-03 
1175	 9.38340348079544E-03 
1176	 8.97832884620563E-03 
1177	 9.06654786374233E-03 
1178	 9.02893478122491E-03 
1179	 9.27987513424318E-03 
1180	 9.56236072703565E-03 
1181	 9.34662827708354E-03 
1182	 9.04796797681191E-03 
1183	 8.93252919654089E-03 
1184	 8.85239886234844E-03 
1185	 8.93123118001476E-03 
1186	 9.19909688343051E-03 
1187	 9.26402813130174E-03 
1188	 9.19789150464649E-03 
1189	 9.17638740190918E-03 
1190	 9.1147644682384E-03 
1191	 9.24321931766392E-03 
1192	 9.23995385179447E-03 
1193	 9.31651073700496E-03 
1194	 9.15196068196466E-03 
1195	 9.10167579692106E-03 
1196	 9.04751034212264E-03 
1197	 8.83975547309881E-03 
1198	 8.93874004682963E-03 
1199	 9.09036463086222E-03 
1200	 8.93603156836977E-03 
1201	 9.1464994424594E-03 
1202	 9.57517879034848E-03 
1203	 9.44012530363351E-03 
1204	 9.19055374868891E-03 
1205	 9.08004271686777E-03 
1206	 9.07483822633551E-03 
1207	 9.23481551114105E-03 
1208	 9.32675608805412E-03 
1209	 9.46092889896144E-03 
1210	 9.33588922096632E-03 
1211	 9.10829229551037E-03 
1212	 9.32213499951754E-03 
1213	 9.30667827416571E-03 
1214	 9.23782311022618E-03 
1215	 9.04581790635445E-03 
1216	 9.28340790996971E-03 
1217	 9.25216453906733E-03 
1218	 9.06321805612932E-03 
1219	 9.37195082034481E-03 
1220	 9.50000321350019E-03 
1221	 9.22407976412761E-03 
1222	 9.13879921120884E-03 
1223	 9.14753369852624E-03 
1224	 9.01017722667442E-03 
1225	 8.84521865092463E-03 
1226	 9.01678398059639E-03 
1227	 9.3579975081409E-03 
1228	 9.10648340023141E-03 
1229	 8.70808836893328E-03 
1230	 9.00475686789974E-03 
1231	 9.17882216710919E-03 
1232	 8.90958651347609E-03 
1233	 9.1081378074361E-03 
1234	 9.37903895014445E-03 
1235	 9.35796681877007E-03 
1236	 8.9000544370338E-03 
1237	 8.94010805160668E-03 
1238	 9.25390790492701E-03 
1239	 9.10703696371022E-03 
1240	 9.16041756825022E-03 
1241	 9.5235620434683E-03 
1242	 9.49389450250837E-03 
1243	 9.28895814967607E-03 
1244	 9.17435827047768E-03 
1245	 8.99773052709044E-03 
1246	 8.99780364559561E-03 
1247	 9.11943686165101E-03 
1248	 9.16664967075464E-03 
1249	 9.23182207751569E-03 
1250	 9.31159338582523E-03 
1251	 9.29516445190674E-03 
1252	 9.23270557553831E-03 
1253	 9.29822013812631E-03 
1254	 9.27711906473358E-03 
1255	 9.0861999291632E-03 
1256	 9.00808135229452E-03 
1257	 8.96295040466872E-03 
1258	 9.0004305911503E-03 
1259	 9.1567548647447E-03 
1260	 9.19357851697659E-03 
1261	 9.27256037160211E-03 
1262	 9.24251442783464E-03 
1263	 8.98945543334021E-03 
1264	 8.95768013111902E-03 
1265	 8.94479599766868E-03 
1266	 8.82251959157804E-03 
1267	 8.96224874247309E-03 
1268	 9.17118712472165E-03 
1269	 9.1095263936335E-03 
1270	 9.14163733739895E-03 
1271	 9.2563495858057E-03 
1272	 9.0807816268195E-03 
1273	 9.0696870226329E-03 
1274	 9.28575052366055E-03 
1275	 9.06392280058347E-03 
1276	 8.7983277979394E-03 
1277	 8.94309956467042E-03 
1278	 9.07899742723933E-03 
1279	 9.19462252277216E-03 
1280	 9.33842935591275E-03 
1281	 9.37514924747072E-03 
1282	 9.18733213930194E-03 
1283	 9.06619471641296E-03 
1284	 9.01007527885621E-03 
1285	 8.98199923061477E-03 
1286	 8.84699120590808E-03 
1287	 8.84867355372327E-03 
1288	 8.95219094767177E-03 
1289	 8.91615454006811E-03 
1290	 8.75471532418427E-03 
1291	 9.0042067590631E-03 
1292	 8.98668322759982E-03 
1293	 8.88273727779015E-03 
1294	 8.88993465573521E-03 
1295	 8.74852111212795E-03 
1296	 8.76692759402374E-03 
1297	 8.96749963933673E-03 
1298	 9.03870856754252E-03 
1299	 8.92316254870273E-03 
1300	 8.7977870036532E-03 
1301	 8.69683813661411E-03 
1302	 8.56735921933649E-03 
1303	 8.65651617309786E-03 
1304	 8.78207558173981E-03 
1305	 8.71641912202813E-03 
1306	 8.64350760721834E-03 
1307	 8.5900495422142E-03 
1308	 8.5830251926166E-03 
1309	 8.55287101162723E-03 
1310	 8.45896937308478E-03 
1311	 8.36252629079023E-03 
1312	 8.39246138348598E-03 
1313	 8.36056525644425E-03 
1314	 8.27587692510656E-03 
1315	 8.39974205959175E-03 
1316	 8.46149621253819E-03 
1317	 8.39519834669119E-03 
1318	 8.19652357906796E-03 
1319	 7.72769434840137E-03 
1320	 7.8115326871043E-03 
1321	 8.30984942001496E-03 
1322	 8.24404753846713E-03 
1323	 8.04257957454522E-03 
1324	 8.46567882402516E-03 
1325	 8.48536330911543E-03 
1326	 8.21635356995976E-03 
1327	 8.47700297836209E-03 
1328	 8.66677004181751E-03 
1329	 8.20006428001684E-03 
1330	 7.5612912891543E-03 
1331	 7.55231263248376E-03 
1332	 7.73764561477721E-03 
1333	 7.67878406421862E-03 
1334	 7.54167596465601E-03 
1335	 7.42010105504492E-03 
1336	 7.20165374484761E-03 
1337	 7.24801756021338E-03 
1338	 7.52796725890839E-03 
1339	 7.67228908327734E-03 
1340	 8.02630057829465E-03 
1341	 8.15220232716749E-03 
1342	 7.90296001069037E-03 
1343	 7.80690373992861E-03 
1344	 7.6804900139864E-03 
1345	 7.87480457534995E-03 
1346	 8.39391116510809E-03 
1347	 8.69787697898202E-03 
1348	 9.87449377234369E-03 
1349	 1.06090364489485E-02 
1350	 8.74261802875279E-03 
1351	 9.51177809947528E-03 
1352	 1.78799695742104E-02 
1353	 1.99109639385699E-02 
1354	 1.32556028851356E-02 
1355	 5.31800289062431E-03 
1356	-1.04962330702407E-02 
1357	-1.67125157179269E-02 
1358	 2.40439839452104E-02 
1359	 2.46579563152968E-02 
1360	-5.01299624753251E-02 
1361	-7.16643910176712E-02 
1362	-0.047465255071265 
1363	-0.109501778164251 
1364	-0.145328739414859 
1365	 5.31400410194719E-02 
1366	 9.43368825895929E-02 
1367	-8.87426403815726E-02 
1368	-0.135214768659746 
1369	-0.268112363097992 
1370	-0.324101453237707 
1371	-0.233439703721841 
1372	-0.133937118802279 
1373	 1.75457383542248E-03 
1374	 3.96387237721383E-02 
1375	 9.56219220159663E-02 
1376	 9.41707505306599E-02 
1377	-7.15553145357783E-02 
1378	-0.136830351599803 
1379	-0.141381887955354 
1380	-0.116029456404108 
1381	-4.79454669968934E-02 
1382	-6.07396973803582E-03 
1383	 0.159803291076002 
1384	 0.157384732612421 
1385	-3.65493536647139E-02 
1386	-1.23148610187548E-02 
1387	 5.96852847944328E-02 
1388	 5.12058954880365E-02 
1389	 0.074003325268145 
1390	 0.125347024843886 
1391	 0.208867271822457 
1392	 0.137497784999112 
1393	-0.13278519876742 
1394	-9.18530902385973E-02 
1395	 3.63269956651534E-04 
1396	-0.013034218944073 
1397	 0.23230737536855 
1398	 0.487561243003643 
1399	 0.248679306838467 
1400	-8.67059987157175E-03 
1401	-0.474034707416352 
1402	-0.561739167685957 
1403	-0.244172913942688 
1404	-0.110000182356676 
1405	-0.077288416070097 
1406	-8.67394904671124E-03 
1407	 2.05462320613131E-02 
1408	-2.05825723216431E-02 
1409	-0.02676191053355 
1410	 0.036145784628905 
1411	 2.92999257109792E-02 
1412	-5.83534179844589E-02 
1413	-4.04833297335754E-02 
1414	 3.27109141880728E-02 
1415	 3.02481730528489E-02 
1416	 1.62651939267917E-02 
1417	 2.08205503542735E-02 
1418	 5.21223580426644E-03 
1419	 2.35230752283832E-03 
1420	 2.02271718676903E-02 
1421	 2.57821161530825E-02 
1422	 2.27369540735774E-02 
1423	 1.97334000280082E-02 
1424	 2.19711193256552E-02 
1425	 1.90172203005097E-02 
1426	 8.71139096200303E-03 
1427	 5.30332436163486E-03 
1428	 3.06581381203424E-03 
1429	 2.4304352157698E-03 
1430	 3.98501761066638E-03 
1431	 4.87916307783077E-03 
1432	 7.93272728625975E-03 
1433	 9.16108654714335E-03 
1434	 1.11022567638456E-02 
1435	 9.84215721324829E-03 
1436	 4.42585447163687E-03 
1437	 8.5550603597286E-04 
1438	 1.43642356725767E-03 
1439	-1.50986636788558E-03 
1440	-1.27820923054058E-03 
1441	 3.13146642833816E-03 
1442	 2.08298482331186E-03 
1443	 8.33593297339923E-04 
1444	 1.88861267908514E-03 
1445	 4.02368011274103E-04 
1446	-6.44249785518556E-04 
1447	 1.72648132364057E-03 
1448	 5.40753629486926E-03 
1449	 5.73192803902134E-03 
1450	 3.93341260558228E-03 
1451	 4.84182495200969E-03 
1452	 5.42648037913053E-03 
1453	 3.94848406469194E-03 
1454	 3.55339112541871E-03 
1455	 3.80595555606056E-03 
1456	 3.51804353435192E-03 
1457	 2.48675344713982E-03 
1458	 2.60864224389571E-03 
1459	 3.41022006548423E-03 
1460	 3.62536464138484E-03 
1461	 4.19936130136413E-03 
1462	 4.08704635293042E-03 
1463	 2.83853861227873E-03 
1464	 3.04522325555132E-03 
1465	 4.09974736047394E-03 
1466	 4.47262420115936E-03 
1467	 5.71516584344642E-03 
1468	 5.77467306589238E-03 
1469	 3.86303779065823E-03 
1470	 3.87586999632192E-03 
1471	 5.07874983400578E-03 
1472	 4.95639899542741E-03 
1473	 4.73536229324465E-03 
1474	 4.77505120878171E-03 
1475	 3.90905807078537E-03 
1476	 4.05565481625812E-03 
1477	 5.70738960705181E-03 
1478	 5.69893560387487E-03 
1479	 4.67631185738277E-03 
1480	 4.6178034138215E-03 
1481	 4.72813863950767E-03 
1482	 4.37399514605146E-03 
1483	 4.03308034879367E-03 
1484	 3.9402157956577E-03 
1485	 3.79597753043404E-03 
1486	 3.49309603005462E-03 
1487	 3.11078579197271E-03 
1488	 3.23325528261312E-03 
1489	 3.54527871174864E-03 
1490	 3.46181106185472E-03 
1491	 3.37667862962111E-03 
1492	 3.65689776901499E-03 
1493	 4.04720522950339E-03 
1494	 3.90034021769047E-03 
1495	 3.70070660100217E-03 
1496	 3.7245490974987E-03 
1497	 3.48729344647979E-03 
1498	 3.27102442224643E-03 
1499	 3.15277356301965E-03 
1500	 3.33455954684912E-03 
1501	 3.70678934352368E-03 
1502	 3.70313113723896E-03 
1503	 3.70979680217288E-03 
1504	 3.8828238760461E-03 
1505	 3.88841034496126E-03 
1506	 3.82002178665549E-03 
1507	 3.90828142656072E-03 
1508	 3.98306761352732E-03 
1509	 4.04313453698938E-03 
1510	 4.07709907286754E-03 
1511	 4.04390591148019E-03 
1512	 4.02753692578711E-03 
1513	 4.11266837198651E-03 
1514	 3.99460329169767E-03 
1515	 3.75803426699859E-03 
1516	 3.85707103981875E-03 
1517	 4.01091596185045E-03 
1518	 3.86829917110927E-03 
1519	 3.88649245842527E-03 
1520	 4.0516535270119E-03 
1521	 4.03268544242136E-03 
1522	 0.003950006095085 
1523	 3.93491171524397E-03 
1524	 4.23393854181876E-03 
1525	 4.46069363676352E-03 
1526	 4.30303431405045E-03 
1527	 4.32393515971866E-03 
1528	 4.52024711051186E-03 
1529	 4.31835688962951E-03 
1530	 3.9579976385276E-03 
1531	 3.96109282859343E-03 
1532	 4.08870998772064E-03 
1533	 4.23541245719539E-03 
1534	 4.39632566569646E-03 
1535	 4.42000928766856E-03 
1536	 4.35157748602111E-03 
1537	 4.24722550554449E-03 
1538	 4.31131056606527E-03 
1539	 4.47221183931951E-03 
1540	 4.50655758675946E-03 
1541	 4.48320773385256E-03 
1542	 4.43801129151747E-03 
1543	 4.35725842686611E-03 
1544	 4.38220830931629E-03 
1545	 4.57714838782274E-03 
1546	 4.75948880229923E-03 
1547	 4.76583367668603E-03 
1548	 4.67197058521227E-03 
1549	 4.6320874365819E-03 
1550	 4.63363884970175E-03 
1551	 4.65760643758469E-03 
1552	 4.75374285335947E-03 
1553	 4.68787506460434E-03 
1554	 4.53498576517721E-03 
1555	 4.72179957567037E-03 
1556	 4.95262724654467E-03 
1557	 4.98473029371868E-03 
1558	 4.95899856783358E-03 
1559	 4.93158441144852E-03 
1560	 5.03872825750403E-03 
1561	 5.16117899199908E-03 
1562	 5.12654245546117E-03 
1563	 5.06318314665869E-03 
1564	 5.08190758275422E-03 
1565	 5.18311802572939E-03 
1566	 5.30951644345861E-03 
1567	 5.17933754663333E-03 
1568	 4.86878049480331E-03 
1569	 4.94063866656531E-03 
1570	 5.19725512972556E-03 
1571	 5.20593637785616E-03 
1572	 5.1498822631249E-03 
1573	 5.1867077686157E-03 
1574	 5.14659121845695E-03 
1575	 5.07797797033989E-03 
1576	 5.34223503824009E-03 
1577	 5.43618808168039E-03 
1578	 0.005121792755203 
1579	 4.99987530437902E-03 
1580	 5.01973569956158E-03 
1581	 5.17715282640405E-03 
1582	 5.38992619074561E-03 
1583	 5.1708396586032E-03 
1584	 4.84330903952333E-03 
1585	 4.86288114316562E-03 
1586	 4.94237797951792E-03 
1587	 5.03769617891574E-03 
1588	 5.24299618210468E-03 
1589	 5.22653433431802E-03 
1590	 5.0683026276956E-03 
1591	 5.19373672633505E-03 
1592	 5.52242942254779E-03 
1593	 5.66747684955052E-03 
1594	 5.46693059721735E-03 
1595	 5.17145777241958E-03 
1596	 5.28479100632218E-03 
1597	 5.68643558148479E-03 
1598	 5.61968582071224E-03 
1599	 5.27228524040343E-03 
1600	 5.39409121102432E-03 
1601	 5.55960448080213E-03 
1602	 5.43833364159146E-03 
1603	 5.62369302010783E-03 
1604	 5.86686631742531E-03 
1605	 5.64444292054162E-03 
1606	 5.37955164783039E-03 
1607	 5.30923195151908E-03 
1608	 5.20897151537384E-03 
1609	 5.02684210789332E-03 
1610	 5.0748875588975E-03 
1611	 5.56873965659655E-03 
1612	 5.72491512217515E-03 
1613	 5.48074124227591E-03 
1614	 5.5163119651898E-03 
1615	 5.49202987424042E-03 
1616	 5.47133818255937E-03 
1617	 5.63960583242446E-03 
1618	 5.6408438496029E-03 
1619	 5.59104417253966E-03 
1620	 5.55290571240939E-03 
1621	 5.44014369045465E-03 
1622	 5.5242595141778E-03 
1623	 5.67989926862834E-03 
1624	 5.72764012166642E-03 
1625	 5.78246349273307E-03 
1626	 5.66949263540902E-03 
1627	 5.50835874325309E-03 
1628	 5.49397332633306E-03 
1629	 5.55722920852994E-03 
1630	 0.005625681595828 
1631	 5.68860275009219E-03 
1632	 5.72107116016893E-03 
1633	 5.64316118618063E-03 
1634	 5.76107066512523E-03 
1635	 5.90417733358574E-03 
1636	 5.65305407769952E-03 
1637	 5.6198413320816E-03 
1638	 5.83242780405681E-03 
1639	 5.68297297782847E-03 
1640	 5.63208937648992E-03 
1641	 5.77112113323657E-03 
1642	 5.76320785935046E-03 
1643	 5.82015733920843E-03 
1644	 5.73359048868547E-03 
1645	 5.48379216606861E-03 
1646	 5.4090817956884E-03 
1647	 5.42545230746444E-03 
1648	 5.45418946508912E-03 
1649	 5.56794219700826E-03 
1650	 5.60646099340154E-03 
1651	 5.54353908659141E-03 
1652	 5.62119850751052E-03 
1653	 5.56602733180925E-03 
1654	 5.56414921244187E-03 
1655	 5.67891813525566E-03 
1656	 5.75125773697109E-03 
1657	 5.78413834654982E-03 
1658	 5.80798748802521E-03 
1659	 5.95534977433011E-03 
1660	 5.90467583086388E-03 
1661	 5.54515608833022E-03 
1662	 5.51156187347105E-03 
1663	 0.005636830968112 
1664	 5.73626012539354E-03 
1665	 5.96442157213364E-03 
1666	 6.07481526438346E-03 
1667	 6.15481382647741E-03 
1668	 5.76772018212227E-03 
1669	 5.62679797172474E-03 
1670	 5.57641311541187E-03 
1671	 5.51272679543037E-03 
1672	 5.53323063168348E-03 
1673	 5.56491143412255E-03 
1674	 5.76263827974381E-03 
1675	 5.66237300308336E-03 
1676	 5.41561525136722E-03 
1677	 5.65408114609668E-03 
1678	 5.6905079942336E-03 
1679	 5.40157094297591E-03 
1680	 5.38159190091683E-03 
1681	 5.51320359125994E-03 
1682	 5.65304518447325E-03 
1683	 5.61643180480719E-03 
1684	 5.55127098004069E-03 
1685	 5.78282721853934E-03 
1686	 5.87696131536293E-03 
1687	 5.88491700996862E-03 
1688	 6.17882702481363E-03 
1689	 6.14268123856211E-03 
1690	 5.69718861768651E-03 
1691	 5.5399490985188E-03 
1692	 5.59943782332795E-03 
1693	 5.65928705936884E-03 
1694	 5.72693793996585E-03 
1695	 5.67528023077776E-03 
1696	 5.7089603542691E-03 
1697	 5.64720315968023E-03 
1698	 5.30316335957063E-03 
1699	 5.46350551876211E-03 
1700	 5.99860451075412E-03 
1701	 6.09994451669729E-03 
1702	 5.9351306438092E-03 
1703	 5.67903447937427E-03 
1704	 5.40145332859792E-03 
1705	 5.3852518106804E-03 
1706	 5.57477110942671E-03 
1707	 5.9300962286828E-03 
1708	 6.15120755374125E-03 
1709	 5.80440395125326E-03 
1710	 5.45492380969849E-03 
1711	 5.64680215061927E-03 
1712	 5.87135854880897E-03 
1713	 5.6773073568991E-03 
1714	 5.54143847365279E-03 
1715	 5.43469249071294E-03 
1716	 5.2803749752862E-03 
1717	 5.51194175386915E-03 
1718	 5.98964007071561E-03 
1719	 5.93269978217342E-03 
1720	 5.61605844680962E-03 
1721	 5.26480067396687E-03 
1722	 5.38769998550395E-03 
1723	 5.8470423370853E-03 
1724	 5.60100613415181E-03 
1725	 5.44626124114805E-03 
1726	 5.9521353189921E-03 
1727	 5.65902413864098E-03 
1728	 5.2175119379846E-03 
1729	 5.76809797268983E-03 
1730	 5.40414876428535E-03 
1731	 4.80490066805691E-03 
1732	 5.58988094284394E-03 
1733	 5.73915397103683E-03 
1734	 5.36530120826106E-03 
1735	 5.65223503541284E-03 
1736	 5.46146843409804E-03 
1737	 5.09878658127982E-03 
1738	 5.54928841254915E-03 
1739	 5.78906953652181E-03 
1740	 5.55916291512418E-03 
1741	 5.59447715565698E-03 
1742	 4.99076081728396E-03 
1743	 4.5219335385256E-03 
1744	 5.39380300789805E-03 
1745	 5.83855643274228E-03 
1746	 6.54159575669394E-03 
1747	 6.70260478003072E-03 
1748	 5.58103095285249E-03 
1749	 5.22724239734022E-03 
1750	 5.13258120800488E-03 
1751	 4.96456499232937E-03 
1752	 5.14848574376151E-03 
1753	 5.39173314571485E-03 
1754	 5.71824065528498E-03 
1755	 5.53407801748301E-03 
1756	 4.94882991392716E-03 
1757	 4.50682166018083E-03 
1758	 4.92043902507694E-03 
1759	 5.6044038000067E-03 
1760	 5.80438234339612E-03 
1761	 5.78002112962192E-03 
1762	 5.24876766847743E-03 
1763	 5.28649113196216E-03 
1764	 5.83772894024649E-03 
1765	 5.73472282892154E-03 
1766	 5.90988441181034E-03 
1767	 5.84136417954091E-03 
1768	 5.13064528940189E-03 
1769	 4.87840056861637E-03 
1770	 4.64871777870676E-03 
1771	 4.35449163605029E-03 
1772	 4.77426471651221E-03 
1773	 5.50711217153023E-03 
1774	 5.36849884179117E-03 
1775	 4.35645467610765E-03 
1776	 4.45048357863764E-03 
1777	 5.64168261455436E-03 
1778	 5.75196539549071E-03 
1779	 5.79556889451016E-03 
1780	 5.77510050585531E-03 
1781	 4.09260472634079E-03 
1782	 3.97480429585215E-03 
1783	 5.84028670741629E-03 
1784	 6.25809724403092E-03 
1785	 6.41765918571757E-03 
1786	 6.87891914048613E-03 
1787	 6.68542101072355E-03 
1788	 6.41645796084322E-03 
1789	 6.2275511227131E-03 
1790	 5.22628004980952E-03 
1791	 5.75446859677278E-03 
1792	 6.51061075958524E-03 
1793	 7.38723055037674E-03 
1794	 7.32085808927666E-03 
1795	 6.21669221950828E-03 
1796	 6.53945603574143E-03 
1797	 6.96495269466734E-03 
1798	 7.19696055534821E-03 
1799	 6.71934683797688E-03 
1800	 7.13564997675462E-04 
1801	-5.04937550978488E-05 
1802	 7.44273657923098E-03 
1803	 1.01872231282442E-02 
1804	 1.58557402583355E-02 
1805	 1.99732667681511E-02 
1806	 1.03283685458475E-02 
1807	 1.18631191254601E-02 
1808	 3.34431413234059E-02 
1809	 3.51381019733086E-02 
1810	 2.02059078800499E-02 
1811	 1.61401028453034E-02 
1812	-1.82682212074902E-02 
1813	 3.05072067394413E-03 
1814	 0.135921951945502 
1815	 0.162762352791101 
1816	 0.166977141751841 
1817	 3.92348289352552E-03 
1818	-0.17959244796268 
1819	-1.89298099194292E-02 
1820	 6.99977041963873E-02 
1821	 0.378372604140242 
1822	 0.494785159080819 
1823	 3.32449308840888E-02 
1824	-0.149045406149076 
1825	-0.356477634968048 
1826	-0.283026277873867 
1827	 0.475597093506515 
1828	 0.774002141183758 
1829	 1.21502738717724 
1830	 1.18966458358762 
1831	-0.325072196659368 
1832	-0.679042350782779 
1833	 0.350728410215232 
1834	 0.261224219688456 
1835	 0.759512218956353 
1836	 0.516332083715823 
1837	-0.50066575830805 
1838	-3.16098252757912 
1839	-0.565589177508546 
1840	-0.379598909947204 
1841	 1.43488982156386 
1842	 0.608510303528104 
1843	 1.4014075760207 
1844	-2.05791163127287 
1845	-2.30964167214357 
1846	-1.996446028744 
1847	-2.77399175908859 
1848	 123.349091975818 
1849	 1.71800378389777 
1850	 1.49863210999712 
1851	 2.07977364164321 
1852	 2.40321266562009 
1853	-6.74696427032909 
1854	-1.55166394850332 
1855	-0.714746578103634 
1856	-0.694460195217111 
1857	-7.91326454523626 
1858	 17.4029402488754 
1859	-3.0237423383622 
1860	 7.78029003645453 
1861	-17.2123736357637 
1862	-86.7690895689488 
1863	-28.1774811090175 
1864	-1.26871664931195 
1865	-0.924474894213615 
1866	 3.91761782799889 
1867	 2.20575917425245 
1868	 1.45188887359621 
1869	 1.018540614774 
1870	 1.69790255386133E-02 
1871	 0.302295762620251 
1872	 0.977811256085845 
1873	 1.28386202066053 
1874	 1.34289374985641 
1875	 1.35679670480173 
1876	-9.33022129733594 
1877	 1.04370272320487 
1878	 1.15226250713268 
1879	-2.56669909646782 
1880	-1.35194920112104 
1881	 0.550402962109178 
1882	 5.49942768094088 
1883	-0.255354261030136 
1884	 1.16547531003724 
1885	 6.63871489371148 
1886	 3.90545790009106 
1887	 2.25527906030648 
1888	 3.79057559325231 
1889	 1.97899438466555 
1890	 0.201018402517953 
1891	 0.251474832661522 
1892	 0.478683267939105 
1893	 0.443436484702477 
1894	 1.23456053888961 
1895	 18.9950900542667 
1896	-13.9453980125482 
1897	 1.53123519787408 
1898	-0.139290632264773 
1899	 0.722466549700632 
1900	 2.61045937140645 
1901	 2.09556733206849 
1902	 3.19394987508286 
1903	-9.32346152200598 
1904	-4.10971844939236 
1905	 5.73736714758396 
1906	-2.6289779681138 
1907	 3.52411310399422 
1908	 1.26424330763735 
1909	 1.18421297729285 
1910	 0.513557187844569 
1911	 8.72880721740382E-02 
1912	-0.425165390265558 
1913	-0.654584688203452 
1914	-0.459000595514672 
1915	-0.416428147239371 
1916	-0.874012550801976 
1917	-5.06933317446238E-02 
1918	-0.733072317344438 
1919	 0.407027358537544 
1920	 0.667610022654663 
1921	 0.286391125186383 
1922	 0.587895302911439 
1923	 0.777932121406346 
1924	 1.27112217944797 
1925	-1.09833505972951 
1926	-1.3864549662961 
1927	-5.83348723800607 
1928	 3.36990595872899 
1929	 0.784960322110141 
1930	 0.391174097942177 
1931	 0.275489833899501 
1932	 0.234892432998499 
1933	 0.20522788884703 
1934	 0.123743809080401 
1935	 0.060234010341755 
1936	 5.24308195948806E-02 
1937	 6.70003228019786E-02 
1938	 0.101254964118295 
1939	 9.38015757745987E-02 
1940	 9.21581445711297E-02 
1941	 7.40784049439724E-02 
1942	 7.07837026112731E-02 
1943	 0.072207337900001 
1944	 5.93907296533116E-02 
1945	 0.044093937948588 
1946	 2.57881533481984E-02 
1947	 1.91542671065759E-02 
1948	 1.85401606846471E-02 
1949	 1.84994048876377E-02 
1950	 2.36958553266459E-02 
1951	 2.78673104249292E-02 
1952	 2.50222681299987E-02 
1953	 1.61002924433006E-02 
1954	 2.32034877285272E-02 
1955	 3.04923626201541E-02 
1956	 0.017960775825476 
1957	 1.42782108664207E-02 
1958	 2.26086129994732E-04 
1959	-7.92272314761812E-03 
1960	-1.08545845800148E-03 
1961	-9.45928269112927E-04 
1962	 3.52226776676174E-03 
1963	 5.95860345797924E-03 
1964	 3.11650778122663E-03 
1965	 5.38161970221374E-03 
1966	 5.74392255173611E-03 
1967	 7.26629466577773E-03 
1968	 6.05550286179395E-03 
1969	 4.73764997576412E-03 
1970	 2.36889275974143E-03 
1971	 1.09232524652199E-04 
1972	 1.0192732591623E-03 
1973	 2.37825858984669E-03 
1974	 3.49195681677067E-04 
1975	-7.84112897157877E-04 
1976	 7.40997011545574E-04 
1977	 0.001381889378274 
1978	 2.59041895747242E-03 
1979	 3.44081993692178E-03 
1980	 5.1078539461621E-03 
1981	 3.95264927596684E-03 
1982	 3.23563759728818E-03 
1983	 3.82549991705079E-03 
1984	 3.01165419332162E-03 
1985	 2.15656327168495E-03 
1986	 1.5866477290574E-03 
1987	 7.47944735929517E-04 
1988	 1.10239638865549E-03 
1989	 1.62663271907787E-03 
1990	 1.96666609863606E-03 
1991	 2.3857708047046E-03 
1992	 1.79082843160541E-03 
1993	 1.21083547772716E-03 
1994	 1.47948932302941E-03 
1995	 2.42605766765638E-03 
1996	 2.8253860602662E-03 
1997	 2.52525042548376E-03 
1998	 2.85299484811072E-03 
1999	 1.53645726808984E-03 
2000	-2.31507464348407E-03 
2001	-1.71140385085922E-03 
2002	 1.55128833330159E-03 
2003	 1.72279070107916E-03 
2004	 3.44669125365528E-03 
2005	 4.53753679236139E-03 
2006	 5.39938741622089E-03 
2007	 6.34484053980474E-03 
2008	 4.75630348771654E-03 
2009	 3.06631531860299E-03 
2010	-3.28312521873214E-03 
2011	-5.12798904262918E-03 
2012	-5.7030743834068E-03 
2013	-2.88875254556483E-03 
2014	-1.47676180183291E-03 
2015	 7.06929351340008E-04 
2016	 1.2001475014205E-04 
2017	-8.58434853136525E-04 
2018	 1.1780220164373E-03 
2019	 1.73261091143173E-03 
2020	 2.12474659048047E-03 
2021	 4.09766021800003E-03 
2022	 3.56457225390937E-03 
2023	 2.92914642163161E-03 
2024	 3.14166677801586E-03 
2025	 3.50420355771619E-03 
2026	 3.38109096131304E-03 
2027	 3.66211418633804E-03 
2028	 3.72070206313211E-03 
2029	 2.68655800382985E-03 
2030	 2.15820349812253E-03 
2031	 2.01798278570053E-03 
2032	 2.04011822708211E-03 
2033	 1.88501191418729E-03 
2034	 1.90057405291778E-03 
2035	 2.2639842656475E-03 
2036	 2.2570443852605E-03 
2037	 2.15683584328933E-03 
2038	 2.10017877034317E-03 
2039	 1.75852813199968E-03 
2040	 1.63701146066371E-04 
2041	-5.4714323254071E-05 
2042	 7.72713090696896E-04 
2043	 1.06553680310826E-03 
2044	 1.52295907048376E-03 
2045	 2.28533177166992E-03 
2046	 2.2643727639959E-03 
2047	 1.41800603453328E-03 
2048	 1.90080532448097E-03 
2049	 2.46862319351812E-03 
2050	 2.34987690306753E-03 
2051	 2.70703799544658E-03 
2052	 2.32732684567204E-03 
2053	 1.7052473717155E-03 
2054	 2.59033459898192E-03 
2055	 3.13679503472212E-03 
2056	 3.37968510348448E-03 
2057	 3.33873980699911E-03 
2058	 3.9118362019505E-03 
2059	 4.92321412048855E-03 
2060	 4.77952834348164E-03 
2061	 4.47456421321573E-03 
2062	 4.02263680440962E-03 
2063	 2.38239239321786E-03 
2064	 2.16718653921955E-03 
2065	 4.03461205978797E-03 
2066	 4.72895328928638E-03 
2067	 5.15638562960613E-03 
2068	 4.77892110448398E-03 
2069	 3.92663068926958E-03 
2070	 4.22600453494425E-03 
2071	 4.44749268637134E-03 
2072	 4.36987652196336E-03 
2073	 4.12673881769831E-03 
2074	 3.29846802643527E-03 
2075	 2.95912518229564E-03 
2076	 2.74048135127662E-03 
2077	 2.91366848503738E-03 
2078	 3.60986310929877E-03 
2079	 3.6848573144114E-03 
2080	 3.66263086024598E-03 
2081	 3.54883000075947E-03 
2082	 2.99088751333639E-03 
2083	 3.07309241586612E-03 
2084	 4.10243400163058E-03 
2085	 4.63363322734744E-03 
2086	 3.7092525842591E-03 
2087	 3.20331785785875E-03 
2088	 2.89136493702462E-03 
2089	 1.99429951042111E-03 
2090	 2.45073299905342E-03 
2091	 3.21820538639813E-03 
2092	 3.1397723803603E-03 
2093	 1.80563897497269E-03 
2094	 1.87897880121739E-03 
2095	 2.54936340479263E-03 
2096	 2.74171542369769E-03 
2097	 3.8060704215584E-03 
2098	 3.91442576214279E-03 
2099	 3.05563232448667E-03 
2100	 2.38520110699725E-03 
2101	 2.41241606969396E-03 
2102	 2.14593123750531E-03 
2103	 2.17532277629564E-03 
2104	 2.1689158708639E-03 
2105	 2.33307508212791E-03 
2106	 2.66377356565201E-03 
2107	 2.50486612475686E-03 
2108	 2.29911285545046E-03 
2109	 2.0361803696803E-03 
2110	 1.69977779228451E-03 
2111	 2.41921762489443E-03 
2112	 3.26251966194717E-03 
2113	 3.47407896489001E-03 
2114	 3.27350609791061E-03 
2115	 3.32028818555558E-03 
2116	 3.0140573697284E-03 
2117	 2.72101554552965E-03 
2118	 2.51905453771606E-03 
2119	 2.41186538694513E-03 
2120	 1.79453219086171E-03 
2121	 2.22628572821747E-03 
2122	 3.39867558110713E-03 
2123	 2.93315045485065E-03 
2124	 3.16207996460867E-03 
2125	 4.34527624015506E-03 
2126	 4.18078806855532E-03 
2127	 4.3389871505689E-03 
2128	 4.70803627249859E-03 
2129	 3.88366061468432E-03 
2130	 3.03431027043257E-03 
2131	 2.62426921790731E-03 
2132	 2.78008169251558E-03 
2133	 3.33704996915564E-03 
2134	 3.35750398007128E-03 
2135	 3.68914543978133E-03 
2136	 3.84575397338557E-03 
2137	 3.17504486813657E-03 
2138	 3.02317471853303E-03 
2139	 3.62286547169623E-03 
2140	 0.003828734469591 
2141	 3.7888631016912E-03 
2142	 3.94890576905819E-03 
2143	 4.43602492355731E-03 
2144	 4.06420878137463E-03 
2145	 3.39879984574326E-03 
2146	 2.82859264422938E-03 
2147	 2.53307568606812E-03 
2148	 3.09073124205219E-03 
2149	 4.17780528533489E-03 
2150	 4.51302863960162E-03 
2151	 4.17262540901644E-03 
2152	 3.9516184495326E-03 
2153	 3.5322925806937E-03 
2154	 3.64454523994464E-03 
2155	 3.4515813830798E-03 
2156	 0.002914069462487 
2157	 2.99210946066917E-03 
2158	 3.42565691168263E-03 
2159	 3.52455008733371E-03 
2160	 4.08837402103238E-03 
2161	 4.04126684917152E-03 
2162	 3.26453101771724E-03 
2163	 3.09692482534842E-03 
2164	 2.93324179453419E-03 
2165	 3.22198414824528E-03 
2166	 4.51579068273557E-03 
2167	 4.47396110022273E-03 
2168	 3.50957385833288E-03 
2169	 3.35738739921392E-03 
2170	 2.55347174195891E-03 
2171	 2.67737279505869E-03 
2172	 3.98069829355984E-03 
2173	 4.09785278434936E-03 
2174	 3.90094765483221E-03 
2175	 4.17788682689592E-03 
2176	 4.76683030444846E-03 
2177	 4.96791245703771E-03 
2178	 4.41171737614207E-03 
2179	 4.44761560908692E-03 
2180	 3.28744854513474E-03 
2181	 2.81187093742377E-03 
2182	 3.6411248554345E-03 
2183	 2.91755748392423E-03 
2184	 1.94933006976358E-03 
2185	 1.83869067782729E-03 
2186	 2.1623103162914E-03 
2187	 2.97233451286881E-03 
2188	 3.05985134963889E-03 
2189	 3.75273086302473E-03 
2190	 3.66889626147781E-03 
2191	 2.33792649823575E-03 
2192	 1.48927767758796E-03 
2193	 8.01825796203278E-04 
2194	 6.02467247669581E-04 
2195	 5.84700500030171E-04 
2196	 2.57455415615058E-04 
2197	-8.36391967758087E-04 
2198	-6.87633920359339E-04 
2199	-2.04513961990989E-04 
2200	 1.16126201193855E-03 
2201	 2.32562157881806E-03 
2202	 5.15304136448329E-03 
2203	 5.92506949820001E-03 
2204	 4.68502087746048E-03 
2205	 5.15740290358458E-03 
2206	 5.57986719477364E-03 
2207	 3.56950511827785E-03 
2208	 3.31734035740485E-03 
2209	 4.13765529599357E-03 
2210	 3.03696651808767E-03 
2211	 3.20659545210811E-03 
2212	 3.2160236423813E-03 
2213	 2.78086447041545E-03 
2214	 2.85029716284644E-03 
2215	 2.13699683224068E-03 
2216	 3.08402287408527E-03 
2217	 2.92441219678809E-03 
2218	 5.84966164686701E-04 
2219	 9.60972934879907E-04 
2220	 2.94752018863608E-03 
2221	 3.65554993157379E-03 
2222	 5.8691773703458E-03 
2223	 6.57558209950155E-03 
2224	 5.99836969116595E-03 
2225	 4.9323262368293E-03 
2226	 2.51218566198874E-03 
2227	 1.17112926213841E-03 
2228	-5.53536857370895E-04 
2229	-1.23460023515285E-03 
2230	-1.09400280303881E-03 
2231	-5.73904673875026E-04 
2232	 8.9064075720937E-04 
2233	 0.001620694932713 
2234	 2.42330123821498E-03 
2235	 4.09792710705558E-03 
2236	 4.10478906689413E-03 
2237	 4.07231098987202E-03 
2238	 4.4663959525523E-03 
2239	 3.7481425938391E-03 
2240	 3.44216509127601E-03 
2241	 3.31626589981281E-03 
2242	 3.84462141245055E-03 
2243	 5.91488389192707E-03 
2244	 7.25578330312703E-03 
2245	 7.21505238434213E-03 
2246	 5.74113554189596E-03 
2247	 3.69922286051189E-03 
2248	 3.28527530912661E-03 
2249	 2.9306322301297E-03 
2250	 3.62945873612795E-03 
2251	 5.06429185904293E-03 
2252	 3.72083762635982E-03 
2253	 2.31595090431303E-03 
2254	 1.98249123191816E-03 
2255	 1.92527280720604E-03 
2256	 2.6394480123217E-03 
2257	 3.24392046335299E-03 
2258	 4.1739960180409E-03 
2259	 3.33214536766333E-03 
2260	 3.21486718392431E-03 
2261	 3.84530851787104E-03 
2262	 3.95761049410804E-03 
2263	 4.03473389674007E-03 
2264	 4.15463188140577E-03 
2265	 3.49837637736998E-03 
2266	 3.70741265446138E-03 
2267	 4.26792868640961E-03 
2268	 3.65748915780489E-03 
2269	 2.41934168903987E-03 
2270	 2.94895672720762E-03 
2271	 4.85018632724008E-03 
2272	 5.17830234154325E-03 
2273	 6.10956595639999E-03 
2274	 6.40383126532705E-03 
2275	 3.32832669684503E-03 
2276	 3.02545842138361E-03 
2277	 4.97418688322323E-03 
2278	 5.97474132830253E-03 
2279	 8.57498539524158E-03 
2280	 9.87259619094946E-03 
2281	 1.10602863059122E-02 
2282	 9.89748641260018E-03 
2283	 7.73511526719132E-03 
2284	 4.71856834792303E-03 
2285	 1.48645755545997E-03 
2286	-1.22825892174916E-04 
2287	-1.38782973317995E-03 
2288	-1.93544366966917E-03 
2289	 6.29276244974834E-05 
2290	 1.72682430093094E-03 
2291	 3.36861632272601E-03 
2292	 4.71037935266616E-03 
2293	 3.35807182651481E-03 
2294	 2.58978872516821E-03 
2295	 2.44666547158435E-03 
2296	 1.92306669787527E-03 
2297	 0.002942915390993 
2298	 3.04192386393922E-03 
2299	 1.22624593869404E-03 
2300	 5.09196159804453E-04 
2301	 1.11366957083788E-04 
2302	-1.53891369715451E-03 
2303	-3.20547392862311E-03 
2304	-3.54771443240716E-03 
2305	-1.98594542996032E-03 
2306	 8.47588739491053E-04 
2307	 5.29295483448959E-03 
2308	 1.01927209884113E-02 
2309	 9.89138089357156E-03 
2310	 5.04714484858217E-03 
2311	 1.82313015055283E-03 
2312	 1.32920783961545E-04 
2313	-1.49951326863481E-03 
2314	-2.04513133350553E-03 
2315	-2.6148709390038E-03 
2316	-5.13417264124843E-03 
2317	-7.01225712373903E-03 
2318	-3.70740373467145E-03 
2319	 2.0019870473322E-03 
2320	 3.14308147248272E-03 
2321	 5.86568922851922E-03 
2322	 7.89730675440406E-03 
2323	 5.64935942251325E-03 
2324	 8.64942102999011E-03 
2325	 1.05478213618083E-02 
2326	 1.07066056410037E-02 
2327	 1.05376398580052E-02 
2328	 8.87368509747803E-03 
2329	 8.90474395398252E-03 
2330	 6.17205938797646E-03 
2331	 4.11466276568282E-03 
2332	 4.80493512876416E-03 
2333	 1.81229303441767E-03 
2334	 1.11258949101655E-03 
2335	 3.69062530340847E-03 
2336	 3.44194720035022E-03 
2337	 5.84678836388096E-03 
2338	 8.98804204386714E-03 
2339	 1.24643298840258E-02 
2340	 1.33649305736751E-02 
2341	 7.98610716681789E-03 
2342	 0.007863142912316 
2343	 7.84959038998585E-03 
2344	 2.93106662489302E-03 
2345	 1.90316000969872E-03 
2346	 2.63297864561924E-03 
2347	-5.87038003479637E-04 
2348	-1.59950774531311E-03 
2349	-8.55797609862523E-04 
2350	-7.19660725888756E-03 
2351	-5.67203821619398E-03 
2352	 2.52388496781863E-03 
2353	 7.47037420148729E-04 
2354	 8.56104771663754E-05 
2355	-2.12655994427077E-03 
2356	-8.62157971146858E-03 
2357	-1.26115048739477E-02 
2358	-1.31150769041167E-02 
2359	-9.92579045535407E-03 
2360	-1.36570823074921E-02 
2361	-1.60438225507862E-02 
2362	-1.17020204401807E-02 
2363	-9.48895178987554E-03 
2364	-7.19930053992236E-03 
2365	-4.95083472401796E-04 
2366	 2.57049526308397E-03 
2367	-5.01785626915421E-03 
2368	-1.38546645573902E-02 
2369	-2.50967182132535E-02 
2370	-2.32541306630431E-02 
2371	-9.41045955711593E-03 
2372	-2.29727202021482E-03 
2373	 1.69279514281853E-02 
2374	 3.05296099585625E-02 
2375	 1.65481671721081E-02 
2376	 7.59070652751413E-03 
2377	 1.23588808789222E-02 
2378	 1.26964444980987E-02 
2379	 7.19675760260439E-03 
2380	 0.021483248583366 
2381	 3.70147356773392E-02 
2382	 1.56711368452226E-02 
2383	 7.17361253890445E-03 
2384	 5.44755690677191E-03 
2385	-2.47387383757132E-02 
2386	-3.11555974218353E-02 
2387	-9.01538995424546E-03 
2388	 9.40765656717506E-03 
2389	 3.29988590065536E-02 
2390	 3.91790602172003E-02 
2391	 3.14436038521396E-02 
2392	 2.70641357828693E-02 
2393	 9.21565977658158E-03 
2394	 1.93844518865589E-03 
2395	 3.21531756405413E-03 
2396	 1.04578906604799E-02 
2397	 2.40873869337563E-02 
2398	 3.84509601190924E-02 
2399	 4.62291471793257E-02 
2400	 2.74425303368408E-02 
2401	-1.02512855384304E-02 
2402	-4.03531378349473E-02 
2403	-4.34402374528217E-02 
2404	-3.65171056558342E-02 
2405	-4.82043824673692E-03 
2406	-5.38566077725132E-03 
2407	-3.01712176717254E-02 
2408	-2.89474274642088E-03 
2409	 4.70963116314473E-03 
2410	 0.015208335283878 
2411	 5.70345709351493E-02 
2412	 6.57747839732481E-02 
2413	 1.93792625968395E-02 
2414	-1.43262573230598E-02 
2415	-1.64093064686713E-02 
2416	-0.090774526457902 
2417	-0.129848246384051 
2418	-9.80738435827813E-02 
2419	-0.104398204766417 
2420	-8.97857159582604E-02 
2421	-1.69780947352934E-02 
2422	 1.19395437495676E-02 
2423	-1.06367350596579E-02 
2424	-4.11021885144878E-02 
2425	-4.83776116036873E-02 
2426	-4.47029833958799E-03 
2427	-2.11754331891871E-02 
2428	-7.37935621673702E-02 
2429	-3.25998058356031E-02 
2430	-0.035338462250847 
2431	-5.00490456639741E-02 
2432	 3.06513787864494E-02 
2433	 4.05553183919091E-03 
2434	-8.83987432604441E-02 
2435	-0.035056274899836 
2436	-0.018716559731668 
2437	 4.16609170576685E-02 
2438	 0.13460159375324 
2439	 6.64378921992473E-02 
2440	 5.59520648892545E-02 
2441	 7.90680469657243E-02 
2442	 0.112738155262305 
2443	 0.161152575638597 
2444	 0.14002662586306 
2445	 0.117952134920166 
2446	 2.76128371549442E-02 
2447	 0.3174455168714 
2448	 0.391283143781155 
2449	 0.297656917700485 
2450	 0.347076277105481 
2451	 0.309315299771983 
2452	 0.376671635004633 
2453	 0.192121085809607 
2454	-5.53327946085973E-02 
2455	-0.256386105082403 
2456	-0.200660087822472 
2457	-0.106177227869039 
2458	-0.201518601312292 
2459	-9.40745388802389E-02 
2460	 5.91913661666745E-02 
2461	 0.140168095578878 
2462	 0.31546783203868 
2463	 0.266392371708399 
2464	 0.144657502698025 
2465	 0.75892587063049 
2466	 1.89354619890025 
2467	 2.13682444373343 
2468	 2.96842573371859 
2469	 1.22542111519382 
2470	 0.6784721754412 
2471	 1.27532923124741 
2472	 1.46935849361264 
2473	 37.4620097265031 
2474	 2.48209866264413 
2475	-10.6338478407874 
2476	 0.348521737600242 
2477	-5.60631006594388 
2478	 0.425812920453652 
2479	-1.32203799971695 
2480	-1.89896839060526 
2481	-2.11406604822841 
2482	-1.43366815653902 
2483	 1.06472944959561 
2484	 0.209396463399573 
2485	 0.123802536081582 
2486	-2.71276703489307E-03 
2487	-0.387800414450255 
2488	-0.829672767500151 
2489	-1.43219460981319 
2490	-2.50908877963124 
2491	-0.142800482141931 
2492	 9.39362551507562 
2493	 1.40382544485189 
2494	 1.00839133981519 
2495	-0.769113595762506 
2496	-2.35433363095864 
2497	-0.981271943832535 
2498	 4.24633434204699 
2499	-154.897851489838 
2500	 6.08264344176052 
