Wavelength	rt0718west_close00001.asd
350	 2.21200878142525E-02 
351	 2.16693765101458E-02 
352	 2.19157293463143E-02 
353	 2.20470312447647E-02 
354	 2.17666669541475E-02 
355	 0.022463365543859 
356	 2.26946165902714E-02 
357	 2.25991133137252E-02 
358	 2.26071832370363E-02 
359	 0.022046052934037 
360	 0.022224503927502 
361	 2.28163512411954E-02 
362	 2.25288684809817E-02 
363	 2.25753598288815E-02 
364	 2.27590964072151E-02 
365	 2.27781796194418E-02 
366	 2.24116558921226E-02 
367	 0.022999112647062 
368	 2.37291123406393E-02 
369	 2.36720679851954E-02 
370	 2.35628151726736E-02 
371	 2.38466441483285E-02 
372	 2.40860897258367E-02 
373	 2.35719335564225E-02 
374	 2.40718850592986E-02 
375	 2.46676579326686E-02 
376	 2.47093739344612E-02 
377	 2.43260701036433E-02 
378	 2.46615873558974E-02 
379	 2.52389903591189E-02 
380	 2.54708361255179E-02 
381	 2.57840042102263E-02 
382	 2.59276646793365E-02 
383	 2.58411155244754E-02 
384	 0.025665447971773 
385	 0.026116339069701 
386	 2.68987019304087E-02 
387	 0.027452414622058 
388	 2.71199197930428E-02 
389	 2.71145979214985E-02 
390	 2.74060437262559E-02 
391	 0.027707786387937 
392	 2.77709769355895E-02 
393	 0.0279832871675 
394	 2.84543177373704E-02 
395	 2.90588742747758E-02 
396	 2.91598219878302E-02 
397	 0.029192435790813 
398	 2.93153093983903E-02 
399	 2.93998353161349E-02 
400	 0.029705850319823 
401	 2.99795317419381E-02 
402	 3.00513964323924E-02 
403	 0.030074448930785 
404	 3.02023512861501E-02 
405	 3.04092346155197E-02 
406	 3.05905504122194E-02 
407	 3.06491622072649E-02 
408	 3.08345133010534E-02 
409	 3.11248746911842E-02 
410	 3.12385505168477E-02 
411	 3.15357421261264E-02 
412	 3.19154490305447E-02 
413	 3.22050799865131E-02 
414	 3.22401232904527E-02 
415	 3.23712805212428E-02 
416	 3.26647889619042E-02 
417	 3.30300551125243E-02 
418	 3.32450302291947E-02 
419	 3.35055380247766E-02 
420	 3.38462231587123E-02 
421	 0.034101606924202 
422	 3.42584200379373E-02 
423	 3.45696671408618E-02 
424	 3.51108994461009E-02 
425	 3.53154822754328E-02 
426	 0.035584231741849 
427	 3.59373943551281E-02 
428	 3.62381363658808E-02 
429	 3.66330923410035E-02 
430	 3.70565056406013E-02 
431	 0.037488211872351 
432	 3.79845708077307E-02 
433	 3.83159720140597E-02 
434	 3.86322398805837E-02 
435	 0.039075945047601 
436	 3.95222853083147E-02 
437	 3.98916659052789E-02 
438	 4.02035885742355E-02 
439	 4.05398794297565E-02 
440	 4.09876236881522E-02 
441	 4.14289893463089E-02 
442	 0.04182087594721 
443	 4.22672622667992E-02 
444	 4.25874822650298E-02 
445	 4.29253936250331E-02 
446	 4.34018235785875E-02 
447	 4.37031277193531E-02 
448	 4.39404116565863E-02 
449	 4.42091064187805E-02 
450	 4.45722044003745E-02 
451	 4.49210384774042E-02 
452	 4.51293190333389E-02 
453	 4.52264223001804E-02 
454	 4.55614410185647E-02 
455	 4.58019775115501E-02 
456	 4.59505368213735E-02 
457	 4.61187212324246E-02 
458	 4.63122159291506E-02 
459	 4.64774482900224E-02 
460	 4.66063531019679E-02 
461	 0.046739842407106 
462	 4.68924966789727E-02 
463	 4.71044458881172E-02 
464	 4.73507955001892E-02 
465	 4.74067082499252E-02 
466	 4.75716520151097E-02 
467	 4.78261232669401E-02 
468	 0.048000303769413 
469	 4.80866401786879E-02 
470	 0.048267072597958 
471	 4.85573583924221E-02 
472	 4.87312998669059E-02 
473	 4.90001924377303E-02 
474	 4.92919498466494E-02 
475	 4.94975544421705E-02 
476	 4.96223906998214E-02 
477	 0.049877179865375 
478	 5.02417356468567E-02 
479	 5.05396582860515E-02 
480	 5.07890606507362E-02 
481	 0.051031423621268 
482	 5.12905690123139E-02 
483	 5.15381565271019E-02 
484	 5.18508786047517E-02 
485	 5.21698502600103E-02 
486	 5.24516916891647E-02 
487	 5.30304286955805E-02 
488	 5.34956431309452E-02 
489	 5.37871213238852E-02 
490	 5.42094821379342E-02 
491	 5.45885440006225E-02 
492	 0.054957189698786 
493	 5.53714931368434E-02 
494	 0.055858395496019 
495	 0.056325477634978 
496	 5.68214477691899E-02 
497	 5.74313728361347E-02 
498	 5.78748962878557E-02 
499	 5.83814486993313E-02 
500	 5.90119530130299E-02 
501	 5.94912867920683E-02 
502	 6.00197916894304E-02 
503	 6.06010489576324E-02 
504	 6.11852011648236E-02 
505	 6.17307391056617E-02 
506	 6.23380351613236E-02 
507	 6.29701267164341E-02 
508	 6.34964742430534E-02 
509	 6.41536510321453E-02 
510	 6.48020757219791E-02 
511	 6.53511877539087E-02 
512	 6.59706971230698E-02 
513	 6.66035632570248E-02 
514	 6.72777524822064E-02 
515	 6.80224139691353E-02 
516	 6.86699673425273E-02 
517	 6.93753763760621E-02 
518	 7.02149124030067E-02 
519	 7.11335648558503E-02 
520	 0.071807443413003 
521	 7.24566433321277E-02 
522	 7.32943299916573E-02 
523	 7.40234673576992E-02 
524	 7.47842571734034E-02 
525	 7.55961609996436E-02 
526	 7.63981305295277E-02 
527	 7.71993359365414E-02 
528	 7.80939968064734E-02 
529	 7.90558839305437E-02 
530	 7.97923722478876E-02 
531	 8.06378854148998E-02 
532	 8.15523243619878E-02 
533	 8.24005189643653E-02 
534	 8.33953755006304E-02 
535	 8.43486736235604E-02 
536	 8.52012332983057E-02 
537	 8.60598101676448E-02 
538	 8.70426956378935E-02 
539	 8.80357462203137E-02 
540	 8.89509067605423E-02 
541	 9.00042500641827E-02 
542	 9.09805778991481E-02 
543	 9.18819391517625E-02 
544	 9.28457371225676E-02 
545	 9.38480381685384E-02 
546	 9.48180039648999E-02 
547	 0.095749071991305 
548	 9.67800568484235E-02 
549	 9.77271292352296E-02 
550	 9.86384395582093E-02 
551	 9.96245603239676E-02 
552	 0.100630866382859 
553	 0.101595370241004 
554	 0.102531368175451 
555	 0.10352848051576 
556	 0.10447302191198 
557	 0.105404789637378 
558	 0.106364628916533 
559	 0.107315384085848 
560	 0.108192177596572 
561	 0.109010336911309 
562	 0.109839187623887 
563	 0.110661954881269 
564	 0.111487834674589 
565	 0.112290255620675 
566	 0.112963830554998 
567	 0.113689460965366 
568	 0.114409810109072 
569	 0.115027876715306 
570	 0.115770696943552 
571	 0.116476579465156 
572	 0.117081531267055 
573	 0.117652229595418 
574	 0.118221371921844 
575	 0.118706111424648 
576	 0.119086815784365 
577	 0.119669155564514 
578	 0.120056757230772 
579	 0.120313624671126 
580	 0.120754354694083 
581	 0.121112827898999 
582	 0.121339972049511 
583	 0.121490817528106 
584	 0.121767229145115 
585	 0.121904763027933 
586	 0.121938300353407 
587	 0.121979102653267 
588	 0.121893732529579 
589	 0.121885075533432 
590	 0.121994704411618 
591	 0.122070197352017 
592	 0.121956591702502 
593	 0.121759174644126 
594	 0.121591304482817 
595	 0.121413245703834 
596	 0.121063771145227 
597	 0.120592717893886 
598	 0.120168049126799 
599	 0.119748960046822 
600	 0.11933199846939 
601	 0.118967212017317 
602	 0.118788610256615 
603	 0.118748196478548 
604	 0.118740808381826 
605	 0.118693699016577 
606	 0.118810202028103 
607	 0.118921305166012 
608	 0.119003292330751 
609	 0.11919089589493 
610	 0.119281125046585 
611	 0.119361640530487 
612	 0.119505141568765 
613	 0.119546326206829 
614	 0.119621533106689 
615	 0.11974027410131 
616	 0.119831388674696 
617	 0.119805283120585 
618	 0.119842540591658 
619	 0.119974695398147 
620	 0.119943089254132 
621	 0.120008016464847 
622	 0.12013456856049 
623	 0.120212509782237 
624	 0.120266055592941 
625	 0.120312102346418 
626	 0.120334247062908 
627	 0.120295480086671 
628	 0.120438045323837 
629	 0.120529441233905 
630	 0.120425301343619 
631	 0.120442355011489 
632	 0.12053609964737 
633	 0.120617137086627 
634	 0.120602563960753 
635	 0.120707110377307 
636	 0.120803640161804 
637	 0.120828710422995 
638	 0.120856433706726 
639	 0.120862755101665 
640	 0.120887026992682 
641	 0.120942473826459 
642	 0.12085757233289 
643	 0.120884970219074 
644	 0.120976609442062 
645	 0.120853995232919 
646	 0.120778435583164 
647	 0.120795671197119 
648	 0.120856443580994 
649	 0.12079426917686 
650	 0.120644354967927 
651	 0.120520778210198 
652	 0.120499442328275 
653	 0.12016197134007 
654	 0.119754608161507 
655	 0.119386904531617 
656	 0.118969653745431 
657	 0.11865422031348 
658	 0.11834292809841 
659	 0.117970363590886 
660	 0.117760344547651 
661	 0.117578029177261 
662	 0.117398747270665 
663	 0.117265460092774 
664	 0.11713179467511 
665	 0.117036136788245 
666	 0.116977906440137 
667	 0.116867515926717 
668	 0.116821342070568 
669	 0.116781558906631 
670	 0.116687128861606 
671	 0.116756649653614 
672	 0.116865110795488 
673	 0.116921804572919 
674	 0.116896946253918 
675	 0.116992075286574 
676	 0.117140241185812 
677	 0.117251665072171 
678	 0.117306967902587 
679	 0.117426928784592 
680	 0.117614575392348 
681	 0.117810044132192 
682	 0.117955921011452 
683	 0.118122986743427 
684	 0.118271894745477 
685	 0.118201799881821 
686	 0.118326711245593 
687	 0.118482533259219 
688	 0.118425204329369 
689	 0.118377329938715 
690	 0.11833790406806 
691	 0.118208972756965 
692	 0.117861064772534 
693	 0.117610326607291 
694	 0.117287780521967 
695	 0.116879327263442 
696	 0.116698388253954 
697	 0.11626317211397 
698	 0.115546611171243 
699	 0.114723199060712 
700	 0.114002834532871 
701	 0.113375269551358 
702	 0.112693461565775 
703	 0.111738165828123 
704	 0.110923361712765 
705	 0.110050611367641 
706	 0.109005083676115 
707	 0.108018393476101 
708	 0.106876722477572 
709	 0.105575557541385 
710	 0.104175408515206 
711	 0.102664937585304 
712	 0.100936115990969 
713	 9.90886582010598E-02 
714	 9.73861351991902E-02 
715	 9.55208269445486E-02 
716	 9.33853200309124E-02 
717	 9.10951003011904E-02 
718	 8.87904780839075E-02 
719	 8.66493549397315E-02 
720	 8.48726171214391E-02 
721	 8.31862364209104E-02 
722	 8.12013829237107E-02 
723	 7.88726490764702E-02 
724	 7.65223469199734E-02 
725	 7.42690308588396E-02 
726	 7.17619426136103E-02 
727	 6.90457203587726E-02 
728	 6.62495732408785E-02 
729	 6.33369525838609E-02 
730	 6.00976270631212E-02 
731	 5.70563361586603E-02 
732	 5.47266685454217E-02 
733	 5.24318674459495E-02 
734	 5.04351008485729E-02 
735	 4.88336141178736E-02 
736	 4.73875488276403E-02 
737	 4.63946724221331E-02 
738	 4.56596002214997E-02 
739	 4.50162998866264E-02 
740	 4.47304226036119E-02 
741	 0.044487909708635 
742	 4.42560758605295E-02 
743	 0.044144905554925 
744	 4.41065822464098E-02 
745	 0.044022397786636 
746	 4.38978435084747E-02 
747	 4.39096021374209E-02 
748	 4.39782619857537E-02 
749	 4.39828618293826E-02 
750	 4.38806297076205E-02 
751	 4.39186683794504E-02 
752	 4.39323800474433E-02 
753	 4.39313253203254E-02 
754	 4.39989123741011E-02 
755	 4.39718152278431E-02 
756	 4.39873222137259E-02 
757	 4.40946103330689E-02 
758	 4.41990487737962E-02 
759	 4.42985332642657E-02 
760	 4.43845100670733E-02 
761	 4.44349210754097E-02 
762	 4.44743961169273E-02 
763	 4.45897552436645E-02 
764	 4.47390746595152E-02 
765	 0.044885885079518 
766	 4.52259716528771E-02 
767	 4.55029381006333E-02 
768	 4.57020296789407E-02 
769	 0.046013593586968 
770	 4.62396283011271E-02 
771	 4.64547877934884E-02 
772	 4.67379555031139E-02 
773	 4.70146582432143E-02 
774	 0.047442882981761 
775	 4.78902207120556E-02 
776	 4.81669865622511E-02 
777	 4.85302959256127E-02 
778	 4.90107715701308E-02 
779	 4.95081269047952E-02 
780	 4.98346250567336E-02 
781	 5.03288843679344E-02 
782	 5.08550077686398E-02 
783	 0.0512948531051 
784	 5.17692466112131E-02 
785	 5.22753850273036E-02 
786	 5.28057105173494E-02 
787	 5.33545136695752E-02 
788	 5.39715882482272E-02 
789	 5.45574418318936E-02 
790	 5.51601595133414E-02 
791	 5.59142645264121E-02 
792	 5.64084738012354E-02 
793	 5.69084076782515E-02 
794	 5.75604141945852E-02 
795	 5.81493363839291E-02 
796	 5.87410776437034E-02 
797	 5.92386803400849E-02 
798	 5.96105154967311E-02 
799	 6.01214025678482E-02 
800	 6.05985586139551E-02 
801	 6.09762034997842E-02 
802	 6.12903962647923E-02 
803	 6.17674205590647E-02 
804	 6.20799719726634E-02 
805	 6.21549778362217E-02 
806	 6.22446679117067E-02 
807	 6.22603400599318E-02 
808	 0.062190331263046 
809	 6.20470805200945E-02 
810	 0.061882415753267 
811	 6.15375354938947E-02 
812	 6.10886334012716E-02 
813	 6.06689424530427E-02 
814	 6.00413242388865E-02 
815	 5.95672653081694E-02 
816	 0.059116358642769 
817	 5.82267497844617E-02 
818	 5.74379245019156E-02 
819	 0.056631579768126 
820	 0.055682243239962 
821	 5.45940704755194E-02 
822	 5.31759617996859E-02 
823	 5.14107131306041E-02 
824	 4.94537041026038E-02 
825	 4.74573836315152E-02 
826	 4.54017527815618E-02 
827	 4.30920876743411E-02 
828	 4.05196398590859E-02 
829	 3.82454661500507E-02 
830	 3.62799781395451E-02 
831	 3.45020691935577E-02 
832	 3.28265998194883E-02 
833	 0.031885674667639 
834	 3.09656753979923E-02 
835	 2.98957418470922E-02 
836	 2.94135025076809E-02 
837	 2.88358710751683E-02 
838	 2.82642073946531E-02 
839	 2.78362256000637E-02 
840	 2.72998996389003E-02 
841	 2.70959898921289E-02 
842	 2.69319707397466E-02 
843	 2.64121589712744E-02 
844	 2.60474823066936E-02 
845	 2.56180260237232E-02 
846	 2.51601383025345E-02 
847	 2.48697258692994E-02 
848	 2.45625071935338E-02 
849	 2.41918592475312E-02 
850	 0.023792756123086 
851	 2.34716145341262E-02 
852	 0.023158294779529 
853	 2.29550687751774E-02 
854	 2.28459469172497E-02 
855	 2.24914163917228E-02 
856	 0.022391366145564 
857	 2.22594462974427E-02 
858	 2.17989804263055E-02 
859	 2.14769745604136E-02 
860	 0.021229949064053 
861	 2.09341005038632E-02 
862	 2.05108821649525E-02 
863	 0.020363768704821 
864	 0.020354826158607 
865	 2.01388928104002E-02 
866	 1.93818563855716E-02 
867	 1.93509776378206E-02 
868	 0.01920853884506 
869	 0.018631749270835 
870	 1.83308797096369E-02 
871	 1.80442839168689E-02 
872	 0.017883990228791 
873	 1.77539099546047E-02 
874	 1.69175244879263E-02 
875	 1.66325143304358E-02 
876	 1.65261992179058E-02 
877	 1.60205785114828E-02 
878	 1.58126434684104E-02 
879	 1.54817757242893E-02 
880	 1.49595289329111E-02 
881	 1.43961787463146E-02 
882	 1.40346316714896E-02 
883	 1.38101712989619E-02 
884	 0.013527365667053 
885	 1.30212268388527E-02 
886	 1.31027691194216E-02 
887	 1.28688299765063E-02 
888	 1.22265108305071E-02 
889	 1.21377452427917E-02 
890	 1.19203881063123E-02 
891	 1.17800698958296E-02 
892	 1.17603464923765E-02 
893	 1.13373304897052E-02 
894	 1.13615054418307E-02 
895	 1.12336628411669E-02 
896	 1.04891507344659E-02 
897	 1.04370709817594E-02 
898	 1.03062851536257E-02 
899	 9.98517264807109E-03 
900	 9.6720431031127E-03 
901	 9.76039100644419E-03 
902	 9.31204317547898E-03 
903	 8.7021834540157E-03 
904	 8.60366748095677E-03 
905	 8.44742328266053E-03 
906	 8.05259198355454E-03 
907	 7.53837826004351E-03 
908	 7.28739334676994E-03 
909	 7.77564816368969E-03 
910	 7.63445219497775E-03 
911	 6.83358311120864E-03 
912	 6.56520283979469E-03 
913	 6.01221104349657E-03 
914	 5.55743709006492E-03 
915	 5.5178591125366E-03 
916	 5.85109363099689E-03 
917	 5.46696999431588E-03 
918	 4.72172813108537E-03 
919	 4.16603720941992E-03 
920	 4.2262769458372E-03 
921	 4.31187691405171E-03 
922	 3.78034533961537E-03 
923	 2.8364321739901E-03 
924	 3.4117188239456E-03 
925	 3.68685199806079E-03 
926	 3.63863461608336E-03 
927	 3.46186559040324E-03 
928	 2.06799566380672E-03 
929	 0.001758638737045 
930	 2.37573105611338E-03 
931	 2.47465083373801E-03 
932	 3.12120687408246E-03 
933	 8.33290826545867E-04 
934	-1.98314825134007E-03 
935	-7.15086105227094E-04 
936	 3.56869583632414E-03 
937	 3.27132269026065E-03 
938	 1.37856587167801E-03 
939	 2.25984333217377E-03 
940	 1.79494733450284E-03 
941	 1.72002212801829E-03 
942	 2.14752167631435E-03 
943	 2.23560485929778E-03 
944	 0.001225336725374 
945	-9.62387247380316E-04 
946	-2.31173422925481E-03 
947	-6.60744463640183E-04 
948	 8.05602175270764E-04 
949	 1.25086272810623E-03 
950	 1.10713008798468E-03 
951	 1.31595355416042E-03 
952	 1.07954349602204E-03 
953	 1.04696270143129E-03 
954	 1.21063830767558E-03 
955	 1.13956660841743E-03 
956	 9.50293797149822E-04 
957	 3.57393318760639E-03 
958	 6.33789893156316E-03 
959	 3.99377695110451E-03 
960	 1.2817659780672E-03 
961	 1.40162610641473E-03 
962	 2.58868801831023E-03 
963	 7.67931937461588E-04 
964	-1.7816004969461E-04 
965	 1.10460937436768E-03 
966	 3.00195781005635E-03 
967	 2.5993753100003E-03 
968	 2.41645730696039E-03 
969	 1.04444233914341E-03 
970	 2.85021742469217E-04 
971	 3.69254508175209E-03 
972	 3.52628919043804E-03 
973	 1.98035558910784E-03 
974	 9.45905873956338E-04 
975	 6.9817141581661E-04 
976	 4.67036072134399E-04 
977	 1.34174966482943E-03 
978	 2.28414190682311E-03 
979	 9.58646250986463E-04 
980	 3.16799169811798E-04 
981	 6.8265091754414E-04 
982	 1.52216240099358E-03 
983	 1.84189575363679E-03 
984	 8.57154250749135E-04 
985	 2.60453199556055E-04 
986	 6.67637063238947E-04 
987	 1.3887390111383E-03 
988	 8.22493388559125E-04 
989	 9.2886267208903E-04 
990	 1.61846361674309E-03 
991	 1.29227706558934E-03 
992	 1.10604243751278E-03 
993	 1.42069317784294E-03 
994	 1.63751176939454E-03 
995	 9.32814336867255E-04 
996	 1.03949600186986E-03 
997	 9.74793757418392E-04 
998	 6.91770969077176E-04 
999	 7.8521767246252E-04 
1000	 1.16701790724032E-03 
1001	 1.49708457897583E-03 
1002	 8.11784825544818E-04 
1003	 6.20385159337452E-04 
1004	 7.00541378660634E-04 
1005	 6.68779600793372E-04 
1006	 7.8142756980801E-04 
1007	 8.26412285611962E-04 
1008	 9.04066900217466E-04 
1009	 7.47623396357991E-04 
1010	 6.05234957146737E-04 
1011	 7.01616750455859E-04 
1012	 5.39395628456935E-04 
1013	 5.56343108864459E-04 
1014	 5.61498815689669E-04 
1015	 6.04576784752845E-04 
1016	 6.15482182979823E-04 
1017	 7.76765060241011E-04 
1018	 6.43162734587088E-04 
1019	 3.69315103040991E-04 
1020	 1.19045346174489E-04 
1021	-2.70192723578134E-04 
1022	-8.27185886289351E-04 
1023	-9.50846093728021E-04 
1024	-7.04621543181617E-04 
1025	-1.91445430603833E-04 
1026	 5.5718168013089E-04 
1027	 9.47667505047423E-04 
1028	 1.35217316980281E-03 
1029	 1.52922271811922E-03 
1030	 1.43934796015749E-03 
1031	 1.39013619548156E-03 
1032	 1.27159265129689E-03 
1033	 1.1359301153367E-03 
1034	 8.04123688892845E-04 
1035	 7.10753914004996E-04 
1036	 7.63974627245532E-04 
1037	 7.47424041147368E-04 
1038	 8.86621718227706E-04 
1039	 9.12193093168904E-04 
1040	 7.25831760601275E-04 
1041	 3.5042268383763E-04 
1042	 2.46361194443943E-04 
1043	 7.16548881267711E-05 
1044	 1.76406482689215E-04 
1045	 6.68776995280531E-04 
1046	 7.77799159892249E-04 
1047	 8.06833835784733E-04 
1048	 8.78973060741427E-04 
1049	 8.44522434019141E-04 
1050	 8.16615316471198E-04 
1051	 8.46423287662913E-04 
1052	 8.38755302691693E-04 
1053	 6.11520708335144E-04 
1054	 6.13730552550744E-04 
1055	 6.98627704933635E-04 
1056	 9.0914551728111E-04 
1057	 1.23375822611001E-03 
1058	 1.93777529610957E-03 
1059	 1.91440650555265E-03 
1060	 1.60586080681813E-03 
1061	 1.53838958553165E-03 
1062	 1.08006749663604E-03 
1063	 9.36610581105068E-04 
1064	 1.28032684512105E-03 
1065	 1.25815428977481E-03 
1066	 9.16310229229992E-04 
1067	 8.01789543462375E-04 
1068	 6.73653696826149E-04 
1069	 6.97893372717091E-04 
1070	 9.55437296036362E-04 
1071	 1.09933492955923E-03 
1072	 1.48102304487312E-03 
1073	 1.44447428774786E-03 
1074	 1.52392519268097E-03 
1075	 1.51599478411173E-03 
1076	 1.53060464919687E-03 
1077	 1.5788387681963E-03 
1078	 1.48042352155516E-03 
1079	 1.22181531184963E-03 
1080	 1.08754763155632E-03 
1081	 8.28533729015453E-04 
1082	 8.14564492833782E-04 
1083	 1.09076644293108E-03 
1084	 1.17553529245295E-03 
1085	 1.32293081660203E-03 
1086	 1.32924355300393E-03 
1087	 1.22021884993013E-03 
1088	 1.06191904460163E-03 
1089	 7.27601362283463E-04 
1090	 4.50594075498582E-04 
1091	 4.27001608140804E-04 
1092	 4.36111000071824E-04 
1093	 5.69236507923289E-04 
1094	 1.28698739999915E-03 
1095	 1.26419145357205E-03 
1096	 6.82404495386018E-04 
1097	 5.59218915704224E-04 
1098	 2.14032905413548E-04 
1099	 1.33519174660458E-04 
1100	 6.48941023186439E-04 
1101	 8.16925894813666E-04 
1102	 8.29726657147953E-04 
1103	 8.2109244571695E-04 
1104	 5.24887234729569E-04 
1105	 6.58568156448566E-04 
1106	 8.82147961816383E-04 
1107	 8.21162128702592E-04 
1108	 9.23506216950682E-04 
1109	 9.49470595897093E-04 
1110	 8.33076494678387E-04 
1111	 2.50976010252466E-04 
1112	 3.24770157481087E-04 
1113	 8.69931316060274E-04 
1114	 8.8326661638955E-04 
1115	 0.001142287176296 
1116	 1.04237700451364E-03 
1117	-2.16799294544913E-04 
1118	-4.96266345102198E-04 
1119	-2.42301759187075E-04 
1120	 1.80351672576452E-04 
1121	 2.60089188038286E-03 
1122	 2.67465761449426E-03 
1123	 1.07724634719771E-03 
1124	 1.43619648520802E-03 
1125	 5.72188600440925E-04 
1126	-1.42188055230078E-03 
1127	 4.25352338201711E-05 
1128	 0.001947246550888 
1129	 1.36893531787203E-03 
1130	-5.25700118547905E-04 
1131	 1.12209389573778E-04 
1132	 3.54929605275849E-04 
1133	-5.31715813569174E-05 
1134	 5.41179810193705E-04 
1135	 9.27570825357788E-04 
1136	 3.39984823798738E-04 
1137	 6.68875741773892E-04 
1138	 2.53494485650585E-03 
1139	 2.83170681432373E-03 
1140	 1.66537332562926E-03 
1141	 4.21338354602209E-04 
1142	-1.32016118444639E-03 
1143	-1.92602352993325E-03 
1144	-4.71076442636457E-04 
1145	 3.90206635168975E-04 
1146	-4.47766525111823E-05 
1147	 4.27761238513614E-04 
1148	 5.48343230310341E-04 
1149	-3.12217586477908E-04 
1150	 6.03487580473868E-05 
1151	 2.3723813013148E-03 
1152	 1.99384118105115E-03 
1153	 1.97237997176804E-04 
1154	 6.31893767364232E-05 
1155	-1.3673133931169E-04 
1156	-4.72413102437987E-04 
1157	-4.43720713989756E-05 
1158	 2.95357685205912E-04 
1159	 1.93285033760204E-04 
1160	 4.40812478887721E-04 
1161	 5.24068577920037E-04 
1162	 6.33519037334717E-04 
1163	 9.04088455729374E-04 
1164	 3.76032681643579E-04 
1165	 9.48174462257608E-05 
1166	 3.66482346450262E-04 
1167	 1.20788748751151E-04 
1168	 5.41682039483081E-05 
1169	 4.35304541393205E-04 
1170	 6.42613454014515E-04 
1171	 6.81380477347547E-04 
1172	 6.95374158120951E-04 
1173	 7.36347511132523E-04 
1174	 5.65449346412422E-04 
1175	 5.67741519536028E-04 
1176	 8.71866714745248E-04 
1177	 9.99081564208386E-04 
1178	 8.10962485541403E-04 
1179	 6.40019102329652E-04 
1180	 4.38335350251971E-04 
1181	 5.03472442308633E-04 
1182	 9.20676271134294E-04 
1183	 7.94090514972983E-04 
1184	 3.3259218798232E-04 
1185	 2.73638286010488E-04 
1186	 1.69528827856438E-04 
1187	 1.26939227157662E-04 
1188	 5.44511461826393E-04 
1189	 6.35586453068097E-04 
1190	 2.44956514271242E-04 
1191	 2.15729888258597E-04 
1192	 2.70130889308002E-04 
1193	 3.56736015534999E-04 
1194	 3.06046444390086E-04 
1195	 5.09401933430396E-04 
1196	 5.84255590197523E-04 
1197	 4.26657246696083E-04 
1198	 5.22823848116468E-04 
1199	 6.4359184841093E-04 
1200	 5.4993358082429E-04 
1201	 5.96634182255283E-04 
1202	 5.62010131527699E-04 
1203	 3.11863029158825E-04 
1204	 2.1722088138951E-04 
1205	 2.63238821003319E-04 
1206	 3.77060201766235E-04 
1207	 5.43586542242051E-04 
1208	 6.54808857873891E-04 
1209	 6.69343120603994E-04 
1210	 6.10947790036423E-04 
1211	 5.91330146196485E-04 
1212	 6.81113221655522E-04 
1213	 5.53450267262266E-04 
1214	 4.60216247656647E-04 
1215	 1.98868499551347E-04 
1216	 2.69825554872202E-04 
1217	 3.62408608432468E-04 
1218	 4.01548112695359E-04 
1219	 5.82726355387762E-04 
1220	 5.26929229781344E-04 
1221	 4.35082085549308E-04 
1222	 6.39904164106343E-04 
1223	 6.74257117444428E-04 
1224	 5.43283100408063E-04 
1225	 5.97976714837993E-04 
1226	 7.27365788160711E-04 
1227	 6.74914222484969E-04 
1228	 5.39803722964226E-04 
1229	 5.42311943721065E-04 
1230	 5.30169666611949E-04 
1231	 3.86974359978374E-04 
1232	 3.59538028774249E-04 
1233	 5.6743182231061E-04 
1234	 5.62064269195171E-04 
1235	 4.71701319816817E-04 
1236	 5.04040003112728E-04 
1237	 5.45924842166738E-04 
1238	 4.21133807307192E-04 
1239	 2.48308557227122E-04 
1240	 2.67464474124779E-04 
1241	 5.43037784096612E-04 
1242	 6.70757432708605E-04 
1243	 3.50594087381636E-04 
1244	 2.85459786295798E-04 
1245	 5.07034392095258E-04 
1246	 4.9161553801725E-04 
1247	 4.52034866246974E-04 
1248	 5.62188641706977E-04 
1249	 6.86464272155345E-04 
1250	 7.07552069579346E-04 
1251	 7.67520515431211E-04 
1252	 8.38209593047424E-04 
1253	 5.23871308073062E-04 
1254	 2.7196826425031E-04 
1255	 5.23911957478499E-04 
1256	 5.15035298645726E-04 
1257	 4.25678781441799E-04 
1258	 4.28524677250756E-04 
1259	 4.48066700664869E-04 
1260	 4.08646953742668E-04 
1261	 4.2818800500277E-04 
1262	 5.3919758034165E-04 
1263	 6.73574601929452E-04 
1264	 6.2680071868504E-04 
1265	 6.4390926058231E-04 
1266	 7.09828420124784E-04 
1267	 5.02339145175061E-04 
1268	 2.48136812846203E-04 
1269	 4.67128479046658E-04 
1270	 7.23809474979546E-04 
1271	 5.72335236092607E-04 
1272	 4.52308989266135E-04 
1273	 5.39064583698666E-04 
1274	 5.50396526207078E-04 
1275	 5.38531339262833E-04 
1276	 6.33209911611727E-04 
1277	 5.81420038691118E-04 
1278	 4.7600353124329E-04 
1279	 6.20993540540987E-04 
1280	 6.96232109067853E-04 
1281	 6.78596881824264E-04 
1282	 2.70804339099813E-04 
1283	 2.3518762582814E-04 
1284	 5.40894072678022E-04 
1285	 5.25708655301507E-04 
1286	 3.36038210366286E-04 
1287	 3.81199359818614E-04 
1288	 3.89909888816247E-04 
1289	 3.80131670965521E-04 
1290	 5.5370817365418E-04 
1291	 7.02258874818234E-04 
1292	 6.5537749677256E-04 
1293	 5.65531862263583E-04 
1294	 4.17718342570606E-04 
1295	 5.07867707265778E-04 
1296	 5.89462643931481E-04 
1297	 3.14080164795132E-04 
1298	 3.17047814915827E-04 
1299	 5.1911170406216E-04 
1300	 2.90794152266582E-04 
1301	 2.35679479532043E-04 
1302	 3.69752629060809E-04 
1303	 3.05831155074197E-05 
1304	-7.98413674573864E-05 
1305	 3.09357202833783E-04 
1306	 3.80146858698937E-04 
1307	 4.61366402459831E-04 
1308	 4.85126499718751E-04 
1309	 2.68631606199519E-04 
1310	 1.32326401603125E-04 
1311	 1.78942059703296E-04 
1312	 2.14519602315747E-04 
1313	 5.93458719678078E-05 
1314	 7.4319001392871E-05 
1315	 1.90530009613394E-04 
1316	 3.31697191843055E-04 
1317	 7.64923425682496E-04 
1318	 8.69286570283845E-04 
1319	 7.28232257384449E-04 
1320	 8.21993422623997E-04 
1321	 8.92313497384094E-04 
1322	 8.58983921739956E-04 
1323	 5.39620773196892E-04 
1324	 5.01130011667975E-04 
1325	 7.94434956047275E-04 
1326	 3.52918800157896E-04 
1327	-1.6203639986885E-04 
1328	 2.55053362313246E-04 
1329	 4.06399295834803E-04 
1330	-1.60790987266277E-04 
1331	-3.88339383089694E-04 
1332	-4.79467154942887E-04 
1333	-6.13388355526555E-04 
1334	-3.00658468230713E-04 
1335	-6.32455970237556E-04 
1336	-8.99906902415607E-04 
1337	-4.6668591607968E-04 
1338	-6.79528236521192E-05 
1339	-2.86037534881166E-04 
1340	 2.31367276004265E-04 
1341	 8.00019189372204E-04 
1342	 3.37086118546337E-04 
1343	-3.45392010849009E-04 
1344	-6.68775992126979E-04 
1345	-2.10904331352715E-04 
1346	 9.01277693183429E-05 
1347	-1.25870826260014E-03 
1348	-2.74122955722501E-03 
1349	-2.28376798610931E-03 
1350	-3.19348172163553E-03 
1351	-6.68299400038577E-03 
1352	-6.83422208962172E-03 
1353	-4.66081832639585E-03 
1354	-8.6655299251352E-03 
1355	-2.37861939550769E-02 
1356	-1.16751727204968E-02 
1357	 2.16559743845731E-02 
1358	 4.23353620753896E-02 
1359	 9.87335255926881E-03 
1360	-0.100160675169005 
1361	-0.13678516309217 
1362	-7.05870381336873E-02 
1363	-6.83324809843322E-02 
1364	-0.197820971291341 
1365	-0.167046501656198 
1366	 4.80688599329994E-02 
1367	 5.17041147388917E-02 
1368	-5.05013570277146E-02 
1369	-0.122696872499725 
1370	-8.33485337703686E-02 
1371	-0.267308629837451 
1372	-0.451300723198403 
1373	-0.646928452746313 
1374	-0.352171626944089 
1375	-0.185245012759646 
1376	-0.252801790969894 
1377	-2.42748657449916E-02 
1378	 0.223032109498029 
1379	 7.29690026588454E-02 
1380	-3.18347861959651E-02 
1381	 0.20989761645172 
1382	 0.355420796759939 
1383	 0.26864582130036 
1384	 8.13964062176808E-02 
1385	-0.115143314574264 
1386	-3.50536728449565E-02 
1387	 8.21261793015548E-02 
1388	 2.95290000247572E-02 
1389	 0.308527118880661 
1390	 0.371657696828157 
1391	-5.49778306587592E-02 
1392	-0.396992124789307 
1393	-5.38769853981692E-02 
1394	 7.73559086252547E-02 
1395	-0.193049980853426 
1396	-0.168274577375398 
1397	 5.99146780928412E-02 
1398	 4.40679625456407E-02 
1399	-0.127750813372506 
1400	-0.142196542926706 
1401	-0.107753502482253 
1402	-0.22474991009787 
1403	-0.577067312483397 
1404	-0.728585988829184 
1405	-0.468347911347482 
1406	-0.197055906242979 
1407	-0.174753078577819 
1408	-7.4096675307463E-03 
1409	 2.83746304670896E-02 
1410	-0.121893816310724 
1411	-0.141193455813098 
1412	-5.15326423148446E-02 
1413	-2.42403448168095E-02 
1414	-5.04409911078381E-02 
1415	-4.39022829402302E-02 
1416	-1.47414521056797E-02 
1417	-7.60118215779771E-03 
1418	-1.18095034797235E-02 
1419	-5.62565681975593E-03 
1420	 9.65901657338461E-03 
1421	 5.2525316641265E-03 
1422	-2.29929997357564E-03 
1423	-8.05982634236617E-03 
1424	-2.88759168117459E-02 
1425	-2.78943609027891E-02 
1426	-1.29871554349037E-02 
1427	-9.32471208809959E-03 
1428	-1.37202914263936E-03 
1429	 9.94720400079472E-04 
1430	-6.62295736103247E-03 
1431	-8.62940325490726E-03 
1432	-6.9694515674942E-03 
1433	-7.3716959161954E-03 
1434	-9.77283454583759E-03 
1435	-7.83363328813123E-03 
1436	-4.38567000385975E-03 
1437	-8.18682683092813E-04 
1438	-3.51041370346966E-04 
1439	-1.13256224444749E-03 
1440	-1.82220809125258E-03 
1441	-4.21772250341078E-03 
1442	-2.71543783412212E-03 
1443	-2.74051882686174E-04 
1444	-1.08563706599209E-03 
1445	-2.02476886450651E-03 
1446	-2.66964318362629E-03 
1447	-1.92661481342317E-03 
1448	-2.65399037274267E-03 
1449	-4.58222728077614E-03 
1450	-2.77080815217151E-03 
1451	-7.14147162659864E-04 
1452	-4.32387211520291E-04 
1453	 4.78575998818561E-04 
1454	 5.81061771772639E-04 
1455	-8.99091007694777E-04 
1456	-1.30449430446813E-03 
1457	-1.36811220167854E-03 
1458	-9.07190685483817E-04 
1459	 3.36325455543552E-04 
1460	-1.83031351776541E-04 
1461	-1.45148340511628E-03 
1462	-1.27461338537289E-03 
1463	-1.54201513106714E-03 
1464	-2.26606249737441E-03 
1465	-1.76448185497992E-03 
1466	-1.47787019244324E-03 
1467	-2.89156749695522E-03 
1468	-3.43691061123647E-03 
1469	-2.27149659788151E-03 
1470	-1.56754680524736E-03 
1471	-1.11745258177653E-03 
1472	-1.60809972476488E-03 
1473	-2.95965829811252E-03 
1474	-2.74592364388248E-03 
1475	-2.34005536996641E-03 
1476	-2.20303300438222E-03 
1477	-1.07289641728234E-03 
1478	-3.76262579500863E-04 
1479	-3.40572508512096E-04 
1480	-7.034730535134E-04 
1481	-1.36879594835677E-03 
1482	-7.86174017313782E-04 
1483	 5.23345821790358E-04 
1484	 2.01545476949533E-04 
1485	-3.87337294270747E-04 
1486	-3.52590105362156E-04 
1487	-1.32821628941121E-03 
1488	-1.43574651579716E-03 
1489	-1.92575032999704E-04 
1490	 1.2632617534023E-04 
1491	-2.78922025563614E-04 
1492	-8.72780779678433E-05 
1493	 5.54799399310383E-04 
1494	 6.1226096959507E-04 
1495	 5.53285298582732E-04 
1496	 5.40324553594075E-04 
1497	 2.56620903413105E-05 
1498	-1.21759735311991E-04 
1499	 2.67544681458593E-04 
1500	 3.69111317957281E-04 
1501	 2.60640917549433E-04 
1502	 2.64281574072462E-04 
1503	 1.94160414589412E-04 
1504	 1.9059976287209E-04 
1505	 2.0741511838917E-04 
1506	 5.50272648703443E-04 
1507	 3.21405865288458E-04 
1508	-9.64999474976502E-05 
1509	-2.18840095223223E-05 
1510	 1.77676240520395E-04 
1511	 3.709497810579E-04 
1512	 4.25828084601695E-04 
1513	 6.19629748515303E-05 
1514	-3.1364381086856E-04 
1515	-2.14398925918337E-04 
1516	 2.33714873623055E-05 
1517	-5.61048916387667E-05 
1518	-2.27227877733702E-04 
1519	 4.92040687716064E-05 
1520	 4.21753510672942E-04 
1521	 2.43262427377664E-04 
1522	 1.13289738817591E-04 
1523	 1.12885151664336E-04 
1524	-5.60400462332532E-05 
1525	 1.20723707060214E-04 
1526	 4.18129169609243E-04 
1527	 3.85753264582764E-04 
1528	 1.9823611176021E-04 
1529	 8.33672242222693E-05 
1530	 1.33560592182526E-04 
1531	 3.54412302574976E-04 
1532	 4.58653987929858E-04 
1533	 2.91284650757486E-04 
1534	 2.9089822057582E-04 
1535	 3.72314702873022E-04 
1536	 2.37294856592497E-04 
1537	 1.80741657068199E-04 
1538	 3.30020876926189E-04 
1539	 5.26688671691515E-04 
1540	 4.34179013068376E-04 
1541	 2.48065527242164E-04 
1542	 3.21150910972616E-04 
1543	 2.56813564533873E-04 
1544	 1.44864658010359E-04 
1545	 2.17691061344641E-04 
1546	 1.46580500205735E-04 
1547	-4.75426139419565E-05 
1548	-2.97815634457883E-05 
1549	 1.74773615129509E-04 
1550	 2.16264033253797E-04 
1551	 1.26252951219687E-04 
1552	 1.03557260905054E-04 
1553	 1.46259555503926E-04 
1554	 2.85792588534983E-04 
1555	 4.0906535340754E-04 
1556	 3.80964143207042E-04 
1557	 3.34107353328426E-04 
1558	 3.87427710867966E-04 
1559	 2.65932891602339E-04 
1560	 1.05212532658922E-04 
1561	 2.65699093618332E-04 
1562	 2.24291099297089E-04 
1563	 1.44714655068529E-04 
1564	 4.0460670535153E-04 
1565	 1.53610449046688E-04 
1566	-2.36407995964939E-04 
1567	 1.16957609877185E-05 
1568	 1.64570849841986E-04 
1569	 1.50147295670923E-04 
1570	 3.21513852301934E-04 
1571	 2.65594574376738E-04 
1572	 8.2004014929938E-05 
1573	 1.3370215441772E-04 
1574	 1.90876922718572E-04 
1575	 1.33086532551088E-04 
1576	 9.56309054597768E-05 
1577	 5.11105878992202E-05 
1578	-5.10985717145306E-05 
1579	-3.19099363358451E-05 
1580	 2.47510296497984E-05 
1581	 5.14945920116579E-05 
1582	 2.677456650778E-04 
1583	 2.89455084473507E-04 
1584	 1.18167389750481E-04 
1585	 2.08010582920576E-04 
1586	 3.33927293565698E-04 
1587	 4.99188129466473E-04 
1588	 6.67211133213738E-04 
1589	 4.66841786923833E-04 
1590	 1.50949410933434E-04 
1591	 1.7699530881228E-04 
1592	 3.73048974472992E-04 
1593	 2.72107875402049E-04 
1594	 1.98824294900961E-04 
1595	 2.60846195809608E-04 
1596	 7.65426811565339E-05 
1597	-3.39788602684129E-06 
1598	 2.34506582475669E-04 
1599	 4.12615391577576E-04 
1600	 2.93795129610965E-04 
1601	 2.34140275719517E-04 
1602	 2.03365140319785E-04 
1603	-1.05363764453032E-05 
1604	 3.65089368215592E-05 
1605	 3.41046966934562E-04 
1606	 3.00247471999395E-04 
1607	-1.69868039353391E-04 
1608	-1.434009106119E-04 
1609	 3.30766773489991E-04 
1610	 4.78653170036015E-04 
1611	 6.50179950049211E-04 
1612	 6.79159407165245E-04 
1613	 2.55036767904814E-04 
1614	 8.56083104355796E-05 
1615	 3.90333642627629E-04 
1616	 4.20590931237967E-04 
1617	 2.23600368894928E-05 
1618	-9.00456499395656E-05 
1619	 4.08417790754667E-05 
1620	 2.62837755905652E-05 
1621	-3.55858711559468E-05 
1622	-1.70423224521683E-05 
1623	-2.4361866582101E-06 
1624	-1.03830210871347E-04 
1625	 4.59575305618177E-05 
1626	 3.93802422207003E-04 
1627	 4.59773599065668E-04 
1628	 3.73825880686586E-04 
1629	 1.86001396721238E-04 
1630	 1.06432403956324E-04 
1631	 2.38313923113414E-04 
1632	 1.9606381422137E-04 
1633	 1.84575996202792E-04 
1634	 1.15675816516827E-04 
1635	-4.84597442528549E-05 
1636	 7.32960950372181E-05 
1637	 4.62869903435663E-04 
1638	 8.96072171983142E-04 
1639	 8.50839851114077E-04 
1640	 3.73241131500313E-04 
1641	 1.38995303508873E-04 
1642	 4.26549938188459E-04 
1643	 4.78107465757265E-04 
1644	 1.25201556304346E-04 
1645	 2.89240645281497E-04 
1646	 3.38551955582658E-04 
1647	-2.18540048550119E-04 
1648	-1.71794084597404E-04 
1649	 2.04307836481018E-04 
1650	-3.46850909883196E-05 
1651	-1.82851036275135E-04 
1652	 1.89655398725832E-04 
1653	 1.77603118309216E-04 
1654	-5.02560900398542E-05 
1655	-1.79003561166447E-04 
1656	 2.71469651186086E-05 
1657	 2.14629240189946E-04 
1658	 5.5901087800964E-05 
1659	 1.25762698869893E-05 
1660	 7.89080947202671E-05 
1661	-8.89547486185975E-05 
1662	-2.86867215121377E-04 
1663	-4.96112797973798E-04 
1664	-2.6291428537122E-04 
1665	 2.05792042176205E-04 
1666	 9.08136039281589E-05 
1667	 9.70684904548425E-05 
1668	 1.93753550086727E-04 
1669	-5.59899097655502E-05 
1670	-1.21310517079653E-04 
1671	 1.14393346882407E-04 
1672	 8.33869245842203E-05 
1673	-1.49016957941304E-04 
1674	-4.80684344435465E-05 
1675	 3.36245924404781E-04 
1676	 4.23165100584652E-04 
1677	 3.81088801406689E-04 
1678	 4.6057807833217E-04 
1679	 1.73361439088244E-04 
1680	-1.21350974284364E-04 
1681	 3.37132533303703E-05 
1682	 1.18924558062414E-04 
1683	 1.36310146482466E-04 
1684	 2.92422549618843E-04 
1685	 1.36827966787987E-04 
1686	-1.01893131105072E-04 
1687	 3.28833635628288E-05 
1688	 3.09636461090986E-04 
1689	 4.82800906799285E-04 
1690	 1.91114248585106E-04 
1691	-6.48567651533166E-05 
1692	 2.98134780973523E-04 
1693	 5.51677590629554E-04 
1694	 6.5809511722802E-04 
1695	 6.95099062177089E-04 
1696	 3.32799308948483E-04 
1697	 1.39775856870302E-04 
1698	 2.75010231954954E-04 
1699	 1.76231360317579E-04 
1700	 3.4055097237822E-05 
1701	 3.69642525598181E-05 
1702	-5.17145904273113E-05 
1703	 3.03159254641827E-05 
1704	 3.29032374217502E-04 
1705	 1.21707531893467E-04 
1706	-3.90032911936016E-04 
1707	-2.10875169709289E-04 
1708	 1.43936539009342E-04 
1709	 2.43846460320884E-04 
1710	 3.52711341507158E-04 
1711	 2.22857205393833E-04 
1712	 2.18114042995961E-04 
1713	 8.19075991679312E-04 
1714	 5.90725602670926E-04 
1715	 1.99836962786486E-04 
1716	 1.31551610379311E-04 
1717	 9.89985900741435E-05 
1718	 5.68794060548184E-04 
1719	 6.82272759183392E-04 
1720	 1.66667588025572E-04 
1721	-1.05744567932677E-04 
1722	-7.41755171190625E-06 
1723	 1.35177723699957E-04 
1724	-1.5869686188167E-04 
1725	-5.05976403022732E-04 
1726	-1.29268287601066E-04 
1727	 4.22526570259023E-04 
1728	 8.50858653727778E-04 
1729	 9.96055674644969E-04 
1730	 5.482211900389E-04 
1731	 5.74558199699864E-05 
1732	 1.30241728033412E-04 
1733	 4.11859473856898E-04 
1734	 1.31995250311074E-04 
1735	-1.96796831210714E-04 
1736	-3.2655250086411E-04 
1737	-4.61114206552176E-04 
1738	-1.80056218593933E-04 
1739	 2.7674922274706E-04 
1740	 4.71137896239287E-04 
1741	 3.78313140930358E-04 
1742	 5.70353228260486E-05 
1743	-4.16797022795464E-04 
1744	-7.98415627282621E-04 
1745	-7.3699240070995E-04 
1746	-3.11307130399647E-04 
1747	-3.35319075778525E-04 
1748	-9.85312348134645E-04 
1749	-1.0001445634333E-03 
1750	-4.97983602334744E-04 
1751	-2.18029503404302E-04 
1752	 5.99576077437129E-04 
1753	 6.92373365270395E-04 
1754	-4.4915658974557E-04 
1755	-6.71785297392757E-04 
1756	-2.53894501100624E-04 
1757	-2.3269823745504E-04 
1758	-1.21541491489799E-04 
1759	 1.4067748223948E-04 
1760	-3.48686976798365E-04 
1761	-2.69370854592936E-04 
1762	 2.50073440790048E-04 
1763	-3.56602822061145E-04 
1764	-6.01772674320789E-04 
1765	-2.8909239177953E-04 
1766	-1.07589248191788E-04 
1767	 7.42361337906861E-05 
1768	-2.19075489765963E-04 
1769	-6.98657837811668E-04 
1770	-8.99938160965775E-04 
1771	-5.07581442198989E-04 
1772	 4.29446490861072E-04 
1773	 6.73658685891888E-04 
1774	-4.91264563011691E-04 
1775	-1.92527047395699E-04 
1776	-5.65728328378558E-04 
1777	-1.30161529130447E-03 
1778	-6.80641126309315E-04 
1779	-3.8297501791835E-05 
1780	 2.69506437806094E-05 
1781	 1.84070356715945E-03 
1782	 1.54019126206507E-03 
1783	-1.6574101468823E-03 
1784	-1.95860139172563E-03 
1785	-1.29798115806977E-03 
1786	-1.63167604868774E-03 
1787	-1.37380864860899E-03 
1788	-8.34631724028721E-04 
1789	-8.87364363880489E-04 
1790	 1.17348188449866E-03 
1791	 3.41176679165657E-03 
1792	 9.39694382104151E-04 
1793	-7.26752269780526E-04 
1794	 3.38151044908583E-04 
1795	-2.03825753233533E-03 
1796	-1.00010946382628E-03 
1797	 5.6799810891733E-04 
1798	-5.14220483820553E-03 
1799	-6.02967347285574E-03 
1800	-9.4292890867432E-03 
1801	-1.17064169572051E-02 
1802	-8.90244434211587E-03 
1803	-9.60073751990487E-03 
1804	-8.27671287789259E-03 
1805	-7.08661969726057E-03 
1806	-1.78562594154811E-02 
1807	-2.38549463712018E-02 
1808	-2.10497943045562E-02 
1809	-2.53698912812332E-02 
1810	-2.35781769880704E-02 
1811	-2.35344436805078E-02 
1812	-3.17053722391799E-02 
1813	-6.21060499872483E-02 
1814	-0.13912896331821 
1815	-0.130744984575261 
1816	-6.22862392407995E-02 
1817	-3.53723725703846E-02 
1818	 2.45369543949675E-02 
1819	-0.181904717250728 
1820	-0.40648592310711 
1821	-0.324047413082408 
1822	-0.297611959662183 
1823	-1.36484261117076E-02 
1824	 7.78693907968846E-02 
1825	 2.44295622473687E-03 
1826	-2.39982127573392E-03 
1827	-0.227550310026614 
1828	-0.275512899976522 
1829	-5.93596891110748E-02 
1830	-0.141265484085925 
1831	-3.56176485907386 
1832	 2.64721695951573 
1833	 0.501095172673185 
1834	 0.503119424747228 
1835	 0.543419012207219 
1836	 0.593150150876745 
1837	 1.1436711044046 
1838	 2.24697542969429 
1839	-5.05996007028102 
1840	-1.7419441167711 
1841	-0.542346107931299 
1842	 0.145418186335221 
1843	 0.392029758892779 
1844	 0.991356065687336 
1845	 1.23366785726345 
1846	 0.776319877998449 
1847	 0.273851542282101 
1848	-0.524818072151125 
1849	-0.470259161218818 
1850	-0.373440863425131 
1851	-0.504756282041455 
1852	-0.240142863339126 
1853	-2.28868061298482 
1854	-1.03256373562271 
1855	-1.41140767205821 
1856	-1.32190085475287 
1857	-1.36604361218476 
1858	-1.16296840743291 
1859	-4.94288081016195 
1860	-18.1512144597664 
1861	 0.473822215261252 
1862	 0.14577574234158 
1863	-0.326441898680273 
1864	-75.0562098378939 
1865	-6.69332752853092 
1866	-1.19242974117578 
1867	-0.792558257104861 
1868	-0.080752072537731 
1869	 0.217053925836625 
1870	 1.12992442181179 
1871	 1.60654241873983 
1872	 0.353179165228453 
1873	 0.472036567499784 
1874	 0.521217749751885 
1875	 0.739748455826136 
1876	 0.634059576166762 
1877	 0.678796951300246 
1878	 0.552858798738228 
1879	-0.121886647911324 
1880	-0.271681250912658 
1881	 3.54176995672887E-03 
1882	 0.166464586493437 
1883	-0.429845664298052 
1884	-1.05138489363026 
1885	 2.9697016935609 
1886	-25.9581477834589 
1887	 3.05879823958279 
1888	 0.365802310510812 
1889	 5.96646444932588E-02 
1890	-0.251506158213056 
1891	-0.311273015850944 
1892	-0.377088439684955 
1893	 2.155732520897 
1894	-0.890735856150865 
1895	 3.85155450293584 
1896	 1.2466107768824 
1897	 0.314878192555068 
1898	-6.93093158347155E-02 
1899	 7.46451482345431E-03 
1900	-5.28164029915548E-02 
1901	 5.58396488220799E-02 
1902	 0.230358654802001 
1903	 0.794110146897367 
1904	 18.6148528293722 
1905	-0.806235510728891 
1906	-1.28702828203461 
1907	-1.09586787519056 
1908	-3.29513173881793 
1909	 2.95464192398384 
1910	 25.6993619924545 
1911	-2.01423588664155 
1912	-3.05381447499019 
1913	-5.00304317212333 
1914	 2.00924570615525 
1915	 4.42026060800877 
1916	-0.371586453125994 
1917	 5.95826943247965E-03 
1918	 1.49013726603923 
1919	 7.55210388410784 
1920	 7.18713086030391 
1921	 0.325415127809175 
1922	 0.508196469573892 
1923	-10.3848229482207 
1924	-1.80118667714649 
1925	 0.578664930987542 
1926	 0.759973503925007 
1927	 0.88388440033303 
1928	 0.51164434317891 
1929	 0.188697882956653 
1930	-0.72108410092688 
1931	-0.975006695523732 
1932	-0.751446809080452 
1933	-0.176208791327286 
1934	 0.102943383425575 
1935	 0.246774835486051 
1936	 0.205440333646212 
1937	 0.14214927563264 
1938	 0.147247417135526 
1939	 0.118875091590811 
1940	 9.02305966304433E-02 
1941	 3.66129043572636E-02 
1942	 7.3901142704348E-03 
1943	-8.37653622037341E-03 
1944	 1.26408100815578E-02 
1945	 4.71248799334716E-03 
1946	-1.84947208235458E-02 
1947	-6.41680425946033E-03 
1948	-8.8494200610587E-04 
1949	 1.40572897672922E-02 
1950	 3.22064237251311E-02 
1951	 4.10906678519582E-02 
1952	 4.93296784625544E-02 
1953	 5.84685817061279E-02 
1954	 5.21911943511066E-02 
1955	 3.44274066237398E-02 
1956	 2.00140503265514E-02 
1957	 3.35945570250952E-03 
1958	-8.35603629477985E-03 
1959	-5.01684773699243E-03 
1960	 5.70241582292424E-04 
1961	-7.82188980028416E-05 
1962	-2.20803337900709E-03 
1963	-1.88071826768574E-03 
1964	-1.22349599252414E-03 
1965	 9.49853318463178E-05 
1966	 2.13967798701188E-04 
1967	 1.21659094479297E-03 
1968	 1.93046216500128E-04 
1969	-1.10879795790419E-04 
1970	 3.44091332250617E-04 
1971	 7.36565508565817E-04 
1972	 3.00745801756003E-03 
1973	 3.86871123121183E-03 
1974	 2.69682945081738E-03 
1975	 2.79306150951123E-03 
1976	 1.62954661445148E-03 
1977	 1.25452057785319E-03 
1978	 2.99763916018485E-03 
1979	 2.93464749428981E-03 
1980	 2.37153294911487E-03 
1981	 2.03886169425755E-03 
1982	 7.88003955597402E-04 
1983	-1.9630200402686E-03 
1984	-0.002937463316133 
1985	-2.6526431939775E-03 
1986	-1.76797300410786E-03 
1987	 4.51015854095276E-05 
1988	 1.39882406581534E-03 
1989	 1.4638818200841E-03 
1990	 5.46965053485428E-04 
1991	-1.32263580361534E-03 
1992	-2.72278850052846E-03 
1993	-2.63562457327817E-03 
1994	-2.90590865792201E-03 
1995	-2.43435383637332E-03 
1996	-2.21060427963021E-03 
1997	-1.57531929193253E-03 
1998	-1.15458379551186E-03 
1999	-1.42255003141658E-03 
2000	 1.45801529693184E-03 
2001	 4.56713638642965E-03 
2002	 4.85077920921427E-03 
2003	 7.11746185898959E-03 
2004	 5.23615865163219E-03 
2005	 1.09794815942396E-03 
2006	 2.49051599546492E-03 
2007	 1.48805864792382E-03 
2008	-1.08828200629307E-04 
2009	-3.37074165238965E-04 
2010	-9.24661474496803E-04 
2011	-1.57976490738921E-03 
2012	-2.00413629950666E-03 
2013	-6.01475799700655E-04 
2014	 9.31657293789525E-04 
2015	 3.05720946341584E-03 
2016	 4.30389337953437E-03 
2017	 3.80439118522935E-03 
2018	 2.47038188435167E-03 
2019	 7.93345074300862E-04 
2020	-1.30668472672554E-03 
2021	-1.87847657644811E-03 
2022	-1.61718663817648E-03 
2023	-9.1754154592042E-04 
2024	 7.89913355726304E-05 
2025	 2.4000932397386E-03 
2026	 2.8688449835302E-03 
2027	 3.15478695883585E-03 
2028	 2.56144109062252E-03 
2029	 1.81478088351863E-03 
2030	 2.92536631904272E-04 
2031	 1.03541000800147E-04 
2032	 9.59759765974079E-04 
2033	 1.19125363884352E-03 
2034	 1.84917443614777E-03 
2035	 1.82736429217526E-03 
2036	 8.86582126956273E-04 
2037	-6.10913930200804E-05 
2038	-4.50436822118917E-04 
2039	-7.83427471234446E-04 
2040	-7.59821424347775E-04 
2041	-1.02317118496058E-03 
2042	-1.40077361094844E-03 
2043	-1.6384607027115E-03 
2044	-2.10622570222214E-03 
2045	-1.74095561391193E-03 
2046	-1.24958950877362E-03 
2047	-1.10484354209638E-03 
2048	-5.18611550658396E-04 
2049	-7.09908482917222E-05 
2050	-2.26193447043149E-04 
2051	-1.47188885669059E-04 
2052	 5.42201161770028E-07 
2053	-4.7963130060191E-05 
2054	 2.74738419408741E-04 
2055	 1.24068270519375E-03 
2056	 1.28349142666647E-03 
2057	-1.02887754801324E-04 
2058	 6.29840366781257E-06 
2059	 1.40724354754669E-03 
2060	 9.03164995143267E-04 
2061	-4.28897486656616E-04 
2062	-3.62079700354215E-04 
2063	-6.02999937903608E-04 
2064	-1.61222870655488E-03 
2065	-3.50198762642887E-04 
2066	 1.50836592331527E-03 
2067	 6.3405131007362E-04 
2068	-7.58098231304941E-04 
2069	-9.11954055942411E-04 
2070	-1.29050153638624E-03 
2071	-1.26137356387952E-03 
2072	-8.19778103331657E-04 
2073	-5.78736810664978E-04 
2074	-1.11781984951399E-03 
2075	-7.09027625640127E-04 
2076	 1.26725544609266E-03 
2077	 1.29617718968546E-03 
2078	-1.73331018838048E-04 
2079	 2.42649058910473E-06 
2080	 1.64536679830242E-04 
2081	 1.91614053040334E-04 
2082	 1.3203116997129E-03 
2083	 2.25080831891882E-03 
2084	 1.93558457278301E-03 
2085	 1.1203652046973E-03 
2086	 6.43563471360157E-04 
2087	 6.38715689708162E-04 
2088	 6.38407863964117E-04 
2089	-2.0562000404669E-04 
2090	-8.76581066811396E-05 
2091	 4.72746905825004E-04 
2092	 3.89642505584826E-04 
2093	 4.0023112120126E-04 
2094	 4.35944774011157E-04 
2095	-3.63202424939444E-04 
2096	-6.98157369849099E-04 
2097	-5.08800519424827E-04 
2098	-3.06435185297663E-04 
2099	-1.96111810151762E-04 
2100	 2.99822694463876E-04 
2101	 1.37287903753596E-03 
2102	 1.01001260288415E-03 
2103	 7.89355236224934E-05 
2104	 1.94068659597311E-04 
2105	 7.68608008862807E-05 
2106	-3.70619817492629E-04 
2107	 5.03473657099458E-04 
2108	 7.11704076177232E-04 
2109	-2.94568299395444E-04 
2110	-2.78649182121817E-04 
2111	 3.64622152298165E-04 
2112	 1.17165367326253E-03 
2113	 1.01159021245684E-03 
2114	 4.9689393469854E-04 
2115	 5.37456330405453E-04 
2116	 5.13259462684797E-05 
2117	-6.57932567604824E-04 
2118	-6.84263841918015E-04 
2119	-3.82222472167992E-04 
2120	-4.09502673785554E-04 
2121	-1.17024913369635E-03 
2122	-4.54475938211486E-04 
2123	 2.85582971278148E-04 
2124	 5.69432148882266E-04 
2125	 1.84160273570813E-04 
2126	-2.59977544037562E-04 
2127	-2.56382183518214E-04 
2128	-1.57025850199142E-03 
2129	-2.57064312349896E-03 
2130	-0.00198843249976 
2131	-1.51218809726476E-03 
2132	-7.88954925119672E-04 
2133	 3.42005181747978E-04 
2134	 6.78650419940102E-04 
2135	-7.60519244165761E-05 
2136	 1.94407511188124E-04 
2137	 1.0097455960389E-03 
2138	 1.09912996328027E-03 
2139	 1.33489568896485E-03 
2140	 1.29724552913162E-03 
2141	 3.35594726770736E-04 
2142	-2.06733715463231E-04 
2143	-7.44678477152019E-04 
2144	-5.90542227709888E-04 
2145	-2.98077213827725E-04 
2146	 3.8406102644195E-04 
2147	 9.90401865841004E-04 
2148	 3.93689019328406E-04 
2149	 3.69233206377561E-04 
2150	 4.26507013587256E-04 
2151	-6.61737114340437E-04 
2152	-9.61587557315363E-05 
2153	 9.27315391271721E-04 
2154	 2.29455956409931E-04 
2155	 3.71407609411551E-04 
2156	 1.55740709841103E-03 
2157	 1.51977310703793E-03 
2158	-2.76383745792468E-04 
2159	-1.39939813580326E-04 
2160	 9.42377397953024E-04 
2161	 1.16060679749719E-03 
2162	 2.02141650824324E-03 
2163	 1.89871050055836E-03 
2164	 6.378102030307E-04 
2165	-1.60200013774143E-04 
2166	-1.74115689078448E-03 
2167	-1.86514348760135E-03 
2168	-8.56090532179155E-05 
2169	-1.83805410664987E-05 
2170	-2.75445830462104E-04 
2171	-5.16673369762134E-04 
2172	-8.85855613161786E-04 
2173	-2.54711055120075E-03 
2174	-2.01732715390338E-03 
2175	-4.23820932843473E-04 
2176	-1.23552732816885E-04 
2177	-5.68080015361318E-04 
2178	-1.06272966513988E-03 
2179	-8.75494154481466E-04 
2180	-6.01426772077793E-04 
2181	 2.81619638413819E-04 
2182	 9.46990204588912E-04 
2183	-6.78984189725377E-06 
2184	-1.63285013479725E-04 
2185	 4.24530910388154E-04 
2186	 5.10465823969612E-04 
2187	 9.63245395167177E-04 
2188	 1.02893003545295E-03 
2189	 1.39567196761389E-04 
2190	 1.26011422902385E-04 
2191	 7.10275187290062E-04 
2192	 8.93194357818322E-04 
2193	 2.08771599641146E-03 
2194	 1.84907960372742E-03 
2195	-6.05605291947701E-04 
2196	-1.20145345157986E-03 
2197	-1.49236436749138E-03 
2198	-1.9089667694386E-03 
2199	-1.79194941032938E-03 
2200	-1.80650717243931E-04 
2201	 4.89644155432139E-05 
2202	-6.57151179510467E-05 
2203	-1.00206132526127E-04 
2204	-8.70841981999615E-04 
2205	-6.35672871499994E-04 
2206	-7.94980158857267E-04 
2207	-5.16505320356152E-04 
2208	 5.86150320296597E-04 
2209	 1.21940741184331E-03 
2210	 2.06773652302065E-03 
2211	 2.19409996451585E-03 
2212	 2.73569782930939E-03 
2213	 2.58015126005821E-03 
2214	 2.34884987527976E-03 
2215	 3.5704955056881E-03 
2216	 3.50777050172916E-03 
2217	 3.24083075992412E-03 
2218	 3.0431867106478E-03 
2219	 1.9578475253575E-03 
2220	-6.04208002475579E-04 
2221	-1.28347230712572E-03 
2222	-1.46999590672442E-03 
2223	-1.94919782748308E-03 
2224	-1.61905212806072E-03 
2225	-2.06932191596934E-03 
2226	-4.42772081200306E-03 
2227	-3.75385091010647E-03 
2228	-9.18924684320496E-04 
2229	 1.16556526930083E-03 
2230	 6.4584842732789E-03 
2231	 7.15900772258562E-03 
2232	 3.34956644371592E-03 
2233	 2.40426106027532E-03 
2234	 5.23359399822823E-04 
2235	-4.30569236814418E-04 
2236	 6.15384555003949E-04 
2237	 1.7241454230676E-03 
2238	 7.7094270202026E-04 
2239	 2.1049399996799E-04 
2240	 1.22560664437873E-03 
2241	 2.85040990896335E-03 
2242	 4.38402362180778E-03 
2243	 4.38522061562353E-03 
2244	 4.24053615183187E-03 
2245	 2.24130598780081E-03 
2246	 1.26485087427349E-04 
2247	 9.35892609782858E-04 
2248	 9.23707676566916E-04 
2249	 2.37205337515969E-04 
2250	 0.00106140039848 
2251	 2.44996988614801E-03 
2252	 2.81927121305041E-03 
2253	 2.27145143133437E-03 
2254	 1.67354783372303E-03 
2255	-1.25112642907408E-04 
2256	-1.6597911429981E-03 
2257	-9.49740384249766E-04 
2258	-1.6336761370979E-03 
2259	-3.08958061979024E-03 
2260	-2.50880901456395E-03 
2261	-6.34868625124408E-06 
2262	 3.93624620632895E-04 
2263	 1.00333001494611E-03 
2264	 4.67861685373396E-04 
2265	-2.20109504920645E-03 
2266	-2.73127370723913E-03 
2267	-1.75061247222368E-03 
2268	-1.11855039633053E-03 
2269	-4.16087591639247E-04 
2270	-7.46475903336255E-04 
2271	-1.79577826724232E-03 
2272	-2.60014579004225E-03 
2273	-3.41816633335099E-03 
2274	-4.01436160869564E-03 
2275	-5.03008263889133E-03 
2276	-4.86855409481558E-03 
2277	-3.83719988895779E-03 
2278	-4.32516304430333E-03 
2279	-4.3565982904277E-03 
2280	-4.49946513156285E-03 
2281	-6.5447865300537E-03 
2282	-5.92553353796385E-03 
2283	-5.03120397077662E-03 
2284	-5.04759674828983E-03 
2285	-3.3837829399367E-03 
2286	-3.57610299862817E-03 
2287	-2.45484091075075E-03 
2288	-8.62554994201055E-04 
2289	-1.8884249236567E-03 
2290	 2.92818905864152E-04 
2291	 2.42241459680833E-03 
2292	 9.74666631620757E-04 
2293	 2.04931731500636E-03 
2294	 1.21138983129712E-03 
2295	 2.19780158700042E-04 
2296	 2.50680526335973E-03 
2297	-8.55820350093019E-04 
2298	-4.8741535331012E-03 
2299	-5.15219453026716E-03 
2300	-6.90426951996332E-03 
2301	-5.04901510335287E-03 
2302	-2.5116167943387E-03 
2303	-3.50767667056202E-03 
2304	-2.74072178711534E-03 
2305	-1.40855904055235E-03 
2306	 2.24682399292915E-03 
2307	 5.02704209153997E-03 
2308	 3.50470540719095E-03 
2309	 8.3898280006254E-04 
2310	-2.45617036164739E-03 
2311	-1.95755630095677E-03 
2312	 1.59226932504141E-03 
2313	 3.54192048504578E-03 
2314	 2.78775027619377E-03 
2315	 1.88688126475279E-03 
2316	 2.93817536219909E-04 
2317	-3.85410561520135E-03 
2318	-5.51558468157918E-03 
2319	-4.36101753404819E-03 
2320	-3.70636343496969E-03 
2321	-1.90373280521152E-03 
2322	 3.71423715706601E-03 
2323	 3.16522094290975E-03 
2324	-3.25306594960588E-03 
2325	-5.45677776284638E-03 
2326	-8.00022576060603E-03 
2327	-6.37316501311762E-03 
2328	-2.71777445679427E-03 
2329	-2.83649764798511E-03 
2330	-2.03583070594219E-03 
2331	-6.7368640063922E-03 
2332	-1.38032394963235E-02 
2333	-1.46987960846704E-02 
2334	-1.03122256940827E-02 
2335	-2.68704075984514E-03 
2336	 3.7070438922943E-03 
2337	 7.97618632190357E-04 
2338	-7.59224726517268E-03 
2339	-1.37358913193848E-02 
2340	-2.07790530978231E-02 
2341	-1.95349192223156E-02 
2342	-1.11110896704062E-02 
2343	-5.58093552855347E-03 
2344	-1.33199521987208E-03 
2345	 5.27554100448337E-04 
2346	-4.96628912068362E-03 
2347	-1.04364982863064E-02 
2348	-8.89961511275781E-03 
2349	-0.010418873321333 
2350	-1.11921422513209E-02 
2351	-6.49488283267959E-03 
2352	-4.24712706094845E-03 
2353	-1.3878502840958E-03 
2354	 9.39633569193901E-04 
2355	-2.35194117919606E-03 
2356	-9.78558135992569E-03 
2357	-1.55590213547234E-02 
2358	-1.89427067876737E-02 
2359	-2.18633146088433E-02 
2360	-1.11853717690984E-02 
2361	 1.71896205515147E-03 
2362	 6.49601279929689E-03 
2363	 0.010274290364884 
2364	 5.33185974938992E-03 
2365	-5.66822825230952E-03 
2366	-7.33535690669987E-03 
2367	-5.57678869773462E-03 
2368	-1.24863280682122E-02 
2369	-1.26950292905103E-02 
2370	-7.15822068656204E-03 
2371	-1.4714442151723E-03 
2372	 2.49592587554048E-03 
2373	-7.99558191599383E-03 
2374	-2.15434145316588E-02 
2375	-2.88271483355062E-02 
2376	-3.59452508527403E-02 
2377	-3.35976090576739E-02 
2378	-0.025879532321964 
2379	-2.39746547663897E-02 
2380	-1.77200431561385E-02 
2381	-0.006456640529348 
2382	-1.47591422963189E-03 
2383	-0.02195603511156 
2384	-3.03895344629355E-02 
2385	-0.017169081297933 
2386	-2.16054727276826E-02 
2387	 4.10315169676333E-03 
2388	 1.70215576215554E-02 
2389	-1.70287171689796E-02 
2390	-7.43135055189883E-03 
2391	 6.61180908375093E-03 
2392	-7.16811223038995E-03 
2393	-5.29479733556059E-03 
2394	-2.12156917578886E-02 
2395	-0.04866018802519 
2396	-0.04536216130191 
2397	-3.57737380868645E-02 
2398	-0.016084038203494 
2399	-1.18443566396061E-02 
2400	-3.96719075887312E-02 
2401	-3.41018390836757E-02 
2402	-2.40310116384168E-02 
2403	-2.33710345451694E-02 
2404	 1.08493894109036E-02 
2405	 3.07475608675178E-02 
2406	 2.32262406843146E-02 
2407	 0.037509992029495 
2408	 2.94286185070481E-02 
2409	-1.63868642036792E-02 
2410	-2.91622362584191E-02 
2411	-1.52991020226331E-02 
2412	 2.03008711823771E-02 
2413	 8.41686499426329E-02 
2414	 8.44767768531002E-02 
2415	 6.72063351289835E-03 
2416	 3.08036373579732E-03 
2417	-1.75093837538971E-02 
2418	-7.85233634701679E-02 
2419	-1.01732255791719E-02 
2420	 1.63949636087402E-02 
2421	 1.76013029306015E-04 
2422	 4.69889553139328E-02 
2423	 0.067659311426625 
2424	 3.05135014579477E-02 
2425	 4.89231595896588E-02 
2426	 6.77611062549709E-02 
2427	-8.39073889384834E-02 
2428	-0.226915141753877 
2429	-0.241920556203767 
2430	-0.257011691356659 
2431	-0.152668088183563 
2432	-2.25719019267928E-02 
2433	-4.56186381271788E-02 
2434	-0.108214937274425 
2435	-7.06329043485587E-02 
2436	 2.63716257272466E-03 
2437	 3.06902151753681E-02 
2438	 3.17373903284193E-02 
2439	 1.12320016529794E-02 
2440	-4.64651901505528E-02 
2441	-0.15666461294976 
2442	-0.209766507123708 
2443	-0.14419714457399 
2444	-0.150437693613241 
2445	-0.120001516344086 
2446	 2.63521316329857E-02 
2447	-5.48744452958473E-02 
2448	-0.20508080765637 
2449	-0.335178393796033 
2450	-0.340816340112285 
2451	-0.534922860920891 
2452	-1.59600442218409E-02 
2453	 0.119221903887622 
2454	-0.102186592516783 
2455	 7.71956733978015E-02 
2456	 0.446506305068677 
2457	 0.372923265129592 
2458	 0.142594129100626 
2459	 9.07687511332898E-03 
2460	-2.01441869896406E-02 
2461	-5.39071090011558E-02 
2462	-0.137998001451573 
2463	-0.325533979741597 
2464	-0.534361994046009 
2465	-0.798546596608131 
2466	-0.861446669313788 
2467	-0.568818918080316 
2468	-1.89724076034472 
2469	-4.62004850276326 
2470	-0.38578887521956 
2471	-1.93339545293525E-02 
2472	-0.15180184674435 
2473	-0.135495320688269 
2474	 0.124942371728413 
2475	 0.377085602080607 
2476	 0.578178575630971 
2477	-0.965447945750173 
2478	-1.17607300212754 
2479	 2.65055335487428 
2480	 0.900931922884605 
2481	-1.98430164002577E-02 
2482	 5.76051716158003E-02 
2483	 0.417844516657944 
2484	 0.672648584792669 
2485	 1.13151346103856 
2486	 1.27285892901362 
2487	 1.48600140546297 
2488	 0.556027341329448 
2489	 0.227427601291435 
2490	 0.163383590655214 
2491	 0.308044641153186 
2492	 0.495840754499463 
2493	 1.12860936686373 
2494	 0.643113579214372 
2495	 1.14474845333489 
2496	 1.87052168232288 
2497	 0.543154352760419 
2498	 0.252898457743592 
2499	 0.270989509666588 
2500	 0.153853768656709 
