Wavelength	rt0718far200001.asd
350	 0.016078958362404 
351	 1.55837838130336E-02 
352	 1.56867409439884E-02 
353	 1.62511585863517E-02 
354	 1.67971704044284E-02 
355	 1.64843015479427E-02 
356	 1.61940056451979E-02 
357	 1.61540838823681E-02 
358	 1.63198778300141E-02 
359	 1.64984676511128E-02 
360	 1.66120919738707E-02 
361	 1.65226453690981E-02 
362	 1.61380699657158E-02 
363	 0.016220997553057 
364	 1.63245521271762E-02 
365	 1.62817052940414E-02 
366	 1.65837549964535E-02 
367	 1.66096913238906E-02 
368	 1.66053538558562E-02 
369	 0.016836993620874 
370	 1.68143651661305E-02 
371	 0.016728981227223 
372	 1.66296187263136E-02 
373	 1.65157681358219E-02 
374	 1.67032824886708E-02 
375	 1.68974345577321E-02 
376	 0.017100780192077 
377	 1.77865922995677E-02 
378	 1.75512640504039E-02 
379	 1.70724527359203E-02 
380	 1.72064351589933E-02 
381	 1.77810622091435E-02 
382	 1.77981077532034E-02 
383	 1.74345276183079E-02 
384	 1.74349878992463E-02 
385	 1.78744430851769E-02 
386	 1.81765659924134E-02 
387	 1.81579435357001E-02 
388	 1.81393563380495E-02 
389	 1.83776724968321E-02 
390	 1.84119887543383E-02 
391	 1.80438615420869E-02 
392	 0.01797439269458 
393	 1.83356942094156E-02 
394	 1.88571346051723E-02 
395	 1.91347619874801E-02 
396	 1.89851051260979E-02 
397	 1.89423217155857E-02 
398	 1.91419700996049E-02 
399	 1.93444187932355E-02 
400	 1.95170222909951E-02 
401	 1.94626154834965E-02 
402	 1.92301439965118E-02 
403	 0.019439426740133 
404	 1.97382313210894E-02 
405	 1.98562819284813E-02 
406	 0.019685978069547 
407	 1.98582635176217E-02 
408	 1.99682210834011E-02 
409	 1.99156497971655E-02 
410	 1.99602601176582E-02 
411	 2.02961447220716E-02 
412	 2.05359226720621E-02 
413	 2.04550730719784E-02 
414	 2.04191373549873E-02 
415	 2.06316444548578E-02 
416	 2.09288896137431E-02 
417	 2.10294806954128E-02 
418	 0.021006914471006 
419	 2.11273452396237E-02 
420	 0.021380906445576 
421	 2.14623226894112E-02 
422	 2.15568509557667E-02 
423	 2.17779875995465E-02 
424	 2.20692634979463E-02 
425	 2.19059930457542E-02 
426	 2.20563659363253E-02 
427	 2.24031259393639E-02 
428	 2.24837550920535E-02 
429	 2.27846638681545E-02 
430	 2.29835011617597E-02 
431	 2.30457851168884E-02 
432	 2.33472608558948E-02 
433	 2.35463976402438E-02 
434	 2.37124789665868E-02 
435	 0.023944507749675 
436	 2.41638381758871E-02 
437	 2.42891604084421E-02 
438	 2.44481399610204E-02 
439	 2.48233789715364E-02 
440	 2.50162189554345E-02 
441	 0.025172341718572 
442	 2.54028680170747E-02 
443	 2.56818783786686E-02 
444	 2.58870150714794E-02 
445	 2.60547878892728E-02 
446	 2.62467457638569E-02 
447	 2.64214046494123E-02 
448	 2.66466557260258E-02 
449	 2.68641562480756E-02 
450	 2.69442259192166E-02 
451	 2.70883763174932E-02 
452	 2.72778639062984E-02 
453	 2.74599553040867E-02 
454	 2.75802782994716E-02 
455	 2.77045732720396E-02 
456	 2.78151410627195E-02 
457	 2.78967388241789E-02 
458	 0.028127977489067 
459	 2.82066243826369E-02 
460	 2.81749556331781E-02 
461	 2.84193432391767E-02 
462	 2.85634593946731E-02 
463	 0.028660263529055 
464	 0.028781469582901 
465	 2.87903106211331E-02 
466	 2.89407251759686E-02 
467	 2.91366564552253E-02 
468	 2.91585097180824E-02 
469	 0.029285964993458 
470	 2.94082792452606E-02 
471	 2.95040560393276E-02 
472	 2.97158695458464E-02 
473	 2.98981552223919E-02 
474	 3.00069729473213E-02 
475	 3.00750735849139E-02 
476	 3.03043154824182E-02 
477	 3.04580792468294E-02 
478	 3.05693559980386E-02 
479	 3.08264036946927E-02 
480	 3.09028835982276E-02 
481	 3.10032816036402E-02 
482	 3.12365820027019E-02 
483	 3.13671109623878E-02 
484	 3.16211779753261E-02 
485	 3.18749377455148E-02 
486	 3.19653086381863E-02 
487	 0.032246717472216 
488	 3.24672730003977E-02 
489	 3.25981936280907E-02 
490	 3.28440655020672E-02 
491	 3.29601221033959E-02 
492	 3.31840067534099E-02 
493	 3.36045246680775E-02 
494	 3.36276576244378E-02 
495	 3.39068083217636E-02 
496	 0.034298404800805 
497	 3.43498103082366E-02 
498	 3.47040698362352E-02 
499	 3.50285472286612E-02 
500	 3.51950320220173E-02 
501	 3.55396830679448E-02 
502	 3.58363971926021E-02 
503	 3.60923040122736E-02 
504	 3.63663193315501E-02 
505	 3.66577377418229E-02 
506	 3.68654094104688E-02 
507	 3.70517150248065E-02 
508	 3.73874405113095E-02 
509	 3.75858755509195E-02 
510	 0.037835680571508 
511	 3.82285719663073E-02 
512	 3.84478246695033E-02 
513	 3.87035319552582E-02 
514	 3.90318700672323E-02 
515	 3.93976876966897E-02 
516	 3.98214805361426E-02 
517	 4.02293825235866E-02 
518	 4.05687321130978E-02 
519	 0.040826901796262 
520	 4.11746257758397E-02 
521	 4.15552568703411E-02 
522	 4.18942030014793E-02 
523	 4.22409586055842E-02 
524	 4.26431786703606E-02 
525	 4.30608287436315E-02 
526	 4.34083584619669E-02 
527	 0.043842894306951 
528	 4.42415204845117E-02 
529	 4.45525731501727E-02 
530	 4.49450048364079E-02 
531	 4.53004703576182E-02 
532	 4.56435494655844E-02 
533	 4.60341807760491E-02 
534	 4.64218059493279E-02 
535	 4.68437679097623E-02 
536	 4.72815868100182E-02 
537	 4.76483779955864E-02 
538	 4.80467189706507E-02 
539	 4.84375588532296E-02 
540	 4.87921825243783E-02 
541	 4.92352871469311E-02 
542	 4.96350573794622E-02 
543	 0.049990821144889 
544	 5.03771134552208E-02 
545	 5.06951780520095E-02 
546	 5.10730242858301E-02 
547	 5.15331426280445E-02 
548	 5.18358839068602E-02 
549	 5.22316758657917E-02 
550	 5.26417285741536E-02 
551	 5.29378031210604E-02 
552	 5.34139816919009E-02 
553	 5.38321230931362E-02 
554	 0.054146456758874 
555	 5.45554773165607E-02 
556	 5.49252666398161E-02 
557	 5.52648715892043E-02 
558	 5.56142891164507E-02 
559	 5.60234200032344E-02 
560	 5.63750845166472E-02 
561	 5.66765729239435E-02 
562	 5.70048572629087E-02 
563	 5.72432081669743E-02 
564	 5.75173215604009E-02 
565	 5.78579493365228E-02 
566	 5.80535364010942E-02 
567	 5.82395647197285E-02 
568	 5.84445885178252E-02 
569	 5.86557392085224E-02 
570	 5.88488297092485E-02 
571	 5.90118408227118E-02 
572	 5.91518352214463E-02 
573	 5.92930845775581E-02 
574	 5.93752918525198E-02 
575	 5.94166375671108E-02 
576	 5.94478034017547E-02 
577	 5.94817859453937E-02 
578	 5.94652684527649E-02 
579	 5.93818732089413E-02 
580	 5.92460085703749E-02 
581	 5.90996620212621E-02 
582	 5.89764822028221E-02 
583	 5.88466067773387E-02 
584	 5.85641004353299E-02 
585	 5.82972719534954E-02 
586	 5.80218869382738E-02 
587	 5.76730440544657E-02 
588	 5.74015274022359E-02 
589	 5.70821609465211E-02 
590	 5.66729605023247E-02 
591	 5.62203068442558E-02 
592	 5.58641201288874E-02 
593	 5.54549330595654E-02 
594	 5.48644834580211E-02 
595	 5.41975005760627E-02 
596	 5.33967197163946E-02 
597	 0.052532769547614 
598	 5.17413081211289E-02 
599	 5.09628583678891E-02 
600	 5.02461915488347E-02 
601	 0.049640043586562 
602	 4.91683011425769E-02 
603	 4.88256764367803E-02 
604	 0.048589632216242 
605	 0.048437146125071 
606	 4.83735610962225E-02 
607	 4.83208032416624E-02 
608	 4.82668020054252E-02 
609	 4.82690236052774E-02 
610	 0.048268056867847 
611	 4.82695852344634E-02 
612	 4.82636949332445E-02 
613	 4.81456509210437E-02 
614	 4.80475405285712E-02 
615	 4.79846867680209E-02 
616	 4.79145711490882E-02 
617	 4.79241286573709E-02 
618	 4.78792955906841E-02 
619	 4.77484009759742E-02 
620	 4.76992689857566E-02 
621	 4.76482704132533E-02 
622	 4.76115632555102E-02 
623	 4.75990625563977E-02 
624	 4.74495841674142E-02 
625	 4.73057028517067E-02 
626	 4.72361484641787E-02 
627	 4.72218068985447E-02 
628	 4.71687158348527E-02 
629	 4.70704230345184E-02 
630	 4.69656317999839E-02 
631	 4.69624498603073E-02 
632	 4.69400798716967E-02 
633	 4.68353825187282E-02 
634	 4.66526880562657E-02 
635	 4.66712014813233E-02 
636	 4.66414018991397E-02 
637	 4.64862888546401E-02 
638	 4.64455439275433E-02 
639	 4.63917975447696E-02 
640	 4.62919085227747E-02 
641	 4.61521058525073E-02 
642	 4.60251780623171E-02 
643	 4.58945908175856E-02 
644	 4.57363519396961E-02 
645	 4.55310332600994E-02 
646	 4.53901576809268E-02 
647	 4.53157654652859E-02 
648	 4.52476648529494E-02 
649	 4.50287083087629E-02 
650	 4.48402646487795E-02 
651	 4.46380314821047E-02 
652	 4.43193941160963E-02 
653	 0.043988572540641 
654	 4.35270666088349E-02 
655	 0.042931126030854 
656	 4.24547469585992E-02 
657	 4.20005339605011E-02 
658	 4.15980763224688E-02 
659	 4.12714581601634E-02 
660	 4.10117714528264E-02 
661	 4.06975189383545E-02 
662	 0.040370692201289 
663	 4.01702425975213E-02 
664	 3.99990525593346E-02 
665	 3.98841429698645E-02 
666	 3.97995002643926E-02 
667	 3.95959530264008E-02 
668	 3.94587929385842E-02 
669	 3.93729362372318E-02 
670	 3.92755365905196E-02 
671	 0.039224377045678 
672	 0.039163555326006 
673	 3.90723484570608E-02 
674	 3.89750713515341E-02 
675	 3.90476012255736E-02 
676	 3.90524418452836E-02 
677	 3.88660843513289E-02 
678	 0.038845058424022 
679	 3.88637243789925E-02 
680	 3.88813767500163E-02 
681	 3.88814807162328E-02 
682	 3.87946569634182E-02 
683	 3.86870993935772E-02 
684	 3.86175690986737E-02 
685	 3.86171861356306E-02 
686	 0.038515339020306 
687	 3.83485619708017E-02 
688	 3.82059665405759E-02 
689	 3.80327994101025E-02 
690	 3.77454949009291E-02 
691	 3.73774252717492E-02 
692	 3.70196806658702E-02 
693	 3.66325269443332E-02 
694	 3.62157010916939E-02 
695	 3.57721623075896E-02 
696	 3.52583042732627E-02 
697	 3.46808802388541E-02 
698	 3.40688805819569E-02 
699	 3.34723709238863E-02 
700	 3.28146801932253E-02 
701	 3.20939611098499E-02 
702	 3.13775672901897E-02 
703	 3.07450438030762E-02 
704	 2.99812251327068E-02 
705	 2.91895211339341E-02 
706	 2.84431293631251E-02 
707	 2.75954603792503E-02 
708	 2.66581110697461E-02 
709	 2.57137487328858E-02 
710	 2.48331801611931E-02 
711	 2.38534713513324E-02 
712	 2.28169619232054E-02 
713	 2.17773138854759E-02 
714	 2.07596094758435E-02 
715	 1.97622470726936E-02 
716	 1.86957367782102E-02 
717	 1.75743392705426E-02 
718	 1.65647576813817E-02 
719	 1.55511600710674E-02 
720	 1.46963148621605E-02 
721	 1.40027289863195E-02 
722	 1.31453979763623E-02 
723	 1.23161021743636E-02 
724	 1.16693648056335E-02 
725	 1.09646209925393E-02 
726	 1.01734544245353E-02 
727	 9.44212429967326E-03 
728	 8.84231506297588E-03 
729	 8.03717288408973E-03 
730	 7.38108982960058E-03 
731	 6.89734048804602E-03 
732	 6.43771775196912E-03 
733	 6.09033540842802E-03 
734	 5.82374132179555E-03 
735	 5.60540474256314E-03 
736	 5.40146010541411E-03 
737	 5.25422533295927E-03 
738	 5.16274910500588E-03 
739	 5.11257207414579E-03 
740	 5.0794374816741E-03 
741	 5.04938534342623E-03 
742	 5.00837734860031E-03 
743	 4.95109601383832E-03 
744	 4.92940637612293E-03 
745	 4.93095911982178E-03 
746	 4.92555177424757E-03 
747	 4.86955758118001E-03 
748	 4.86031777974295E-03 
749	 4.88089012474226E-03 
750	 4.88702438080537E-03 
751	 4.85727849500519E-03 
752	 4.76847878352055E-03 
753	 4.71479641553805E-03 
754	 4.81249772441552E-03 
755	 4.80931231642044E-03 
756	 4.79375350389374E-03 
757	 4.83593779143037E-03 
758	 4.96310830613761E-03 
759	 4.84177146408191E-03 
760	 4.70461281983831E-03 
761	 5.00574064735445E-03 
762	 5.03729913278108E-03 
763	 0.004844698144044 
764	 4.69104809310477E-03 
765	 4.76891255606094E-03 
766	 4.80388795943127E-03 
767	 4.89143913271305E-03 
768	 4.96174129563563E-03 
769	 4.77894838176844E-03 
770	 4.77202810829759E-03 
771	 4.85130539308798E-03 
772	 4.88048577702668E-03 
773	 4.90146031803329E-03 
774	 4.94799747507621E-03 
775	 4.99104936474805E-03 
776	 0.004990795978676 
777	 5.03475751354055E-03 
778	 5.01068224475991E-03 
779	 4.95860602104491E-03 
780	 5.06882757678997E-03 
781	 5.16976715681091E-03 
782	 5.18756236324682E-03 
783	 5.14979222859271E-03 
784	 5.27202551745981E-03 
785	 5.33563689836702E-03 
786	 5.36768843530398E-03 
787	 5.44929517106656E-03 
788	 5.44495356616842E-03 
789	 5.57401836836332E-03 
790	 5.73831151175826E-03 
791	 5.6330824579866E-03 
792	 5.75044062238037E-03 
793	 5.92114137327923E-03 
794	 5.99565378783961E-03 
795	 6.00618661068443E-03 
796	 6.15619054709474E-03 
797	 6.23694065407082E-03 
798	 6.10740595062303E-03 
799	 6.25963308677996E-03 
800	 6.37123937094932E-03 
801	 6.44668230494567E-03 
802	 6.61789412538282E-03 
803	 6.47323716490863E-03 
804	 6.43963545613204E-03 
805	 6.57633405613504E-03 
806	 6.47880712847164E-03 
807	 6.44992289766922E-03 
808	 6.53128196766571E-03 
809	 6.65573693938119E-03 
810	 6.62295628776702E-03 
811	 6.45917661297792E-03 
812	 6.2872363277197E-03 
813	 6.25803042663276E-03 
814	 6.32183723047382E-03 
815	 6.21457651564531E-03 
816	 5.99756047552012E-03 
817	 5.96618715341159E-03 
818	 5.86332342416638E-03 
819	 5.83485710984473E-03 
820	 5.82735651647424E-03 
821	 5.49012981583015E-03 
822	 5.30006271289037E-03 
823	 5.12589490064131E-03 
824	 4.84082978220068E-03 
825	 4.70248116237112E-03 
826	 4.53755479628358E-03 
827	 4.30740551415393E-03 
828	 4.03724608983841E-03 
829	 3.70464646421219E-03 
830	 3.64722856409027E-03 
831	 3.75979333169853E-03 
832	 3.64613184343492E-03 
833	 3.55808779076143E-03 
834	 3.47378671445678E-03 
835	 3.42215564075815E-03 
836	 3.53144329575714E-03 
837	 3.51480527283386E-03 
838	 3.34852969446182E-03 
839	 3.14479679960785E-03 
840	 3.18562836370276E-03 
841	 3.32006672574659E-03 
842	 3.36775515114946E-03 
843	 3.22505049489356E-03 
844	 3.19295711931928E-03 
845	 3.19025794641899E-03 
846	 3.24852384318683E-03 
847	 3.41652921849534E-03 
848	 3.10266757947781E-03 
849	 2.93162352831943E-03 
850	 3.11505765444598E-03 
851	 3.16440261739677E-03 
852	 3.04175329813191E-03 
853	 2.95815242607778E-03 
854	 3.0611037629112E-03 
855	 3.23831220930693E-03 
856	 3.13321411077121E-03 
857	 2.92967821972089E-03 
858	 2.89599852054221E-03 
859	 3.00349152103667E-03 
860	 3.14728150363328E-03 
861	 3.19290372009883E-03 
862	 3.06128555946329E-03 
863	 3.03006175498875E-03 
864	 3.03386353906346E-03 
865	 3.00515512796298E-03 
866	 2.91391550021629E-03 
867	 2.89857601681689E-03 
868	 2.88335569760583E-03 
869	 2.82235645837855E-03 
870	 2.75209116806984E-03 
871	 2.84216608956297E-03 
872	 3.03520936210906E-03 
873	 3.15249206017894E-03 
874	 2.85323072598462E-03 
875	 2.95602129835896E-03 
876	 3.00404763128239E-03 
877	 2.55735655336095E-03 
878	 2.74851031874234E-03 
879	 2.94505134040522E-03 
880	 2.9200490418901E-03 
881	 2.7014503978753E-03 
882	 2.41250386628039E-03 
883	 2.5808169564232E-03 
884	 2.9213516719615E-03 
885	 2.6588620928808E-03 
886	 0.002413664255164 
887	 2.60231351331716E-03 
888	 3.02687093726138E-03 
889	 2.89720833445664E-03 
890	 2.76601730244157E-03 
891	 2.64709619152074E-03 
892	 2.55135380585836E-03 
893	 2.64445757107049E-03 
894	 2.46785090024718E-03 
895	 2.40652214185952E-03 
896	 2.69318616004434E-03 
897	 2.27158838179363E-03 
898	 2.59719980588358E-03 
899	 2.96516040222854E-03 
900	 2.45818637452338E-03 
901	 2.13046964512115E-03 
902	 2.45575398365319E-03 
903	 2.62367090356833E-03 
904	 1.87927109507801E-03 
905	 2.32384891814616E-03 
906	 2.61384588531773E-03 
907	 2.42321362437217E-03 
908	 2.30315993286732E-03 
909	 2.84752381796802E-03 
910	 2.64958627995696E-03 
911	 2.09492570918639E-03 
912	 2.9574999692756E-03 
913	 2.95387811639293E-03 
914	 2.68505619505265E-03 
915	 2.66075090932551E-03 
916	 2.78614041810302E-03 
917	 2.29353515037715E-03 
918	 2.00116140878415E-03 
919	 2.17512649731601E-03 
920	 2.08094739695645E-03 
921	 2.35964838032219E-03 
922	 2.47412863963157E-03 
923	 2.27982784410507E-03 
924	 2.90475821088987E-03 
925	 2.66509774480277E-03 
926	 2.10723007068578E-03 
927	 1.90742274492742E-03 
928	 4.58916259127908E-04 
929	 8.62232162133896E-04 
930	 1.75403202009936E-03 
931	 1.78284431448534E-04 
932	 1.8909904181012E-03 
933	 2.07690566951189E-03 
934	 1.17085454076366E-03 
935	 1.56391719728748E-03 
936	-5.36014141426835E-04 
937	-6.63351212669709E-04 
938	 1.07366063459732E-03 
939	 2.64438792522278E-03 
940	 9.47591702191946E-04 
941	 3.47026658530884E-04 
942	 1.12398423788257E-03 
943	 1.55898262929541E-03 
944	 2.09975858107953E-03 
945	 5.475347571118E-04 
946	-9.37211327188299E-04 
947	 1.14181944323181E-03 
948	 2.24533826693959E-03 
949	 1.88650027419043E-03 
950	 9.21331212046268E-04 
951	 8.21638253737531E-04 
952	 2.40517400403306E-03 
953	 2.09896568219473E-03 
954	 8.49851630212366E-04 
955	 1.96976081327045E-03 
956	 9.89976422073671E-04 
957	 6.70428233925772E-05 
958	 1.45337166384522E-04 
959	 7.32791157729436E-04 
960	 1.33357873718677E-03 
961	 4.03847821815845E-05 
962	-1.27969188661684E-03 
963	 8.62458000475473E-04 
964	 2.46231721795616E-03 
965	 2.69102633160325E-03 
966	 2.31775483456624E-03 
967	 2.67105938989045E-03 
968	 1.84890804028975E-03 
969	 1.32527466408469E-03 
970	 1.67686617983293E-03 
971	 2.25710876660108E-03 
972	 1.28363185710293E-03 
973	 7.27620524192638E-04 
974	 1.35290478006503E-03 
975	 2.11250205638586E-03 
976	 1.36983757555802E-03 
977	 8.71044865287865E-04 
978	 1.10820601431681E-03 
979	 1.19572407414376E-03 
980	 2.01919937001159E-03 
981	 2.26055629733249E-03 
982	 1.76666016045292E-03 
983	 1.49618660310973E-03 
984	 1.75901036658039E-03 
985	 1.69024880179696E-03 
986	 1.37424409454674E-03 
987	 1.59234954465618E-03 
988	 1.72238185953253E-03 
989	 1.39346325164047E-03 
990	 1.77509927073219E-03 
991	 4.02049280583177E-03 
992	 1.70997079978117E-03 
993	 5.95996786922767E-04 
994	 1.71075939319342E-03 
995	 2.07219088293122E-03 
996	 1.22925726013311E-03 
997	 1.44633347730439E-03 
998	 1.94286857984803E-03 
999	 8.1152132850254E-04 
1000	 1.79587085486788E-03 
1001	 2.15562964853986E-03 
1002	 1.98726653826527E-03 
1003	 1.94611810972688E-03 
1004	 1.89196348923468E-03 
1005	 1.8755500153227E-03 
1006	 1.93979713589415E-03 
1007	 2.12412960545832E-03 
1008	 2.30363377477529E-03 
1009	 2.55418536327366E-03 
1010	 2.51013999700484E-03 
1011	 2.32875996797071E-03 
1012	 2.01937125216563E-03 
1013	 1.59947169710963E-03 
1014	 1.47214731205138E-03 
1015	 1.43022124372596E-03 
1016	 1.62783373309236E-03 
1017	 2.27812142623672E-03 
1018	 2.51943861062362E-03 
1019	 2.86308101579866E-03 
1020	 2.9390848551328E-03 
1021	 2.57245319784929E-03 
1022	 2.44191234184191E-03 
1023	 2.33739738832817E-03 
1024	 2.13627313609517E-03 
1025	 0.002269359889183 
1026	 2.04798618655848E-03 
1027	 2.02040296408194E-03 
1028	 2.12446563307678E-03 
1029	 2.08424554325467E-03 
1030	 1.94641401451159E-03 
1031	 2.0204252482913E-03 
1032	 2.10491943758536E-03 
1033	 2.11674933249264E-03 
1034	 2.37035903813752E-03 
1035	 2.32236293571013E-03 
1036	 1.94089950736236E-03 
1037	 1.85090224483119E-03 
1038	 1.81142377515542E-03 
1039	 1.64710896695279E-03 
1040	 2.19833110319499E-03 
1041	 2.30186451145682E-03 
1042	 2.34422380412183E-03 
1043	 2.39144337693854E-03 
1044	 2.40615585230137E-03 
1045	 2.12068172095595E-03 
1046	 2.07982741530491E-03 
1047	 2.29164555178172E-03 
1048	 2.24613964819509E-03 
1049	 2.02940205505181E-03 
1050	 1.96740665250642E-03 
1051	 1.88265141768167E-03 
1052	 1.82953331660289E-03 
1053	 1.79842205610803E-03 
1054	 0.001892836808048 
1055	 2.2445946183136E-03 
1056	 2.28266624579664E-03 
1057	 2.23312879989504E-03 
1058	 2.20773300388689E-03 
1059	 2.09919969670652E-03 
1060	 1.63828953516258E-03 
1061	 1.52128769756165E-03 
1062	 1.59540814834798E-03 
1063	 1.6280170342797E-03 
1064	 1.71911045514764E-03 
1065	 1.79030686644543E-03 
1066	 1.89168433695141E-03 
1067	 1.98826795220079E-03 
1068	 2.15160382985599E-03 
1069	 2.20067554905937E-03 
1070	 2.14277900335007E-03 
1071	 2.17229830522137E-03 
1072	 2.32230976359567E-03 
1073	 2.14360419693627E-03 
1074	 2.17956414109056E-03 
1075	 2.35628899153549E-03 
1076	 2.34535700272385E-03 
1077	 2.31721428677459E-03 
1078	 2.20560060149256E-03 
1079	 1.84021727322834E-03 
1080	 1.80002965414103E-03 
1081	 1.82012200287779E-03 
1082	 1.87742112256361E-03 
1083	 2.33656145512233E-03 
1084	 2.43400862536169E-03 
1085	 2.17984866676005E-03 
1086	 2.17755970614238E-03 
1087	 2.28329335912364E-03 
1088	 2.2090713727652E-03 
1089	 1.98401939960405E-03 
1090	 2.11778198370361E-03 
1091	 2.1728496740919E-03 
1092	 2.00894811656048E-03 
1093	 2.04131590735881E-03 
1094	 2.53653850300019E-03 
1095	 2.44171120425278E-03 
1096	 1.80580796598996E-03 
1097	 1.77553809921633E-03 
1098	 1.8554688402195E-03 
1099	 1.85486227972842E-03 
1100	 2.4724308873251E-03 
1101	 2.42094272464551E-03 
1102	 1.3071154813196E-03 
1103	 1.11609617865361E-03 
1104	 1.09039372809842E-03 
1105	 1.38494643249591E-03 
1106	 2.37426882854634E-03 
1107	 3.14845844762394E-03 
1108	 3.13874132922418E-03 
1109	 2.82795440761125E-03 
1110	 0.002630572339636 
1111	 1.88504205288235E-03 
1112	 1.78511823539696E-03 
1113	 2.22924991990678E-03 
1114	 2.1816362226652E-03 
1115	 2.07882670860188E-03 
1116	 2.10643026872155E-03 
1117	 1.86462494681261E-03 
1118	 1.96999969662588E-03 
1119	 2.5840338466038E-03 
1120	 3.38607770009076E-03 
1121	 5.45479852035067E-03 
1122	 5.55038952685718E-03 
1123	 3.78603442345892E-03 
1124	 4.09972399737096E-03 
1125	 2.17020014153477E-03 
1126	-8.5531548849975E-05 
1127	 2.32054100472395E-03 
1128	 4.17573676779824E-03 
1129	 4.34832549455445E-03 
1130	 4.03120424409413E-03 
1131	 3.89889222913734E-03 
1132	 2.06122453214281E-03 
1133	 2.00469641437466E-03 
1134	 3.71346146259354E-03 
1135	 4.20906166509083E-03 
1136	 4.48142442358717E-03 
1137	 4.51404677162017E-03 
1138	 4.42075271264402E-03 
1139	 3.45744100813197E-03 
1140	 2.14780609008551E-03 
1141	 1.80883181201852E-03 
1142	 2.76833136090381E-03 
1143	 3.37678501352278E-03 
1144	 3.43232238302448E-03 
1145	 3.91191745588917E-03 
1146	 2.70964678250361E-03 
1147	 1.5275100328923E-03 
1148	 2.22289516526013E-03 
1149	 2.47118668959657E-03 
1150	 2.51250533883939E-03 
1151	 2.73013276912004E-03 
1152	 2.5027691788603E-03 
1153	 1.76202097717607E-03 
1154	 1.75850947496813E-03 
1155	 1.93697043166443E-03 
1156	 2.09544410059137E-03 
1157	 2.46496384387628E-03 
1158	 2.29242694010335E-03 
1159	 1.94197666501341E-03 
1160	 1.96929130610884E-03 
1161	 2.0258506507467E-03 
1162	 1.82909096779971E-03 
1163	 1.95576429577044E-03 
1164	 2.32459387852492E-03 
1165	 1.93792425420499E-03 
1166	 1.64448452311517E-03 
1167	 1.9962577247368E-03 
1168	 1.85313803028478E-03 
1169	 1.54993105369525E-03 
1170	 1.71341350488661E-03 
1171	 1.8150345024619E-03 
1172	 1.61716597869138E-03 
1173	 1.55978163794783E-03 
1174	 1.73703296833781E-03 
1175	 2.01682727857705E-03 
1176	 1.71165182543815E-03 
1177	 1.43755240214592E-03 
1178	 1.7560885495347E-03 
1179	 1.93034780111418E-03 
1180	 2.0120509129807E-03 
1181	 2.14275230320155E-03 
1182	 1.77096740567931E-03 
1183	 1.56821430896979E-03 
1184	 1.85704778893911E-03 
1185	 1.98461812479225E-03 
1186	 2.00134866412679E-03 
1187	 1.88164692021476E-03 
1188	 1.64056513799737E-03 
1189	 1.5103056006746E-03 
1190	 1.45277309108958E-03 
1191	 1.52288773288556E-03 
1192	 1.62270603274676E-03 
1193	 1.6916474687524E-03 
1194	 1.68715390224366E-03 
1195	 1.80476641358185E-03 
1196	 1.88124823462914E-03 
1197	 1.6306556352833E-03 
1198	 1.50201141096868E-03 
1199	 1.55425641644753E-03 
1200	 1.6005599158058E-03 
1201	 1.82163836612998E-03 
1202	 0.001842094382708 
1203	 1.70368911532812E-03 
1204	 1.81185655912499E-03 
1205	 1.79128493147168E-03 
1206	 1.75306185944802E-03 
1207	 2.04546589690859E-03 
1208	 1.96390291287593E-03 
1209	 1.64470871605463E-03 
1210	 1.71360735694802E-03 
1211	 1.70580745231996E-03 
1212	 1.6514194591212E-03 
1213	 1.70335202415446E-03 
1214	 1.71473766434502E-03 
1215	 1.60961445748862E-03 
1216	 1.65400830466517E-03 
1217	 1.81727043336695E-03 
1218	 1.84253636790106E-03 
1219	 1.88938874911649E-03 
1220	 1.92739886959176E-03 
1221	 1.82736288351943E-03 
1222	 1.7197130068172E-03 
1223	 1.60790418582084E-03 
1224	 1.5660934351616E-03 
1225	 1.73869242459023E-03 
1226	 1.79880138819634E-03 
1227	 1.71781107952506E-03 
1228	 1.6844239913548E-03 
1229	 1.57586214443221E-03 
1230	 1.6841007605407E-03 
1231	 1.93359760385378E-03 
1232	 1.85747400715764E-03 
1233	 1.67847567002787E-03 
1234	 1.68698212249682E-03 
1235	 1.70215639561109E-03 
1236	 1.86564828616033E-03 
1237	 1.87686714710056E-03 
1238	 1.85821337196174E-03 
1239	 1.83160626248729E-03 
1240	 1.83343953912463E-03 
1241	 1.8576790130199E-03 
1242	 1.80669268891223E-03 
1243	 1.65623715675285E-03 
1244	 1.57737341102939E-03 
1245	 1.64150808837268E-03 
1246	 1.70525425923043E-03 
1247	 1.70083127791354E-03 
1248	 1.80929356233703E-03 
1249	 1.92631423106285E-03 
1250	 1.84361876499399E-03 
1251	 1.76038203278458E-03 
1252	 1.70279165935149E-03 
1253	 1.59959285328112E-03 
1254	 1.59501452833929E-03 
1255	 1.6909515291045E-03 
1256	 1.77857610076213E-03 
1257	 1.6649290427478E-03 
1258	 1.63757641351573E-03 
1259	 1.8296183662657E-03 
1260	 1.83895264037267E-03 
1261	 1.61134856380265E-03 
1262	 1.60051128385498E-03 
1263	 1.64080662464354E-03 
1264	 1.78560469012705E-03 
1265	 1.88687758534957E-03 
1266	 1.77103642801615E-03 
1267	 1.7653182965265E-03 
1268	 1.82656412657412E-03 
1269	 1.82836447694234E-03 
1270	 1.87721976370768E-03 
1271	 1.88592205492239E-03 
1272	 1.90177531914045E-03 
1273	 1.92766362031904E-03 
1274	 1.91263342011529E-03 
1275	 1.92930533386369E-03 
1276	 1.88976262359089E-03 
1277	 1.76917087582275E-03 
1278	 1.73790831171343E-03 
1279	 1.80574123788578E-03 
1280	 1.81532782444084E-03 
1281	 1.74793622519394E-03 
1282	 1.72508109083118E-03 
1283	 1.79317621688296E-03 
1284	 1.79248069586462E-03 
1285	 1.78340826416565E-03 
1286	 1.98648893405791E-03 
1287	 1.99503265796273E-03 
1288	 1.68146223816343E-03 
1289	 1.60500263365257E-03 
1290	 1.60197208550017E-03 
1291	 1.73489638764137E-03 
1292	 1.73063879787372E-03 
1293	 1.67624165774723E-03 
1294	 1.67662323710554E-03 
1295	 1.66366848052701E-03 
1296	 1.7325884104772E-03 
1297	 1.85239216119047E-03 
1298	 2.03001818068976E-03 
1299	 2.12561185984178E-03 
1300	 1.92623140941764E-03 
1301	 1.84744228972525E-03 
1302	 1.84722963097005E-03 
1303	 1.70756461447894E-03 
1304	 1.81226700860459E-03 
1305	 1.95942631707329E-03 
1306	 2.01117996261892E-03 
1307	 1.80024039129105E-03 
1308	 1.80305193120035E-03 
1309	 2.0372670756874E-03 
1310	 2.06561320563685E-03 
1311	 1.89831164378127E-03 
1312	 1.87923980572031E-03 
1313	 1.97014875520931E-03 
1314	 1.91667049653711E-03 
1315	 1.78399139883603E-03 
1316	 1.80859338425464E-03 
1317	 1.81730056220228E-03 
1318	 1.7598255672879E-03 
1319	 1.73302740717715E-03 
1320	 1.93464527794388E-03 
1321	 2.51567955333484E-03 
1322	 2.29192966123079E-03 
1323	 2.01866593746051E-03 
1324	 2.17832915826603E-03 
1325	 1.85224065834037E-03 
1326	 1.53139183863533E-03 
1327	 1.75078087758554E-03 
1328	 1.92035240786837E-03 
1329	 1.94513137171355E-03 
1330	 2.16639379160553E-03 
1331	 2.54666487611333E-03 
1332	 2.47246331406504E-03 
1333	 1.57356698294925E-03 
1334	 1.19804375995061E-03 
1335	 1.37946038277315E-03 
1336	 0.002256545151527 
1337	 2.24696441645176E-03 
1338	 2.24740319933073E-03 
1339	 2.55592156146953E-03 
1340	 2.67845634547019E-03 
1341	 2.56630361714841E-03 
1342	 2.76480592405378E-03 
1343	 3.06006302379215E-03 
1344	 2.95222177438276E-03 
1345	 2.28908912255963E-03 
1346	 6.59531679242743E-04 
1347	 9.0212408668422E-04 
1348	 2.95862186365158E-03 
1349	 2.56834792204654E-03 
1350	 2.93589110521278E-03 
1351	 5.88017385871431E-03 
1352	 5.24790257820177E-03 
1353	 2.18516384614148E-03 
1354	 6.17237480531936E-03 
1355	 1.37788893785968E-02 
1356	-8.52397409183611E-03 
1357	-3.04071145768161E-02 
1358	-5.31809188281268E-02 
1359	-9.26853318698712E-02 
1360	-0.105044542001346 
1361	-0.168048013630139 
1362	-0.272591735709272 
1363	-0.207679991939258 
1364	-6.82676038466309E-02 
1365	-8.39518178008411E-02 
1366	-0.156658697014556 
1367	-0.14970520754926 
1368	-8.87141550218128E-02 
1369	-1.92975810768531E-02 
1370	-0.013294823674771 
1371	 0.109248762707335 
1372	 9.32573390892983E-02 
1373	-0.216579353940474 
1374	-0.240163770705485 
1375	-5.22048598524086E-02 
1376	-6.88167278921706E-03 
1377	 0.101847806911778 
1378	 0.179296572341949 
1379	 0.164702864419376 
1380	 0.175380129744705 
1381	 0.251603013023417 
1382	 0.305690260838544 
1383	 0.25069754222443 
1384	 0.224853853379307 
1385	 0.242346372885102 
1386	 0.301342146189954 
1387	 0.534384570759598 
1388	 0.474177201436097 
1389	 0.121264552100581 
1390	-2.53117661091337E-02 
1391	-0.151827829577275 
1392	-0.454933716771678 
1393	-0.439820108536087 
1394	-0.186892312440092 
1395	-0.122364200485956 
1396	-0.233922552164239 
1397	-0.432776979680037 
1398	-0.567689271746827 
1399	-0.521912803152081 
1400	-0.531693486346837 
1401	-0.433415333385408 
1402	-0.276128827675064 
1403	-0.161021973808585 
1404	-0.100998230670721 
1405	-0.119776010376926 
1406	-0.184541845399225 
1407	-0.120256779507546 
1408	-7.17407568175989E-02 
1409	-4.08504702715953E-02 
1410	 4.96949683231492E-02 
1411	 4.49922404773296E-02 
1412	-2.17025368574376E-02 
1413	-3.21889998555209E-02 
1414	-4.71722590490829E-02 
1415	-3.09585896137287E-02 
1416	 1.76872391623444E-02 
1417	 1.81917769467739E-02 
1418	 3.3036297986908E-04 
1419	 6.53351544369341E-03 
1420	 1.63303411325518E-02 
1421	 1.42903892243792E-02 
1422	 1.89399120419647E-02 
1423	 1.68444378135503E-02 
1424	-2.45315196742293E-03 
1425	-2.27065964036406E-03 
1426	 1.28129464988663E-02 
1427	 1.24674882232974E-02 
1428	 7.36448155130663E-03 
1429	 8.78457316769802E-03 
1430	 8.99755075261072E-03 
1431	 5.80023748194841E-03 
1432	 6.12102064619731E-03 
1433	 6.0917270618862E-03 
1434	-3.46627459254518E-03 
1435	-6.12328936429023E-03 
1436	 1.24081794244979E-03 
1437	 4.72533689356439E-03 
1438	-3.35801870671851E-03 
1439	-4.3713605347045E-03 
1440	 3.48675305140691E-03 
1441	 3.66793993139479E-03 
1442	 1.73269867503664E-03 
1443	 4.88284632641206E-03 
1444	 3.13729880053113E-03 
1445	-1.20165083484318E-03 
1446	 8.36927411495491E-05 
1447	 3.45605799928494E-03 
1448	 1.5859965847709E-03 
1449	-1.75518137657425E-03 
1450	 2.54210955466492E-04 
1451	 8.46513500040371E-04 
1452	-2.01933465551595E-03 
1453	-1.12041493715662E-03 
1454	-5.11374252358631E-05 
1455	-4.3934810128038E-04 
1456	-7.6326695260688E-04 
1457	 9.77489268084834E-04 
1458	 1.8347871412498E-03 
1459	 1.08226629174704E-03 
1460	 6.61759472382706E-04 
1461	 1.45928792423152E-03 
1462	 1.86721325144048E-03 
1463	 7.55118727290922E-04 
1464	 5.18035884043056E-04 
1465	 2.03646145376874E-03 
1466	 2.28718356056183E-03 
1467	 1.1082538015832E-03 
1468	 6.90361026168277E-04 
1469	 5.76752045778643E-04 
1470	 7.32779746772218E-04 
1471	 6.38068038052544E-04 
1472	 1.13594451452358E-03 
1473	 3.5400284368942E-03 
1474	 3.14519280899648E-03 
1475	 2.05084544686045E-04 
1476	 5.67879850329202E-04 
1477	 2.04899668363303E-03 
1478	 1.81347710987994E-03 
1479	 2.45482229569049E-03 
1480	 2.66471776229855E-03 
1481	 1.04276586267138E-03 
1482	 7.28410514046737E-04 
1483	 1.52067045717962E-03 
1484	 1.77865883022683E-03 
1485	 1.92170319154691E-03 
1486	 1.90543888961904E-03 
1487	 2.02720717104666E-03 
1488	 2.0037153144814E-03 
1489	 1.63641317122114E-03 
1490	 1.46590448185943E-03 
1491	 1.36730562228164E-03 
1492	 1.25428319361219E-03 
1493	 1.12219614124566E-03 
1494	 1.16807898404793E-03 
1495	 1.35430122258733E-03 
1496	 1.33754434612539E-03 
1497	 1.22567562150259E-03 
1498	 1.29758807293933E-03 
1499	 1.4072907088758E-03 
1500	 1.47798928248294E-03 
1501	 1.7952544865479E-03 
1502	 1.80844887427487E-03 
1503	 1.38066524122076E-03 
1504	 1.27272913921843E-03 
1505	 1.24151831041858E-03 
1506	 1.36834831390022E-03 
1507	 1.31161797886241E-03 
1508	 1.14229217049133E-03 
1509	 1.25636336704286E-03 
1510	 1.37768373871298E-03 
1511	 1.41932808733433E-03 
1512	 1.52028264701918E-03 
1513	 1.44367820437189E-03 
1514	 1.20806131993012E-03 
1515	 9.51599573290214E-04 
1516	 1.03567437486904E-03 
1517	 1.45130265134263E-03 
1518	 1.46374369200718E-03 
1519	 1.34897488131544E-03 
1520	 1.47972903303971E-03 
1521	 1.34222415596337E-03 
1522	 1.13173656398159E-03 
1523	 1.19760042955356E-03 
1524	 1.20664646756513E-03 
1525	 1.11417322886998E-03 
1526	 1.12417304948142E-03 
1527	 1.20053787041644E-03 
1528	 1.27502776329559E-03 
1529	 1.29417844415873E-03 
1530	 1.26175721114453E-03 
1531	 1.2635076237262E-03 
1532	 1.31351249566038E-03 
1533	 1.40913523555228E-03 
1534	 1.47325229091405E-03 
1535	 1.49230610857464E-03 
1536	 1.44960346738453E-03 
1537	 1.31420174048096E-03 
1538	 1.2646854568829E-03 
1539	 1.25441055946972E-03 
1540	 1.3035408732731E-03 
1541	 1.33492263683491E-03 
1542	 1.18716788602255E-03 
1543	 1.29139188433159E-03 
1544	 1.51405714921015E-03 
1545	 1.42479219413536E-03 
1546	 1.39789188888027E-03 
1547	 1.50361897256021E-03 
1548	 1.48011951407748E-03 
1549	 1.4409905717174E-03 
1550	 1.46082807322897E-03 
1551	 1.4574841927352E-03 
1552	 1.30357294948111E-03 
1553	 1.21547341289805E-03 
1554	 1.33998956091437E-03 
1555	 1.22119689898507E-03 
1556	 1.09491260122747E-03 
1557	 1.30572324814515E-03 
1558	 1.39364715291533E-03 
1559	 1.35388200894983E-03 
1560	 0.001351169327434 
1561	 1.31083896356081E-03 
1562	 1.3110286771043E-03 
1563	 1.35005753498026E-03 
1564	 1.32159122456697E-03 
1565	 1.13322074787018E-03 
1566	 1.04658294196174E-03 
1567	 1.22327299756012E-03 
1568	 1.28962854795339E-03 
1569	 1.21350202548391E-03 
1570	 1.22977281368805E-03 
1571	 1.32411400277763E-03 
1572	 1.30963071995312E-03 
1573	 1.16600582211017E-03 
1574	 1.25235132048898E-03 
1575	 1.49409957429223E-03 
1576	 1.36992725174646E-03 
1577	 1.26090727776939E-03 
1578	 1.57740880966975E-03 
1579	 1.63105280145864E-03 
1580	 1.38667811469781E-03 
1581	 1.43690671747746E-03 
1582	 1.5082934587167E-03 
1583	 1.31908153133288E-03 
1584	 1.25721818585979E-03 
1585	 1.53379822463001E-03 
1586	 1.61596248647214E-03 
1587	 1.28040865474984E-03 
1588	 1.21496344031932E-03 
1589	 1.36986594176717E-03 
1590	 1.24856510091322E-03 
1591	 1.23313093545867E-03 
1592	 1.27790690468353E-03 
1593	 1.12778413326332E-03 
1594	 1.19422142780197E-03 
1595	 1.37359268074586E-03 
1596	 1.49387062611043E-03 
1597	 1.56524593207874E-03 
1598	 1.40349911244548E-03 
1599	 1.31493751555869E-03 
1600	 1.4529429904308E-03 
1601	 1.54827893306381E-03 
1602	 1.52150480045926E-03 
1603	 1.3365839307861E-03 
1604	 1.1763835887671E-03 
1605	 1.2531161183863E-03 
1606	 1.27943692408738E-03 
1607	 1.12309208426143E-03 
1608	 1.19119229254262E-03 
1609	 1.44047284291712E-03 
1610	 1.38396144638024E-03 
1611	 1.32202972319288E-03 
1612	 1.36784580711846E-03 
1613	 0.000995095437912 
1614	 7.4388486515482E-04 
1615	 1.04663762874378E-03 
1616	 1.26115910242571E-03 
1617	 1.34754542736323E-03 
1618	 1.42094182454451E-03 
1619	 1.26787622869959E-03 
1620	 1.25374823538567E-03 
1621	 1.30459131675082E-03 
1622	 1.18424174062902E-03 
1623	 1.26047909421152E-03 
1624	 1.34781124026899E-03 
1625	 1.31239771366702E-03 
1626	 1.30341253735613E-03 
1627	 1.28717352545946E-03 
1628	 1.3042053350695E-03 
1629	 1.25697879877334E-03 
1630	 1.31694089329761E-03 
1631	 1.66602054580239E-03 
1632	 1.73598316989085E-03 
1633	 1.48343210588341E-03 
1634	 1.51582422174944E-03 
1635	 1.53895175583479E-03 
1636	 1.30328052680298E-03 
1637	 1.38259092331878E-03 
1638	 1.59640291564925E-03 
1639	 1.5137610398856E-03 
1640	 1.60271251517106E-03 
1641	 1.67813555035602E-03 
1642	 1.62519229604256E-03 
1643	 1.78349225920463E-03 
1644	 1.56969699177745E-03 
1645	 1.29586014584778E-03 
1646	 1.46682443563811E-03 
1647	 1.39302878514048E-03 
1648	 1.30999365587447E-03 
1649	 1.59938712814304E-03 
1650	 1.57441614488521E-03 
1651	 1.19233633375892E-03 
1652	 1.12704912658994E-03 
1653	 1.54785662225285E-03 
1654	 1.48240002385297E-03 
1655	 1.40553770777818E-03 
1656	 1.40603310925984E-03 
1657	 1.10310595857976E-03 
1658	 1.00799478199775E-03 
1659	 1.11682489217668E-03 
1660	 1.27452010780929E-03 
1661	 1.52316624821781E-03 
1662	 1.38263176276881E-03 
1663	 1.1963681190715E-03 
1664	 1.26766629280619E-03 
1665	 1.09405704626287E-03 
1666	 8.87377106634403E-04 
1667	 9.31861334104774E-04 
1668	 1.31153766674084E-03 
1669	 1.13939836903047E-03 
1670	 8.31146711543521E-04 
1671	 1.0967845721114E-03 
1672	 1.09345699603703E-03 
1673	 8.01941346645572E-04 
1674	 1.08218730785835E-03 
1675	 1.42465707623919E-03 
1676	 1.3428231059582E-03 
1677	 1.45295269158797E-03 
1678	 1.68667392909147E-03 
1679	 1.55229000413017E-03 
1680	 1.31170767386556E-03 
1681	 1.22575707961925E-03 
1682	 1.50104792162122E-03 
1683	 1.60752721235871E-03 
1684	 1.16972554561592E-03 
1685	 1.20985211656396E-03 
1686	 1.4013809132343E-03 
1687	 1.28734503624327E-03 
1688	 1.62408582594338E-03 
1689	 1.64261605471936E-03 
1690	 9.93599124528611E-04 
1691	 8.51521321798678E-04 
1692	 1.22233500834072E-03 
1693	 1.52784245073768E-03 
1694	 1.79507214533046E-03 
1695	 1.67627358847405E-03 
1696	 9.25664234415022E-04 
1697	 5.70072078360725E-04 
1698	 1.19994860922423E-03 
1699	 1.59143852704834E-03 
1700	 1.58644692644965E-03 
1701	 1.66386455495732E-03 
1702	 1.1785372231269E-03 
1703	 8.9522843989758E-04 
1704	 1.2401321238699E-03 
1705	 1.24107337607512E-03 
1706	 1.13233470446586E-03 
1707	 1.31795834530199E-03 
1708	 1.34469192033194E-03 
1709	 1.17186139182357E-03 
1710	 1.35509867657716E-03 
1711	 1.39910559781988E-03 
1712	 9.03947708310992E-04 
1713	 1.58250759014669E-03 
1714	 1.74459766876898E-03 
1715	 1.19379095572889E-03 
1716	 1.4760783054532E-03 
1717	 1.19056469368116E-03 
1718	 7.02077012368627E-04 
1719	 1.10216693029716E-03 
1720	 1.58041746072579E-03 
1721	 1.61423003869206E-03 
1722	 1.68115766755628E-03 
1723	 1.84875421740515E-03 
1724	 1.75300049620856E-03 
1725	 1.69832597020836E-03 
1726	 1.65314444351014E-03 
1727	 1.09262059705415E-03 
1728	 8.42059304562892E-04 
1729	 1.09167839684174E-03 
1730	 1.37580722212505E-03 
1731	 1.87758838992448E-03 
1732	 1.89065343710927E-03 
1733	 1.22321726018559E-03 
1734	 9.20822705494367E-04 
1735	 9.31419131509897E-04 
1736	 1.08530963899326E-03 
1737	 1.55701290045215E-03 
1738	 1.69179416354677E-03 
1739	 1.59615474113775E-03 
1740	 1.7408364878992E-03 
1741	 1.68207981218929E-03 
1742	 1.3747839754355E-03 
1743	 1.1967440771781E-03 
1744	 1.03357658428174E-03 
1745	 9.25462006223506E-04 
1746	 1.18071163696622E-03 
1747	 1.24406454405487E-03 
1748	 1.04999130650208E-03 
1749	 1.12137410022889E-03 
1750	 1.44510083951702E-03 
1751	 1.38518391965839E-03 
1752	 1.15787143095804E-03 
1753	 1.07060627500689E-03 
1754	 6.95949750765005E-04 
1755	 8.12271176027315E-04 
1756	 1.39781323519534E-03 
1757	 1.61746553906331E-03 
1758	 1.93418154569747E-03 
1759	 1.51465733392295E-03 
1760	 1.2492617948533E-03 
1761	 1.77479769249267E-03 
1762	 1.49687859033525E-03 
1763	 1.47167587340633E-03 
1764	 2.17282353362457E-03 
1765	 1.5336576007957E-03 
1766	 1.39697324732342E-03 
1767	 1.79896928427595E-03 
1768	 1.01790268832964E-03 
1769	 1.36022331653294E-03 
1770	 2.20489900787372E-03 
1771	 2.23684550169991E-03 
1772	 2.42581577564219E-03 
1773	 1.82402018086765E-03 
1774	 1.19203564138243E-03 
1775	 1.83740325751038E-03 
1776	 1.43555142845745E-03 
1777	 7.15604544241814E-05 
1778	-2.75654742542593E-04 
1779	-1.08494748622991E-03 
1780	-6.93692009868895E-04 
1781	 2.33922166778459E-03 
1782	 2.59921929578235E-03 
1783	 1.52948186280208E-03 
1784	 1.68157374230287E-03 
1785	 5.56918676690996E-04 
1786	 7.32645463994929E-04 
1787	 2.98105796473465E-03 
1788	 2.65508505692598E-03 
1789	 1.14066243237511E-03 
1790	 8.47857333116929E-04 
1791	 2.43579109882691E-04 
1792	 3.94769173581905E-04 
1793	-1.62788086285801E-03 
1794	-2.26002676900355E-03 
1795	-4.72417675794418E-04 
1796	 4.97422534151657E-03 
1797	 1.16761438866641E-02 
1798	 1.14723909458793E-02 
1799	 7.86316103546598E-03 
1800	-3.68590611306723E-03 
1801	-7.82847999217062E-03 
1802	 2.36040076685617E-03 
1803	 5.45489240631937E-03 
1804	 1.16162367795376E-02 
1805	 1.53418950210727E-02 
1806	 4.27833300667091E-03 
1807	 1.81391579719782E-03 
1808	 9.36699955418935E-03 
1809	 9.3209430550664E-03 
1810	 6.24989303465248E-03 
1811	-3.53537762191493E-04 
1812	-2.71417469921592E-02 
1813	-0.015886568330074 
1814	 5.86016281188954E-02 
1815	 7.30037307385012E-02 
1816	 8.20532760427935E-02 
1817	 1.02387155460138E-02 
1818	-8.03432863619211E-02 
1819	-0.127029426365085 
1820	-0.120932810079346 
1821	-8.24724569289845E-02 
1822	-4.27469053846332E-02 
1823	 0.148450112033754 
1824	 0.119838433419261 
1825	-0.159613257936653 
1826	-0.195179716278886 
1827	-0.271586065833672 
1828	-0.253068104681194 
1829	 6.61150828958248E-02 
1830	 0.258923216512394 
1831	-2.02661528687718E-02 
1832	 0.196305281181422 
1833	 0.466492783402095 
1834	 0.386598251223225 
1835	-3.04697461656131E-02 
1836	-0.226245140016042 
1837	-0.831204312022072 
1838	-1.27829747964344 
1839	-1.15785193985634 
1840	-0.708801742985759 
1841	-0.467933491115916 
1842	-0.588886647021331 
1843	-0.472170282515426 
1844	-4.1204328837803 
1845	-2.9341781399819 
1846	 0.666887337379619 
1847	 0.553415034011838 
1848	 0.731700933751701 
1849	 0.520146274101073 
1850	-0.94129297738655 
1851	 0.270652640135165 
1852	 5.88304901803374E-02 
1853	 0.523496188872964 
1854	 0.536191658278891 
1855	 0.808404448688641 
1856	 0.958651968693065 
1857	-0.726182968396887 
1858	 2.80789173591735 
1859	 0.426401974767272 
1860	 0.137224047742919 
1861	-2.35692247517664E-02 
1862	-0.338464196849978 
1863	-0.943364971937324 
1864	-0.911623340358546 
1865	-2.61281178407708 
1866	 0.769188688368652 
1867	 0.554706914573793 
1868	 0.477719681277617 
1869	 0.375226722009517 
1870	 0.320424774957259 
1871	 2.60277031813873E-03 
1872	 0.10754317611958 
1873	 7.97508527594056 
1874	-4.11258344642548 
1875	 1.23790401513267 
1876	 1.25125563659223 
1877	-0.669111539632533 
1878	-0.322129753142334 
1879	 1.43276216783928 
1880	 1.38657534040693 
1881	 0.189489423598449 
1882	 0.867866114815461 
1883	 2.23803700103551 
1884	-18.9685977058735 
1885	-2.02675612881761 
1886	-1.81778867098449 
1887	 1.64162300738616 
1888	 0.635270953825179 
1889	 0.499817316138184 
1890	-0.740902197943795 
1891	-1.14810020371112 
1892	-1.64317327484085 
1893	-2.71890436743643 
1894	-1.6598497150763 
1895	-0.623348848747035 
1896	-0.475616039638872 
1897	-0.543970407830918 
1898	-0.524554499237384 
1899	-0.525969456026894 
1900	-0.336140151073659 
1901	 1.46523948458186 
1902	 6.238606354285 
1903	 2.39138631946109 
1904	 0.240732511764877 
1905	 1.34887002914874 
1906	-7.93578687396652 
1907	 2.13746226770018 
1908	-0.766167026276474 
1909	 0.106378476714193 
1910	-0.463111525022314 
1911	-1.65226324563009 
1912	-1.54593798720991 
1913	-0.851498378715687 
1914	-0.405629208634917 
1915	-0.330579640982401 
1916	-0.237628489929659 
1917	-0.264943324984361 
1918	-0.253376791963202 
1919	-0.128929399990719 
1920	 1.05995250492966 
1921	 0.33301556999326 
1922	 0.216235985025438 
1923	-6.56508804252679 
1924	-2.85999421600977 
1925	 0.957822369894592 
1926	 0.456772216995729 
1927	 0.315075980399074 
1928	-0.369920166583734 
1929	 0.168503155719129 
1930	 0.400168710596245 
1931	 0.155157421138581 
1932	 0.117754788185271 
1933	 1.13403378314095E-02 
1934	-0.131180198516392 
1935	-0.130786412773828 
1936	-6.93050216083806E-02 
1937	-2.48492214743752E-02 
1938	 3.99705163246094E-02 
1939	 4.45930426362653E-02 
1940	 4.97656973071642E-02 
1941	 3.26947358173998E-02 
1942	 2.95920911390363E-03 
1943	-1.90567911008046E-02 
1944	-1.70232975242781E-02 
1945	 2.64984365031874E-03 
1946	 3.17289641471796E-02 
1947	 4.20956590969884E-02 
1948	 3.56160234777391E-02 
1949	 0.016857989748216 
1950	 7.61924468799431E-03 
1951	 9.84201214925071E-03 
1952	 2.97521101928147E-03 
1953	-1.18121531423627E-03 
1954	 3.16782417003308E-03 
1955	-6.56756913355901E-03 
1956	-2.70168178020828E-02 
1957	-2.11635221877382E-02 
1958	-5.85507594439373E-03 
1959	 1.98667178296031E-04 
1960	 8.49759497020782E-03 
1961	 1.20664063213387E-02 
1962	 5.87563959443196E-03 
1963	 3.18338571514097E-03 
1964	 8.17207098073217E-04 
1965	-1.74498171442957E-03 
1966	-2.54170754374244E-03 
1967	-2.14549199230695E-03 
1968	-2.78460665350698E-03 
1969	-0.002831628566675 
1970	-2.86378481695945E-03 
1971	-3.9301591311983E-03 
1972	-2.87433945218549E-03 
1973	-7.82638268855891E-04 
1974	-1.04312294839606E-03 
1975	-8.18292127164641E-04 
1976	-6.1611750485444E-04 
1977	-1.27309388510616E-03 
1978	-5.54682478580162E-04 
1979	-3.09753640433761E-04 
1980	 3.51222990962646E-04 
1981	 4.63052637621942E-04 
1982	-4.24511412417605E-05 
1983	-5.28082144241886E-04 
1984	 1.85577998507271E-04 
1985	 1.00536895278253E-04 
1986	-7.48930861717715E-04 
1987	-9.22634347313108E-04 
1988	-5.16674388229062E-04 
1989	-3.5392187742437E-04 
1990	 2.66899201168398E-04 
1991	 0.001392094905497 
1992	 1.38875138922329E-03 
1993	 1.77407123585056E-03 
1994	 1.98938255441835E-03 
1995	 2.72084685079408E-03 
1996	 2.12955514184278E-03 
1997	 1.27559894171209E-03 
1998	-3.68773293878144E-04 
1999	-1.5259701998049E-03 
2000	-4.139506797353E-04 
2001	 1.0264428015304E-03 
2002	 1.83107551156753E-03 
2003	 3.66125038576673E-03 
2004	 4.77776080322555E-03 
2005	 1.75454737372203E-03 
2006	 1.07903915430164E-03 
2007	 1.35478219103449E-03 
2008	-7.36811299973652E-04 
2009	-1.66153673590874E-03 
2010	-3.60017281497156E-04 
2011	-5.8197129069707E-04 
2012	-2.49460895288166E-03 
2013	-1.78855366250958E-03 
2014	-1.11197801556673E-03 
2015	-3.01925434204646E-04 
2016	 1.08175263960846E-03 
2017	 5.59043483183485E-04 
2018	-1.20516404930698E-03 
2019	-2.01531640120078E-03 
2020	-1.60745819482592E-03 
2021	-1.10172062288883E-03 
2022	-7.76323743101434E-04 
2023	-5.30619126179849E-04 
2024	 1.7842651885174E-04 
2025	 9.4021247642082E-04 
2026	 1.28830218452496E-03 
2027	 1.93087353790642E-03 
2028	 2.41670541387215E-03 
2029	 1.96037585854357E-03 
2030	 9.45815730804702E-04 
2031	 7.21045899517085E-04 
2032	 1.07221886157596E-03 
2033	 1.42076534479531E-03 
2034	 1.24094712662458E-03 
2035	 9.27427488759183E-04 
2036	 1.03099421218766E-03 
2037	 2.55500706895461E-04 
2038	-4.71142644983819E-04 
2039	-5.78697518782561E-04 
2040	-6.02032060670745E-04 
2041	-6.38530390265638E-04 
2042	 7.65721163280289E-05 
2043	 3.20686391972489E-04 
2044	 3.81298595602601E-04 
2045	-2.04180071170785E-05 
2046	-4.88109381493886E-04 
2047	 1.31407285891013E-04 
2048	 9.25510281455633E-04 
2049	 1.26134525494923E-03 
2050	 1.20313653081789E-03 
2051	 6.79245970965318E-04 
2052	 5.95673784135174E-04 
2053	 3.27837418600612E-04 
2054	 4.48623224986226E-05 
2055	 4.70993733191909E-04 
2056	 6.54398645809917E-04 
2057	-6.32722275164211E-05 
2058	 4.43910651876762E-04 
2059	 2.22657253258684E-03 
2060	 2.74116503961127E-03 
2061	 3.03984264259135E-03 
2062	 3.38357817614432E-03 
2063	 3.46618929271391E-03 
2064	 3.7149390348729E-03 
2065	 3.21104299384878E-03 
2066	 1.91099674926403E-03 
2067	 7.24852746665716E-04 
2068	 3.52427234724064E-04 
2069	 4.14979677767918E-04 
2070	 2.50311322073228E-04 
2071	 4.32595138586317E-04 
2072	 1.49458399408108E-04 
2073	-1.01094848843222E-04 
2074	-4.04159180019521E-05 
2075	 3.27691777919976E-04 
2076	 5.58136232383954E-04 
2077	 7.06151776445106E-04 
2078	 1.30652327229868E-03 
2079	 1.38469399455737E-03 
2080	 1.03822696812238E-03 
2081	 7.78994442146131E-04 
2082	 6.0009798787903E-04 
2083	 4.77445416412677E-04 
2084	 2.97106377600591E-04 
2085	 5.2820557184802E-04 
2086	 1.16538846653191E-03 
2087	 1.60204055250719E-03 
2088	 1.74554312989869E-03 
2089	 1.31115906437279E-03 
2090	 6.11479247493025E-04 
2091	 1.08663943836486E-04 
2092	-9.20838302719817E-05 
2093	 3.22014506160686E-04 
2094	 6.03371048015641E-04 
2095	 9.51354678326731E-04 
2096	 9.88354767362031E-04 
2097	 9.1697313919248E-04 
2098	 1.00676210368741E-03 
2099	 6.70447180375038E-04 
2100	 1.1836215650405E-03 
2101	 2.27976723440882E-03 
2102	 2.15742659242538E-03 
2103	 1.42426743006817E-03 
2104	 9.65016827195945E-04 
2105	 2.25270517383863E-04 
2106	-9.09117991228968E-05 
2107	 1.3002261312552E-04 
2108	-2.08154634997002E-04 
2109	-5.26598693782796E-04 
2110	-3.75196790003002E-04 
2111	 3.2794645669099E-04 
2112	 9.70850589089679E-04 
2113	 1.08563797885578E-03 
2114	 9.55664874123534E-04 
2115	 7.58491413719232E-04 
2116	-1.42588415145797E-04 
2117	-2.94202935937784E-04 
2118	-2.44963119111422E-04 
2119	 2.02306644731717E-05 
2120	 7.69054853749728E-04 
2121	 1.15028012741762E-03 
2122	 1.69646750004203E-03 
2123	 2.63205805862477E-03 
2124	 2.83876802984372E-03 
2125	 3.12066086081118E-03 
2126	 2.73604708687223E-03 
2127	 1.73610604409306E-03 
2128	 1.45929547604585E-03 
2129	 5.43672226557564E-04 
2130	-2.23822877240041E-05 
2131	 7.77226184376015E-04 
2132	 3.2283941349497E-04 
2133	-1.09332688200439E-03 
2134	-8.7904627123234E-04 
2135	 2.66370148157157E-04 
2136	 5.74770384960707E-04 
2137	 1.95150701078819E-03 
2138	 2.41277052752627E-03 
2139	 1.38274163099567E-03 
2140	 8.35373073572703E-04 
2141	-1.68885978394329E-04 
2142	-4.92445022301291E-05 
2143	 7.84769026694277E-04 
2144	 1.66140913604099E-03 
2145	 1.87875704315237E-03 
2146	 3.05280718463989E-03 
2147	 2.62262895677479E-03 
2148	 7.55779442730325E-04 
2149	 5.47855677215001E-04 
2150	 9.16115592898208E-04 
2151	 5.75634007803361E-04 
2152	 7.53634934626732E-04 
2153	 7.92156573289727E-04 
2154	 4.55264040173805E-05 
2155	-3.46926929497354E-04 
2156	-5.43573681110692E-04 
2157	-6.00063939161843E-04 
2158	-8.29652794170586E-04 
2159	-5.67831363436668E-04 
2160	 4.72030120173689E-04 
2161	 1.01349348505723E-03 
2162	 2.19011183721634E-03 
2163	 1.87884202173168E-03 
2164	-5.88693878923942E-04 
2165	-6.94242792275651E-04 
2166	 3.26827650556352E-04 
2167	 3.39563385885654E-06 
2168	 3.0748983964264E-04 
2169	 5.03851887755059E-04 
2170	-5.77049962211412E-04 
2171	-1.54583009697159E-03 
2172	-6.96255155706765E-04 
2173	 2.86600833157622E-04 
2174	 2.04381193288276E-04 
2175	-3.06728081583829E-04 
2176	-1.24369790205786E-03 
2177	-7.91607711021754E-04 
2178	 3.00293485102273E-04 
2179	 2.51285774533033E-04 
2180	 1.87786670880505E-03 
2181	 3.06508381956064E-03 
2182	 1.89834240071237E-03 
2183	 2.31399087267608E-03 
2184	 2.20420555502387E-03 
2185	-4.34428948559868E-05 
2186	-3.57201768471347E-04 
2187	 8.58235841206589E-04 
2188	 1.35539324017652E-03 
2189	 0.002169678763249 
2190	 2.85589229850523E-03 
2191	 3.58000949162331E-03 
2192	 3.86357538753683E-03 
2193	 4.14400977890995E-03 
2194	 3.89899272537029E-03 
2195	 2.1411987239031E-03 
2196	 2.13583894411594E-03 
2197	 3.71769857885203E-03 
2198	 3.46423957976499E-03 
2199	 2.89945848560603E-03 
2200	 3.4294829141235E-03 
2201	 1.15181436443986E-03 
2202	-1.23799910479628E-03 
2203	 3.41826262053954E-04 
2204	 1.44108179576976E-04 
2205	-2.76008974785515E-04 
2206	 1.06531513837099E-03 
2207	 1.0364748899379E-03 
2208	 5.50377369678816E-04 
2209	-8.7339053361694E-04 
2210	-1.17226820085834E-03 
2211	 3.20803525624074E-04 
2212	 1.59702933238642E-04 
2213	 1.0285026951765E-03 
2214	 1.05302927062134E-03 
2215	-6.5023112709632E-04 
2216	 2.6187031798094E-04 
2217	 2.0497582212872E-04 
2218	 2.79718457887731E-04 
2219	 2.45575359039964E-04 
2220	-1.809801089064E-04 
2221	-3.65391115969628E-04 
2222	-7.38972014132047E-04 
2223	-2.3716549517153E-04 
2224	 1.68505297293517E-03 
2225	 1.57093576595886E-03 
2226	 8.05807624413701E-04 
2227	 7.33182560442196E-04 
2228	-7.66685910575819E-04 
2229	-1.28617547334973E-03 
2230	-4.51225237493821E-04 
2231	 2.61736499144771E-05 
2232	 2.82247841208901E-04 
2233	 7.36943399919815E-04 
2234	 1.66841716965681E-03 
2235	 2.30618435439115E-03 
2236	 2.10569949538535E-03 
2237	 3.39391462053513E-03 
2238	 3.81293692793063E-03 
2239	 3.40485597337088E-03 
2240	 3.06512344233859E-03 
2241	 2.33754678727459E-03 
2242	 1.3937336496123E-03 
2243	 1.81616353637394E-04 
2244	 9.5705650999362E-04 
2245	 6.44466583945684E-04 
2246	-4.56195274697914E-04 
2247	 2.67229552871018E-04 
2248	 4.2645244123137E-04 
2249	-1.44337662253894E-04 
2250	-1.36554103778909E-03 
2251	-2.53259292585193E-03 
2252	-3.55617465460661E-03 
2253	-4.08346583823332E-03 
2254	-3.23616251856563E-03 
2255	-2.10186683396855E-03 
2256	-1.32891136852663E-03 
2257	 1.52051420456124E-04 
2258	 2.52901570164214E-03 
2259	 2.79278153844742E-03 
2260	 2.54633400845851E-03 
2261	 4.12404969447704E-04 
2262	-1.63323947441499E-05 
2263	 2.31756316445097E-04 
2264	 5.6626035567957E-05 
2265	 6.73567989195299E-04 
2266	 4.51433747578767E-04 
2267	-1.53864665951005E-03 
2268	-2.0497675359433E-03 
2269	-1.62560089235042E-03 
2270	-1.70465028038504E-03 
2271	-1.1072710463113E-03 
2272	-1.77034044748054E-03 
2273	-4.15961175571552E-03 
2274	-4.03844466413938E-03 
2275	-4.03741917677035E-03 
2276	-2.95814090197955E-03 
2277	 2.52583872177643E-03 
2278	 3.44852167594916E-03 
2279	 2.00612118072198E-03 
2280	 1.9279486637764E-03 
2281	 6.4090906184412E-04 
2282	-2.05401204715623E-03 
2283	-2.12055676812287E-03 
2284	-2.54376411847559E-03 
2285	-3.86051879542248E-03 
2286	-3.94517442285199E-03 
2287	-3.14138487315462E-03 
2288	-1.86700900524534E-03 
2289	 2.08182173097311E-04 
2290	 2.04179078898167E-03 
2291	 3.22730150584786E-03 
2292	 3.46279688229517E-03 
2293	 2.08038192991879E-03 
2294	 3.95138044517893E-04 
2295	-4.11499647478752E-05 
2296	-2.37880592649819E-04 
2297	-1.87593423419965E-04 
2298	 1.2274634053113E-03 
2299	 6.74952023625024E-04 
2300	-9.10317543692547E-04 
2301	-5.02315533052339E-05 
2302	 2.11716428863653E-04 
2303	 1.23152144255988E-03 
2304	 4.07075795577805E-03 
2305	 3.55404929447887E-03 
2306	 2.11621835444827E-03 
2307	 1.90769546168653E-03 
2308	 1.02483493854828E-03 
2309	 1.53763177182304E-03 
2310	 3.20254568867773E-03 
2311	 2.9805990184295E-03 
2312	 1.8364321942591E-03 
2313	 2.67967226251802E-03 
2314	 3.70108842163271E-03 
2315	 3.6729629352531E-03 
2316	 4.10515757002252E-03 
2317	 1.00961534519446E-03 
2318	-3.27979315688931E-03 
2319	-4.11261575764255E-03 
2320	-2.89093663916659E-03 
2321	 3.59628565934097E-03 
2322	 6.93534298984613E-03 
2323	 5.20988718749003E-03 
2324	 4.05784868922119E-03 
2325	 2.41369051961029E-04 
2326	-6.20675130101693E-04 
2327	-9.86097700487773E-04 
2328	-9.92627985165154E-04 
2329	 2.47236043343473E-03 
2330	 3.0859841974049E-03 
2331	-1.61257375561435E-04 
2332	-7.02950225460186E-03 
2333	-1.35809229467388E-02 
2334	-0.016045433064542 
2335	-1.33807914235777E-02 
2336	-6.44596117586443E-03 
2337	 8.67173121346923E-05 
2338	 3.01621072460652E-03 
2339	 4.73010494006882E-03 
2340	 8.57597490454837E-03 
2341	 8.80048155306939E-03 
2342	 3.16481594782565E-03 
2343	-6.58396046078265E-03 
2344	-1.31674614331341E-02 
2345	-1.54219168245608E-02 
2346	-1.23465481054211E-02 
2347	-0.0033617728289 
2348	-7.25372098575908E-04 
2349	-1.82366472848225E-05 
2350	-4.58017274003946E-04 
2351	 3.0483164233895E-03 
2352	 1.24608106213064E-02 
2353	 0.016208831840534 
2354	 1.38144572531159E-02 
2355	 9.34522407995109E-03 
2356	 8.32458371649774E-03 
2357	 4.07526832068081E-03 
2358	 9.83425479332525E-03 
2359	 2.27750717625484E-02 
2360	 1.76474784288159E-02 
2361	 1.55931945258962E-02 
2362	 1.63860748397582E-02 
2363	 1.97637273381825E-03 
2364	-5.78010501873771E-03 
2365	-3.48681842380991E-03 
2366	-4.21659198229022E-03 
2367	-2.79774282796749E-03 
2368	 3.37908971707625E-03 
2369	 4.6926206940966E-03 
2370	-1.10534493882969E-02 
2371	-1.89773850683364E-02 
2372	-1.75006786279145E-02 
2373	-2.43508592501085E-02 
2374	-1.47871986149961E-02 
2375	-5.51618158714603E-03 
2376	-1.41856229348242E-02 
2377	-0.019720241304177 
2378	-1.97097199248867E-02 
2379	-0.026267335632795 
2380	-2.53922374374021E-02 
2381	-2.61183705262282E-02 
2382	-4.05724989009194E-02 
2383	-3.60299646057886E-02 
2384	-4.40520522401904E-02 
2385	-4.81216753793683E-02 
2386	-2.82201075585677E-02 
2387	-3.99386924483587E-02 
2388	-0.048242886896507 
2389	-4.95565558757737E-02 
2390	-5.55472399754236E-02 
2391	-3.51118013503427E-02 
2392	-2.28692575899784E-02 
2393	-2.64929863196756E-02 
2394	-3.90282740337114E-02 
2395	-0.040385909067542 
2396	-1.54600337197013E-02 
2397	-7.44523948028181E-03 
2398	 7.5232547126858E-04 
2399	 6.72075675005764E-03 
2400	-1.87580033840238E-02 
2401	-1.47997537833104E-02 
2402	 1.05336203138384E-02 
2403	 2.81431356775635E-03 
2404	 4.90793245361866E-03 
2405	 1.58850373528007E-03 
2406	 1.18888782225831E-03 
2407	 0.039962629204645 
2408	 6.47061742674175E-02 
2409	 9.80676478255671E-02 
2410	 8.11727476529545E-02 
2411	 1.96345316743148E-02 
2412	 4.56246024010453E-02 
2413	 0.04973783982096 
2414	 4.04668359150147E-02 
2415	 8.24815371279488E-02 
2416	 4.62025147226756E-02 
2417	-0.019807400535766 
2418	-3.74533259615812E-02 
2419	-8.59669765256609E-02 
2420	-0.101375140714639 
2421	-6.77235662914115E-02 
2422	-6.05414749322252E-02 
2423	-5.75690128779794E-02 
2424	-7.88279883875723E-02 
2425	-0.109557261021256 
2426	-0.111607087391439 
2427	-0.102360137347427 
2428	-0.105900144807621 
2429	-0.117685386821087 
2430	-0.156816386311053 
2431	-0.175587156389273 
2432	-0.147168314595261 
2433	-8.05070517666429E-02 
2434	-4.09029823328857E-03 
2435	 2.56024465323055E-02 
2436	-1.57144123602213E-02 
2437	-0.162894970431966 
2438	-0.279696745302304 
2439	-0.242972832529833 
2440	-0.200964482331985 
2441	-0.175034804584125 
2442	-0.150676938011686 
2443	-0.228036783390542 
2444	-0.313000877917525 
2445	-0.339419254983941 
2446	-0.404788295470125 
2447	-0.285749462348744 
2448	-0.225250103735399 
2449	-0.215111367554037 
2450	-0.266002408277729 
2451	-0.386909222765814 
2452	-0.34217559370487 
2453	-0.377743950917455 
2454	-0.418195196987259 
2455	-0.412302253192087 
2456	-0.451279094325214 
2457	-0.387558313852587 
2458	-0.260362085965157 
2459	-0.208503835240918 
2460	-0.283869173150755 
2461	-0.535676642523585 
2462	-0.799860436398397 
2463	-1.06631747092474 
2464	-1.21528620122888 
2465	-0.534995194034968 
2466	-0.217783802243694 
2467	-0.297905946291593 
2468	-0.319974251369343 
2469	-0.2300255820764 
2470	-0.834160334130284 
2471	-0.645560672814486 
2472	-0.457803015427692 
2473	-1.34347575998398 
2474	-1.61779113977949 
2475	-2.25989427154366 
2476	-3.14771557192752 
2477	-1.12157251262614 
2478	-0.618560086975497 
2479	-0.624419393197184 
2480	-0.420664911031303 
2481	-0.456615203305552 
2482	-0.207072607239518 
2483	 0.489390964412091 
2484	-28.531489649294 
2485	 1.25837458526842 
2486	-0.576414831579482 
2487	-1.95213714125322 
2488	-1.03743844252474 
2489	 1.23633341301878 
2490	 0.603823463826678 
2491	 0.768737186150641 
2492	 2.88845532680635 
2493	-0.639979076703601 
2494	 0.252955926040971 
2495	-34.1453571695326 
2496	-9.06878216502657 
2497	 9.90450810119641 
2498	 1.76566861427023 
2499	 0.885471935504899 
2500	 0.167221667441279 
