Wavelength	rt0718close00000.asd
350	 1.32549315965338E-02 
351	 1.30637045679445E-02 
352	 1.35718159468496E-02 
353	 1.42005775672985E-02 
354	 0.014406769668437 
355	 1.40145821001359E-02 
356	 1.41523174780913E-02 
357	 1.45002907974269E-02 
358	 1.44790952580144E-02 
359	 1.45761368094248E-02 
360	 1.45263541628817E-02 
361	 1.44625901886913E-02 
362	 1.47209287218235E-02 
363	 1.47022022817715E-02 
364	 1.46496470741294E-02 
365	 1.47978504706505E-02 
366	 1.52177798330814E-02 
367	 1.54382255675612E-02 
368	 1.53920987417436E-02 
369	 1.52148371206439E-02 
370	 0.015273462814269 
371	 1.53684255757126E-02 
372	 1.54390178265894E-02 
373	 1.55010511860552E-02 
374	 1.54234908871401E-02 
375	 0.015622132523378 
376	 1.62355534027763E-02 
377	 1.69511895369377E-02 
378	 0.016526559616799 
379	 1.59925306142568E-02 
380	 0.01631847253152 
381	 1.64816013630901E-02 
382	 1.66738440717079E-02 
383	 1.68606690852334E-02 
384	 1.69565787839178E-02 
385	 1.71791250319554E-02 
386	 1.74644241448654E-02 
387	 1.76722879077255E-02 
388	 0.017629220686885 
389	 0.017740697654022 
390	 1.78444654072138E-02 
391	 0.017815935635978 
392	 1.78552860567568E-02 
393	 0.018268611749333 
394	 1.88429850503576E-02 
395	 1.91910343261431E-02 
396	 1.91303142721366E-02 
397	 0.019276682705057 
398	 1.95544266908499E-02 
399	 1.93264120446499E-02 
400	 1.94234295325468E-02 
401	 1.96495155899612E-02 
402	 1.97849131001447E-02 
403	 1.99185397458837E-02 
404	 2.01304337819168E-02 
405	 2.02705967032063E-02 
406	 2.02055437571676E-02 
407	 2.04047275292848E-02 
408	 2.06494030570425E-02 
409	 2.07714038264024E-02 
410	 2.07210109787694E-02 
411	 2.10034799640441E-02 
412	 2.12574109824625E-02 
413	 2.12391400189876E-02 
414	 2.13409902358968E-02 
415	 2.16073208920053E-02 
416	 2.18961296837224E-02 
417	 2.20202980416095E-02 
418	 2.20634534152986E-02 
419	 2.22825607595727E-02 
420	 2.26430411013664E-02 
421	 2.28029532807173E-02 
422	 2.29383097644123E-02 
423	 2.31271724418796E-02 
424	 2.33653420250269E-02 
425	 2.34552358917743E-02 
426	 2.37055236853295E-02 
427	 2.40521715925589E-02 
428	 2.42813377390155E-02 
429	 2.45495669617853E-02 
430	 2.48173890658109E-02 
431	 0.025062972487217 
432	 2.53052776572782E-02 
433	 2.56548056391124E-02 
434	 0.025977590572206 
435	 2.61852695922193E-02 
436	 2.64873301708115E-02 
437	 2.67567277262185E-02 
438	 2.70327196819191E-02 
439	 2.74034006869908E-02 
440	 0.027540403939888 
441	 2.77787215362971E-02 
442	 2.82103779464226E-02 
443	 2.84738180787734E-02 
444	 2.87010731193066E-02 
445	 2.89551785022415E-02 
446	 2.92422056407058E-02 
447	 2.93906642168102E-02 
448	 2.96700686105176E-02 
449	 0.03001891347394 
450	 3.01522344601052E-02 
451	 3.02831403421648E-02 
452	 3.04729575167238E-02 
453	 3.07064508699845E-02 
454	 3.08571100777657E-02 
455	 3.10442160484887E-02 
456	 3.12091303821305E-02 
457	 3.12791665632154E-02 
458	 0.031459038809108 
459	 3.15970941911825E-02 
460	 3.16988499315732E-02 
461	 0.031932323990069 
462	 3.21033179787012E-02 
463	 3.22180330230663E-02 
464	 3.23062612930736E-02 
465	 3.23252843640341E-02 
466	 3.24720866737806E-02 
467	 3.26912023463941E-02 
468	 3.28209589264762E-02 
469	 3.29653758662468E-02 
470	 3.31238287373723E-02 
471	 3.32867677631703E-02 
472	 3.34439509239172E-02 
473	 3.36114538942498E-02 
474	 3.37553489467877E-02 
475	 3.38781610924357E-02 
476	 3.41715873421709E-02 
477	 3.43255305416582E-02 
478	 0.034431543798356 
479	 3.48079094847953E-02 
480	 3.49825978791449E-02 
481	 3.51056500733931E-02 
482	 3.53076986562028E-02 
483	 3.55017034612787E-02 
484	 3.57938451525421E-02 
485	 3.60402982837324E-02 
486	 3.61174748575812E-02 
487	 3.65194305313916E-02 
488	 3.68489506960795E-02 
489	 3.70296965004817E-02 
490	 3.73308691252413E-02 
491	 3.75794771133637E-02 
492	 3.78389627086475E-02 
493	 3.81674588147668E-02 
494	 3.84970905634821E-02 
495	 3.88348977751039E-02 
496	 0.039126587184527 
497	 3.93298632902822E-02 
498	 3.97427289775892E-02 
499	 0.040187678800134 
500	 4.05518917943121E-02 
501	 4.09015154257069E-02 
502	 4.12082474433155E-02 
503	 0.041548847746687 
504	 4.19864605892291E-02 
505	 4.24331974889671E-02 
506	 4.27537419577762E-02 
507	 4.30457191392488E-02 
508	 4.35545708258482E-02 
509	 4.37964668073405E-02 
510	 4.40721638413255E-02 
511	 4.45948890746945E-02 
512	 4.51005440151981E-02 
513	 4.55249121855574E-02 
514	 4.58735175039624E-02 
515	 4.62218761624105E-02 
516	 4.67970064064568E-02 
517	 4.73561982258141E-02 
518	 4.77817326020767E-02 
519	 4.81690706548212E-02 
520	 4.86263402856749E-02 
521	 4.91132863307702E-02 
522	 4.95873697250826E-02 
523	 5.01320069423713E-02 
524	 5.06606557659104E-02 
525	 5.11523088105118E-02 
526	 5.16430770608529E-02 
527	 5.22168237853212E-02 
528	 5.27615497453555E-02 
529	 5.32277531758866E-02 
530	 5.37437220081247E-02 
531	 5.42546743385472E-02 
532	 5.47800228102094E-02 
533	 5.53441079187098E-02 
534	 0.05586042983145 
535	 5.63904155136581E-02 
536	 5.69646356344424E-02 
537	 5.75645917849702E-02 
538	 5.80876043428121E-02 
539	 5.86231965005634E-02 
540	 5.92541541254983E-02 
541	 5.98953653859932E-02 
542	 6.04335306112842E-02 
543	 6.09292732624727E-02 
544	 6.15340860032197E-02 
545	 6.20826355198024E-02 
546	 6.26441952112639E-02 
547	 6.32489208300422E-02 
548	 6.37934894033203E-02 
549	 6.43826505170733E-02 
550	 6.49775516201123E-02 
551	 6.55155521655323E-02 
552	 6.60982196879044E-02 
553	 6.66585972316616E-02 
554	 6.71965025230837E-02 
555	 6.77918600447259E-02 
556	 6.83521071588273E-02 
557	 6.89008401815603E-02 
558	 6.94592196325276E-02 
559	 6.99594132305288E-02 
560	 7.05021661130007E-02 
561	 7.10723716227633E-02 
562	 0.071585045022144 
563	 0.072012466090931 
564	 0.072455626051582 
565	 7.29379147044146E-02 
566	 0.073299223806317 
567	 7.36565286104402E-02 
568	 7.40673995913738E-02 
569	 7.45238586776576E-02 
570	 7.47875435004281E-02 
571	 7.50491217884348E-02 
572	 7.53866419275608E-02 
573	 7.57255382111504E-02 
574	 7.59505591235301E-02 
575	 7.61578147515337E-02 
576	 7.64240315740977E-02 
577	 0.076594307403987 
578	 0.07674432936295 
579	 0.076903952480877 
580	 7.70577684903522E-02 
581	 7.70270462741585E-02 
582	 7.70694027146003E-02 
583	 7.72494106193592E-02 
584	 7.71805765227307E-02 
585	 7.70873789611814E-02 
586	 7.69867574512058E-02 
587	 7.68416104080836E-02 
588	 7.67071225652599E-02 
589	 0.076647533384468 
590	 7.65834900623858E-02 
591	 7.63031078741015E-02 
592	 7.61315382029835E-02 
593	 7.58983825695568E-02 
594	 7.54647072630614E-02 
595	 7.51031780271431E-02 
596	 7.45773900090285E-02 
597	 7.39325033524943E-02 
598	 7.33592662408358E-02 
599	 0.072715212325182 
600	 7.21201016424066E-02 
601	 7.16855932366911E-02 
602	 0.07146194300068 
603	 7.12557220082318E-02 
604	 7.11045763576035E-02 
605	 7.10840338011363E-02 
606	 7.10259154151786E-02 
607	 7.10094565812806E-02 
608	 7.10640045135059E-02 
609	 7.11531870474926E-02 
610	 0.071237065563609 
611	 7.12631784646962E-02 
612	 7.12280882598468E-02 
613	 7.12696753681491E-02 
614	 7.12763162274039E-02 
615	 7.12488582507846E-02 
616	 0.07125204393496 
617	 7.13120965063415E-02 
618	 7.13348532205495E-02 
619	 7.12874385363504E-02 
620	 7.12514787887321E-02 
621	 7.12214395018442E-02 
622	 7.12467794136345E-02 
623	 7.13390485166867E-02 
624	 7.12730656207043E-02 
625	 7.11545827978345E-02 
626	 7.10901579334074E-02 
627	 0.071159530605016 
628	 7.11558513630757E-02 
629	 7.11252017261262E-02 
630	 7.11318276387826E-02 
631	 7.11502895377829E-02 
632	 7.11699372542594E-02 
633	 7.11328111656444E-02 
634	 0.071002968720177 
635	 7.10811889943303E-02 
636	 7.11296670711189E-02 
637	 7.10454161889491E-02 
638	 7.09897731312174E-02 
639	 7.09189243140886E-02 
640	 7.08973519942247E-02 
641	 7.09491374281329E-02 
642	 7.08318779702025E-02 
643	 0.070701898704167 
644	 7.06059636462135E-02 
645	 7.04985594357333E-02 
646	 7.04196245729393E-02 
647	 7.03614891108111E-02 
648	 7.02955456470758E-02 
649	 7.01594214730933E-02 
650	 7.00654315024624E-02 
651	 6.99221005865303E-02 
652	 6.96067772064826E-02 
653	 6.93261526240401E-02 
654	 6.89528145096182E-02 
655	 6.84789494630817E-02 
656	 6.81504869147002E-02 
657	 6.77162113646682E-02 
658	 6.72925156264057E-02 
659	 6.69899692825306E-02 
660	 6.67175323087842E-02 
661	 6.65410953726445E-02 
662	 6.63885737856958E-02 
663	 6.61305615696751E-02 
664	 6.59655840817054E-02 
665	 6.58582110905162E-02 
666	 6.57684288105511E-02 
667	 6.57127935258286E-02 
668	 6.55901221444111E-02 
669	 6.54796457915398E-02 
670	 6.54777456339994E-02 
671	 6.54387920992336E-02 
672	 6.53799760205685E-02 
673	 6.53503961738566E-02 
674	 6.54130223282903E-02 
675	 6.54373287487594E-02 
676	 6.54192510299455E-02 
677	 6.53977995291371E-02 
678	 0.06545804258003 
679	 6.54870513752984E-02 
680	 6.55100871014686E-02 
681	 6.55902324338118E-02 
682	 6.55776629896339E-02 
683	 6.55720047410111E-02 
684	 6.55967874908358E-02 
685	 6.55449271338893E-02 
686	 6.54543003872079E-02 
687	 0.06541436608347 
688	 6.54353888967287E-02 
689	 6.52205784442264E-02 
690	 6.50277426674202E-02 
691	 0.0648257005698 
692	 6.44344554491368E-02 
693	 6.41228827207018E-02 
694	 6.37901060203384E-02 
695	 6.33751458654098E-02 
696	 6.29279939539607E-02 
697	 6.23933699894354E-02 
698	 6.17785597317583E-02 
699	 6.11389972831313E-02 
700	 6.04852009621131E-02 
701	 5.97546200780288E-02 
702	 5.89746693590147E-02 
703	 5.82207587145569E-02 
704	 5.74487593414329E-02 
705	 5.66002169714453E-02 
706	 5.56664497953615E-02 
707	 5.47017821406351E-02 
708	 5.36166996401031E-02 
709	 5.24639040169599E-02 
710	 5.13197360142061E-02 
711	 5.00868067099475E-02 
712	 4.87663501755198E-02 
713	 4.73803315907375E-02 
714	 4.59321142274135E-02 
715	 4.45087416987551E-02 
716	 0.04300408284304 
717	 0.041402034006355 
718	 3.97710587575337E-02 
719	 3.81431176352959E-02 
720	 3.67346346119382E-02 
721	 3.54568519794501E-02 
722	 3.41147379563265E-02 
723	 3.26564475946486E-02 
724	 0.031204742797509 
725	 0.029668045119294 
726	 2.80668058993256E-02 
727	 2.64762182510231E-02 
728	 2.49173718874014E-02 
729	 2.31175831467736E-02 
730	 0.021302440734662 
731	 1.97420842311829E-02 
732	 1.85448209782503E-02 
733	 0.01739995547537 
734	 1.64009639069584E-02 
735	 1.56177626216741E-02 
736	 1.50297048622152E-02 
737	 1.46283318470274E-02 
738	 1.42651427552272E-02 
739	 0.013892722575441 
740	 0.013860760210301 
741	 1.37546243711856E-02 
742	 1.35978740540506E-02 
743	 1.36092160578824E-02 
744	 1.35241656180858E-02 
745	 1.34244971398786E-02 
746	 1.33924005227029E-02 
747	 1.34614743670789E-02 
748	 1.34604319203381E-02 
749	 1.33976122467757E-02 
750	 1.33442651410804E-02 
751	 1.34138744324794E-02 
752	 1.33668500257012E-02 
753	 0.013272616638283 
754	 0.013341085874299 
755	 1.33990393594468E-02 
756	 1.34207242414626E-02 
757	 1.34084289775416E-02 
758	 0.013373071669334 
759	 1.32977168363369E-02 
760	 1.32434582738621E-02 
761	 1.33054326584932E-02 
762	 1.33884146752972E-02 
763	 0.013415599216873 
764	 0.013508519974806 
765	 1.37410226994108E-02 
766	 1.37205207506854E-02 
767	 1.37941975851613E-02 
768	 1.39806298714022E-02 
769	 1.39860868576657E-02 
770	 1.40495370918442E-02 
771	 1.41854374228753E-02 
772	 1.43413808451135E-02 
773	 1.44023121809013E-02 
774	 1.45512890862336E-02 
775	 1.47625291431377E-02 
776	 1.49259019742897E-02 
777	 1.50338344303531E-02 
778	 1.51293633744334E-02 
779	 1.52837103760031E-02 
780	 1.55758045191573E-02 
781	 1.58145342460416E-02 
782	 1.59839591083397E-02 
783	 1.61329037522702E-02 
784	 1.63739274788107E-02 
785	 0.016616136476924 
786	 1.68654655715934E-02 
787	 1.71444620286486E-02 
788	 1.73861747531513E-02 
789	 1.76542525382162E-02 
790	 0.017906687994067 
791	 1.80506345282141E-02 
792	 1.84164220125146E-02 
793	 1.88150281524413E-02 
794	 1.90816604306778E-02 
795	 1.92017187517683E-02 
796	 1.95481799853881E-02 
797	 1.98392155485016E-02 
798	 1.98537288949928E-02 
799	 2.02120858701918E-02 
800	 2.05366821401654E-02 
801	 2.07195549913282E-02 
802	 2.08371248988944E-02 
803	 2.10131650699635E-02 
804	 2.11862825376867E-02 
805	 2.12706813808157E-02 
806	 2.11905115221611E-02 
807	 2.12088216801352E-02 
808	 2.13309202772523E-02 
809	 2.14325600868463E-02 
810	 2.12011415506217E-02 
811	 2.09766164374623E-02 
812	 2.07875943128862E-02 
813	 2.05742363001401E-02 
814	 2.05518991148971E-02 
815	 2.02364392085521E-02 
816	 0.019706620982157 
817	 0.019471771187126 
818	 1.92716824544729E-02 
819	 1.88923101314264E-02 
820	 1.83045731859087E-02 
821	 0.017703190939096 
822	 1.69115425804016E-02 
823	 1.61299824218736E-02 
824	 1.54779351856746E-02 
825	 1.46090963067532E-02 
826	 1.37624152309893E-02 
827	 0.012826693918437 
828	 0.011718242008666 
829	 1.09013595279715E-02 
830	 1.03024213741529E-02 
831	 9.79221479141457E-03 
832	 9.26380788463046E-03 
833	 8.85214211666772E-03 
834	 8.4223824098106E-03 
835	 8.06220790816334E-03 
836	 8.16903798770007E-03 
837	 7.82418542238576E-03 
838	 7.52348615845534E-03 
839	 7.66532822524404E-03 
840	 7.59341201459219E-03 
841	 7.36442362400788E-03 
842	 7.19720681151077E-03 
843	 7.24435048180645E-03 
844	 6.94873839050103E-03 
845	 6.87738335661146E-03 
846	 7.02860805741424E-03 
847	 6.98752938212746E-03 
848	 6.68774328262245E-03 
849	 6.49633881394971E-03 
850	 6.51226609671666E-03 
851	 6.4298387255363E-03 
852	 6.31502266578603E-03 
853	 6.23206209745623E-03 
854	 6.20694731200484E-03 
855	 6.17395633835018E-03 
856	 6.12744344470148E-03 
857	 6.03183291875963E-03 
858	 5.88987267409426E-03 
859	 5.85466230376684E-03 
860	 5.84307493711912E-03 
861	 5.81887208309745E-03 
862	 5.77619669865047E-03 
863	 5.74179641086664E-03 
864	 5.62425715783995E-03 
865	 5.45951651246331E-03 
866	 5.3964734341073E-03 
867	 5.41504780016177E-03 
868	 5.37444932546121E-03 
869	 5.22521976926577E-03 
870	 5.06004963073942E-03 
871	 5.10578845369978E-03 
872	 5.24577698954868E-03 
873	 5.24329677278741E-03 
874	 4.76276726396462E-03 
875	 4.66327154209481E-03 
876	 4.72244207251479E-03 
877	 4.58295563734376E-03 
878	 4.76525659913329E-03 
879	 4.8929866367395E-03 
880	 4.74633375631087E-03 
881	 4.33443742540544E-03 
882	 4.32695426320767E-03 
883	 4.27395053337672E-03 
884	 4.08799028904597E-03 
885	 4.00129305053543E-03 
886	 4.08147876901113E-03 
887	 4.0790919302884E-03 
888	 3.99034022721868E-03 
889	 4.09050862523517E-03 
890	 3.85719786153778E-03 
891	 3.65235450090759E-03 
892	 3.73768172683845E-03 
893	 3.88966251532911E-03 
894	 3.99446688870753E-03 
895	 3.92145895986045E-03 
896	 3.66516343241074E-03 
897	 3.55067460823376E-03 
898	 3.57853180413521E-03 
899	 3.51784131213074E-03 
900	 3.29223775447964E-03 
901	 3.6367097505039E-03 
902	 3.56463638476693E-03 
903	 3.21851730792826E-03 
904	 3.14468865607985E-03 
905	 3.51500613288747E-03 
906	 3.56394748241471E-03 
907	 3.24110101414417E-03 
908	 3.06869341912472E-03 
909	 3.2881977964158E-03 
910	 3.25219488486987E-03 
911	 3.17206757162711E-03 
912	 3.87219992569632E-03 
913	 3.79760388046486E-03 
914	 3.42174328253793E-03 
915	 3.20646853778268E-03 
916	 3.21516380023427E-03 
917	 2.9013921014535E-03 
918	 2.67466322261811E-03 
919	 2.67440074289047E-03 
920	 2.51846538268061E-03 
921	 2.67696885669845E-03 
922	 3.02705884433919E-03 
923	 3.27967279380023E-03 
924	 3.04892361035587E-03 
925	 2.8739140080606E-03 
926	 2.77442604376378E-03 
927	 2.42589503983248E-03 
928	 7.50180267940196E-04 
929	 1.73714647803178E-03 
930	 3.41487425400331E-03 
931	 1.42366865704109E-03 
932	 2.35478549919461E-03 
933	 1.5927986325288E-03 
934	 2.77236367468255E-04 
935	 1.43193240700431E-03 
936	 1.5248407083166E-03 
937	 2.59586254273159E-03 
938	 3.80177834955517E-03 
939	 3.7029555376784E-03 
940	 1.89286773133629E-03 
941	 1.58608992736593E-03 
942	 1.30747041060682E-03 
943	-1.10935738758441E-03 
944	 3.42328293089338E-03 
945	 5.04361421766371E-03 
946	 2.07603462379178E-03 
947	-5.25799252781214E-04 
948	 1.97104007524354E-03 
949	 2.70160692610742E-03 
950	 1.3781437418149E-03 
951	 1.8680515565176E-03 
952	 3.21950188596322E-03 
953	 2.25744134843923E-03 
954	 1.05467956370527E-03 
955	 3.70043029802951E-03 
956	 2.14987071539322E-03 
957	 9.08115257148686E-04 
958	 1.41598794026855E-03 
959	 2.00617292722128E-03 
960	 1.79145252549068E-03 
961	 1.21094945599821E-03 
962	 9.00540460654363E-04 
963	 1.31016751348135E-03 
964	 1.90831795395197E-03 
965	 2.13925041908083E-03 
966	 2.06397990541185E-03 
967	 2.15741367984995E-03 
968	 2.51772664875051E-03 
969	 2.37436402191915E-03 
970	 1.86265167229286E-03 
971	 1.83928237727842E-03 
972	 1.81973147697506E-03 
973	 1.7967811259464E-03 
974	 1.8985664938491E-03 
975	 2.19977429887067E-03 
976	 1.50207998519585E-03 
977	 1.95736334431653E-03 
978	 2.94856079696741E-03 
979	 1.90358515457083E-03 
980	 2.89810941670971E-03 
981	 3.82939688056932E-03 
982	 3.34659055551616E-03 
983	 1.75893207865737E-03 
984	 2.21947482923117E-03 
985	 2.79982679203596E-03 
986	 2.5842033252807E-03 
987	 2.03645807242757E-03 
988	 1.83694312858556E-03 
989	 2.0341955336289E-03 
990	 2.47912393211418E-03 
991	 2.80824900821144E-03 
992	 1.93662442428946E-03 
993	 1.63103344543125E-03 
994	 2.15826796886474E-03 
995	 2.51113708005168E-03 
996	 2.25108722242419E-03 
997	 2.01327664082919E-03 
998	 2.53286824409328E-03 
999	 3.84846494225829E-03 
1000	 2.65536242019385E-03 
1001	 2.76602865096383E-03 
1002	 2.93593954710266E-03 
1003	 2.84246333206925E-03 
1004	 2.38771613271773E-03 
1005	 2.27159459453833E-03 
1006	 2.07375756370091E-03 
1007	 2.20660645585361E-03 
1008	 2.20840798002742E-03 
1009	 2.47163194656769E-03 
1010	 2.75539854083531E-03 
1011	 2.65618607830138E-03 
1012	 2.66990182428295E-03 
1013	 2.68989535138354E-03 
1014	 2.63933587161974E-03 
1015	 2.2598647445104E-03 
1016	 2.24843573023434E-03 
1017	 2.41627943461198E-03 
1018	 2.59743282543085E-03 
1019	 3.20597306383955E-03 
1020	 3.30077087664497E-03 
1021	 3.21071163305413E-03 
1022	 3.0484741565492E-03 
1023	 2.31652464823799E-03 
1024	 1.56368343347312E-03 
1025	 1.77518433718857E-03 
1026	 1.90245563938907E-03 
1027	 2.01041509139319E-03 
1028	 2.57298515368538E-03 
1029	 2.86156308498615E-03 
1030	 2.90382344073583E-03 
1031	 2.97142577248402E-03 
1032	 3.17857681846419E-03 
1033	 3.25586658449873E-03 
1034	 3.04244130843491E-03 
1035	 2.95849688449631E-03 
1036	 2.94046974646912E-03 
1037	 2.94420136138203E-03 
1038	 2.91410593490557E-03 
1039	 2.97547414574137E-03 
1040	 2.95433560754502E-03 
1041	 3.23507639132621E-03 
1042	 3.12960878150836E-03 
1043	 2.7940711667667E-03 
1044	 2.66793262422865E-03 
1045	 2.41668120616051E-03 
1046	 2.3433252225488E-03 
1047	 2.49694170737272E-03 
1048	 2.53089215847321E-03 
1049	 2.57563591645471E-03 
1050	 2.56698734620522E-03 
1051	 2.46104287044012E-03 
1052	 2.48852139010793E-03 
1053	 2.5704673221539E-03 
1054	 2.62842164997588E-03 
1055	 2.7767200758767E-03 
1056	 2.89618098144992E-03 
1057	 2.99187731108013E-03 
1058	 3.07240918006049E-03 
1059	 3.02088298366368E-03 
1060	 2.85563024553807E-03 
1061	 2.84992787001045E-03 
1062	 2.77865029763125E-03 
1063	 2.78310866162347E-03 
1064	 3.00490711530853E-03 
1065	 3.06045305943579E-03 
1066	 2.99982155634379E-03 
1067	 2.98073723896497E-03 
1068	 2.93919296478607E-03 
1069	 2.9248044089678E-03 
1070	 2.94934146971411E-03 
1071	 2.91873519114297E-03 
1072	 2.90243584807733E-03 
1073	 2.81634382911428E-03 
1074	 2.77792208757452E-03 
1075	 2.70571188597628E-03 
1076	 2.66769677516305E-03 
1077	 2.64362737146016E-03 
1078	 2.68786853342691E-03 
1079	 2.84767958903858E-03 
1080	 2.7957557260753E-03 
1081	 2.58592717633975E-03 
1082	 2.58712771543892E-03 
1083	 2.58722998066826E-03 
1084	 2.58418897988856E-03 
1085	 2.75790229975556E-03 
1086	 2.91052841413106E-03 
1087	 2.93755901949509E-03 
1088	 2.96345318259357E-03 
1089	 3.07027032659063E-03 
1090	 3.34227660465301E-03 
1091	 3.19647009784626E-03 
1092	 2.72701094303188E-03 
1093	 2.63576831151147E-03 
1094	 2.41819117811033E-03 
1095	 2.39557015886653E-03 
1096	 2.68305039306736E-03 
1097	 2.85095094326265E-03 
1098	 3.24269276974684E-03 
1099	 3.15579767265011E-03 
1100	 2.6944907899513E-03 
1101	 2.6032388123615E-03 
1102	 2.14935921048866E-03 
1103	 2.0279829771858E-03 
1104	 2.52359051802157E-03 
1105	 2.88022414606423E-03 
1106	 2.78010086824632E-03 
1107	 2.72263705125774E-03 
1108	 2.75114647972066E-03 
1109	 2.59911292764221E-03 
1110	 2.51935439119229E-03 
1111	 2.69313197853307E-03 
1112	 2.63356091493703E-03 
1113	 2.01620135825197E-03 
1114	 2.06836804237656E-03 
1115	 2.86777330499754E-03 
1116	 3.08027170842642E-03 
1117	 3.43035000772974E-03 
1118	 3.75028007318879E-03 
1119	 3.2960422493668E-03 
1120	 2.94411672163051E-03 
1121	 2.1719027206857E-03 
1122	 3.09979007930383E-03 
1123	 3.62039139903793E-03 
1124	 2.48042125074437E-03 
1125	 4.03444710131014E-03 
1126	 4.91067952474185E-03 
1127	 2.48021352034326E-03 
1128	 2.76287289149361E-03 
1129	 3.08385714758902E-03 
1130	 2.64440015494763E-03 
1131	 2.12845623284161E-03 
1132	 2.98589287165381E-03 
1133	 2.85722059458673E-03 
1134	 1.57586747345718E-03 
1135	 1.34944536178324E-03 
1136	 1.31571915284628E-03 
1137	 1.46255760358093E-03 
1138	 1.91612751408697E-03 
1139	 2.20538964144355E-03 
1140	 1.79873559467343E-03 
1141	 2.63652862536354E-03 
1142	 2.21933056762284E-03 
1143	 1.3088373151905E-03 
1144	 2.8204973468966E-03 
1145	 3.1725131132135E-03 
1146	 2.6631292546368E-03 
1147	 2.89439202398472E-03 
1148	 1.80093257569759E-03 
1149	 9.24288554863702E-04 
1150	 1.0323803551375E-03 
1151	 2.56906287166927E-03 
1152	 2.58820642259556E-03 
1153	 1.8654642707158E-03 
1154	 2.15483911116916E-03 
1155	 2.65293617488186E-03 
1156	 2.67687943623917E-03 
1157	 2.30579211923892E-03 
1158	 2.4694895971246E-03 
1159	 2.59376218371356E-03 
1160	 2.25780417388739E-03 
1161	 2.33973395598254E-03 
1162	 2.71649915759838E-03 
1163	 2.07209281557114E-03 
1164	 1.24769369033917E-03 
1165	 1.82075437083862E-03 
1166	 2.43916069906704E-03 
1167	 2.32398849727894E-03 
1168	 2.60270815566273E-03 
1169	 2.58966371644179E-03 
1170	 1.92497696105568E-03 
1171	 1.76084673341475E-03 
1172	 2.22600338878175E-03 
1173	 2.32316060186414E-03 
1174	 2.30097913736007E-03 
1175	 2.2114837017373E-03 
1176	 2.28255573321161E-03 
1177	 2.26589117774205E-03 
1178	 2.05344567262542E-03 
1179	 2.00385014456726E-03 
1180	 2.23605280296288E-03 
1181	 2.24267356400902E-03 
1182	 2.17259919318748E-03 
1183	 2.45306121717333E-03 
1184	 2.43033616658244E-03 
1185	 2.3206106981386E-03 
1186	 2.52453300109269E-03 
1187	 2.43659778545805E-03 
1188	 2.22421965661736E-03 
1189	 2.17497400830644E-03 
1190	 2.20240494667248E-03 
1191	 2.22297909237694E-03 
1192	 2.19238990381066E-03 
1193	 2.22639102698793E-03 
1194	 2.22200153806551E-03 
1195	 2.18072954535711E-03 
1196	 2.2944138634869E-03 
1197	 2.32471328028217E-03 
1198	 2.09911164584005E-03 
1199	 2.02185447100646E-03 
1200	 2.08863113542152E-03 
1201	 2.18296304986086E-03 
1202	 2.24182221515263E-03 
1203	 2.19937517615694E-03 
1204	 2.14624286372345E-03 
1205	 2.13628496810378E-03 
1206	 2.19791090012341E-03 
1207	 2.31115069187355E-03 
1208	 2.20363414356377E-03 
1209	 1.96247038433397E-03 
1210	 2.18318453382678E-03 
1211	 2.43472746920807E-03 
1212	 2.23431487980543E-03 
1213	 2.14950477473471E-03 
1214	 2.16266113476859E-03 
1215	 2.12152640376139E-03 
1216	 1.9520071258088E-03 
1217	 2.19170036550441E-03 
1218	 2.47773886603047E-03 
1219	 2.33443354965405E-03 
1220	 2.25197283149919E-03 
1221	 2.27127672981864E-03 
1222	 2.10562024853411E-03 
1223	 2.07944522972562E-03 
1224	 2.22333088558117E-03 
1225	 2.34067112498228E-03 
1226	 2.25010124586969E-03 
1227	 2.08486091088737E-03 
1228	 2.24786076585088E-03 
1229	 2.36871231453044E-03 
1230	 2.4219017690049E-03 
1231	 2.5923151185816E-03 
1232	 2.50392091574331E-03 
1233	 2.31047237684801E-03 
1234	 2.30321680854624E-03 
1235	 2.29654439341903E-03 
1236	 2.40533137943082E-03 
1237	 2.4421775777743E-03 
1238	 2.46111306068116E-03 
1239	 2.50604798620087E-03 
1240	 2.34522855396723E-03 
1241	 2.22050618867685E-03 
1242	 2.21928037904226E-03 
1243	 2.10440192422979E-03 
1244	 2.1210733571233E-03 
1245	 2.25796930888739E-03 
1246	 2.25229482010199E-03 
1247	 2.2333256576203E-03 
1248	 2.36508144622756E-03 
1249	 2.54778449385734E-03 
1250	 2.36616345835286E-03 
1251	 2.05854532098315E-03 
1252	 2.29004376602443E-03 
1253	 2.34681581141789E-03 
1254	 2.07598333978066E-03 
1255	 2.39445226470425E-03 
1256	 2.48449760947088E-03 
1257	 1.94739083231226E-03 
1258	 1.8671292897333E-03 
1259	 2.3796729178285E-03 
1260	 2.5008401652704E-03 
1261	 2.45524539141985E-03 
1262	 2.50393673561613E-03 
1263	 2.67525986467434E-03 
1264	 2.42032269712075E-03 
1265	 2.2028828609284E-03 
1266	 2.37832365976297E-03 
1267	 2.51184667003756E-03 
1268	 2.43375145068138E-03 
1269	 2.45413597737968E-03 
1270	 2.55354969110388E-03 
1271	 2.55459074285071E-03 
1272	 2.50974531618602E-03 
1273	 2.42002874237567E-03 
1274	 2.24076848132291E-03 
1275	 2.16543668990777E-03 
1276	 2.36872524916554E-03 
1277	 2.51938867855662E-03 
1278	 2.37834015989937E-03 
1279	 2.29665719266831E-03 
1280	 2.30281502184449E-03 
1281	 2.21103535088438E-03 
1282	 2.0398065597439E-03 
1283	 2.04958126203272E-03 
1284	 2.10083733585964E-03 
1285	 2.1355665733865E-03 
1286	 2.3421069096052E-03 
1287	 2.36017819595446E-03 
1288	 2.13689137815349E-03 
1289	 2.12977181250822E-03 
1290	 2.09200282908307E-03 
1291	 2.35085547922793E-03 
1292	 2.52609199328484E-03 
1293	 2.47762280844027E-03 
1294	 2.42951693578194E-03 
1295	 2.32948356349421E-03 
1296	 2.1418887384551E-03 
1297	 2.08919390375598E-03 
1298	 2.06093014260458E-03 
1299	 2.03034278674813E-03 
1300	 2.30968047413552E-03 
1301	 2.55659447417524E-03 
1302	 2.3410898372938E-03 
1303	 2.05515983370234E-03 
1304	 2.12524978260013E-03 
1305	 2.05845165785978E-03 
1306	 1.93912810901003E-03 
1307	 2.05297268153265E-03 
1308	 2.12083544751074E-03 
1309	 1.90455571887502E-03 
1310	 1.80618621655737E-03 
1311	 1.88110802670984E-03 
1312	 2.04075774575889E-03 
1313	 2.33232178232636E-03 
1314	 2.24035471785586E-03 
1315	 2.0106340826072E-03 
1316	 2.03868747074243E-03 
1317	 1.76571138757072E-03 
1318	 1.58239419081246E-03 
1319	 1.86737138218766E-03 
1320	 2.04353192249595E-03 
1321	 1.93231431946404E-03 
1322	 1.90908245735396E-03 
1323	 2.38062157937573E-03 
1324	 2.67179121359957E-03 
1325	 2.43198561058263E-03 
1326	 2.45165277327344E-03 
1327	 2.84433502582223E-03 
1328	 2.89470348003539E-03 
1329	 2.61243296569101E-03 
1330	 2.46593992947655E-03 
1331	 2.08590217908657E-03 
1332	 1.88944440210777E-03 
1333	 2.53570005211571E-03 
1334	 2.96853476895071E-03 
1335	 2.77022298212176E-03 
1336	 1.63792028766562E-03 
1337	 1.5696386989498E-03 
1338	 1.7152998127931E-03 
1339	 1.72533924709625E-03 
1340	 2.43344815610317E-03 
1341	 2.74532631868763E-03 
1342	 2.31764885176301E-03 
1343	 2.15694062348772E-03 
1344	 2.50570445459897E-03 
1345	 2.72933023064084E-03 
1346	 2.3291003028044E-03 
1347	 2.51084990151377E-03 
1348	 4.48298995587407E-03 
1349	 5.17904544137051E-03 
1350	 3.52516203287685E-03 
1351	 3.86461766484778E-03 
1352	 5.21376872148485E-03 
1353	 3.79603504185843E-03 
1354	-2.84673712368776E-03 
1355	 7.13467334457068E-03 
1356	 1.54399576445149E-02 
1357	 1.35051904087435E-02 
1358	 2.19819587004031E-02 
1359	 2.72139829934566E-02 
1360	-1.66129655956828E-02 
1361	-8.74095308261089E-02 
1362	-6.25496764550984E-02 
1363	 9.92559402599436E-03 
1364	 4.97130910078037E-02 
1365	 5.56096499946446E-02 
1366	 5.61279626741511E-02 
1367	 9.14470716648639E-02 
1368	 2.65430280523162E-02 
1369	-0.143223316344667 
1370	-0.128118725377369 
1371	-7.60032607609248E-02 
1372	-0.112869467959244 
1373	-7.30184097599582E-02 
1374	 1.43842602387073E-04 
1375	-6.54858331134448E-02 
1376	-2.70563634638751E-02 
1377	 0.314868261125434 
1378	 0.347947060623193 
1379	 3.36927791603142E-02 
1380	 6.34045088669443E-03 
1381	 4.25244687371523E-02 
1382	 3.51954197686149E-02 
1383	 0.217937148912923 
1384	 0.302228791266019 
1385	 0.353013220748643 
1386	 0.318316784593652 
1387	-6.48578011843362E-02 
1388	-9.55323827634282E-02 
1389	 0.220950410880443 
1390	 0.226352901674379 
1391	 0.225466413418651 
1392	 0.448777995124409 
1393	 0.551558402239041 
1394	 0.201905919180134 
1395	-0.248491989744462 
1396	-0.286915359640884 
1397	-0.221774858389867 
1398	-8.33028879261273E-02 
1399	 0.210950843443041 
1400	 0.517091676661003 
1401	 0.447548547705706 
1402	 0.277984439316855 
1403	 0.210328060447409 
1404	 0.15978706448583 
1405	 7.14769452072609E-02 
1406	-0.165312878043663 
1407	-0.144152202945063 
1408	-3.92953816779955E-03 
1409	-3.41016867744675E-02 
1410	-9.79150093863696E-02 
1411	-6.27130781190312E-02 
1412	-1.28843191006996E-02 
1413	-1.61068395032068E-02 
1414	-7.52258628101177E-03 
1415	 2.62441673003516E-02 
1416	 5.01206533945532E-02 
1417	 2.75490882246499E-02 
1418	 1.39756652275822E-02 
1419	 1.72739136588519E-02 
1420	-1.16846969430527E-02 
1421	-1.60181418204468E-02 
1422	 1.48306671829648E-02 
1423	 2.13822213563893E-02 
1424	 1.00162992223605E-02 
1425	 6.62239346062957E-03 
1426	 0.010053869010154 
1427	 8.66277829848098E-03 
1428	 1.59107440564346E-03 
1429	-5.17342050443533E-04 
1430	-2.25789993224191E-03 
1431	-1.66336419718403E-03 
1432	 4.90219976845663E-03 
1433	 5.84481792620083E-03 
1434	 3.58575569758492E-03 
1435	 3.66105059155258E-03 
1436	 1.57171652817453E-03 
1437	-5.00588640310542E-05 
1438	-1.17079236273365E-03 
1439	-1.83499736646389E-03 
1440	-2.77250037466424E-03 
1441	-1.83812201202871E-03 
1442	 2.6454066497974E-03 
1443	 7.02106431448502E-03 
1444	 6.34990807466075E-03 
1445	 2.65536052532063E-03 
1446	 3.20855585868146E-03 
1447	 4.37011778931151E-03 
1448	 1.4107993110248E-03 
1449	 1.46727996875883E-03 
1450	 2.1855153338807E-03 
1451	 6.32322660601201E-04 
1452	 1.60513816856028E-03 
1453	 2.55096492744188E-03 
1454	 2.76658212102211E-03 
1455	 1.91865795685155E-03 
1456	 1.89241388396197E-03 
1457	 2.77181594597452E-03 
1458	 2.14880482277352E-03 
1459	-1.3175326880985E-04 
1460	 2.81528187950293E-04 
1461	 1.84750488361308E-03 
1462	 1.68231856823309E-03 
1463	 2.32925002262081E-03 
1464	 2.88803990152514E-03 
1465	 1.59016116691542E-03 
1466	 1.23797352124894E-03 
1467	 2.67376998186874E-03 
1468	 3.14352558683294E-03 
1469	 2.15107025110708E-03 
1470	 2.17904400512815E-03 
1471	 3.32723734274193E-03 
1472	 3.62196926906842E-03 
1473	 3.61650558309338E-03 
1474	 3.5426133721124E-03 
1475	 3.1847122650378E-03 
1476	 2.69991790843502E-03 
1477	 2.22279620051286E-03 
1478	 1.76498976852196E-03 
1479	 6.40662605015509E-04 
1480	 8.63147071267496E-04 
1481	 2.18592119450702E-03 
1482	 2.17681009504665E-03 
1483	 1.83172297987806E-03 
1484	 2.11626295745078E-03 
1485	 2.35129043796685E-03 
1486	 2.0912615003837E-03 
1487	 2.18563400538929E-03 
1488	 2.15168914074463E-03 
1489	 1.27813749738844E-03 
1490	 1.13503501946475E-03 
1491	 1.72826291438817E-03 
1492	 0.001652230986542 
1493	 1.20613712137419E-03 
1494	 1.24988398417919E-03 
1495	 1.32342298085379E-03 
1496	 1.32373074265045E-03 
1497	 1.65522819101841E-03 
1498	 0.001851518920576 
1499	 1.83355600645712E-03 
1500	 1.73448090750386E-03 
1501	 1.64911535290232E-03 
1502	 1.63298550543528E-03 
1503	 1.45144086226565E-03 
1504	 1.39922121439853E-03 
1505	 1.72674187089442E-03 
1506	 1.57869645107342E-03 
1507	 1.29487912512856E-03 
1508	 1.42405704837865E-03 
1509	 0.001423263119651 
1510	 1.41751170305055E-03 
1511	 1.73761904148107E-03 
1512	 1.81236275129286E-03 
1513	 1.55298221853684E-03 
1514	 1.42947211953887E-03 
1515	 1.4553048797156E-03 
1516	 1.59363908198584E-03 
1517	 1.7975366763612E-03 
1518	 1.88253034205511E-03 
1519	 1.78262544687391E-03 
1520	 1.57241862308698E-03 
1521	 1.47368113612398E-03 
1522	 1.68264869430592E-03 
1523	 2.02410562034509E-03 
1524	 1.96008430215012E-03 
1525	 1.68197605340899E-03 
1526	 1.84633508900163E-03 
1527	 1.91776276635426E-03 
1528	 1.47691726337703E-03 
1529	 1.2616351557461E-03 
1530	 1.44964895834941E-03 
1531	 1.60470515848583E-03 
1532	 1.58997290535916E-03 
1533	 1.5053871633677E-03 
1534	 1.45810617803952E-03 
1535	 1.49771220336863E-03 
1536	 1.65957569002649E-03 
1537	 1.83764926426898E-03 
1538	 1.93515530711405E-03 
1539	 1.86102247003451E-03 
1540	 1.74663688609639E-03 
1541	 1.94685820246907E-03 
1542	 2.07041253041104E-03 
1543	 1.74098584993634E-03 
1544	 1.55753681557932E-03 
1545	 1.72995604424359E-03 
1546	 1.75231476875773E-03 
1547	 1.71804457643213E-03 
1548	 1.82393018982116E-03 
1549	 1.74868758141296E-03 
1550	 1.56181666016366E-03 
1551	 1.57719701592194E-03 
1552	 1.74201462080814E-03 
1553	 1.78750431589562E-03 
1554	 1.67212532373081E-03 
1555	 1.6462904751374E-03 
1556	 1.78591307711473E-03 
1557	 1.83211638245971E-03 
1558	 1.86957622386164E-03 
1559	 1.87870517802154E-03 
1560	 1.74181241815059E-03 
1561	 1.85822884089885E-03 
1562	 2.04131332405856E-03 
1563	 2.16645647924177E-03 
1564	 2.16586146165583E-03 
1565	 1.92207956295554E-03 
1566	 1.7713409514647E-03 
1567	 1.62634167583547E-03 
1568	 1.44605006433926E-03 
1569	 1.40391631881465E-03 
1570	 1.68118458146038E-03 
1571	 1.98600749828329E-03 
1572	 2.02217351786779E-03 
1573	 2.13117749887061E-03 
1574	 2.04588325427088E-03 
1575	 1.59926605016159E-03 
1576	 1.57027330918868E-03 
1577	 1.8920688613481E-03 
1578	 1.75921914769611E-03 
1579	 1.62296521736233E-03 
1580	 1.91648371411105E-03 
1581	 1.82802150092771E-03 
1582	 1.44162341357899E-03 
1583	 1.49197998292597E-03 
1584	 1.48624785017423E-03 
1585	 1.31952949760422E-03 
1586	 1.5424423201549E-03 
1587	 1.74882394986448E-03 
1588	 1.68493802731608E-03 
1589	 1.65990459067349E-03 
1590	 1.76143676132505E-03 
1591	 1.74775724887489E-03 
1592	 1.56228353614132E-03 
1593	 0.001548332704679 
1594	 1.60541761915902E-03 
1595	 1.59762176219949E-03 
1596	 1.69586819487688E-03 
1597	 1.74580552271601E-03 
1598	 1.68757536302824E-03 
1599	 1.74173069935967E-03 
1600	 1.79303370497163E-03 
1601	 1.73332616816139E-03 
1602	 0.001639409561872 
1603	 1.51092371158201E-03 
1604	 1.55171596407144E-03 
1605	 1.56253747905697E-03 
1606	 1.38414762724491E-03 
1607	 1.53936779860598E-03 
1608	 1.84609541519741E-03 
1609	 1.86917469760174E-03 
1610	 1.86677383308083E-03 
1611	 1.74480180436287E-03 
1612	 1.36859147537411E-03 
1613	 1.41071156567472E-03 
1614	 1.78149917904054E-03 
1615	 1.88317789964438E-03 
1616	 1.88359019751105E-03 
1617	 1.68994401771813E-03 
1618	 1.52276522346914E-03 
1619	 1.58744986686597E-03 
1620	 1.55169901787129E-03 
1621	 1.64355622969992E-03 
1622	 1.75842034741025E-03 
1623	 1.57656191196763E-03 
1624	 1.38295569744647E-03 
1625	 1.50625998467797E-03 
1626	 1.64697923108205E-03 
1627	 1.47497282701914E-03 
1628	 1.52505099782537E-03 
1629	 1.65784949078808E-03 
1630	 1.53204760134045E-03 
1631	 1.72569642045256E-03 
1632	 1.90100096944747E-03 
1633	 1.59457652748222E-03 
1634	 1.51052261758642E-03 
1635	 1.65744852539451E-03 
1636	 1.57446777982249E-03 
1637	 1.68201759661519E-03 
1638	 1.70675545364992E-03 
1639	 1.45402686990938E-03 
1640	 1.59672816069694E-03 
1641	 1.86204927820599E-03 
1642	 1.82380937637404E-03 
1643	 1.63341634010064E-03 
1644	 1.62925867190538E-03 
1645	 1.79077468527149E-03 
1646	 1.71529437553168E-03 
1647	 1.5342677064071E-03 
1648	 1.57162964249615E-03 
1649	 1.53372976762824E-03 
1650	 1.43635375281699E-03 
1651	 1.76095775007837E-03 
1652	 1.99321074863198E-03 
1653	 2.01279589505367E-03 
1654	 2.0673898646275E-03 
1655	 2.20804467546367E-03 
1656	 2.07368436949723E-03 
1657	 1.47936977551619E-03 
1658	 1.49607126120898E-03 
1659	 1.97312840165214E-03 
1660	 1.93198333824334E-03 
1661	 1.77048644440351E-03 
1662	 1.82510122330146E-03 
1663	 1.79016855476677E-03 
1664	 1.65730499706621E-03 
1665	 1.63871108555796E-03 
1666	 1.74018824718657E-03 
1667	 1.75134677260833E-03 
1668	 1.54964408834082E-03 
1669	 1.38036700783257E-03 
1670	 1.60592105946514E-03 
1671	 1.63678311031163E-03 
1672	 1.70307802437295E-03 
1673	 1.7889460949843E-03 
1674	 1.73868226838628E-03 
1675	 1.93187339214723E-03 
1676	 1.88519783885113E-03 
1677	 1.90755001847564E-03 
1678	 2.14767595587233E-03 
1679	 1.69432925185786E-03 
1680	 1.18070087041176E-03 
1681	 1.42102579361206E-03 
1682	 1.8281962182713E-03 
1683	 1.89422787937713E-03 
1684	 1.82148843563808E-03 
1685	 1.92090929730234E-03 
1686	 1.85911145808985E-03 
1687	 1.76853391233168E-03 
1688	 1.94611140273711E-03 
1689	 1.97278705750908E-03 
1690	 1.85145902260566E-03 
1691	 1.69705955654684E-03 
1692	 1.9502978778827E-03 
1693	 2.43020252358869E-03 
1694	 2.27673478509867E-03 
1695	 2.04164586368195E-03 
1696	 2.27315706000475E-03 
1697	 2.28302510643692E-03 
1698	 2.2236457610094E-03 
1699	 2.46597999682511E-03 
1700	 2.26379867813338E-03 
1701	 1.9739134861848E-03 
1702	 2.03281031261951E-03 
1703	 1.97673446710339E-03 
1704	 1.70881481613411E-03 
1705	 1.53300248814019E-03 
1706	 1.75673093789125E-03 
1707	 1.91036922782881E-03 
1708	 1.74464805932251E-03 
1709	 1.61884251783224E-03 
1710	 1.51067855928569E-03 
1711	 1.52988954430067E-03 
1712	 1.83008556622466E-03 
1713	 1.59022891809182E-03 
1714	 1.44045515367048E-03 
1715	 1.05989503477678E-03 
1716	 1.16580155040834E-03 
1717	 1.58620175325053E-03 
1718	 1.44576985011166E-03 
1719	 9.17304550202667E-04 
1720	 9.20501078850264E-04 
1721	 8.02138808945749E-04 
1722	 8.87792210141897E-04 
1723	 1.70674069143175E-03 
1724	 1.9022523485207E-03 
1725	 1.65400999215737E-03 
1726	 1.86475960359028E-03 
1727	 1.98813623850919E-03 
1728	 1.67812783356996E-03 
1729	 1.77528731458191E-03 
1730	 1.93058753114464E-03 
1731	 1.46728796626037E-03 
1732	 1.67837366145915E-03 
1733	 2.10597961736724E-03 
1734	 1.84965225794219E-03 
1735	 1.78725759927038E-03 
1736	 1.5249190282106E-03 
1737	 1.04913244902204E-03 
1738	 1.42520001891124E-03 
1739	 1.91231545133624E-03 
1740	 1.72492347685171E-03 
1741	 1.72497175414266E-03 
1742	 1.64747629671239E-03 
1743	 1.19679054138154E-03 
1744	 1.71302686535012E-03 
1745	 2.33882100973942E-03 
1746	 1.76908865710467E-03 
1747	 1.73342576240919E-03 
1748	 1.45637670728892E-03 
1749	 1.38633588893941E-03 
1750	 2.00645966706626E-03 
1751	 2.11398826102209E-03 
1752	 1.86459803231747E-03 
1753	 1.96858562909045E-03 
1754	 2.04014787526052E-03 
1755	 2.03996268187717E-03 
1756	 2.25930691708142E-03 
1757	 1.89416872093045E-03 
1758	 1.77442083555841E-03 
1759	 1.64234542351171E-03 
1760	 1.57051699672414E-03 
1761	 1.7901342974951E-03 
1762	 1.69771749395609E-03 
1763	 1.74542000447109E-03 
1764	 1.48489769366487E-03 
1765	 6.82573288626892E-04 
1766	 7.18150386309959E-04 
1767	 1.20844541222338E-03 
1768	 1.58243641278799E-03 
1769	 1.68645326889102E-03 
1770	 1.84930441316356E-03 
1771	 1.68752150567606E-03 
1772	 7.92698091190489E-04 
1773	 1.76588425284877E-03 
1774	 2.49921620530734E-03 
1775	 2.04555380916073E-03 
1776	 2.3914390493955E-03 
1777	 2.46439529304895E-03 
1778	 1.89921682124996E-03 
1779	 1.58351559339368E-03 
1780	 9.69074035934011E-04 
1781	-1.6795331347504E-03 
1782	-1.89557846043808E-03 
1783	 3.37967566627799E-04 
1784	 9.17010300884376E-04 
1785	 2.46156200417852E-03 
1786	 2.66657658643424E-03 
1787	 2.88457183133914E-04 
1788	 3.02235027188271E-04 
1789	 1.29488993925051E-03 
1790	 2.4328090146418E-03 
1791	 3.2208695022323E-03 
1792	 4.15351908539232E-04 
1793	-1.09168670237356E-03 
1794	-2.29367111320838E-04 
1795	-8.52550357665421E-04 
1796	 2.27975712499082E-03 
1797	 6.46962434745904E-03 
1798	 5.44908225159634E-03 
1799	 6.96959457541863E-03 
1800	 9.02858784215071E-04 
1801	-0.001084472496398 
1802	 1.9877372705699E-03 
1803	 1.14710958613551E-03 
1804	 3.59991922288445E-03 
1805	 3.34696438344028E-03 
1806	-9.89687267828721E-03 
1807	-1.40655629498633E-02 
1808	-8.81841449784865E-03 
1809	-2.62665745401268E-04 
1810	 3.13802526337164E-02 
1811	 0.032133207604039 
1812	 5.23087230086754E-03 
1813	-9.64821913222026E-03 
1814	-9.18973877592686E-02 
1815	-0.101667945503407 
1816	 2.30520096271809E-02 
1817	-2.00849537994541E-02 
1818	 8.04354613230347E-03 
1819	 6.56024176050741E-02 
1820	-7.35964631121168E-03 
1821	-0.170318553052122 
1822	-0.311032423191107 
1823	-0.583681033141418 
1824	-0.485836160968894 
1825	 0.193972505693078 
1826	 0.266158550657612 
1827	 0.238583758430703 
1828	 0.148675944530694 
1829	-0.52646293947704 
1830	-0.890450782198958 
1831	 0.126451573496248 
1832	 0.251923566192815 
1833	-0.178432957625935 
1834	-0.232968738061826 
1835	 0.193925313414138 
1836	 0.459484551434925 
1837	 0.342331809981074 
1838	 0.324948071730964 
1839	 0.80993207527606 
1840	 0.434909919844057 
1841	-3.83234476907107E-02 
1842	-0.121144406433601 
1843	-0.267875814276693 
1844	 1.85415281209961 
1845	 0.211448303400552 
1846	 1.74307874609309 
1847	 1.12784285060281 
1848	 0.246336583593269 
1849	 1.1473092373313 
1850	 0.477362108097024 
1851	-0.420438831961107 
1852	-0.131462561671551 
1853	-0.124693333405096 
1854	 0.115609907721193 
1855	 1.0394096010586 
1856	 1.58376619184074 
1857	 4.26267668239665 
1858	-5.34772218161116 
1859	-8.95239775978156E-02 
1860	-0.316350815835661 
1861	-0.080699844599978 
1862	 0.342175369698662 
1863	-0.103536315948142 
1864	 0.247057570922661 
1865	 1.36101756410413 
1866	 7.59678826910419E-02 
1867	 1.12591969053323E-02 
1868	-0.543373387887142 
1869	-0.581704798283845 
1870	-0.624959827744946 
1871	-0.362295096517841 
1872	-0.060282478513518 
1873	-6.28204841212093 
1874	 3.50840124055774 
1875	 1.15937549115515 
1876	 0.775916958284598 
1877	-0.171296479087232 
1878	-0.152092208931218 
1879	-7.21483822627573E-02 
1880	 1.72093690622167E-02 
1881	 1.03113391675161 
1882	 2.68083068044119 
1883	 0.208258864432276 
1884	-11.154988166099 
1885	-2.22170235112431 
1886	 5.40254779087994 
1887	 0.70326545169397 
1888	 0.747028499373885 
1889	 1.00362051976092 
1890	 0.914924928927392 
1891	 0.630651434954289 
1892	 0.151465023222403 
1893	 0.88896658140488 
1894	-0.05796392763661 
1895	-0.390779342010671 
1896	-0.242742787604976 
1897	-0.192225341179858 
1898	 0.155894767560753 
1899	 1.00901037796629 
1900	 1.95493001443564 
1901	 2.80065395436351 
1902	 7.80754300863726 
1903	 2.46688806252557 
1904	 0.212233369526491 
1905	 2.72055052041947 
1906	 12.2684558914684 
1907	-3.49049629163904 
1908	-11.1207830745444 
1909	-1.31659638183031 
1910	-0.209578558010244 
1911	 2.81474570620104E-03 
1912	-3.91636109554564 
1913	-2.97835168056055 
1914	-1.74691069368575 
1915	-1.3004500809137 
1916	-0.889369818282825 
1917	-0.205875823608779 
1918	 0.222664886934206 
1919	 0.235184038844556 
1920	-3.36365464037958 
1921	-0.873640238452042 
1922	-0.510228329003927 
1923	 8.99921918290439 
1924	 4.21143162827175 
1925	-1.70840320181256 
1926	-1.90464460684698 
1927	-2.74678109129242 
1928	-0.607004714244914 
1929	-6.99662229332294E-02 
1930	-0.544638483430081 
1931	-0.257410065849189 
1932	-2.32247598451125E-02 
1933	-0.152435008502376 
1934	-0.154846247836498 
1935	-0.102130593853491 
1936	-0.118193135289244 
1937	-0.061239275068855 
1938	-6.12099959252724E-02 
1939	-0.027178390608451 
1940	 2.15385011767436E-02 
1941	 3.53651323027418E-02 
1942	-2.57335469338052E-03 
1943	 6.74175660529457E-03 
1944	 3.04082023214124E-02 
1945	 2.18959457875507E-02 
1946	 1.02704247637323E-02 
1947	 2.00157158962498E-02 
1948	 9.59152107503968E-03 
1949	-3.57586484803695E-03 
1950	 1.50339734212437E-02 
1951	 1.96711404291193E-02 
1952	 1.36553748678203E-02 
1953	 1.63261076928512E-03 
1954	-7.46539017835642E-03 
1955	-2.00595750540729E-02 
1956	-2.19599804779906E-02 
1957	-8.74926814229388E-03 
1958	 4.58992611377273E-03 
1959	 8.56343197171365E-03 
1960	 8.01946267196935E-03 
1961	 9.96640831327355E-03 
1962	 1.16256171188695E-02 
1963	 9.83415820351788E-03 
1964	 6.93551464236191E-03 
1965	 5.73809697281953E-03 
1966	 4.69269709601658E-03 
1967	 2.22472329562101E-03 
1968	 1.04243297702335E-03 
1969	 1.31068732188549E-03 
1970	-3.7764185931732E-04 
1971	-1.72242000146012E-03 
1972	-2.30526300246089E-03 
1973	-1.5517139898323E-03 
1974	 1.35120052088824E-03 
1975	 2.82528018421245E-03 
1976	 2.45304171758703E-03 
1977	 1.72089863147591E-03 
1978	 1.20560166482491E-03 
1979	 9.91035843592691E-04 
1980	 7.80258944201745E-04 
1981	 9.43963256702613E-04 
1982	 1.70386694238522E-03 
1983	 2.00241189197081E-03 
1984	 1.24014475662402E-03 
1985	 1.28451670837554E-03 
1986	 1.77448907492328E-03 
1987	 1.26281255332173E-03 
1988	 1.10159857817778E-03 
1989	 1.3834262935964E-03 
1990	 1.48760391960928E-03 
1991	 2.05656760916251E-03 
1992	 1.67497527240279E-03 
1993	 8.22738771277306E-04 
1994	 9.8368918636146E-04 
1995	 1.55473773487733E-03 
1996	 1.30918077971577E-03 
1997	 1.53953030516953E-03 
1998	 2.81826863628616E-03 
1999	 2.15297824718402E-03 
2000	 2.24849163421336E-04 
2001	-4.74406561450388E-04 
2002	 6.34293536893882E-04 
2003	 5.73203704450632E-05 
2004	-1.59796304485243E-03 
2005	 3.05849530399476E-05 
2006	-4.1727788994332E-04 
2007	-1.02448527032536E-03 
2008	 1.11672476497329E-03 
2009	 1.31873857654737E-03 
2010	-1.47370541940859E-03 
2011	-4.13662090492842E-04 
2012	 2.63733259782765E-03 
2013	 3.80771699535698E-03 
2014	 5.12443986148721E-03 
2015	 4.25581778175332E-03 
2016	 1.91851499139718E-03 
2017	 6.81885866468514E-04 
2018	 2.12831105484645E-04 
2019	 1.32234582910658E-03 
2020	 0.00325182362255 
2021	 2.57731072778644E-03 
2022	 1.93755788276154E-03 
2023	 1.8125257632253E-03 
2024	 0.001201710108493 
2025	-3.08812083612473E-04 
2026	-4.05257079998548E-04 
2027	-1.3243733719766E-04 
2028	 1.98937411638935E-04 
2029	 1.32291078660076E-03 
2030	 1.6794293144487E-03 
2031	 2.01699771382992E-03 
2032	 2.25694720006146E-03 
2033	 2.60223925359044E-03 
2034	 2.48120937004329E-03 
2035	 1.68294446888989E-03 
2036	 1.76180523725131E-03 
2037	 1.99549757096895E-03 
2038	 1.62823992840149E-03 
2039	 1.49675080527951E-03 
2040	 2.12918861320668E-03 
2041	 2.29502065372571E-03 
2042	 1.55683137169277E-03 
2043	 1.68527075211025E-03 
2044	 2.73933623353588E-03 
2045	 2.83697863027372E-03 
2046	 2.89734469293216E-03 
2047	 3.45838661366594E-03 
2048	 3.03140112532523E-03 
2049	 2.62275158325662E-03 
2050	 2.13553175057281E-03 
2051	 1.19026782259828E-03 
2052	 1.63506810301244E-03 
2053	 2.6728709946622E-03 
2054	 2.72111895824572E-03 
2055	 2.11660398892536E-03 
2056	 1.84618939739072E-03 
2057	 8.103560402724E-04 
2058	 3.71593922454024E-04 
2059	 4.04191200889822E-04 
2060	 1.15585975701868E-03 
2061	 2.70711128200782E-03 
2062	 3.01844713306873E-03 
2063	 4.29670622147272E-03 
2064	 4.99128630875598E-03 
2065	 4.26853886460497E-03 
2066	 3.42994097916731E-03 
2067	 2.39464624886423E-03 
2068	 1.44672731496387E-03 
2069	 1.44028091032487E-03 
2070	 2.10829464873801E-03 
2071	 2.12603980657956E-03 
2072	 2.53795492083005E-03 
2073	 2.52306349177451E-03 
2074	 1.73676534106747E-03 
2075	 1.53681953823516E-03 
2076	 1.52786415062538E-03 
2077	 1.3673297533272E-03 
2078	 1.55543534941116E-03 
2079	 1.47202984918064E-03 
2080	 1.03863576009195E-03 
2081	 8.4868783682385E-04 
2082	 1.5369990276781E-03 
2083	 1.84955575578321E-03 
2084	 1.30423062776503E-03 
2085	 1.62426737610661E-03 
2086	 2.14586653065994E-03 
2087	 1.16930726439827E-03 
2088	 1.20462091639813E-03 
2089	 2.54725464803317E-03 
2090	 2.45881240989647E-03 
2091	 2.40547044691893E-03 
2092	 2.28539425997469E-03 
2093	 1.95833719604658E-03 
2094	 1.58882696210912E-03 
2095	 8.60722041708714E-04 
2096	 5.52806260320962E-04 
2097	 6.020323492112E-04 
2098	 7.13030235515413E-04 
2099	 6.45262762031768E-04 
2100	 1.36270139672184E-03 
2101	 2.58820335062472E-03 
2102	 2.98949547849065E-03 
2103	 2.97007845491264E-03 
2104	 2.76912515841183E-03 
2105	 2.15618246098919E-03 
2106	 1.04719545244483E-03 
2107	 4.4467278430938E-04 
2108	 1.1063473244798E-03 
2109	 1.21263393390293E-03 
2110	 6.10550131579962E-04 
2111	 1.38435822367063E-03 
2112	 2.10908058278963E-03 
2113	 2.10829817565009E-03 
2114	 2.24818634442577E-03 
2115	 2.46397504952739E-03 
2116	 1.51872629928088E-03 
2117	 1.44253324994773E-03 
2118	 2.43938582500327E-03 
2119	 2.72830773112424E-03 
2120	 2.78670854263989E-03 
2121	 2.92494325735399E-03 
2122	 2.94610949974669E-03 
2123	 2.7995841217026E-03 
2124	 2.93223516546129E-03 
2125	 2.72180234103119E-03 
2126	 1.41421386113861E-03 
2127	 5.38893026645907E-04 
2128	 1.30926382160647E-03 
2129	 1.43098212700322E-03 
2130	 6.98910917594269E-04 
2131	 1.01434010154979E-03 
2132	 8.07846211253805E-04 
2133	-1.76552456232668E-04 
2134	-1.82002429363038E-04 
2135	 1.38552902193138E-03 
2136	 1.66698487407882E-03 
2137	 1.34949544484526E-03 
2138	 1.67834569785561E-03 
2139	 2.31485708216741E-03 
2140	 2.44490911891158E-03 
2141	 2.3288608890976E-03 
2142	 2.28453069170428E-03 
2143	 2.15066903805876E-03 
2144	 1.52471421788464E-03 
2145	 1.02320283926458E-03 
2146	 1.08951396188229E-03 
2147	 8.42795499619175E-04 
2148	 7.15335614347315E-04 
2149	 1.13451037119183E-03 
2150	 1.93963526699826E-03 
2151	 2.70073121873577E-03 
2152	 2.65492453778277E-03 
2153	 2.29706885136324E-03 
2154	 2.4738574624104E-03 
2155	 1.09310023067371E-03 
2156	-3.48600838258959E-04 
2157	-2.95464194762081E-04 
2158	 6.14579265986182E-04 
2159	 8.37453162566324E-04 
2160	 2.53118468396871E-03 
2161	 2.72772594183217E-03 
2162	 9.9337972018573E-04 
2163	 7.49518865283902E-04 
2164	 9.48903015893193E-04 
2165	 8.1583200246385E-04 
2166	 1.13742390426729E-03 
2167	 1.65214057308065E-03 
2168	 2.1172976122546E-03 
2169	 2.25281545800461E-03 
2170	 2.70483460606856E-03 
2171	 3.02332590786617E-03 
2172	 1.87900835944525E-03 
2173	 6.96909869354014E-04 
2174	 5.38553985169554E-04 
2175	-2.66540437396834E-04 
2176	-3.97843278616137E-04 
2177	 2.88174773372124E-04 
2178	 6.34369040838831E-04 
2179	 1.11601487076213E-03 
2180	 1.29230167985324E-03 
2181	 1.63033321139685E-03 
2182	 1.77692115481792E-03 
2183	 1.45702429353775E-03 
2184	 1.79379726436622E-03 
2185	 1.53409514675883E-03 
2186	 1.23116431601137E-03 
2187	 1.00551345617202E-03 
2188	 1.06659156845361E-03 
2189	 8.72060430171577E-04 
2190	 7.34476116137933E-04 
2191	 1.24128297808148E-03 
2192	 1.04100123603072E-03 
2193	-6.69018904213085E-04 
2194	-3.37160286289894E-04 
2195	 1.77396207445433E-03 
2196	 2.20947936653595E-03 
2197	 3.48021422700533E-03 
2198	 3.44409064205857E-03 
2199	 9.83198997519271E-04 
2200	-6.08912354504483E-04 
2201	 4.8535165967667E-04 
2202	 1.72281668354463E-03 
2203	 3.28656625902824E-03 
2204	 3.82181594347325E-03 
2205	 2.12033127783221E-03 
2206	 6.82007407081785E-04 
2207	 6.94302536012983E-04 
2208	 1.70668484442156E-03 
2209	 1.8548747044994E-03 
2210	 8.16849514634909E-04 
2211	 7.42016309624835E-06 
2212	-8.4920059101051E-04 
2213	 6.23717803959215E-04 
2214	 3.23191898633797E-03 
2215	 5.50011094469811E-03 
2216	 6.8872493056133E-03 
2217	 6.24122637225329E-03 
2218	 2.22962367388305E-03 
2219	 1.84762806400039E-03 
2220	 1.85489554120666E-03 
2221	 1.64005613041401E-03 
2222	 3.31154211971287E-03 
2223	 3.99902048681793E-03 
2224	 4.15850516193925E-03 
2225	 3.19533058062322E-03 
2226	 1.09145354684965E-03 
2227	 8.55060322896946E-04 
2228	-3.12239280581402E-05 
2229	-6.36433243117274E-04 
2230	 1.49637864343786E-03 
2231	 2.23928811254182E-03 
2232	 1.34217405378193E-03 
2233	 1.10767874582004E-03 
2234	 1.35154555738842E-03 
2235	 7.76003336467297E-04 
2236	 1.30694090238206E-03 
2237	 1.69805114830749E-03 
2238	 3.06136277745726E-03 
2239	 4.54474892746491E-03 
2240	 3.56554387778006E-03 
2241	 2.08536227926792E-03 
2242	 3.53776945363757E-04 
2243	-1.04550448029231E-03 
2244	 2.03877834691401E-04 
2245	 2.35736189887753E-03 
2246	 1.70266562706168E-03 
2247	-4.13918440284639E-05 
2248	-1.10936589690481E-03 
2249	-7.06540868686634E-04 
2250	 1.59551786903694E-03 
2251	 2.54893421692876E-03 
2252	 2.64934694932789E-03 
2253	 8.59444764887345E-04 
2254	-2.15734773205516E-03 
2255	-1.94800372533362E-03 
2256	-3.29548281638836E-04 
2257	 6.58512245545059E-04 
2258	 1.33011530292891E-03 
2259	 1.50859627637518E-03 
2260	 1.74409853851314E-03 
2261	-5.10990838899233E-05 
2262	 4.73082720217023E-04 
2263	 4.10388773410916E-03 
2264	 4.1023997923167E-03 
2265	 2.67483075247791E-03 
2266	 1.57614660403294E-03 
2267	-2.55098854730231E-03 
2268	-3.12057694440254E-03 
2269	-1.65913249129089E-03 
2270	-6.66904526620777E-04 
2271	 2.50061386067655E-03 
2272	 4.20779122468289E-03 
2273	 5.92419957662533E-03 
2274	 6.88664633201176E-03 
2275	 5.57523925428756E-03 
2276	 5.50682798895593E-03 
2277	 6.68599090193372E-03 
2278	 6.22122013614517E-03 
2279	 5.85062224109979E-03 
2280	 5.50361441746557E-03 
2281	 3.61124774411929E-03 
2282	 2.01545840772628E-03 
2283	 5.43834114108282E-04 
2284	-8.30182632372515E-04 
2285	 1.15577862541017E-03 
2286	 7.873351877685E-04 
2287	 1.46806440815992E-03 
2288	 4.15174767009568E-03 
2289	 3.46848029420868E-03 
2290	 2.98632918429281E-03 
2291	 3.49564519975187E-03 
2292	 3.8995420886775E-03 
2293	 3.53895269646585E-03 
2294	 1.29639560836196E-03 
2295	 2.29103564643925E-03 
2296	 4.30519521834717E-03 
2297	 5.08408246750001E-03 
2298	 7.36131688632421E-03 
2299	 5.04758945185031E-03 
2300	 2.37630520799873E-03 
2301	 3.65014371333776E-03 
2302	 3.54597763944252E-03 
2303	 3.25740181084137E-03 
2304	 1.03210696443194E-03 
2305	-1.10680620942096E-03 
2306	 1.81018178365837E-03 
2307	 3.17994161873498E-03 
2308	 2.71847691261685E-03 
2309	 4.00874891024942E-03 
2310	 3.30931380674797E-03 
2311	 5.5698422787469E-03 
2312	 1.05661097675876E-02 
2313	 7.3719500333968E-03 
2314	 1.68757331470585E-03 
2315	-1.76510204534202E-03 
2316	-5.25582193945808E-03 
2317	-1.56449298145015E-03 
2318	 2.8896001801461E-03 
2319	 1.57457002551712E-03 
2320	 2.74590137392963E-03 
2321	 5.50245424877519E-03 
2322	 4.29916752500703E-03 
2323	 4.12125121715667E-03 
2324	 4.56629891861279E-03 
2325	 1.64598190345099E-03 
2326	 2.27815730114136E-03 
2327	 4.58091125419746E-03 
2328	 5.10788984044476E-03 
2329	 5.90066539360147E-03 
2330	 5.79406528908286E-03 
2331	 3.14654264674874E-03 
2332	 4.62036924957601E-04 
2333	 1.73213417399473E-03 
2334	 5.82223091003619E-04 
2335	-1.91156644968103E-03 
2336	 8.93283681223488E-05 
2337	-1.40127503711586E-04 
2338	-4.48569058727829E-03 
2339	-5.69584149780716E-03 
2340	-5.14010435501875E-03 
2341	-7.38731813263448E-03 
2342	-6.0343599993902E-03 
2343	-7.02686786148705E-03 
2344	-1.15991478431947E-02 
2345	-5.36748504674795E-03 
2346	-1.11309974618069E-03 
2347	-2.50689008161054E-04 
2348	-4.02570262797419E-04 
2349	-9.1470633937154E-03 
2350	-1.15769851945798E-02 
2351	-1.56189439788947E-02 
2352	-1.55877718518397E-02 
2353	-2.96982252455431E-03 
2354	 1.26886802862045E-03 
2355	 6.69914680200755E-03 
2356	 1.66068514647533E-02 
2357	 1.45520088002572E-02 
2358	 5.33720228445536E-03 
2359	-3.08677841727301E-05 
2360	 2.63199239200575E-03 
2361	 2.33874298625574E-03 
2362	-1.97621904664921E-03 
2363	-3.78356729526183E-03 
2364	-2.02559017673312E-02 
2365	-3.60066759035051E-02 
2366	-0.026236596125432 
2367	-1.51170421080017E-02 
2368	-1.10058032713151E-02 
2369	-3.06331722398979E-03 
2370	-2.00403359795831E-03 
2371	-1.85002701618148E-02 
2372	-2.64553630805033E-02 
2373	-1.70790500199561E-02 
2374	-1.42187737878682E-02 
2375	-8.9706983733525E-03 
2376	-1.10629614286342E-03 
2377	-1.20813466621844E-02 
2378	-2.12359259799373E-02 
2379	-2.50263818654858E-02 
2380	-3.04318697400475E-02 
2381	-2.55980598865387E-02 
2382	-2.87910271082669E-02 
2383	-2.99473561408218E-02 
2384	-0.019623679179138 
2385	-8.35602183668946E-04 
2386	 8.76754802749862E-03 
2387	 7.6817402485164E-03 
2388	 1.48720905471981E-02 
2389	-1.31001367679324E-02 
2390	-3.71517953825583E-02 
2391	-2.89171109709375E-02 
2392	-2.47185974471351E-02 
2393	-2.75236301598635E-03 
2394	 1.39838325300575E-02 
2395	 1.40497296096663E-02 
2396	-4.65777756244647E-03 
2397	-2.23654180626711E-02 
2398	-1.15433445985483E-02 
2399	-2.07751546839606E-02 
2400	-1.62337918918438E-02 
2401	 1.64958289692035E-02 
2402	 0.016513412292841 
2403	 1.33556091665114E-02 
2404	 2.65863149777509E-02 
2405	 2.89325027261342E-02 
2406	 2.27412742456108E-02 
2407	 0.040181977711267 
2408	 4.29760898118658E-02 
2409	-1.53188057182504E-02 
2410	-6.05833480557008E-02 
2411	-4.38522636991014E-02 
2412	-3.18806029738088E-02 
2413	-6.15831804456591E-02 
2414	-8.33220361843602E-02 
2415	-0.171260536005051 
2416	-0.232319121809904 
2417	-0.173362115941477 
2418	-0.106512779266838 
2419	-3.23213427537821E-02 
2420	-7.94574355508453E-02 
2421	-0.165377958431982 
2422	-0.171531545310713 
2423	-0.201893587338544 
2424	-0.16672230791732 
2425	-0.142596777707734 
2426	-0.141212944066311 
2427	-9.42545362715101E-02 
2428	-0.060706106796362 
2429	 2.36358175612012E-02 
2430	 7.64335142980278E-02 
2431	 3.27905054292499E-02 
2432	 3.54683889950604E-03 
2433	-0.043079702385359 
2434	-3.22433641760534E-02 
2435	 7.03820556115062E-02 
2436	 0.11448949768135 
2437	 0.115943514711536 
2438	 6.10929900025821E-02 
2439	-2.30581307156035E-02 
2440	-1.15254075301448E-02 
2441	-2.04164000016708E-02 
2442	-7.35967408448947E-03 
2443	-4.67804374882815E-02 
2444	-0.11679703077469 
2445	-9.30227951414446E-02 
2446	-0.172167621441456 
2447	-0.126579433262155 
2448	-6.78896306390529E-02 
2449	 5.28885591344692E-02 
2450	 0.129309402138741 
2451	 0.231474220427749 
2452	 0.211758716265359 
2453	 0.182046604338775 
2454	 0.268441515453201 
2455	 0.199162742822165 
2456	-3.20532036416968E-02 
2457	-0.276432048168563 
2458	-0.433727632998596 
2459	-0.361942740175849 
2460	-0.29490694715266 
2461	-0.260140226444093 
2462	-7.93717689499742E-02 
2463	 0.156008538881151 
2464	 0.396132807826933 
2465	 0.282899870751082 
2466	-1.83392114198234E-02 
2467	-0.558070663821261 
2468	-1.10087173806375 
2469	-1.33949849639232 
2470	-1.14999574783123 
2471	-0.223199843847667 
2472	 0.583865008936861 
2473	 0.928866347668822 
2474	 0.6612456320719 
2475	 0.84284752907929 
2476	 0.269575721980569 
2477	 9.22414028954495E-02 
2478	 0.377161372063416 
2479	 0.273040164820212 
2480	 0.14626974332094 
2481	-0.304756721741489 
2482	-2.89774514861336 
2483	-1.87872679732566 
2484	 77.6906873207559 
2485	-5.50578156135756 
2486	-1.04676036710917 
2487	-1.11538911702405 
2488	-1.44416471950382 
2489	 1.79032676343981 
2490	 0.628493185440331 
2491	 4.21312717222111 
2492	 12.0021635054439 
2493	-3.61278752994052 
2494	-4.55704899989244 
2495	 3.62722933378906 
2496	 4.11183788609686 
2497	-1.32233041320528 
2498	 0.070026552078993 
2499	 0.172318024548043 
2500	 0.069712869086172 
