Wavelength	rt0718west_algea00003.asd
350	 3.61920581270986E-02 
351	 3.73874397975588E-02 
352	 3.77471813555215E-02 
353	 3.79940653359814E-02 
354	 3.85469887742124E-02 
355	 3.82142938680063E-02 
356	 3.81884825995747E-02 
357	 3.85259863017438E-02 
358	 3.89401388228505E-02 
359	 3.94075559695236E-02 
360	 3.95645251152356E-02 
361	 3.97017277070159E-02 
362	 0.040406098252475 
363	 4.04845463179555E-02 
364	 4.06157298090702E-02 
365	 4.09713313004597E-02 
366	 4.06127922384744E-02 
367	 4.04297934862031E-02 
368	 4.08273767650509E-02 
369	 4.17112487710055E-02 
370	 4.18345167168533E-02 
371	 4.19020637898479E-02 
372	 4.19595060503523E-02 
373	 4.17873587040039E-02 
374	 4.24629213945539E-02 
375	 4.28741145855557E-02 
376	 4.26830031542415E-02 
377	 4.28969848584863E-02 
378	 4.31905676068755E-02 
379	 4.34461029213226E-02 
380	 4.36633372284861E-02 
381	 4.41449320148685E-02 
382	 4.41827316869615E-02 
383	 0.043941831874861 
384	 4.40146658412263E-02 
385	 4.46272907650707E-02 
386	 4.50474717802719E-02 
387	 4.50995023710702E-02 
388	 4.53055184589536E-02 
389	 4.56620136699738E-02 
390	 0.04567976935409 
391	 4.53462675075391E-02 
392	 4.60279128162503E-02 
393	 4.65086297713925E-02 
394	 4.64180671087908E-02 
395	 4.59273644720652E-02 
396	 0.045920175225645 
397	 4.63606729058983E-02 
398	 4.68328764741393E-02 
399	 4.67295224017769E-02 
400	 4.66205147415903E-02 
401	 4.66361955802407E-02 
402	 0.046767373322326 
403	 4.68807240840848E-02 
404	 0.047084452091124 
405	 4.72577478268841E-02 
406	 4.72694348912793E-02 
407	 0.047446339730436 
408	 4.74466592266467E-02 
409	 4.73336918505213E-02 
410	 4.75659803919033E-02 
411	 4.76564969396269E-02 
412	 4.76501565052289E-02 
413	 4.76912532095574E-02 
414	 4.79292307826114E-02 
415	 0.04817212834522 
416	 4.82623125940651E-02 
417	 4.81418008900486E-02 
418	 4.81972124148658E-02 
419	 4.83452380073892E-02 
420	 4.85128018508309E-02 
421	 4.86795203389463E-02 
422	 0.048862991438713 
423	 4.90047587821363E-02 
424	 4.91151426480529E-02 
425	 4.94442490903891E-02 
426	 4.97336290058273E-02 
427	 0.049917714311312 
428	 5.00668227788384E-02 
429	 5.04716129332923E-02 
430	 0.050789074783939 
431	 5.09986673829764E-02 
432	 5.15162579927988E-02 
433	 5.17399621131384E-02 
434	 5.19415666842785E-02 
435	 5.23533900142046E-02 
436	 5.24744332659862E-02 
437	 5.28077292981337E-02 
438	 5.32363664676521E-02 
439	 5.33654280203669E-02 
440	 5.36035495865822E-02 
441	 5.38136954007082E-02 
442	 5.39793436441431E-02 
443	 5.43478778917627E-02 
444	 5.46518820881428E-02 
445	 5.48819228211324E-02 
446	 5.50799958618707E-02 
447	 5.51791263721442E-02 
448	 5.53166885542715E-02 
449	 5.55236964007391E-02 
450	 5.57358732908187E-02 
451	 5.57884141334409E-02 
452	 0.055828799535362 
453	 5.59545491151431E-02 
454	 0.056066059105958 
455	 5.61902699153358E-02 
456	 5.62924884652103E-02 
457	 5.63322971604502E-02 
458	 5.63371259531286E-02 
459	 5.64004491883539E-02 
460	 5.65120776259369E-02 
461	 5.65606556953324E-02 
462	 5.66390457897736E-02 
463	 5.67603073701439E-02 
464	 0.056874256997141 
465	 5.67790341021849E-02 
466	 5.68389639891125E-02 
467	 5.69937034214012E-02 
468	 5.70146178290234E-02 
469	 5.71604261931912E-02 
470	 5.72710828388752E-02 
471	 5.73115859235849E-02 
472	 0.057459784791368 
473	 5.75789662314133E-02 
474	 5.76423084062503E-02 
475	 5.76739151198742E-02 
476	 5.77645395983522E-02 
477	 5.78667810253041E-02 
478	 5.80021752953411E-02 
479	 5.82246199086326E-02 
480	 5.83945901506224E-02 
481	 5.85275292336019E-02 
482	 0.058670752032826 
483	 5.88855918625711E-02 
484	 5.91832189583427E-02 
485	 5.94583502712099E-02 
486	 5.96104294429814E-02 
487	 5.98025367916368E-02 
488	 6.00823460973769E-02 
489	 6.04154358265277E-02 
490	 6.07045396661927E-02 
491	 6.10700226330757E-02 
492	 6.14607771948643E-02 
493	 6.18094842414084E-02 
494	 6.20934614854377E-02 
495	 6.24287191775667E-02 
496	 6.27829481164882E-02 
497	 6.30694824098473E-02 
498	 6.34362208900239E-02 
499	 6.38392017618221E-02 
500	 6.42693721550484E-02 
501	 6.48074578668647E-02 
502	 6.52055923089807E-02 
503	 6.55300124576395E-02 
504	 6.59184179798805E-02 
505	 6.63914115509575E-02 
506	 6.67717720351855E-02 
507	 6.71144685932432E-02 
508	 0.067633191764114 
509	 6.79581891796387E-02 
510	 6.82790671321654E-02 
511	 6.87452689425467E-02 
512	 6.92000405524761E-02 
513	 0.06972267878094 
514	 7.03019387130787E-02 
515	 7.08823103453024E-02 
516	 7.14237698835038E-02 
517	 7.19678691508452E-02 
518	 7.25522071762289E-02 
519	 7.31986946258337E-02 
520	 7.37664979825099E-02 
521	 7.43705691784114E-02 
522	 7.51083898423102E-02 
523	 7.58006976213621E-02 
524	 7.64594039014553E-02 
525	 7.71294121924189E-02 
526	 7.78823207390857E-02 
527	 7.87861965740627E-02 
528	 0.079616694010579 
529	 8.02923448824981E-02 
530	 8.10789412697713E-02 
531	 8.19584002751907E-02 
532	 8.28591301729016E-02 
533	 8.37048350974546E-02 
534	 0.0846057127488 
535	 8.55170856209051E-02 
536	 8.64443978599386E-02 
537	 8.74528523564341E-02 
538	 8.83833783691016E-02 
539	 8.93114254169513E-02 
540	 9.03065710171865E-02 
541	 9.12303384519398E-02 
542	 9.21256334532447E-02 
543	 9.30312177104996E-02 
544	 9.39744600001511E-02 
545	 0.09484294231809 
546	 9.57176507572427E-02 
547	 0.096614743313221 
548	 9.73679973966158E-02 
549	 9.81993309168677E-02 
550	 9.90702029044696E-02 
551	 9.98735164370753E-02 
552	 0.100679190644753 
553	 0.101473026521468 
554	 0.102242989421924 
555	 0.102981336214492 
556	 0.10379542772953 
557	 0.104596809035594 
558	 0.105304786120933 
559	 0.106050172276218 
560	 0.106827684351048 
561	 0.107550250477494 
562	 0.108116300873386 
563	 0.108807328774585 
564	 0.109499602049906 
565	 0.110088031542556 
566	 0.110603346899607 
567	 0.111179908533217 
568	 0.111738910976263 
569	 0.112157438250741 
570	 0.112578236045825 
571	 0.112990013383717 
572	 0.113375726003457 
573	 0.113722402154655 
574	 0.114091724273036 
575	 0.114396383833018 
576	 0.11456833215992 
577	 0.114705869510088 
578	 0.114918722197463 
579	 0.115120404077726 
580	 0.115127995589485 
581	 0.115128553698886 
582	 0.115122025860732 
583	 0.115083533957525 
584	 0.114988882067744 
585	 0.11480174925048 
586	 0.114656926058677 
587	 0.114656112329535 
588	 0.114330431664821 
589	 0.114019392910678 
590	 0.113806440192393 
591	 0.113434001615347 
592	 0.113009514134469 
593	 0.112549899220517 
594	 0.112040382220496 
595	 0.111402090140332 
596	 0.110576141259883 
597	 0.109633675342566 
598	 0.108728673477773 
599	 0.107939054162815 
600	 0.107186297600681 
601	 0.106489607638218 
602	 0.106079531730162 
603	 0.105670912314284 
604	 0.105393031827188 
605	 0.105405421076073 
606	 0.105282997176911 
607	 0.105285914443102 
608	 0.105399187963072 
609	 0.105306805428924 
610	 0.105291536012923 
611	 0.105300822682241 
612	 0.105259044297733 
613	 0.105227655199048 
614	 0.105236635631465 
615	 0.105236832937736 
616	 0.105155995893522 
617	 0.10517413871121 
618	 0.105104533963563 
619	 0.104930932946123 
620	 0.104978565918674 
621	 0.104941639744351 
622	 0.10483508235786 
623	 0.104777672281535 
624	 0.104881624118997 
625	 0.104756797725038 
626	 0.104518167366208 
627	 0.104726586175765 
628	 0.104592029963327 
629	 0.10440861957149 
630	 0.104437120864043 
631	 0.104269693354721 
632	 0.104244437703882 
633	 0.104314851476841 
634	 0.104262944947948 
635	 0.104075717836302 
636	 0.103982759578505 
637	 0.104010336429009 
638	 0.103864544048512 
639	 0.103697982768063 
640	 0.103628663349845 
641	 0.10367538644842 
642	 0.103489680053302 
643	 0.103357270360698 
644	 0.103323905399223 
645	 0.103232984555943 
646	 0.103103598603715 
647	 0.102965914653231 
648	 0.102821510084144 
649	 0.102580304333731 
650	 0.102416639311841 
651	 0.102181015602505 
652	 0.10168300629332 
653	 0.101302594033499 
654	 0.100835060834774 
655	 0.100168755945633 
656	 9.94737871941436E-02 
657	 9.88796831211224E-02 
658	 9.83432860323343E-02 
659	 9.78153445358699E-02 
660	 0.097414611456319 
661	 9.71186016845969E-02 
662	 0.096780588969714 
663	 9.62417587195651E-02 
664	 9.60250732677872E-02 
665	 9.58103944532365E-02 
666	 9.54459203344164E-02 
667	 0.095286384343318 
668	 9.50784694873241E-02 
669	 9.48943384341276E-02 
670	 9.48531435615653E-02 
671	 9.47678511730108E-02 
672	 0.094642319695849 
673	 0.09452678095076 
674	 9.45022569043335E-02 
675	 0.094559033926023 
676	 9.45323167504709E-02 
677	 9.43822312901445E-02 
678	 9.44533139046527E-02 
679	 9.45388303608539E-02 
680	 9.46132013095476E-02 
681	 9.47177146595069E-02 
682	 9.47658098077764E-02 
683	 9.49181022412636E-02 
684	 9.51326664951002E-02 
685	 9.50768193025439E-02 
686	 9.51658415131292E-02 
687	 9.52207473528597E-02 
688	 9.50384030028133E-02 
689	 9.49896650967942E-02 
690	 9.49314601515384E-02 
691	 9.47483724335071E-02 
692	 9.43587746548876E-02 
693	 9.40134385265538E-02 
694	 9.35276094741814E-02 
695	 9.28755750480862E-02 
696	 9.23014803459872E-02 
697	 9.18042904203131E-02 
698	 9.11788164582795E-02 
699	 9.02747959145031E-02 
700	 8.93972156523022E-02 
701	 8.85782256828026E-02 
702	 0.087725100869854 
703	 8.66601940642576E-02 
704	 8.56895720206099E-02 
705	 8.46543147632621E-02 
706	 0.083480972659264 
707	 8.23857674259212E-02 
708	 8.11132777295052E-02 
709	 7.97440898360637E-02 
710	 7.83986899607728E-02 
711	 0.076670777674321 
712	 7.50465773838744E-02 
713	 7.35874152771967E-02 
714	 7.18356653773702E-02 
715	 7.03452720964892E-02 
716	 6.87286580661325E-02 
717	 6.67335989720501E-02 
718	 6.52129320922088E-02 
719	 6.33036195605879E-02 
720	 6.13906135026442E-02 
721	 5.98349529277328E-02 
722	 0.058439294854849 
723	 5.69457303795223E-02 
724	 5.53642394932741E-02 
725	 5.36259152129361E-02 
726	 0.051935397394078 
727	 5.01759225244839E-02 
728	 4.83000317995328E-02 
729	 4.65931571577936E-02 
730	 4.47684358145409E-02 
731	 4.29866410521311E-02 
732	 4.14885737529929E-02 
733	 4.02219618569548E-02 
734	 3.92354136902707E-02 
735	 3.85058576028512E-02 
736	 3.78761877471135E-02 
737	 3.73069285600234E-02 
738	 0.03691605575901 
739	 3.67572370178462E-02 
740	 0.036543099943059 
741	 3.63529189674017E-02 
742	 3.62101736238673E-02 
743	 0.036107550133242 
744	 3.60462021684234E-02 
745	 3.60211420888044E-02 
746	 3.59827888795711E-02 
747	 3.58241314465737E-02 
748	 3.57843754614229E-02 
749	 0.035830916420786 
750	 0.035863930474442 
751	 3.58178860033296E-02 
752	 3.57964190285706E-02 
753	 0.035815102271298 
754	 3.58314990008718E-02 
755	 3.57856780982442E-02 
756	 3.57176368142489E-02 
757	 3.57047443789537E-02 
758	 3.59227849249872E-02 
759	 3.57617629178902E-02 
760	 3.55339527163126E-02 
761	 0.035942703873047 
762	 3.57837936967966E-02 
763	 3.57769326212224E-02 
764	 3.58077843490457E-02 
765	 3.56509938100314E-02 
766	 3.58654617541965E-02 
767	 3.59732371144982E-02 
768	 0.035931527256363 
769	 3.60961509772384E-02 
770	 3.61738076612051E-02 
771	 3.62717241589089E-02 
772	 3.64631455791029E-02 
773	 3.65095535145389E-02 
774	 3.65914724248514E-02 
775	 3.67307624782816E-02 
776	 3.68833587637363E-02 
777	 0.037054119965131 
778	 3.72228995118583E-02 
779	 3.73621853897212E-02 
780	 3.74487709426726E-02 
781	 3.76138872035837E-02 
782	 3.78390463349987E-02 
783	 0.038073248030199 
784	 3.82543982681805E-02 
785	 3.85374885296847E-02 
786	 3.88339840982856E-02 
787	 3.90075464859965E-02 
788	 3.91658200615439E-02 
789	 3.94335947940599E-02 
790	 3.98206883104559E-02 
791	 4.02134978454172E-02 
792	 4.02361558795762E-02 
793	 4.04201658256726E-02 
794	 0.040898083442534 
795	 0.040940026435328 
796	 4.13802808060442E-02 
797	 4.17646137953565E-02 
798	 4.16791256315333E-02 
799	 4.20672615078813E-02 
800	 4.23127073447708E-02 
801	 4.24086145782412E-02 
802	 4.26585584931146E-02 
803	 4.28469270793458E-02 
804	 4.29803734730145E-02 
805	 4.30275752537436E-02 
806	 4.29106975361486E-02 
807	 4.29815318522622E-02 
808	 4.30115344575631E-02 
809	 4.28376064718555E-02 
810	 4.27567105902732E-02 
811	 4.28495479502032E-02 
812	 4.28279694239978E-02 
813	 0.042349981782405 
814	 4.19047845026409E-02 
815	 4.18477924245493E-02 
816	 4.18437047196433E-02 
817	 4.11783945262378E-02 
818	 4.08062859159697E-02 
819	 4.03307435190341E-02 
820	 3.96517929598173E-02 
821	 3.92395171728009E-02 
822	 3.85780848813105E-02 
823	 3.76410332563194E-02 
824	 3.66496436282035E-02 
825	 3.59250589530013E-02 
826	 3.51692824899212E-02 
827	 3.41880691694342E-02 
828	 0.033023416818082 
829	 3.24298947385996E-02 
830	 0.031637432327792 
831	 3.07349536528142E-02 
832	 3.04423434153382E-02 
833	 3.03690587758846E-02 
834	 2.99451449908888E-02 
835	 2.92897828984253E-02 
836	 2.93866360740735E-02 
837	 2.92354916277213E-02 
838	 2.89786891471546E-02 
839	 2.88390095107113E-02 
840	 2.85653254697929E-02 
841	 2.84019668284762E-02 
842	 2.84456963874005E-02 
843	 2.86035371887712E-02 
844	 2.82418632674966E-02 
845	 2.78958082409957E-02 
846	 2.78224469243084E-02 
847	 2.79693409325273E-02 
848	 2.77200293814391E-02 
849	 2.76092957899469E-02 
850	 2.77338952277719E-02 
851	 2.75009021713038E-02 
852	 2.75393905561232E-02 
853	 0.027415151513897 
854	 2.69884156360965E-02 
855	 2.71827821335713E-02 
856	 2.72218149849547E-02 
857	 0.027071441605794 
858	 2.69053517705277E-02 
859	 2.68302135401675E-02 
860	 0.026798546225148 
861	 2.68474754733568E-02 
862	 2.69572732244291E-02 
863	 2.65037033575132E-02 
864	 2.62722917241491E-02 
865	 2.63619276359533E-02 
866	 2.62157396295518E-02 
867	 2.64084680261446E-02 
868	 0.026413516909073 
869	 2.61117379924655E-02 
870	 2.60688328271992E-02 
871	 2.58954075575938E-02 
872	 2.57418592261231E-02 
873	 2.57511974472032E-02 
874	 2.58189942302108E-02 
875	 2.55968411012095E-02 
876	 2.53476246812787E-02 
877	 2.53821780717943E-02 
878	 2.54438468313198E-02 
879	 2.52964338223868E-02 
880	 2.49959874910087E-02 
881	 2.47789069580185E-02 
882	 2.49283736507084E-02 
883	 2.48733882813187E-02 
884	 2.47010129741435E-02 
885	 2.49070130282558E-02 
886	 2.46938902348557E-02 
887	 2.44286032327791E-02 
888	 2.44290423755658E-02 
889	 2.47559470742086E-02 
890	 0.024873662118302 
891	 2.44733063620941E-02 
892	 0.023859103277994 
893	 2.43519687030661E-02 
894	 0.024871144501279 
895	 2.45601623486312E-02 
896	 2.34788650501828E-02 
897	 2.42339008221086E-02 
898	 2.40123121466623E-02 
899	 2.36637649888182E-02 
900	 2.43982135797959E-02 
901	 2.38943365218008E-02 
902	 2.43730940176803E-02 
903	 2.47664420902201E-02 
904	 2.35647210103736E-02 
905	 2.36994326249415E-02 
906	 2.37127022191118E-02 
907	 2.34647898331672E-02 
908	 2.36823918011228E-02 
909	 2.32580450772007E-02 
910	 2.37974836680898E-02 
911	 2.45627939748421E-02 
912	 2.31017547446507E-02 
913	 2.29285794334993E-02 
914	 2.30615881977319E-02 
915	 2.30200611357171E-02 
916	 2.34487504295211E-02 
917	 2.34367727421905E-02 
918	 2.35718835850722E-02 
919	 2.36254545572219E-02 
920	 2.21555497730639E-02 
921	 2.25430680235939E-02 
922	 2.30749334689171E-02 
923	 2.24742536079134E-02 
924	 2.24646403342961E-02 
925	 2.34607278422005E-02 
926	 2.39453705280727E-02 
927	 2.28595819820662E-02 
928	 2.35042282447099E-02 
929	 0.022845185261772 
930	 2.20003732626253E-02 
931	 2.36209640460442E-02 
932	 2.30927152203041E-02 
933	 2.37826571186021E-02 
934	 2.38880869571032E-02 
935	 2.09143926077467E-02 
936	 2.03931483938565E-02 
937	 1.98843500373729E-02 
938	 2.05373333965607E-02 
939	 2.29800856794412E-02 
940	 2.13080431031027E-02 
941	 2.02847919127982E-02 
942	 2.13497573931887E-02 
943	 2.32058818648156E-02 
944	 1.98314251815227E-02 
945	 1.87831907217427E-02 
946	 2.01002183625357E-02 
947	 1.94216692306813E-02 
948	 2.01905591455687E-02 
949	 2.11897586043516E-02 
950	 2.10863771464747E-02 
951	 1.93634144032874E-02 
952	 1.90891460568005E-02 
953	 1.81165675740028E-02 
954	 1.71962698198277E-02 
955	 0.018462610428483 
956	 1.79988847942746E-02 
957	 1.76735682421373E-02 
958	 1.78401855430188E-02 
959	 1.78004864792397E-02 
960	 2.02706872022744E-02 
961	 2.06287007992948E-02 
962	 1.91657275935535E-02 
963	 1.95930930772059E-02 
964	 2.04908550921803E-02 
965	 2.14021031470939E-02 
966	 2.14808537427164E-02 
967	 1.98930040817704E-02 
968	 1.76210285459639E-02 
969	 1.89823542566301E-02 
970	 0.021605732751694 
971	 0.01882012045601 
972	 1.93952632397785E-02 
973	 2.00039625142073E-02 
974	 1.94592721588549E-02 
975	 1.96949487619259E-02 
976	 1.90332027451752E-02 
977	 1.83787663571027E-02 
978	 1.86008747941319E-02 
979	 1.97667874154564E-02 
980	 1.86605288271342E-02 
981	 1.85610322968667E-02 
982	 1.98565421618005E-02 
983	 2.02271021290739E-02 
984	 2.02755515653647E-02 
985	 0.019249253394658 
986	 1.84080419097394E-02 
987	 1.98150544331238E-02 
988	 0.019279333976845 
989	 1.96961752706115E-02 
990	 1.99150650799675E-02 
991	 0.016762432268283 
992	 1.76554824948391E-02 
993	 1.93298319200034E-02 
994	 2.00475272154408E-02 
995	 2.00359443042715E-02 
996	 1.98493204042582E-02 
997	 0.019216365119533 
998	 1.90617345712065E-02 
999	 0.02031413162514 
1000	 2.00120571310425E-02 
1001	 2.06351138205263E-02 
1002	 2.09338447248328E-02 
1003	 2.10553891163903E-02 
1004	 2.08458895293226E-02 
1005	 2.09336655068848E-02 
1006	 0.02126467856062 
1007	 2.12781406007216E-02 
1008	 2.11563178203167E-02 
1009	 2.14054363263711E-02 
1010	 2.13618478697886E-02 
1011	 2.11559072556882E-02 
1012	 2.14347997020665E-02 
1013	 2.16026078084075E-02 
1014	 2.16402660318784E-02 
1015	 2.17327487616229E-02 
1016	 2.16071951511167E-02 
1017	 2.10572513883997E-02 
1018	 2.09185759921279E-02 
1019	 2.08187717100139E-02 
1020	 0.020887714941185 
1021	 2.14157926244264E-02 
1022	 2.15441727859311E-02 
1023	 2.14551261630056E-02 
1024	 2.13385505414445E-02 
1025	 2.10983037311445E-02 
1026	 2.12065860333716E-02 
1027	 2.12415825985209E-02 
1028	 2.14886544476887E-02 
1029	 2.15975523514582E-02 
1030	 2.16562036446242E-02 
1031	 2.16302640470216E-02 
1032	 2.15387077198851E-02 
1033	 0.021604707943925 
1034	 2.17704490266745E-02 
1035	 2.16820510057598E-02 
1036	 2.14569055731843E-02 
1037	 2.14176933644851E-02 
1038	 2.12333353457644E-02 
1039	 2.11298220836453E-02 
1040	 2.12348762441478E-02 
1041	 2.16286484569748E-02 
1042	 2.17416269617737E-02 
1043	 2.17481800397975E-02 
1044	 2.17288925092612E-02 
1045	 2.16331284255525E-02 
1046	 0.021579092394557 
1047	 2.14184375795555E-02 
1048	 2.14162522793138E-02 
1049	 0.021509537617692 
1050	 2.16207339604551E-02 
1051	 2.20064643469001E-02 
1052	 2.20130464014192E-02 
1053	 2.17009879392587E-02 
1054	 2.16314314439464E-02 
1055	 0.021423689660627 
1056	 2.12994769641993E-02 
1057	 2.12787976312502E-02 
1058	 2.15220235188367E-02 
1059	 2.16264808761206E-02 
1060	 0.021639425616366 
1061	 0.021794114664545 
1062	 2.22113858116416E-02 
1063	 2.22525160280157E-02 
1064	 2.20986873390706E-02 
1065	 0.022064921444765 
1066	 2.18823934334077E-02 
1067	 2.17542209756159E-02 
1068	 2.16609421067497E-02 
1069	 2.16845653929559E-02 
1070	 2.17996780004159E-02 
1071	 2.17904929821646E-02 
1072	 2.17903676620057E-02 
1073	 2.18981243634527E-02 
1074	 2.19105101981469E-02 
1075	 2.17394652761051E-02 
1076	 0.021723343118566 
1077	 2.18617458872039E-02 
1078	 2.18656441064891E-02 
1079	 2.18037922954699E-02 
1080	 2.17497525930932E-02 
1081	 2.16167964276143E-02 
1082	 2.15785058358939E-02 
1083	 2.16504375771963E-02 
1084	 2.16298182031119E-02 
1085	 2.16112983743115E-02 
1086	 2.15346574462251E-02 
1087	 2.12878263113922E-02 
1088	 2.11366601942567E-02 
1089	 2.05168619880243E-02 
1090	 2.10095544418743E-02 
1091	 2.12134466650516E-02 
1092	 2.15492413490418E-02 
1093	 2.16842204825717E-02 
1094	 2.19423051718617E-02 
1095	 2.19726467724237E-02 
1096	 2.19162764919748E-02 
1097	 2.17885129586206E-02 
1098	 2.14503769915813E-02 
1099	 2.12394294499727E-02 
1100	 2.07251531556109E-02 
1101	 2.04764468672617E-02 
1102	 2.05515516570448E-02 
1103	 2.06768613750544E-02 
1104	 2.07989008282936E-02 
1105	 2.13211330208208E-02 
1106	 2.23728387844827E-02 
1107	 0.022176855155849 
1108	 2.13049782993039E-02 
1109	 0.021011879693887 
1110	 2.08932858689492E-02 
1111	 2.06076499769662E-02 
1112	 2.04943816540212E-02 
1113	 2.10571284020951E-02 
1114	 2.10981470112537E-02 
1115	 2.05258720297632E-02 
1116	 2.02350063648803E-02 
1117	 2.04568499968061E-02 
1118	 2.07159786945159E-02 
1119	 2.02630490686703E-02 
1120	 2.02213184929098E-02 
1121	 2.14349479659148E-02 
1122	 2.21436877269028E-02 
1123	 1.97341645031305E-02 
1124	 1.97755923978903E-02 
1125	 1.84871490139061E-02 
1126	 1.68793105358064E-02 
1127	 1.96701882393946E-02 
1128	 2.02186517981646E-02 
1129	 2.05307916696558E-02 
1130	 2.12942091927263E-02 
1131	 2.09122326225101E-02 
1132	 1.80542477430587E-02 
1133	 1.89798236106287E-02 
1134	 2.21447093512499E-02 
1135	 2.19461286295696E-02 
1136	 2.19792208874325E-02 
1137	 2.20188397470174E-02 
1138	 2.01879618978794E-02 
1139	 1.90189429342528E-02 
1140	 1.97741038116414E-02 
1141	 1.92283003626467E-02 
1142	 1.97896073617889E-02 
1143	 2.08008787732823E-02 
1144	 1.93934150294864E-02 
1145	 0.01886911583917 
1146	 1.86930337823768E-02 
1147	 1.67958325491369E-02 
1148	 1.74958465338078E-02 
1149	 2.01349766707189E-02 
1150	 2.01671372919958E-02 
1151	 1.85473205657761E-02 
1152	 1.80432002104206E-02 
1153	 1.69405680910949E-02 
1154	 1.68025091993596E-02 
1155	 1.73306723070767E-02 
1156	 1.79411953877358E-02 
1157	 1.81206314463309E-02 
1158	 1.76503540017032E-02 
1159	 1.67287595976584E-02 
1160	 1.65238096382803E-02 
1161	 1.70363462330706E-02 
1162	 1.71116781889707E-02 
1163	 1.69907233689228E-02 
1164	 1.74427137582847E-02 
1165	 1.75562401594101E-02 
1166	 1.71598983413102E-02 
1167	 1.73758124135233E-02 
1168	 1.75019471744894E-02 
1169	 1.68219079297667E-02 
1170	 1.64586317680633E-02 
1171	 1.65154527933882E-02 
1172	 1.67909478008569E-02 
1173	 1.68299669652344E-02 
1174	 0.017139887665443 
1175	 1.74907531163259E-02 
1176	 1.71727630690325E-02 
1177	 0.016852215065225 
1178	 1.70269078520728E-02 
1179	 1.71197057757446E-02 
1180	 1.71117870712618E-02 
1181	 1.71248063610191E-02 
1182	 1.68761217546535E-02 
1183	 1.67201981770948E-02 
1184	 1.67868784559073E-02 
1185	 1.67357837981341E-02 
1186	 1.66746519125587E-02 
1187	 1.67792675456075E-02 
1188	 1.67518511556815E-02 
1189	 1.66187981222566E-02 
1190	 1.66326192876856E-02 
1191	 1.66280492590349E-02 
1192	 1.66657542586699E-02 
1193	 1.68021267401535E-02 
1194	 1.68449828749623E-02 
1195	 1.65973007730306E-02 
1196	 1.64339703760771E-02 
1197	 1.61980733230543E-02 
1198	 1.62989497782662E-02 
1199	 1.67117757514979E-02 
1200	 1.65503497450957E-02 
1201	 1.62483910607245E-02 
1202	 1.64456224822631E-02 
1203	 1.67511949779167E-02 
1204	 1.69225156487287E-02 
1205	 1.70598174514991E-02 
1206	 1.70240026543644E-02 
1207	 1.67532048123503E-02 
1208	 1.65564744762564E-02 
1209	 1.65855193482175E-02 
1210	 1.65104515118552E-02 
1211	 1.63214417394203E-02 
1212	 1.64199592605156E-02 
1213	 1.66663666551487E-02 
1214	 1.67082837626768E-02 
1215	 1.66308236567645E-02 
1216	 1.65067449919325E-02 
1217	 1.65132930831015E-02 
1218	 0.016595226548719 
1219	 1.68390807399304E-02 
1220	 0.016974292828011 
1221	 1.68266034067351E-02 
1222	 1.67704337971827E-02 
1223	 1.67712823458832E-02 
1224	 1.66777251491836E-02 
1225	 1.66403865905136E-02 
1226	 1.66451192927517E-02 
1227	 1.65893325865493E-02 
1228	 1.66617659577569E-02 
1229	 1.68209005372049E-02 
1230	 1.67595374404069E-02 
1231	 1.66972754864998E-02 
1232	 0.016728331445755 
1233	 1.66849372151501E-02 
1234	 1.66894258976057E-02 
1235	 1.66907406406894E-02 
1236	 1.65464011465228E-02 
1237	 1.65330648871408E-02 
1238	 1.66240011253733E-02 
1239	 1.67538387567994E-02 
1240	 1.67500455909403E-02 
1241	 1.67175987076449E-02 
1242	 1.66247805917648E-02 
1243	 1.66525767463642E-02 
1244	 1.67506855515734E-02 
1245	 1.68095682091159E-02 
1246	 1.69029817547905E-02 
1247	 1.68423361016387E-02 
1248	 1.67195691017697E-02 
1249	 1.68262408186576E-02 
1250	 1.69670699777875E-02 
1251	 1.68841521049752E-02 
1252	 1.68257937789505E-02 
1253	 1.68200934335419E-02 
1254	 1.67497745613056E-02 
1255	 1.66949493584413E-02 
1256	 1.66827657268262E-02 
1257	 0.016800152858829 
1258	 1.67943153313576E-02 
1259	 1.66080795870447E-02 
1260	 1.66265011228573E-02 
1261	 1.68299676299534E-02 
1262	 1.67672578381103E-02 
1263	 1.65599844166465E-02 
1264	 1.66430936272584E-02 
1265	 1.67220682401271E-02 
1266	 1.66325035983309E-02 
1267	 1.65845907018919E-02 
1268	 1.66006358335397E-02 
1269	 0.016579697917435 
1270	 1.64871877616694E-02 
1271	 1.65795095153923E-02 
1272	 1.68176346071044E-02 
1273	 1.68382394193227E-02 
1274	 1.67079309333126E-02 
1275	 1.66098636812238E-02 
1276	 0.016546776929256 
1277	 1.65342931915355E-02 
1278	 1.65423330402645E-02 
1279	 1.66971158506809E-02 
1280	 1.68773824485139E-02 
1281	 1.67731435694397E-02 
1282	 1.63796290920252E-02 
1283	 1.63153523701175E-02 
1284	 1.61746564575703E-02 
1285	 1.60975440413543E-02 
1286	 1.63358706651307E-02 
1287	 1.63919627460215E-02 
1288	 1.62344472303393E-02 
1289	 1.62160763029129E-02 
1290	 1.62450532098496E-02 
1291	 1.64105591081789E-02 
1292	 0.016526535273296 
1293	 1.64365444839201E-02 
1294	 1.63148256984625E-02 
1295	 1.63128326231386E-02 
1296	 0.016313687745062 
1297	 1.62134042415615E-02 
1298	 1.60319311767639E-02 
1299	 1.58743426768913E-02 
1300	 1.58786710519918E-02 
1301	 1.58423430001885E-02 
1302	 0.015810960619692 
1303	 1.58634670463143E-02 
1304	 1.57817846387668E-02 
1305	 1.57787481803268E-02 
1306	 0.015733331073615 
1307	 1.58900907121662E-02 
1308	 1.58567583787077E-02 
1309	 1.55170939464132E-02 
1310	 1.53406008112007E-02 
1311	 1.53141953386728E-02 
1312	 1.52196479861106E-02 
1313	 1.50684462845534E-02 
1314	 1.50265572672434E-02 
1315	 1.49810575412464E-02 
1316	 1.50186100729141E-02 
1317	 1.52842527055902E-02 
1318	 0.015254205727425 
1319	 1.50908621692309E-02 
1320	 1.50457635456021E-02 
1321	 1.48676799277133E-02 
1322	 1.47270786010275E-02 
1323	 1.44447703976911E-02 
1324	 1.44803063500105E-02 
1325	 0.014633687912071 
1326	 1.46298909158494E-02 
1327	 1.49992111787323E-02 
1328	 1.48821965432536E-02 
1329	 1.40066026702549E-02 
1330	 1.36545178581669E-02 
1331	 1.39201656911374E-02 
1332	 0.013818920411935 
1333	 0.013925115879168 
1334	 1.41833291762163E-02 
1335	 1.42164687477998E-02 
1336	 1.38877087113167E-02 
1337	 1.38794832750409E-02 
1338	 1.40778518352206E-02 
1339	 1.39991713049932E-02 
1340	 0.013673854732363 
1341	 1.35945729907346E-02 
1342	 1.35156327281308E-02 
1343	 1.35229377178192E-02 
1344	 1.38333327503732E-02 
1345	 1.38810510358491E-02 
1346	 1.41212517366811E-02 
1347	 1.42953138279027E-02 
1348	 1.38820678934803E-02 
1349	 1.32473584877813E-02 
1350	 1.02007671142325E-02 
1351	 9.93733474418942E-03 
1352	 1.76390071688741E-02 
1353	 2.06881206264246E-02 
1354	 2.14491004672554E-02 
1355	 3.17257946726182E-02 
1356	 3.24499294696364E-02 
1357	 2.34088639072481E-02 
1358	 4.96447779632896E-02 
1359	 5.19275488426139E-02 
1360	 1.63900014811957E-02 
1361	 0.028990467410129 
1362	 2.38793039641154E-02 
1363	-4.5509275421022E-03 
1364	 2.80659086120388E-02 
1365	 9.81994940448098E-03 
1366	-6.85102463615776E-02 
1367	-3.98766271938805E-03 
1368	 2.31595573572658E-02 
1369	-2.74758929675273E-02 
1370	-0.12008405894059 
1371	-0.206638410663291 
1372	-0.154561930199487 
1373	-0.176403505031564 
1374	-0.088834781833712 
1375	 0.392323944639219 
1376	 0.547841346078154 
1377	 0.522766218538587 
1378	 0.515099276912634 
1379	 0.359942672201835 
1380	 0.287505993280137 
1381	 0.203304753887586 
1382	 8.45491241314453E-02 
1383	-0.206941581624036 
1384	-0.222419529707527 
1385	 2.65400643855213E-02 
1386	-0.036565440451544 
1387	-0.153032035100939 
1388	-0.046203657736211 
1389	 0.188906694960114 
1390	 0.184133203709141 
1391	 0.332335189754552 
1392	 0.322468377892133 
1393	-2.45053730899315E-02 
1394	-8.42065528336125E-02 
1395	 6.70936619569327E-02 
1396	 0.119024575857184 
1397	 0.136270338640961 
1398	 7.29421238009094E-02 
1399	-8.28099370968068E-02 
1400	-7.45829697194675E-04 
1401	 6.79131789604342E-02 
1402	-3.94184787237689E-02 
1403	-7.09099285979612E-02 
1404	-6.12264853379216E-02 
1405	 0.013368043622722 
1406	 2.71187489058471E-02 
1407	 2.57020660985411E-02 
1408	 0.140797335653059 
1409	 0.113774617216416 
1410	-0.047580780609423 
1411	-4.01456216633474E-02 
1412	 4.71607196003302E-02 
1413	 3.73112216221019E-02 
1414	 1.53296178829985E-02 
1415	 1.57032389393073E-02 
1416	-1.44777774957096E-02 
1417	-1.50825945894002E-02 
1418	 0.029215409932533 
1419	 2.00992966685223E-02 
1420	-2.31052789283339E-02 
1421	-1.68234103641108E-02 
1422	 2.52579718824859E-03 
1423	 3.37118153300023E-03 
1424	 9.45957256191593E-03 
1425	 1.37518947190049E-02 
1426	 9.4003495296596E-03 
1427	 6.14085129713207E-03 
1428	 1.11034408844016E-02 
1429	 1.10844857600673E-02 
1430	-4.57262343258339E-03 
1431	-0.004449348580041 
1432	 1.62018786486114E-02 
1433	 1.54799273917322E-02 
1434	 9.87943526093053E-04 
1435	 2.73419632118427E-03 
1436	 7.41487926885731E-03 
1437	 1.12082353167114E-03 
1438	-4.91762501770937E-03 
1439	-1.17968303243261E-03 
1440	 2.25065108813369E-03 
1441	-1.46767934015463E-03 
1442	-1.13007500271786E-03 
1443	 1.28607728772635E-03 
1444	 4.1039763469952E-04 
1445	-5.122448239769E-04 
1446	 1.65991775535764E-03 
1447	 4.1779697537501E-03 
1448	 2.36811426725968E-03 
1449	-1.31682873027553E-04 
1450	 1.26526109355542E-03 
1451	 3.53096055746283E-03 
1452	 3.61431216352049E-03 
1453	 3.76515187490031E-03 
1454	 0.004113980100597 
1455	 4.4334551626528E-03 
1456	 3.98502175113607E-03 
1457	 3.04991771699527E-03 
1458	 3.71901130278884E-03 
1459	 5.19961371780124E-03 
1460	 4.7590315023207E-03 
1461	 4.20966979411234E-03 
1462	 4.09216101238719E-03 
1463	 2.10363944278282E-03 
1464	 1.84964342091248E-03 
1465	 4.2256832939554E-03 
1466	 4.94268504619259E-03 
1467	 4.57818289457882E-03 
1468	 4.32190450342874E-03 
1469	 4.06379253938776E-03 
1470	 4.2930181488586E-03 
1471	 4.3331106275444E-03 
1472	 4.26292821041255E-03 
1473	 4.81817431652189E-03 
1474	 4.48075172551208E-03 
1475	 2.91386363761321E-03 
1476	 2.99196995019708E-03 
1477	 4.01883619312239E-03 
1478	 4.23083473460174E-03 
1479	 4.57510881854376E-03 
1480	 4.81676889304941E-03 
1481	 4.62618015543119E-03 
1482	 4.47450740869809E-03 
1483	 4.52116721584369E-03 
1484	 4.51867661504049E-03 
1485	 4.54421401457659E-03 
1486	 4.33858214605298E-03 
1487	 3.74478563192103E-03 
1488	 3.83023422116869E-03 
1489	 4.1793956941769E-03 
1490	 4.08884100165094E-03 
1491	 0.004277609880939 
1492	 4.31882853895827E-03 
1493	 3.76710798797186E-03 
1494	 3.75064672781357E-03 
1495	 4.22688953390184E-03 
1496	 4.32885754678405E-03 
1497	 4.2751411903448E-03 
1498	 4.33821323595317E-03 
1499	 4.48702519206648E-03 
1500	 4.44205386297344E-03 
1501	 4.13656417560902E-03 
1502	 4.26680247414272E-03 
1503	 4.70808952213056E-03 
1504	 4.68412824473199E-03 
1505	 4.4329234920394E-03 
1506	 4.71902536781362E-03 
1507	 5.18311596117768E-03 
1508	 4.99990090398766E-03 
1509	 4.6851464203006E-03 
1510	 4.87635015439462E-03 
1511	 4.78787661557948E-03 
1512	 4.31187163596199E-03 
1513	 4.39518090801239E-03 
1514	 4.78304993544199E-03 
1515	 4.82909601109736E-03 
1516	 4.76215928128476E-03 
1517	 4.81683084542058E-03 
1518	 4.83996343445172E-03 
1519	 4.85825425234382E-03 
1520	 5.01459577071998E-03 
1521	 5.06764438862751E-03 
1522	 5.01813239356475E-03 
1523	 5.19650471389031E-03 
1524	 5.2426295119686E-03 
1525	 5.05536854662817E-03 
1526	 5.11847365193207E-03 
1527	 5.26390053164157E-03 
1528	 5.22474689334547E-03 
1529	 5.27227681763867E-03 
1530	 5.52729420761164E-03 
1531	 5.53306684588636E-03 
1532	 5.3475325307229E-03 
1533	 5.57053961324235E-03 
1534	 5.86762662613179E-03 
1535	 5.74427264752028E-03 
1536	 5.64555428420324E-03 
1537	 5.75545109827422E-03 
1538	 5.7396456197192E-03 
1539	 5.71594585839018E-03 
1540	 5.78383970481686E-03 
1541	 5.77332003822774E-03 
1542	 5.7964337640216E-03 
1543	 5.89672893707175E-03 
1544	 6.03288147717135E-03 
1545	 6.1108150221497E-03 
1546	 5.94036647734845E-03 
1547	 5.90195983247794E-03 
1548	 6.02920401924831E-03 
1549	 5.94270418179757E-03 
1550	 5.97080278485597E-03 
1551	 6.13644561729628E-03 
1552	 6.09820687744026E-03 
1553	 6.22708666340745E-03 
1554	 6.54292072345871E-03 
1555	 6.48374433332248E-03 
1556	 6.45445047280411E-03 
1557	 6.69266112150526E-03 
1558	 6.63804328661421E-03 
1559	 6.47437965223315E-03 
1560	 6.56026380714642E-03 
1561	 6.71399076958954E-03 
1562	 6.73306641016788E-03 
1563	 6.70917241640231E-03 
1564	 6.73585991642632E-03 
1565	 6.70815880015585E-03 
1566	 6.55698391054709E-03 
1567	 6.52830609963276E-03 
1568	 6.8027546040523E-03 
1569	 6.95335195375982E-03 
1570	 6.89035139773959E-03 
1571	 6.93545270595801E-03 
1572	 7.03768578704996E-03 
1573	 6.98304500767671E-03 
1574	 6.90063827061201E-03 
1575	 7.04278346791516E-03 
1576	 7.13201860078371E-03 
1577	 7.09610692520108E-03 
1578	 0.007229396731543 
1579	 7.35216454031598E-03 
1580	 7.38673793062519E-03 
1581	 0.007486533950003 
1582	 7.53460043918134E-03 
1583	 7.51712196872988E-03 
1584	 7.55743000846621E-03 
1585	 7.63060831958336E-03 
1586	 7.61845272358229E-03 
1587	 7.4766860936657E-03 
1588	 7.49498588559871E-03 
1589	 7.77208203231304E-03 
1590	 7.82104170392067E-03 
1591	 7.62105836410464E-03 
1592	 7.55525629884011E-03 
1593	 7.5340591769116E-03 
1594	 7.50846311162978E-03 
1595	 7.76491150598692E-03 
1596	 7.92435401703406E-03 
1597	 7.47613740331056E-03 
1598	 7.34772780766478E-03 
1599	 7.87863667636778E-03 
1600	 7.86989912221779E-03 
1601	 7.58343629935025E-03 
1602	 7.77305686799322E-03 
1603	 7.78050572507324E-03 
1604	 7.75539081524139E-03 
1605	 8.11478409805703E-03 
1606	 8.09826072650798E-03 
1607	 7.78077827675939E-03 
1608	 7.80005935370999E-03 
1609	 8.01375237070242E-03 
1610	 8.07353538803656E-03 
1611	 7.89351553056172E-03 
1612	 7.92620310614066E-03 
1613	 8.11730674564991E-03 
1614	 8.06864629915006E-03 
1615	 8.10492710339245E-03 
1616	 8.29875359565047E-03 
1617	 8.35604476681939E-03 
1618	 8.32101958968959E-03 
1619	 8.35584878013856E-03 
1620	 8.22344794724091E-03 
1621	 7.99569455072105E-03 
1622	 8.1143514431661E-03 
1623	 8.28519190652452E-03 
1624	 8.3071446399461E-03 
1625	 8.33902536016065E-03 
1626	 8.27941069806569E-03 
1627	 8.34213980969668E-03 
1628	 8.52871719658105E-03 
1629	 8.49175722439454E-03 
1630	 8.39036597331821E-03 
1631	 8.24336856366831E-03 
1632	 8.02002497635468E-03 
1633	 8.15690609613464E-03 
1634	 8.44432038351512E-03 
1635	 8.30906959420766E-03 
1636	 8.14724399926287E-03 
1637	 8.28997990982628E-03 
1638	 8.32075507662991E-03 
1639	 8.29097714290237E-03 
1640	 8.52654941047164E-03 
1641	 8.4581145626661E-03 
1642	 8.11211789228419E-03 
1643	 8.31489562158257E-03 
1644	 8.56372812885123E-03 
1645	 8.49355496294196E-03 
1646	 8.54544945698366E-03 
1647	 8.66311214320483E-03 
1648	 8.70833616545653E-03 
1649	 8.68288574232494E-03 
1650	 8.58216409790099E-03 
1651	 8.50805907874074E-03 
1652	 8.49682961125717E-03 
1653	 8.51374068874289E-03 
1654	 8.58872168565443E-03 
1655	 8.69030082582895E-03 
1656	 8.71672927041256E-03 
1657	 8.75809521357277E-03 
1658	 8.7055224106546E-03 
1659	 8.54568660753795E-03 
1660	 8.47015836467242E-03 
1661	 8.36607701362016E-03 
1662	 8.4431522914601E-03 
1663	 8.67300240455215E-03 
1664	 8.62736632775605E-03 
1665	 8.50512807184788E-03 
1666	 8.66272077531744E-03 
1667	 8.8585621159703E-03 
1668	 8.73874294645076E-03 
1669	 8.77432155731369E-03 
1670	 8.67092417884521E-03 
1671	 8.63871178790856E-03 
1672	 8.78572404408044E-03 
1673	 8.69689369429812E-03 
1674	 8.44770606407047E-03 
1675	 8.48013048628259E-03 
1676	 8.83173517345618E-03 
1677	 8.99096184835828E-03 
1678	 8.85447846734803E-03 
1679	 8.80013135329365E-03 
1680	 8.79278145786095E-03 
1681	 8.82309927287023E-03 
1682	 9.19189402304217E-03 
1683	 9.36609294535776E-03 
1684	 9.01944675838706E-03 
1685	 9.04530408171709E-03 
1686	 0.009131415262772 
1687	 8.73517179283613E-03 
1688	 8.48435274806271E-03 
1689	 8.49092084564067E-03 
1690	 8.40306211006166E-03 
1691	 8.21322983021974E-03 
1692	 8.48044663312786E-03 
1693	 8.49449336258991E-03 
1694	 8.08611368666284E-03 
1695	 8.28685478469524E-03 
1696	 8.56723409931897E-03 
1697	 8.74413635143145E-03 
1698	 8.87915734781968E-03 
1699	 8.92847163493104E-03 
1700	 8.78598009917721E-03 
1701	 8.33378388354799E-03 
1702	 8.29669265752297E-03 
1703	 8.53994195738187E-03 
1704	 8.44775687298873E-03 
1705	 8.34788450720114E-03 
1706	 8.54416586975385E-03 
1707	 8.47678285692702E-03 
1708	 8.38496920143594E-03 
1709	 8.4453656470043E-03 
1710	 8.08252611149161E-03 
1711	 8.0481691096032E-03 
1712	 8.36438589519346E-03 
1713	 8.59043519752689E-03 
1714	 8.69701442406502E-03 
1715	 8.38990506147607E-03 
1716	 8.22824147398688E-03 
1717	 8.55896998634746E-03 
1718	 8.73253510423558E-03 
1719	 8.4362837410362E-03 
1720	 7.95428371978407E-03 
1721	 7.74898284661484E-03 
1722	 8.03886948324615E-03 
1723	 8.28418637326122E-03 
1724	 8.22421410396685E-03 
1725	 8.27715752592694E-03 
1726	 8.06286368766568E-03 
1727	 7.70604658185135E-03 
1728	 8.1221143436989E-03 
1729	 8.28815607304498E-03 
1730	 7.80550388997122E-03 
1731	 8.14902874127553E-03 
1732	 8.47314674202402E-03 
1733	 7.94240420264406E-03 
1734	 7.81931981337288E-03 
1735	 7.60558480992657E-03 
1736	 7.19114587861183E-03 
1737	 7.70705775819638E-03 
1738	 7.9769096168438E-03 
1739	 7.86360788334152E-03 
1740	 7.99052806947508E-03 
1741	 7.53957290469995E-03 
1742	 7.14224769796037E-03 
1743	 7.11909595058951E-03 
1744	 7.14960718583149E-03 
1745	 7.77117049860527E-03 
1746	 8.66003283538651E-03 
1747	 8.68784315960253E-03 
1748	 7.91436688446979E-03 
1749	 7.6722326162621E-03 
1750	 7.21156793676995E-03 
1751	 7.37790612693487E-03 
1752	 8.61935418908694E-03 
1753	 8.62735287375563E-03 
1754	 7.74524246954273E-03 
1755	 7.7956161539493E-03 
1756	 7.78710520593793E-03 
1757	 7.54148904284842E-03 
1758	 8.3448081731977E-03 
1759	 7.73272480096248E-03 
1760	 6.91419602736454E-03 
1761	 7.72470971481468E-03 
1762	 7.78023222319733E-03 
1763	 7.61231917957196E-03 
1764	 8.58016753765582E-03 
1765	 8.22798995570616E-03 
1766	 6.76548258108205E-03 
1767	 6.81636276653228E-03 
1768	 6.84448277452986E-03 
1769	 6.54030671037915E-03 
1770	 7.8119866707907E-03 
1771	 8.04123286265158E-03 
1772	 6.80671327772891E-03 
1773	 6.6602840005615E-03 
1774	 6.5542629015266E-03 
1775	 6.73200359593831E-03 
1776	 6.62723606226073E-03 
1777	 5.87028338161811E-03 
1778	 5.90129539653341E-03 
1779	 6.33432608086124E-03 
1780	 6.67497828249045E-03 
1781	 8.31358117609369E-03 
1782	 8.47241368565546E-03 
1783	 6.75266344158786E-03 
1784	 6.56662379638827E-03 
1785	 6.4231357808466E-03 
1786	 6.43006609005776E-03 
1787	 8.07684377028723E-03 
1788	 8.32900973262171E-03 
1789	 7.29716618462768E-03 
1790	 8.51900736811019E-03 
1791	 8.22492350262355E-03 
1792	 8.31771727944487E-03 
1793	 8.25611534826825E-03 
1794	 6.71665436479675E-03 
1795	 5.88875129576329E-03 
1796	 6.84636229942879E-03 
1797	 6.74103354533904E-03 
1798	 4.44299116825904E-03 
1799	 4.0131806870409E-03 
1800	 2.67404661093817E-04 
1801	-1.15676777774541E-03 
1802	 3.21292732751537E-03 
1803	 3.45373838270149E-03 
1804	 3.52395701254117E-03 
1805	 1.20848576975101E-03 
1806	-1.80103789191195E-02 
1807	-1.79505668880468E-02 
1808	 5.02264367805826E-03 
1809	 2.01642369548259E-02 
1810	 8.22384123046606E-02 
1811	 0.083767494167395 
1812	-1.23094543011023E-02 
1813	-4.19152617302059E-02 
1814	-0.128686867757376 
1815	-0.156074714004696 
1816	 2.09926428996355E-03 
1817	-5.73700674406873E-02 
1818	 0.067847788509199 
1819	 0.116548292229981 
1820	 6.82957515241179E-02 
1821	 0.323645652888628 
1822	 0.353631441449091 
1823	 0.108756488059133 
1824	 2.67436429084966E-02 
1825	-0.362867785342808 
1826	-0.379102853281749 
1827	 0.308818614338105 
1828	 0.464356057582542 
1829	 0.353330208477108 
1830	 0.45339812337912 
1831	-3.02954841275555 
1832	-3.98940516674755 
1833	 0.818031963679316 
1834	-0.240083978470891 
1835	-1.91661104194479 
1836	-2.28032631556603 
1837	-6.26866296762831 
1838	-39.1059656910641 
1839	 3.95624017516054 
1840	 5.22643205459908 
1841	 1.98167588505419 
1842	 0.313376252845964 
1843	-0.170659518338199 
1844	 0.439640806992066 
1845	 0.440364248185301 
1846	 0.295207207762559 
1847	 0.411456638265644 
1848	-7.79845998772446 
1849	 0.145256444497076 
1850	 4.39586523382508E-02 
1851	-0.729465974234576 
1852	-1.21810850238283 
1853	 2.40283459202738 
1854	 0.442830294549639 
1855	-0.394550771890614 
1856	-0.348304012013648 
1857	 5.11447533155197 
1858	-22.7467497977126 
1859	 10.0083101589354 
1860	 6.49905883586914 
1861	-0.774822286419163 
1862	-13.6810631062399 
1863	-8.82992335515786 
1864	-0.975285392030018 
1865	-0.966561251369598 
1866	 1.26839949114633 
1867	-0.517261673553829 
1868	 2.85317183585866 
1869	 2.40242209845192 
1870	 0.649680370920499 
1871	 0.426637408046232 
1872	-1.38327186500497 
1873	 0.218147490348137 
1874	 0.220936578888447 
1875	-2.27543433961998 
1876	-27.5731501101511 
1877	 0.993053934575002 
1878	 1.2413583144589 
1879	-3.45611050110632 
1880	-1.9960117756507 
1881	-2.62278493815774 
1882	-5.48824806316158 
1883	-1.62832116101526 
1884	-1.32361697567055 
1885	-1.98072475746041 
1886	-2.56705063036583 
1887	-1.01175138920837 
1888	 1.51969416174878E-02 
1889	 0.369410037809201 
1890	-9.45673957728825E-02 
1891	 0.111625422192795 
1892	 0.531091374424568 
1893	 1.04680968067805 
1894	 1.99185877494657 
1895	 29.396628603841 
1896	-42.6862271348658 
1897	 7.30265399173907 
1898	 2.78464121680063 
1899	 2.35524308918243 
1900	 2.09967226308599 
1901	 1.4301646565012 
1902	 2.37787531226453 
1903	-6.83003100087751 
1904	-4.07914261040262 
1905	 7.6055124059386 
1906	-1.27804819083711 
1907	 0.438370028664839 
1908	-0.297338992349146 
1909	-0.218678408995379 
1910	 0.568295542170626 
1911	 0.620069374149049 
1912	 0.658664019361062 
1913	 0.494536728205749 
1914	-0.126340013308834 
1915	-0.300859048187376 
1916	-1.5035164006931 
1917	-3.26706002338537 
1918	-0.850753450570208 
1919	 0.253149789376587 
1920	-0.228630153622908 
1921	-0.410836215061228 
1922	 0.377554491644073 
1923	 0.393076054353989 
1924	 1.99391069243036 
1925	-4.48325962118364 
1926	-6.06951953359273 
1927	-10.4503791951383 
1928	 3.52793933487287 
1929	 1.02446754634355 
1930	 0.37800367842012 
1931	 5.35898865251844E-02 
1932	 0.166773199661576 
1933	 0.188791568459961 
1934	 7.60576985174967E-02 
1935	 9.49758750934596E-02 
1936	 7.14554049008488E-02 
1937	 7.48703109429628E-02 
1938	 5.05839511789262E-02 
1939	 4.95690862398927E-02 
1940	 3.86762497424916E-02 
1941	 5.60814449000632E-02 
1942	 7.04968469040459E-02 
1943	 6.83989007549351E-02 
1944	 3.39667362451938E-02 
1945	 2.90058182820226E-02 
1946	 0.038808328262359 
1947	 0.03414302428924 
1948	 2.56994789863198E-02 
1949	 1.29491198344688E-02 
1950	-6.84504401247353E-03 
1951	-1.52521717791233E-02 
1952	-1.24818106976009E-02 
1953	 1.31950039394958E-02 
1954	 0.017194620269286 
1955	 1.01818538135047E-02 
1956	 1.19661807325503E-02 
1957	 1.29769475573652E-02 
1958	 1.98608561300203E-02 
1959	 1.61519794465883E-02 
1960	 7.81061683029315E-03 
1961	 6.27034725651207E-03 
1962	 3.92160065424719E-03 
1963	 4.22546080678322E-03 
1964	 5.34910066471841E-03 
1965	 4.11016266377201E-03 
1966	 3.00625763440608E-03 
1967	 6.47134109637423E-04 
1968	-8.14218310324904E-04 
1969	-7.34583094316656E-04 
1970	-5.45597192557532E-04 
1971	-6.1890057280305E-04 
1972	 6.66999706191576E-04 
1973	 1.78858846319778E-03 
1974	 1.15545658820954E-03 
1975	 1.67970835425822E-03 
1976	 1.64613965337326E-03 
1977	 7.10939106397768E-04 
1978	 1.29227813583472E-03 
1979	 1.41004627899528E-03 
1980	 1.08211156961089E-03 
1981	 1.03403437211542E-03 
1982	 1.60007176298835E-03 
1983	 2.32883930894344E-03 
1984	 2.95275573774373E-03 
1985	 2.67669655280141E-03 
1986	 2.79099397201021E-03 
1987	 2.98485693395529E-03 
1988	 3.65305572962192E-03 
1989	 4.34435677270514E-03 
1990	 3.88807985609507E-03 
1991	 3.29606012287898E-03 
1992	 2.44756631317619E-03 
1993	 1.39841804900507E-03 
1994	 8.97635109524193E-04 
1995	 1.3731921764337E-03 
1996	 1.33189701427289E-03 
1997	 1.83672677934579E-03 
1998	 4.05766785597236E-03 
1999	 4.66066761205238E-03 
2000	 0.004721540451753 
2001	 3.89276862615107E-03 
2002	 3.51652624338101E-04 
2003	-9.61479433119913E-04 
2004	-1.28337126812556E-03 
2005	-1.53779498222957E-03 
2006	 1.11935319987597E-03 
2007	 2.64487737062394E-03 
2008	 9.40168547463471E-04 
2009	 1.35581456907145E-04 
2010	-2.07862073766185E-03 
2011	-2.99132503013069E-03 
2012	-4.9050656252476E-03 
2013	-1.80343055229668E-03 
2014	 1.48540530599199E-03 
2015	-6.51963656447967E-04 
2016	-6.29436717555067E-04 
2017	 1.86729627546911E-04 
2018	-1.01550983967968E-03 
2019	-1.46061130067014E-04 
2020	 1.42720181974855E-03 
2021	 2.10200648612761E-03 
2022	 1.4780307898624E-03 
2023	 1.00126501419114E-03 
2024	 1.12689950228941E-03 
2025	 7.74561219260728E-04 
2026	 7.04017901623308E-04 
2027	 1.3941918914839E-03 
2028	 1.59063199491688E-03 
2029	 1.63191266290229E-03 
2030	 1.5605191867881E-03 
2031	 1.28204006096259E-03 
2032	 2.23349112292251E-03 
2033	 3.01343821614376E-03 
2034	 0.003632678589335 
2035	 3.89435586402404E-03 
2036	 3.72294771853035E-03 
2037	 4.15797742699263E-03 
2038	 4.24178952458677E-03 
2039	 4.14263686910027E-03 
2040	 4.5161839388857E-03 
2041	 4.10172016514944E-03 
2042	 2.39083480910807E-03 
2043	 1.97200645877341E-03 
2044	 1.9085943665862E-03 
2045	 1.95504795256025E-03 
2046	 2.56251693795975E-03 
2047	 2.49918674631119E-03 
2048	 1.63252800619723E-03 
2049	 1.81105780315952E-03 
2050	 2.06214320913638E-03 
2051	 2.10703682654845E-03 
2052	 1.83214202409475E-03 
2053	 1.98724102229936E-03 
2054	 2.35347279344008E-03 
2055	 1.60030433456448E-03 
2056	 1.9757481393087E-03 
2057	 3.42547000848256E-03 
2058	 3.97313866842486E-03 
2059	 4.90703979078418E-03 
2060	 5.26595500259231E-03 
2061	 5.15339086291142E-03 
2062	 4.55152811660571E-03 
2063	 3.71931690927805E-03 
2064	 2.85022192134259E-03 
2065	 1.79128267976833E-03 
2066	 1.58596785523256E-03 
2067	 3.21626852027407E-03 
2068	 4.35788167179026E-03 
2069	 5.37870223496023E-03 
2070	 5.57396601270868E-03 
2071	 3.74966175693368E-03 
2072	 2.69596628081865E-03 
2073	 2.61780661666805E-03 
2074	 3.77186348391524E-03 
2075	 3.61307602081549E-03 
2076	 3.5763140553596E-03 
2077	 3.52862697015847E-03 
2078	 2.50205236513087E-03 
2079	 2.13454252930939E-03 
2080	 2.4482059959083E-03 
2081	 2.3588812222905E-03 
2082	 2.21857930500589E-03 
2083	 2.81177014799362E-03 
2084	 2.9820682686261E-03 
2085	 2.98356151940367E-03 
2086	 2.17601302010478E-03 
2087	 9.10940962579169E-04 
2088	 1.36031760684699E-03 
2089	 1.92140664814835E-03 
2090	 1.90189861125804E-03 
2091	 2.97458325857815E-03 
2092	 3.47835053536922E-03 
2093	 2.87604872136662E-03 
2094	 2.87149029639395E-03 
2095	 3.79266585421822E-03 
2096	 3.91807252017408E-03 
2097	 3.28996778165463E-03 
2098	 3.31399950651582E-03 
2099	 3.60310265158406E-03 
2100	 3.53629746711321E-03 
2101	 3.73563104615646E-03 
2102	 4.23115158032211E-03 
2103	 4.53490644248421E-03 
2104	 3.88002355101972E-03 
2105	 2.61419109665413E-03 
2106	 2.24283839236216E-03 
2107	 2.31696826853563E-03 
2108	 2.49214956859378E-03 
2109	 3.04209178979478E-03 
2110	 3.08133761504325E-03 
2111	 2.85251390644039E-03 
2112	 2.75480016651027E-03 
2113	 2.9166428177969E-03 
2114	 3.9128028225405E-03 
2115	 4.07416794205654E-03 
2116	 3.55541587635309E-03 
2117	 3.59466132940275E-03 
2118	 3.47908286577609E-03 
2119	 3.41709265011342E-03 
2120	 3.52716605836844E-03 
2121	 4.28317552846745E-03 
2122	 4.85644246649576E-03 
2123	 4.33953679739772E-03 
2124	 4.0953374202702E-03 
2125	 4.33061065189143E-03 
2126	 3.72548214667027E-03 
2127	 3.90945189430839E-03 
2128	 4.55796085771594E-03 
2129	 4.36727260693934E-03 
2130	 3.78549735247114E-03 
2131	 3.9251380890439E-03 
2132	 4.09099072425462E-03 
2133	 3.83424187050935E-03 
2134	 3.79694055309637E-03 
2135	 4.05645735368558E-03 
2136	 3.94585732276272E-03 
2137	 3.59218124086749E-03 
2138	 3.49783721520463E-03 
2139	 3.66891698025048E-03 
2140	 3.65978244303613E-03 
2141	 3.50491407784209E-03 
2142	 3.42489266781545E-03 
2143	 3.55351862933567E-03 
2144	 2.84184779979556E-03 
2145	 2.77436779871552E-03 
2146	 2.9191632306519E-03 
2147	 2.63680865450194E-03 
2148	 2.88309322821434E-03 
2149	 3.24751167713959E-03 
2150	 3.02181470761314E-03 
2151	 2.80722748517179E-03 
2152	 3.8951967264171E-03 
2153	 4.21255435219598E-03 
2154	 3.66036291963356E-03 
2155	 4.00130960974444E-03 
2156	 4.52927538993883E-03 
2157	 5.00527575299116E-03 
2158	 6.14099042174544E-03 
2159	 6.27669061023113E-03 
2160	 5.89787435339056E-03 
2161	 5.29287040502539E-03 
2162	 3.67862648171413E-03 
2163	 3.35002185678062E-03 
2164	 4.00765987880407E-03 
2165	 3.65116250162871E-03 
2166	 2.82983490841881E-03 
2167	 2.87787661039631E-03 
2168	 2.87388958206351E-03 
2169	 2.53034429581317E-03 
2170	 2.56492848827879E-03 
2171	 3.1415365137562E-03 
2172	 2.76536049918173E-03 
2173	 2.2016468941147E-03 
2174	 2.30396593371805E-03 
2175	 3.00968238856938E-03 
2176	 3.49480295916405E-03 
2177	 4.53762560806806E-03 
2178	 6.29042585076553E-03 
2179	 6.35505807272069E-03 
2180	 5.48984891101734E-03 
2181	 5.34828077525279E-03 
2182	 4.24198611680555E-03 
2183	 3.6654817253255E-03 
2184	 4.82197796433386E-03 
2185	 4.49715548088228E-03 
2186	 4.45870724820573E-03 
2187	 4.68054489341235E-03 
2188	 4.77308579881644E-03 
2189	 4.66635127715951E-03 
2190	 4.51586473374611E-03 
2191	 4.45486323199913E-03 
2192	 4.04718017929818E-03 
2193	 2.88893433694882E-03 
2194	 2.35426748781603E-03 
2195	 1.73564249274454E-03 
2196	 1.85820563415582E-03 
2197	 2.94750528003596E-03 
2198	 3.23100126366401E-03 
2199	 3.57653179028376E-03 
2200	 4.24810681287604E-03 
2201	 3.59345936470539E-03 
2202	 3.4456706767238E-03 
2203	 3.08247092851207E-03 
2204	 1.7758392776729E-03 
2205	 1.1205217366342E-03 
2206	 3.19444857169141E-04 
2207	 3.82464699106051E-04 
2208	 2.02879009583005E-03 
2209	 2.47211718399671E-03 
2210	 3.23051658978216E-03 
2211	 4.69586805441013E-03 
2212	 2.89900276731408E-03 
2213	 1.59203620826194E-03 
2214	 1.8778153418534E-03 
2215	 1.07837469169094E-03 
2216	 3.23959985619226E-03 
2217	 3.68287041996793E-03 
2218	 3.4611657585171E-03 
2219	 2.99028606822821E-03 
2220	 1.65718364446069E-03 
2221	 1.25290985862087E-03 
2222	 1.67981083862917E-03 
2223	 1.97291446992739E-03 
2224	 2.79312185190624E-03 
2225	 2.46656115399677E-03 
2226	 1.18236912634099E-03 
2227	 4.37490056601835E-04 
2228	-1.14579971505436E-03 
2229	-1.1344712886177E-03 
2230	 3.80114926058772E-04 
2231	 1.0909117998898E-03 
2232	 2.36140779155871E-03 
2233	 0.003188618754193 
2234	 3.4664101613673E-03 
2235	 3.49494643566168E-03 
2236	 4.35305522473759E-03 
2237	 4.57284155695921E-03 
2238	 3.39371684596517E-03 
2239	 2.54381426527702E-03 
2240	 1.01508478676342E-03 
2241	 4.32552129809946E-04 
2242	 1.04204317422293E-03 
2243	 8.14169765299763E-04 
2244	 6.72724651823581E-04 
2245	 4.41417581346159E-04 
2246	 1.55670723371468E-04 
2247	 6.24238460003306E-04 
2248	 5.94216530839649E-04 
2249	-1.94087228665682E-04 
2250	-1.08522053379342E-03 
2251	-2.04019365651325E-03 
2252	-7.6650243287521E-04 
2253	 2.21454390113469E-03 
2254	 3.90011769555136E-03 
2255	 5.64904800405313E-03 
2256	 6.61350727198755E-03 
2257	 5.61378423137688E-03 
2258	 5.19626200899417E-03 
2259	 5.48516505695411E-03 
2260	 5.34039526702434E-03 
2261	 4.99631012070993E-03 
2262	 4.49210771083431E-03 
2263	 3.53826028700333E-03 
2264	 2.48036939636605E-03 
2265	 4.93855683299892E-04 
2266	 3.14726441403064E-04 
2267	 2.20530038266256E-03 
2268	 2.49959062984925E-03 
2269	 2.44363035752517E-03 
2270	 2.83667362227287E-03 
2271	 1.83801091971424E-03 
2272	 2.14206156638362E-03 
2273	 5.48296047550135E-03 
2274	 5.33891636978853E-03 
2275	 2.51631151160714E-03 
2276	 1.88694415734056E-03 
2277	 5.74019111266268E-04 
2278	 1.51423093739704E-04 
2279	 1.47782696311164E-03 
2280	 2.3775609860165E-03 
2281	 3.06968238205584E-03 
2282	 3.8092929801156E-03 
2283	 4.73970813125713E-03 
2284	 3.55081530103946E-03 
2285	 1.76597274901345E-03 
2286	 8.20719839562015E-04 
2287	-3.96663316602199E-04 
2288	 1.5122681397713E-03 
2289	 4.27472260851271E-03 
2290	 5.30075788805293E-03 
2291	 5.58927446810549E-03 
2292	 5.99979363374218E-03 
2293	 5.01946194499213E-03 
2294	 1.38503063619127E-03 
2295	 1.9065081141402E-04 
2296	 8.39634261389227E-04 
2297	 1.48677845848863E-03 
2298	 1.20127105842855E-03 
2299	-8.82896040980831E-04 
2300	-2.07636280889893E-03 
2301	-1.8183670528281E-03 
2302	 2.23493329923896E-04 
2303	-1.43685739413532E-04 
2304	 6.97686326687729E-04 
2305	 4.60666709187238E-03 
2306	 3.83318271888875E-03 
2307	 3.12832893625999E-03 
2308	 3.04510700354247E-03 
2309	 1.09494105572455E-03 
2310	 5.81331665675733E-04 
2311	 2.58107283944389E-03 
2312	 7.67292982286066E-03 
2313	 9.50088678871326E-03 
2314	 8.80221146126716E-03 
2315	 0.010873696891463 
2316	 1.10456629866192E-02 
2317	 1.05468968848537E-02 
2318	 1.13220560965469E-02 
2319	 1.41716168937542E-02 
2320	 1.62993922504219E-02 
2321	 1.00552655668433E-02 
2322	 6.00063878646458E-03 
2323	 3.63842036131421E-03 
2324	-3.88791216990012E-03 
2325	-5.20620938180817E-03 
2326	-5.34431335951011E-03 
2327	-5.55593345250319E-03 
2328	-1.29650447336392E-03 
2329	 1.53097813718368E-04 
2330	 1.16265600885995E-03 
2331	 3.23810500195507E-03 
2332	 3.7433788776289E-03 
2333	 3.97015364050703E-03 
2334	 7.81251506082535E-03 
2335	 9.90774158348833E-03 
2336	 6.11729930654734E-03 
2337	 4.01936666497148E-03 
2338	 2.00889903378113E-03 
2339	 0.003376899883971 
2340	 7.50432270349331E-03 
2341	 0.008577199871381 
2342	 9.30422667761828E-03 
2343	 6.87383811678328E-03 
2344	 6.75770942068132E-03 
2345	 7.80613722900114E-03 
2346	 4.85735427720654E-03 
2347	 7.05673996089045E-03 
2348	 8.9457396267824E-03 
2349	 2.84286910206679E-03 
2350	-1.9052878273622E-03 
2351	-6.33924527041541E-03 
2352	-1.59266365466134E-02 
2353	-2.45077092649625E-02 
2354	-2.18173186551239E-02 
2355	-1.09991650345177E-02 
2356	-5.58489375826389E-03 
2357	-4.5065744358612E-03 
2358	-4.37598259969766E-03 
2359	-1.43476562852952E-02 
2360	-2.00512456646526E-02 
2361	-6.56661352023716E-03 
2362	-1.84538969986879E-03 
2363	-4.45481791916022E-03 
2364	-5.64559338077302E-04 
2365	-4.09579723610381E-03 
2366	-5.4962446680283E-03 
2367	 3.74197949688718E-03 
2368	 1.20266903714396E-02 
2369	 8.79541110356504E-03 
2370	 7.7004694869886E-03 
2371	 3.34435283100526E-03 
2372	-0.018327280310135 
2373	-2.16610046405924E-02 
2374	-1.48057635778288E-02 
2375	-2.06458847767721E-02 
2376	-9.14618700497448E-03 
2377	 2.70038824234341E-03 
2378	-9.07174957853681E-03 
2379	-1.06945589837605E-02 
2380	-1.00118359428228E-02 
2381	-2.21870123113179E-02 
2382	-1.25778199324067E-02 
2383	-2.77859327243198E-03 
2384	-2.51001552606508E-02 
2385	-4.28359396849953E-02 
2386	-5.66352949483707E-02 
2387	-6.36862147744864E-02 
2388	-2.42317630471984E-02 
2389	-3.6005991550385E-03 
2390	-3.48711639913356E-02 
2391	-0.010095204857634 
2392	 1.88728170586052E-02 
2393	 5.1314282214853E-03 
2394	 4.03470689744249E-02 
2395	 6.79947927275614E-02 
2396	 4.51707214699603E-02 
2397	 5.58183070500845E-02 
2398	 8.01503672696288E-02 
2399	 5.60060502892991E-02 
2400	 4.17887710977494E-02 
2401	 4.43904554157963E-02 
2402	 1.51798316620296E-02 
2403	 2.36455449247786E-02 
2404	 4.36381587809962E-02 
2405	 3.10977656700588E-03 
2406	-1.59391071255378E-02 
2407	-3.31288825308196E-02 
2408	-8.36364526595394E-02 
2409	-8.25511609443229E-02 
2410	-4.73673278083159E-02 
2411	-5.06063292681665E-03 
2412	 4.54493994028873E-02 
2413	 7.51328333910794E-02 
2414	 0.080160722201389 
2415	 4.88195521516994E-02 
2416	 4.07526421348046E-02 
2417	 4.66528974120744E-02 
2418	-3.03273344360536E-03 
2419	-8.32783573063253E-03 
2420	 4.69838432091337E-03 
2421	-5.92229073270201E-02 
2422	 1.42317998627196E-02 
2423	 6.32708462925027E-02 
2424	-2.14518464500007E-02 
2425	-0.022648907217748 
2426	-1.23389081834919E-02 
2427	 1.76764532942046E-02 
2428	 0.100681461570443 
2429	 0.127817442933912 
2430	 9.87644845103232E-02 
2431	 0.068385391706705 
2432	 1.32483777475202E-02 
2433	-1.87138498446999E-02 
2434	 3.13139708162158E-03 
2435	-2.68644824582582E-02 
2436	-0.029889636512348 
2437	 1.53433956512551E-02 
2438	 1.30330239218613E-02 
2439	 2.28490541382212E-02 
2440	-4.13070128118669E-02 
2441	-0.162647607341454 
2442	-0.159237645310335 
2443	-4.85987977254758E-02 
2444	 4.73119445646891E-02 
2445	 0.074919875965556 
2446	 7.31387325801604E-02 
2447	 4.79559148388682E-02 
2448	-1.54641162505823E-02 
2449	-9.08620675904557E-02 
2450	-0.179574891172349 
2451	-0.368153887010547 
2452	-0.309353261936157 
2453	-0.246264319325492 
2454	-0.298490593766631 
2455	-0.339759089298338 
2456	-0.175017262045958 
2457	-4.50248596440881E-02 
2458	-6.00247328968316E-02 
2459	-0.132487051270927 
2460	-0.138163431426747 
2461	-0.158793849661092 
2462	-9.18292362113295E-02 
2463	 1.46943674726383E-02 
2464	 1.53548274665986E-02 
2465	-8.65313640262591E-02 
2466	-0.574378112873929 
2467	-0.716501627164371 
2468	-0.820454161362326 
2469	-0.375125261791338 
2470	 2.71498380203999E-02 
2471	 0.42928102339921 
2472	-4.11951842230494 
2473	-32.0340987049426 
2474	-0.537749104015081 
2475	 6.26325224549868 
2476	 1.89407169656033 
2477	-22.540869279738 
2478	-2.84603692813772 
2479	 2.43313867730551 
2480	 0.301383240005675 
2481	-0.999871144756745 
2482	-1.36209429014001 
2483	 0.848515579924934 
2484	 0.15587586614885 
2485	 5.83967103388655E-04 
2486	 7.94640429217852E-02 
2487	 0.36157519853387 
2488	 0.868266436540485 
2489	 1.78239095912982 
2490	 3.3741446850162 
2491	 1.26550300562252 
2492	-2.83700758927536 
2493	-6.5203096710925 
2494	-4.11065796741166 
2495	-12.4487472399036 
2496	-5.76576173740553 
2497	-4.07375780942865 
2498	-9.90636701959244 
2499	 33.9703938873703 
2500	 0.392831829995286 
