Wavelength	rt0718west_close00006.asd
350	 2.10868582836189E-02 
351	 2.08314556628223E-02 
352	 2.09960520409349E-02 
353	 2.10053751390749E-02 
354	 0.020668714135111 
355	 2.09703774251689E-02 
356	 2.13685078092856E-02 
357	 2.17840159428003E-02 
358	 2.21161647755604E-02 
359	 2.15474541883299E-02 
360	 2.13221995045209E-02 
361	 2.17220024767416E-02 
362	 2.22506790068814E-02 
363	 2.22544132589241E-02 
364	 2.19331036213638E-02 
365	 2.16714439324184E-02 
366	 2.19246193094822E-02 
367	 2.25252922009742E-02 
368	 2.27812984147881E-02 
369	 2.23741923161448E-02 
370	 2.27245863078769E-02 
371	 2.30427452304508E-02 
372	 2.30461991285989E-02 
373	 0.022872091675103 
374	 2.33424516760023E-02 
375	 0.02397612317221 
376	 2.41757017698658E-02 
377	 2.34347539782586E-02 
378	 2.38042357729035E-02 
379	 2.44562032362044E-02 
380	 2.44308110658152E-02 
381	 2.46433490961095E-02 
382	 2.49352099103168E-02 
383	 2.51135487284119E-02 
384	 0.025071767370887 
385	 2.54018226231258E-02 
386	 2.61694476415006E-02 
387	 2.68080859078162E-02 
388	 2.62357122373885E-02 
389	 2.63575478111048E-02 
390	 2.67700543120857E-02 
391	 2.69088158396843E-02 
392	 2.69602938589122E-02 
393	 2.72893187465455E-02 
394	 2.78530024626629E-02 
395	 2.83811434104757E-02 
396	 2.83934034636477E-02 
397	 2.84402468887118E-02 
398	 2.86595549982501E-02 
399	 2.87948888099641E-02 
400	 0.029068353034182 
401	 2.92897781756627E-02 
402	 2.93671715701163E-02 
403	 2.95605928457494E-02 
404	 0.029630768873274 
405	 0.029705675497366 
406	 2.99635070582768E-02 
407	 3.00447114775712E-02 
408	 3.02190574129729E-02 
409	 3.05359133872366E-02 
410	 3.07990887710392E-02 
411	 3.10226839728949E-02 
412	 0.031250417891354 
413	 3.14914131815047E-02 
414	 3.16373882166499E-02 
415	 0.031883323614921 
416	 3.22084465310365E-02 
417	 3.25130780817049E-02 
418	 3.28335506926368E-02 
419	 3.30521235098911E-02 
420	 3.32103088364922E-02 
421	 3.35175508398488E-02 
422	 3.37275718941265E-02 
423	 3.40243413909847E-02 
424	 3.44842314281822E-02 
425	 3.46292062677371E-02 
426	 3.48782238002089E-02 
427	 0.035294370976841 
428	 3.57453322497253E-02 
429	 0.03608168877684 
430	 0.036412454368759 
431	 3.68466617189584E-02 
432	 3.74571401787456E-02 
433	 3.77989524764578E-02 
434	 3.80868720855077E-02 
435	 3.85443194500376E-02 
436	 3.89679333637882E-02 
437	 3.93127879503659E-02 
438	 3.96565777262479E-02 
439	 4.01191814099209E-02 
440	 4.05522097267018E-02 
441	 4.09613395091137E-02 
442	 4.13628592932617E-02 
443	 4.17656924954086E-02 
444	 4.20694047579323E-02 
445	 4.24086554113887E-02 
446	 4.28904591241217E-02 
447	 4.32802599344225E-02 
448	 4.35362060913058E-02 
449	 4.37574976367099E-02 
450	 4.41221819536266E-02 
451	 4.44305286874556E-02 
452	 4.46492578412203E-02 
453	 4.48311790615335E-02 
454	 4.51590537136924E-02 
455	 4.53840583167517E-02 
456	 4.55159378062105E-02 
457	 4.56641346198086E-02 
458	 4.59149436583839E-02 
459	 4.61308730614733E-02 
460	 4.62555702117669E-02 
461	 0.046331434349519 
462	 4.64780286723047E-02 
463	 4.66806878822008E-02 
464	 4.68910805538729E-02 
465	 0.047054107999328 
466	 4.72528112168465E-02 
467	 4.74414179789776E-02 
468	 4.75425041027858E-02 
469	 4.77324242216415E-02 
470	 4.79600242691532E-02 
471	 0.048172339225709 
472	 4.83430605833235E-02 
473	 4.85814514636187E-02 
474	 4.88501172357387E-02 
475	 4.90843718075202E-02 
476	 4.92610297716559E-02 
477	 4.94966470339513E-02 
478	 4.98173404551025E-02 
479	 5.01730929758171E-02 
480	 5.04416153703565E-02 
481	 5.06750477674607E-02 
482	 5.09336251636489E-02 
483	 5.12402762465732E-02 
484	 5.15641993606035E-02 
485	 5.18684156765783E-02 
486	 5.21667127203691E-02 
487	 5.27574614844824E-02 
488	 5.31897520991392E-02 
489	 5.34056202770288E-02 
490	 5.37563979600381E-02 
491	 5.42247551458165E-02 
492	 5.46913132046669E-02 
493	 5.50848855537395E-02 
494	 5.55297461151638E-02 
495	 5.60682502484672E-02 
496	 5.66192028959381E-02 
497	 5.70643680728668E-02 
498	 5.75704313386319E-02 
499	 5.80964882528413E-02 
500	 5.86369311516233E-02 
501	 5.92763376409724E-02 
502	 5.98404667041413E-02 
503	 6.03426585641886E-02 
504	 6.08515093140856E-02 
505	 6.13927510820201E-02 
506	 6.19926635187923E-02 
507	 6.26265399302304E-02 
508	 6.32335756533039E-02 
509	 0.063850710825134 
510	 0.064475516379204 
511	 6.51016506799202E-02 
512	 6.57300681859391E-02 
513	 0.06639433991148 
514	 6.70780119912328E-02 
515	 6.77496738302343E-02 
516	 6.84905504426427E-02 
517	 6.92058762740641E-02 
518	 6.99107630467167E-02 
519	 7.07705011265846E-02 
520	 7.15513248451955E-02 
521	 7.22490200613903E-02 
522	 7.29462696615482E-02 
523	 7.38140961420666E-02 
524	 0.0746023985671 
525	 7.53327961097269E-02 
526	 7.62061959189248E-02 
527	 7.70110507845803E-02 
528	 7.78563017385624E-02 
529	 0.078779885993684 
530	 7.95933176570442E-02 
531	 8.04735127693211E-02 
532	 8.13674506617888E-02 
533	 8.21855987346729E-02 
534	 8.31721070177603E-02 
535	 8.41399259256571E-02 
536	 8.50136904336512E-02 
537	 8.58683910154017E-02 
538	 8.67914829105889E-02 
539	 8.77795954924436E-02 
540	 8.87975274796899E-02 
541	 8.98223837328393E-02 
542	 9.07185080051587E-02 
543	 9.15884449569857E-02 
544	 9.26534526947085E-02 
545	 9.36701516691232E-02 
546	 9.46005209623975E-02 
547	 9.54960698848221E-02 
548	 9.65319177487299E-02 
549	 9.75211926581792E-02 
550	 9.84603130498994E-02 
551	 9.94145301535731E-02 
552	 0.100429853044959 
553	 0.10142066681941 
554	 0.102348510845299 
555	 0.103233258627549 
556	 0.104214893399857 
557	 0.105200005853599 
558	 0.106095486401152 
559	 0.107053841114286 
560	 0.107946900409321 
561	 0.108771878396774 
562	 0.109608677440599 
563	 0.110454246858756 
564	 0.111267019430042 
565	 0.112024065188602 
566	 0.112748472957857 
567	 0.113488160002175 
568	 0.114193962830681 
569	 0.114814417135288 
570	 0.115520331709322 
571	 0.116191528225567 
572	 0.116781310677193 
573	 0.117341510962369 
574	 0.117915181584469 
575	 0.11842028842466 
576	 0.118817135384945 
577	 0.119314487243037 
578	 0.119768710555773 
579	 0.120127002712843 
580	 0.120408605570621 
581	 0.120736272896601 
582	 0.120990982252909 
583	 0.12114903723064 
584	 0.121424518629285 
585	 0.121552290505065 
586	 0.121560299381103 
587	 0.121564566824871 
588	 0.121514809872045 
589	 0.121537867466688 
590	 0.121623634359935 
591	 0.12161478784854 
592	 0.121476023090427 
593	 0.121282210436919 
594	 0.121097094478838 
595	 0.120877511528513 
596	 0.120466882836787 
597	 0.119979659569619 
598	 0.119648666269124 
599	 0.119147060381859 
600	 0.118683171594271 
601	 0.118400404654373 
602	 0.118216416313995 
603	 0.11813752325519 
604	 0.118112279553077 
605	 0.118097287797579 
606	 0.118174685871395 
607	 0.11825835470463 
608	 0.11834572440871 
609	 0.118521120177061 
610	 0.118636777528939 
611	 0.118734767466246 
612	 0.118847534630459 
613	 0.118834781839113 
614	 0.118937664889768 
615	 0.11912567128216 
616	 0.119211429034038 
617	 0.119153819337875 
618	 0.119136948315456 
619	 0.119237226965712 
620	 0.119325419869471 
621	 0.119367070681272 
622	 0.119412466384812 
623	 0.119514764584585 
624	 0.119577410316335 
625	 0.119616577359808 
626	 0.119618757827886 
627	 0.119550921370636 
628	 0.119671318221356 
629	 0.119763687719333 
630	 0.119693685489632 
631	 0.119790577789203 
632	 0.119871438691712 
633	 0.119878279670024 
634	 0.11983602507695 
635	 0.119933704464922 
636	 0.120007021754509 
637	 0.120002751958043 
638	 0.120076905028712 
639	 0.120053669765672 
640	 0.120065716224024 
641	 0.120217133107205 
642	 0.120121777285751 
643	 0.12006180838251 
644	 0.12007926532719 
645	 0.120018501735545 
646	 0.119984313786989 
647	 0.119986477953162 
648	 0.120000142830431 
649	 0.119972140983026 
650	 0.119825150486623 
651	 0.119640774964098 
652	 0.119520991607396 
653	 0.11921065588579 
654	 0.118882491387855 
655	 0.118559260494844 
656	 0.118071288535474 
657	 0.117721266542376 
658	 0.117415874358176 
659	 0.117059754513437 
660	 0.116854753832091 
661	 0.116661658574736 
662	 0.116448226302158 
663	 0.116255252959455 
664	 0.116093899505683 
665	 0.115987049250733 
666	 0.115920551523277 
667	 0.115812193575088 
668	 0.115808003982777 
669	 0.115802286756443 
670	 0.115674301499285 
671	 0.115655853629363 
672	 0.115738587635293 
673	 0.115847496716864 
674	 0.115869129908141 
675	 0.115971026320124 
676	 0.116114057637559 
677	 0.116237701752285 
678	 0.116322747061282 
679	 0.116446190129472 
680	 0.116612979680154 
681	 0.11678304166366 
682	 0.116864700775553 
683	 0.117004655014049 
684	 0.117199462070624 
685	 0.11722806173057 
686	 0.117280920687477 
687	 0.117363329717403 
688	 0.117417184330893 
689	 0.117414438136656 
690	 0.117341658373375 
691	 0.117154842259219 
692	 0.116809056827027 
693	 0.116530145039589 
694	 0.116236185485738 
695	 0.115880528515378 
696	 0.115518414631403 
697	 0.115024985332176 
698	 0.114386117146795 
699	 0.113666670581551 
700	 0.11293142304491 
701	 0.11229266058295 
702	 0.111624637711171 
703	 0.110641019501144 
704	 0.109806252489805 
705	 0.108940155609233 
706	 0.107900373126354 
707	 0.106791742627722 
708	 0.105586511957774 
709	 0.104301184650096 
710	 0.102934290131918 
711	 0.101339055779006 
712	 0.099578226442943 
713	 9.77313908520523E-02 
714	 9.58317544654975E-02 
715	 9.38474613258494E-02 
716	 9.16893171087081E-02 
717	 8.94410365188267E-02 
718	 0.087206443881577 
719	 8.50286241480511E-02 
720	 8.31849684512586E-02 
721	 8.15077576024467E-02 
722	 7.94804846696385E-02 
723	 7.70760798920674E-02 
724	 7.46793670876519E-02 
725	 7.24915484679873E-02 
726	 7.00007074564472E-02 
727	 6.72585578031092E-02 
728	 6.44296448667242E-02 
729	 6.14644044113929E-02 
730	 5.82549876551787E-02 
731	 5.52253046564232E-02 
732	 5.27604521924051E-02 
733	 5.04656505260512E-02 
734	 4.84871626986409E-02 
735	 4.68775461497168E-02 
736	 4.54779957252392E-02 
737	 4.44713107186392E-02 
738	 4.37149839412738E-02 
739	 4.30970306632706E-02 
740	 4.28149845488784E-02 
741	 0.042546588081646 
742	 4.22767375614738E-02 
743	 4.21447553534651E-02 
744	 4.20934838551138E-02 
745	 4.20308658106918E-02 
746	 4.19632113346782E-02 
747	 4.20309294777487E-02 
748	 4.20591738987328E-02 
749	 4.20617188555187E-02 
750	 4.20682900415078E-02 
751	 4.19815150960526E-02 
752	 0.041961615974376 
753	 4.20288369938839E-02 
754	 4.21067273537462E-02 
755	 4.20480751092614E-02 
756	 4.20736437874524E-02 
757	 4.22471344012797E-02 
758	 4.23859781095927E-02 
759	 4.22887801197891E-02 
760	 4.22332989929255E-02 
761	 4.26002272030698E-02 
762	 4.25313988362098E-02 
763	 4.27089973044858E-02 
764	 4.29415001147813E-02 
765	 4.29442583319466E-02 
766	 4.32744630839902E-02 
767	 4.35792286240199E-02 
768	 4.37785932927321E-02 
769	 4.40370538170318E-02 
770	 4.42850917139666E-02 
771	 4.44832890458593E-02 
772	 4.46670422739183E-02 
773	 4.50576164347114E-02 
774	 4.55055721040447E-02 
775	 4.58820708266506E-02 
776	 4.61357163473277E-02 
777	 4.65743595564219E-02 
778	 4.70338986396945E-02 
779	 4.74447481359003E-02 
780	 0.047870268030309 
781	 4.82910622108668E-02 
782	 4.87839935832921E-02 
783	 4.93529442470197E-02 
784	 4.98006718607425E-02 
785	 5.03084197247328E-02 
786	 5.08827829264347E-02 
787	 5.14624289294591E-02 
788	 5.20018641570601E-02 
789	 5.25272047417119E-02 
790	 5.31128921196287E-02 
791	 5.38362315411043E-02 
792	 5.43677314965425E-02 
793	 0.054915310518968 
794	 5.55877992548823E-02 
795	 5.61979612498817E-02 
796	 5.67332861257624E-02 
797	 5.72044362613237E-02 
798	 5.76520268620535E-02 
799	 5.81049628329864E-02 
800	 5.86404926239202E-02 
801	 0.059126611553485 
802	 0.059383642181215 
803	 5.97534793040417E-02 
804	 0.060084009386631 
805	 6.02595422205154E-02 
806	 6.02655996546358E-02 
807	 0.060273996992497 
808	 0.060269379250455 
809	 6.01748700918628E-02 
810	 5.98521925814432E-02 
811	 5.95414958493953E-02 
812	 5.92485544238458E-02 
813	 5.88450421453936E-02 
814	 5.80431993597424E-02 
815	 5.75081032067963E-02 
816	 5.71817096230429E-02 
817	 5.64208036752689E-02 
818	 5.55331763358492E-02 
819	 5.46760998739489E-02 
820	 5.38170013158406E-02 
821	 5.27710546196334E-02 
822	 5.12444143549489E-02 
823	 4.93886477527676E-02 
824	 4.74910796495948E-02 
825	 4.55980303678745E-02 
826	 4.34588007114012E-02 
827	 4.11323676089898E-02 
828	 3.88741820648871E-02 
829	 3.63673605711484E-02 
830	 3.43103249110233E-02 
831	 3.27359205800858E-02 
832	 0.031242013487535 
833	 0.030340258672007 
834	 0.029361166739991 
835	 2.82413631873461E-02 
836	 2.78593467292191E-02 
837	 2.72687118515288E-02 
838	 2.66633629937787E-02 
839	 2.62765915024517E-02 
840	 2.57609980959419E-02 
841	 2.54599169863611E-02 
842	 2.52567068525517E-02 
843	 2.49171770623133E-02 
844	 2.45323156587819E-02 
845	 2.41078233016348E-02 
846	 2.37143722236078E-02 
847	 2.34345599933721E-02 
848	 2.30413250585229E-02 
849	 2.27323397606698E-02 
850	 2.24953086563672E-02 
851	 2.20139089831839E-02 
852	 2.16815229905337E-02 
853	 2.14379992599514E-02 
854	 0.021188801229281 
855	 2.09646819130579E-02 
856	 2.09262034340945E-02 
857	 2.07964549801992E-02 
858	 2.03661080954327E-02 
859	 2.01074405724339E-02 
860	 0.019743324935013 
861	 1.93764703303508E-02 
862	 1.92328100234826E-02 
863	 0.01903679378465 
864	 1.89489490356219E-02 
865	 1.88350179844707E-02 
866	 1.83432351043377E-02 
867	 1.79400837642837E-02 
868	 1.76392843037074E-02 
869	 1.73495371530331E-02 
870	 1.69480639816498E-02 
871	 0.016639512739899 
872	 1.65211341938368E-02 
873	 1.64208200986312E-02 
874	 1.56112954890633E-02 
875	 1.52750166807922E-02 
876	 1.52202474440144E-02 
877	 1.49679117710942E-02 
878	 1.47526078284282E-02 
879	 1.43449120649614E-02 
880	 1.38309922827557E-02 
881	 1.34090412647282E-02 
882	 1.29276112288883E-02 
883	 0.012626058391651 
884	 1.25138220713088E-02 
885	 1.24098182600762E-02 
886	 1.22934154595816E-02 
887	 1.17575393584195E-02 
888	 1.10831299644802E-02 
889	 1.12347647331084E-02 
890	 1.08903423681334E-02 
891	 1.06374078261634E-02 
892	 1.07929217095372E-02 
893	 1.05465558824011E-02 
894	 0.010432781148153 
895	 1.00184382772381E-02 
896	 9.16915834602788E-03 
897	 9.45778744121504E-03 
898	 9.5989665129014E-03 
899	 9.27939703432422E-03 
900	 8.72628564518278E-03 
901	 8.5108409781804E-03 
902	 8.11020786175712E-03 
903	 7.87022327606685E-03 
904	 8.15957489351273E-03 
905	 7.74234744043088E-03 
906	 7.31316085158595E-03 
907	 7.04247371117654E-03 
908	 6.74959304673765E-03 
909	 6.93583625446152E-03 
910	 6.4936070723644E-03 
911	 5.70787105197443E-03 
912	 5.97189211805269E-03 
913	 5.74378103647688E-03 
914	 5.18376291314375E-03 
915	 4.78812147878353E-03 
916	 5.02949146587499E-03 
917	 5.02394619810607E-03 
918	 4.35195044636801E-03 
919	 3.48629998805577E-03 
920	 3.8215504256732E-03 
921	 3.95485679755869E-03 
922	 3.49083757297734E-03 
923	 2.71620635230576E-03 
924	 2.87909420631747E-03 
925	 3.21612469987799E-03 
926	 3.35505961026616E-03 
927	 3.05737666214154E-03 
928	 2.18069403685178E-03 
929	 2.50677510853757E-03 
930	 3.1800969773364E-03 
931	 2.38543783389535E-03 
932	 3.7959243071265E-03 
933	 3.59990622041944E-03 
934	 1.70895218778574E-03 
935	 1.0206352185862E-03 
936	 4.45894148191093E-03 
937	 4.41404453454375E-03 
938	 2.47965349521632E-03 
939	 2.09162968082736E-03 
940	 1.28113991334962E-03 
941	 3.98591746091422E-04 
942	 2.60584758500034E-04 
943	 1.43579825184466E-03 
944	 1.7768898161473E-03 
945	 2.16790077464803E-04 
946	-8.3117900223824E-04 
947	 1.64976628833742E-03 
948	 2.60111771138968E-03 
949	 2.15185459354587E-03 
950	 9.47228605872915E-04 
951	-8.09515287205413E-05 
952	 8.72682914631208E-04 
953	 1.13582541000149E-03 
954	 9.74815425677618E-04 
955	 2.30966559458232E-03 
956	 2.15255269562394E-03 
957	 2.09858487413152E-03 
958	 2.49659137906346E-03 
959	 2.54713148436475E-03 
960	 2.06059331653039E-03 
961	 1.77164478563735E-03 
962	 1.34796786054822E-03 
963	 2.98428622995978E-05 
964	-3.19616248104046E-04 
965	 7.72322266671187E-04 
966	 2.17606615778255E-03 
967	 2.14259237178421E-03 
968	 2.27106655637869E-03 
969	 1.68376463810816E-03 
970	 1.38692711630424E-03 
971	 3.39354302438366E-03 
972	 2.68470625079765E-03 
973	 1.6322589566855E-03 
974	 1.25571445275744E-03 
975	 5.8504468961734E-04 
976	 8.89273221510123E-04 
977	 1.30059485071791E-03 
978	 1.52310465622602E-03 
979	 1.85521388012367E-03 
980	 9.43764538462964E-04 
981	 1.60147500311484E-03 
982	 3.12616604995674E-03 
983	 2.17080188893902E-03 
984	 3.6592407473589E-04 
985	 6.98837753670312E-05 
986	 1.4157301606475E-03 
987	 2.45135035106865E-03 
988	 6.16497045386535E-04 
989	-4.60807528800313E-05 
990	 9.05606867538896E-04 
991	 1.02003600027478E-03 
992	 1.97890286402238E-03 
993	 1.95240265216021E-03 
994	 1.32266128548904E-03 
995	 1.67713346276606E-03 
996	 6.81278657766171E-04 
997	 6.30159193621125E-04 
998	 1.83581746889519E-03 
999	 2.9434967032121E-03 
1000	 2.4705693285368E-03 
1001	 1.32496377397762E-03 
1002	 1.34965951694464E-03 
1003	 1.40540847985311E-03 
1004	 1.28397350333356E-03 
1005	 1.26652768016512E-03 
1006	 1.32904610796362E-03 
1007	 1.39393721189024E-03 
1008	 1.30449822159836E-03 
1009	 1.32025003997687E-03 
1010	 1.30094476374425E-03 
1011	 1.2352741288018E-03 
1012	 1.45974031101785E-03 
1013	 1.59619293742207E-03 
1014	 1.61817417714554E-03 
1015	 1.53065561413145E-03 
1016	 1.57667440912124E-03 
1017	 1.67894623447776E-03 
1018	 1.59950806570129E-03 
1019	 1.57080537666416E-03 
1020	 1.50790470471305E-03 
1021	 1.22217573893339E-03 
1022	 8.94402377473371E-04 
1023	 1.0929796301159E-03 
1024	 1.16147689733995E-03 
1025	 1.17788374444109E-03 
1026	 1.22463850737773E-03 
1027	 0.001288808612982 
1028	 1.31687781153258E-03 
1029	 1.33658306351956E-03 
1030	 1.37351396364845E-03 
1031	 1.48697039239927E-03 
1032	 1.57312137485374E-03 
1033	 1.58956449526607E-03 
1034	 1.81987926951288E-03 
1035	 1.7857905440849E-03 
1036	 0.001333246359466 
1037	 1.23428284394401E-03 
1038	 1.15940517087375E-03 
1039	 1.22964345773505E-03 
1040	 1.48919293712319E-03 
1041	 1.73792536055397E-03 
1042	 1.62724897275031E-03 
1043	 1.23260200099353E-03 
1044	 1.08426628859194E-03 
1045	 6.93016753820552E-04 
1046	 6.28141877820737E-04 
1047	 7.94813567167966E-04 
1048	 1.00424530789007E-03 
1049	 1.63562786174991E-03 
1050	 1.72560751788157E-03 
1051	 1.61169251035374E-03 
1052	 1.56555048931201E-03 
1053	 1.01618710690399E-03 
1054	 7.77715385616379E-04 
1055	 8.04657593397151E-04 
1056	 8.60856848778651E-04 
1057	 9.90447540997803E-04 
1058	 1.19890163451438E-03 
1059	 1.42461669872096E-03 
1060	 1.90121456331977E-03 
1061	 1.9504937527402E-03 
1062	 1.76934235044902E-03 
1063	 1.71497719261306E-03 
1064	 1.39304303527484E-03 
1065	 1.33860738784494E-03 
1066	 1.54502726710124E-03 
1067	 1.62930153952151E-03 
1068	 1.71014229227416E-03 
1069	 1.79884834472106E-03 
1070	 2.07101630525245E-03 
1071	 2.02436599377302E-03 
1072	 1.47020200261093E-03 
1073	 1.4995869112045E-03 
1074	 1.40945269205465E-03 
1075	 1.09476124358927E-03 
1076	 1.12567089454459E-03 
1077	 1.69125153683213E-03 
1078	 1.59738861547273E-03 
1079	 1.11780589370957E-03 
1080	 1.1082487498192E-03 
1081	 1.01479692869503E-03 
1082	 1.02928698766335E-03 
1083	 1.54269105210168E-03 
1084	 1.69016753672816E-03 
1085	 1.5780226628438E-03 
1086	 1.51025860476479E-03 
1087	 1.23398345671237E-03 
1088	 1.20261216162229E-03 
1089	 1.21574281787276E-03 
1090	 1.49350508747767E-03 
1091	 1.41634856420006E-03 
1092	 1.31314505815964E-03 
1093	 1.36936567962771E-03 
1094	 1.12964411426534E-03 
1095	 1.2250122744983E-03 
1096	 2.18290713639093E-03 
1097	 2.08763246013365E-03 
1098	 1.09981390157732E-03 
1099	 8.99968262350112E-04 
1100	 3.83421328597731E-04 
1101	 3.17890458167505E-04 
1102	 1.47631531358422E-03 
1103	 1.76424035468483E-03 
1104	 1.82683423693522E-03 
1105	 1.51482769871226E-03 
1106	 2.88068997547573E-04 
1107	-1.51748255484418E-04 
1108	 2.03795091976865E-04 
1109	 3.81452702688174E-04 
1110	 5.42659799376622E-04 
1111	 1.3650324584009E-03 
1112	 1.50428745358619E-03 
1113	 1.06127110260897E-03 
1114	 9.60222941129836E-04 
1115	 7.46609229568754E-04 
1116	 1.07904051769308E-03 
1117	 1.35368111901449E-03 
1118	 1.30888370137176E-03 
1119	 2.97150915642022E-03 
1120	 3.45321158149575E-03 
1121	 1.72613983968549E-03 
1122	 1.13191205794298E-03 
1123	 2.16391972229876E-03 
1124	 2.14476347728277E-03 
1125	 2.46534198754633E-03 
1126	 2.48723895184419E-03 
1127	 1.7322008217539E-03 
1128	 2.2489722972957E-04 
1129	 1.35034604403528E-03 
1130	 6.36175223678614E-03 
1131	 5.68123702437383E-03 
1132	 2.75195027257253E-03 
1133	 2.87326071284131E-03 
1134	 1.55364988794739E-03 
1135	 9.03580093538986E-04 
1136	 3.43878555533288E-03 
1137	 3.21325466014374E-03 
1138	-9.15890645861136E-05 
1139	-3.66510992711307E-04 
1140	 1.20869946399521E-03 
1141	 1.09426211877866E-03 
1142	 2.52590686700242E-03 
1143	 3.48952353896159E-03 
1144	 1.10524235208112E-03 
1145	 3.68159874180882E-04 
1146	 8.48005855991099E-04 
1147	 2.14941898403315E-06 
1148	 1.00774610070276E-03 
1149	 2.16387346033587E-03 
1150	 1.8505255273128E-03 
1151	-3.34189450793415E-04 
1152	 1.85912331958695E-05 
1153	 1.14791377698311E-03 
1154	 1.18406362320949E-03 
1155	 1.72752886667177E-03 
1156	 1.81210379092833E-03 
1157	 9.47500864116085E-04 
1158	 4.14867826799415E-04 
1159	 2.78864084826928E-04 
1160	 8.23978526340318E-04 
1161	 1.32458764810546E-03 
1162	 1.30191099692518E-03 
1163	 1.4889494824215E-03 
1164	 1.43939624339063E-03 
1165	 8.2405958603877E-04 
1166	 6.76588484486719E-04 
1167	 1.01968497122141E-03 
1168	 9.58563570833531E-04 
1169	 9.7399255888337E-04 
1170	 1.17459219981966E-03 
1171	 1.20001652625943E-03 
1172	 8.58868252164815E-04 
1173	 8.91506845985313E-04 
1174	 1.20514576244243E-03 
1175	 1.15029283114127E-03 
1176	 1.16828691496812E-03 
1177	 1.38918420195752E-03 
1178	 1.20558228335867E-03 
1179	 9.10697290604307E-04 
1180	 1.00541101049556E-03 
1181	 1.29553301282207E-03 
1182	 1.2721699501223E-03 
1183	 1.04804059081285E-03 
1184	 9.42270132921806E-04 
1185	 7.25619461989282E-04 
1186	 6.4023998768399E-04 
1187	 1.04982792495079E-03 
1188	 1.22548464871223E-03 
1189	 9.89855989823994E-04 
1190	 8.60408338051057E-04 
1191	 7.46836361022653E-04 
1192	 7.42946027428992E-04 
1193	 8.71026651245359E-04 
1194	 1.00855088478577E-03 
1195	 9.6806596216038E-04 
1196	 9.63608456819228E-04 
1197	 9.6373662940381E-04 
1198	 7.16050818468968E-04 
1199	 5.51758147639772E-04 
1200	 6.57663483795332E-04 
1201	 6.16688767611009E-04 
1202	 8.17939717430113E-04 
1203	 9.85625616615334E-04 
1204	 7.90890716189272E-04 
1205	 9.32212185507691E-04 
1206	 9.62858360542132E-04 
1207	 8.88489268999095E-04 
1208	 1.22174161578881E-03 
1209	 1.26144978278186E-03 
1210	 9.27403330080204E-04 
1211	 8.36116003282031E-04 
1212	 9.37821887478092E-04 
1213	 9.10772746620205E-04 
1214	 8.50156409193406E-04 
1215	 9.01157535890785E-04 
1216	 9.89175174225053E-04 
1217	 8.00222519416765E-04 
1218	 7.76924130752584E-04 
1219	 1.01613833901009E-03 
1220	 8.70252035591831E-04 
1221	 5.71552503087312E-04 
1222	 5.03682517196315E-04 
1223	 5.77714089053017E-04 
1224	 6.27840372025269E-04 
1225	 6.39346690029823E-04 
1226	 5.9424649412191E-04 
1227	 5.22714997037062E-04 
1228	 6.85222444189462E-04 
1229	 8.23200403281463E-04 
1230	 7.90055495264401E-04 
1231	 8.51381499830057E-04 
1232	 7.66971924431223E-04 
1233	 5.61461798915766E-04 
1234	 6.53740253152488E-04 
1235	 7.51831784414153E-04 
1236	 7.03771555432129E-04 
1237	 7.12387312977596E-04 
1238	 8.82735101458024E-04 
1239	 1.16303961698469E-03 
1240	 1.09637219855356E-03 
1241	 9.315668619047E-04 
1242	 8.52064482044422E-04 
1243	 8.5791441100445E-04 
1244	 8.90077981055672E-04 
1245	 7.99093794262979E-04 
1246	 8.03671347061757E-04 
1247	 8.19701676636466E-04 
1248	 6.85599276462163E-04 
1249	 7.48032347645971E-04 
1250	 1.07448795674826E-03 
1251	 1.19936819939096E-03 
1252	 1.02359637496972E-03 
1253	 9.48031778358039E-04 
1254	 9.6381696916947E-04 
1255	 9.66140018223803E-04 
1256	 9.58158566948382E-04 
1257	 1.12859045733438E-03 
1258	 1.11480018401458E-03 
1259	 7.94387874464625E-04 
1260	 8.18380532430066E-04 
1261	 1.23181139323774E-03 
1262	 1.21413349361374E-03 
1263	 1.05185327007616E-03 
1264	 9.89777657386318E-04 
1265	 1.1857502261091E-03 
1266	 1.1223778027033E-03 
1267	 1.10715330705486E-03 
1268	 1.31812721563074E-03 
1269	 1.29966908294959E-03 
1270	 1.03015567738026E-03 
1271	 9.79717452976901E-04 
1272	 1.26705785445597E-03 
1273	 1.2331273402909E-03 
1274	 9.20186719260709E-04 
1275	 9.58779927776665E-04 
1276	 1.09481683079883E-03 
1277	 1.01098091543566E-03 
1278	 9.91595089966767E-04 
1279	 1.04192918177538E-03 
1280	 9.36777683110167E-04 
1281	 9.48071176378229E-04 
1282	 9.60489497420363E-04 
1283	 9.76105331705276E-04 
1284	 1.09727830015309E-03 
1285	 1.09356035999858E-03 
1286	 9.26433893500856E-04 
1287	 8.61516464252986E-04 
1288	 8.50594926447767E-04 
1289	 8.87455002473866E-04 
1290	 9.67422172858086E-04 
1291	 9.80178271713941E-04 
1292	 1.12376460170673E-03 
1293	 1.25684677862293E-03 
1294	 1.21924351153086E-03 
1295	 1.17376241430779E-03 
1296	 1.18799286445453E-03 
1297	 1.0883613299421E-03 
1298	 9.76940751630879E-04 
1299	 1.07531969355189E-03 
1300	 1.18715024730558E-03 
1301	 9.8810491508939E-04 
1302	 8.35817890855829E-04 
1303	 9.48323700819373E-04 
1304	 1.01531090347622E-03 
1305	 1.13983850878059E-03 
1306	 1.15887654652207E-03 
1307	 1.14668427653428E-03 
1308	 1.18058957202278E-03 
1309	 1.25835632979175E-03 
1310	 1.15016770860884E-03 
1311	 8.88468654128405E-04 
1312	 1.01350577018739E-03 
1313	 1.13322414151206E-03 
1314	 1.08425251590791E-03 
1315	 1.48696081305144E-03 
1316	 1.70862297221889E-03 
1317	 1.41108500934744E-03 
1318	 1.28268291257166E-03 
1319	 1.40134697884488E-03 
1320	 1.40590010381412E-03 
1321	 1.11870652391752E-03 
1322	 1.2206536471072E-03 
1323	 1.3182988880099E-03 
1324	 1.23921929694612E-03 
1325	 1.22210683105855E-03 
1326	 1.06012755162912E-03 
1327	 9.55195070599884E-04 
1328	 9.93419067199996E-04 
1329	 1.12693650867209E-03 
1330	 1.21189361117193E-03 
1331	 1.18607576207299E-03 
1332	 1.2813847105028E-03 
1333	 9.97711869785643E-04 
1334	 6.91137721749016E-04 
1335	 8.49811480574726E-04 
1336	 1.77778568733167E-03 
1337	 1.83196643169332E-03 
1338	 1.63050199931267E-03 
1339	 1.78993744580292E-03 
1340	 1.81480554790054E-03 
1341	 1.47042958879795E-03 
1342	 8.2813993096862E-04 
1343	 9.06702962915827E-04 
1344	 1.4452932967456E-03 
1345	 1.30280624482061E-03 
1346	 9.1289232727509E-04 
1347	 1.57315684711851E-03 
1348	 2.56083771725933E-03 
1349	 2.30554730589836E-03 
1350	 3.62430360608603E-03 
1351	 6.52100383452876E-03 
1352	 4.26092045050782E-03 
1353	 3.54827333782073E-03 
1354	 6.04488215607066E-03 
1355	 3.87755152629485E-02 
1356	 0.056538465249984 
1357	 2.73632328813865E-02 
1358	 3.49157837678895E-02 
1359	 0.063718539245085 
1360	 8.22935971555628E-02 
1361	 0.126895168676244 
1362	 0.107786229797201 
1363	 0.11152438843371 
1364	 8.38355952327961E-02 
1365	 5.46615039468682E-02 
1366	 0.203505547326976 
1367	 0.163437297133998 
1368	 0.179144700775026 
1369	 0.291972810104871 
1370	 0.339177907827511 
1371	 0.209643159998111 
1372	 0.237618108698953 
1373	 0.624046660247193 
1374	 0.534659477335598 
1375	 9.89530453846436E-02 
1376	 0.145092218866327 
1377	 0.372561944752256 
1378	 0.276892170894227 
1379	 0.224112029692611 
1380	 0.326033000695722 
1381	 0.215315570829611 
1382	 0.132222576474936 
1383	 0.447311954543129 
1384	 0.554681259910613 
1385	 0.237624019445605 
1386	 0.180091735895827 
1387	 0.30798370673654 
1388	 0.293238046200141 
1389	 0.118432714217758 
1390	 2.07496513348864E-02 
1391	-0.202671245680607 
1392	-0.232546845099209 
1393	 5.20135049588307E-02 
1394	 0.120855669488366 
1395	 9.22040729562028E-03 
1396	-3.67267499975879E-02 
1397	 9.29202314331997E-02 
1398	 0.127870788326179 
1399	 9.81060533822158E-02 
1400	 0.15134426521311 
1401	 0.223454453831455 
1402	 0.264412508632069 
1403	 0.072959045179016 
1404	 0.013481126074761 
1405	 8.47789563492623E-02 
1406	 3.38440031883645E-02 
1407	-1.94325589622482E-03 
1408	 0.115664546052014 
1409	 0.123689895921572 
1410	 1.92128329483222E-02 
1411	 7.38275967418147E-03 
1412	 8.36948665344071E-02 
1413	 7.81078018238795E-02 
1414	 1.11491682296199E-02 
1415	 1.17963322909753E-02 
1416	 4.11522722248403E-02 
1417	 3.54125249648714E-02 
1418	 0.035516912985665 
1419	 3.22015854087619E-02 
1420	 9.67338224384876E-03 
1421	 9.41432913511849E-03 
1422	 2.26020657480314E-02 
1423	 2.32912797580505E-02 
1424	 2.61392897318506E-02 
1425	 2.33877594442528E-02 
1426	 0.009591006810127 
1427	 8.55027243030407E-03 
1428	 1.72958642238636E-02 
1429	 1.55626123539231E-02 
1430	 8.4641214078585E-03 
1431	 8.36907033834072E-03 
1432	 8.77359178244453E-03 
1433	 6.67721122717326E-03 
1434	 9.94133126248131E-03 
1435	 1.09253549100277E-02 
1436	 7.17954421893116E-03 
1437	 3.35858151822007E-05 
1438	 5.40993426797369E-03 
1439	 1.18129163755573E-02 
1440	 0.013826116091418 
1441	 1.36717328359894E-02 
1442	 1.22300499876915E-02 
1443	 1.01054106323258E-02 
1444	 4.8902772202756E-03 
1445	 2.67232593050796E-03 
1446	 3.48896689046252E-03 
1447	 3.48689869165384E-03 
1448	 4.39626662986187E-03 
1449	 4.63763196552986E-03 
1450	 3.82355726546921E-03 
1451	 2.66643374044579E-03 
1452	 2.6859219584434E-03 
1453	 4.15898594399384E-03 
1454	 3.41255908579409E-03 
1455	 2.68807168461148E-04 
1456	 3.6088831556528E-04 
1457	 1.80437761638526E-03 
1458	 1.64765746094799E-03 
1459	 1.76760297133836E-03 
1460	 2.3008530086373E-03 
1461	 2.11782584261849E-03 
1462	 1.85098591034955E-03 
1463	 2.70312208038263E-03 
1464	 2.76678846303074E-03 
1465	 1.49951276803812E-03 
1466	 6.38766104872773E-04 
1467	-9.03919968973071E-04 
1468	-2.76889930802302E-04 
1469	 2.3841426594947E-03 
1470	 2.64053613362515E-03 
1471	 3.35846217162932E-03 
1472	 4.00506697534356E-03 
1473	 2.59701182958323E-03 
1474	 1.57742945517245E-03 
1475	 1.29312749054684E-03 
1476	 1.99518874432069E-03 
1477	 2.81622809992261E-03 
1478	 2.37478781111649E-03 
1479	 2.40720698008694E-03 
1480	 2.62667930818261E-03 
1481	 1.36222498397633E-03 
1482	 1.02130914153494E-03 
1483	 2.55788110251766E-03 
1484	 2.59897077969286E-03 
1485	 1.36881829470831E-03 
1486	 1.08365841568468E-03 
1487	 9.20879831891383E-04 
1488	 7.57529306561189E-04 
1489	 1.04716223632581E-03 
1490	 9.76076813208777E-04 
1491	 3.90371756695468E-04 
1492	 5.27384723334141E-04 
1493	 1.12112749980041E-03 
1494	 1.16110408951271E-03 
1495	 1.1977754428998E-03 
1496	 1.3769374443977E-03 
1497	 1.43414504231267E-03 
1498	 1.23836245287301E-03 
1499	 1.07897285162812E-03 
1500	 1.0415690458651E-03 
1501	 6.66504097760942E-04 
1502	 4.80590706310349E-04 
1503	 6.59296067100059E-04 
1504	 7.2569614435532E-04 
1505	 7.38983680829651E-04 
1506	 6.90435154422185E-04 
1507	 4.68732407132526E-04 
1508	 2.87248832384761E-04 
1509	 4.27655636619839E-04 
1510	 6.02653067278747E-04 
1511	 7.32135881749477E-04 
1512	 9.58582694002169E-04 
1513	 8.15976348055899E-04 
1514	 3.94087243190775E-04 
1515	 4.94297846838469E-04 
1516	 7.76110281217635E-04 
1517	 8.28658968991525E-04 
1518	 9.71702653122504E-04 
1519	 8.80115222522309E-04 
1520	 6.26671118463457E-04 
1521	 4.88492449815489E-04 
1522	 4.48677713544739E-04 
1523	 6.83743715817491E-04 
1524	 7.66526439366469E-04 
1525	 7.41761798037463E-04 
1526	 8.51168866433675E-04 
1527	 7.15614456690457E-04 
1528	 6.39030723896598E-04 
1529	 7.16211887863023E-04 
1530	 6.19452307484707E-04 
1531	 6.96406171130335E-04 
1532	 8.39961831119352E-04 
1533	 6.27697419389165E-04 
1534	 4.82816896467837E-04 
1535	 6.09881905302595E-04 
1536	 6.6262296345447E-04 
1537	 6.32836569290204E-04 
1538	 7.66681650678807E-04 
1539	 8.7494413258584E-04 
1540	 6.80035139331919E-04 
1541	 6.59958064512113E-04 
1542	 8.02699507258955E-04 
1543	 7.07071089020473E-04 
1544	 6.87342757541223E-04 
1545	 7.339737278051E-04 
1546	 5.82476832026518E-04 
1547	 5.00174204588078E-04 
1548	 6.87736923623796E-04 
1549	 8.56804171192596E-04 
1550	 9.23134555950152E-04 
1551	 8.47470039382814E-04 
1552	 5.97960293156931E-04 
1553	 4.25756063324717E-04 
1554	 3.60721371474424E-04 
1555	 4.31502345997325E-04 
1556	 5.40969456363256E-04 
1557	 5.30846629489347E-04 
1558	 4.1678227851891E-04 
1559	 4.06590786826347E-04 
1560	 6.45970107191159E-04 
1561	 6.54089327252296E-04 
1562	 5.09575146376146E-04 
1563	 5.59922281511682E-04 
1564	 5.20679930552091E-04 
1565	 4.11915931735434E-04 
1566	 5.12261678870912E-04 
1567	 7.74368729622559E-04 
1568	 7.64195847831016E-04 
1569	 4.83832659079399E-04 
1570	 5.2276808681256E-04 
1571	 7.67652957776825E-04 
1572	 5.90854252212046E-04 
1573	 5.47088054996326E-04 
1574	 9.58231873548324E-04 
1575	 8.02686981466025E-04 
1576	 5.28192917956467E-04 
1577	 9.59909065929955E-04 
1578	 1.03778818747666E-03 
1579	 6.50881516112574E-04 
1580	 7.01312440867642E-04 
1581	 7.46269470108093E-04 
1582	 5.93011569316157E-04 
1583	 7.44553210398324E-04 
1584	 8.73472902914271E-04 
1585	 6.60304358700665E-04 
1586	 4.91585178092428E-04 
1587	 5.73226544580141E-04 
1588	 7.49555823686419E-04 
1589	 7.15117229534961E-04 
1590	 5.67570162251822E-04 
1591	 6.63737766225687E-04 
1592	 6.92546470320783E-04 
1593	 6.44768624297935E-04 
1594	 7.38988845845681E-04 
1595	 7.99643636570551E-04 
1596	 8.87580836381218E-04 
1597	 8.55417215737429E-04 
1598	 7.99649014899127E-04 
1599	 9.3305007154311E-04 
1600	 6.83637339482947E-04 
1601	 2.09121037678513E-04 
1602	 2.52013391686482E-04 
1603	 3.76043102386174E-04 
1604	 2.98894691873706E-04 
1605	 4.86929294046311E-04 
1606	 6.69389579679732E-04 
1607	 5.45868531745173E-04 
1608	 5.81341159231671E-04 
1609	 8.42727264015869E-04 
1610	 8.78666284034922E-04 
1611	 8.07589468991481E-04 
1612	 7.32610197908329E-04 
1613	 5.88162861483859E-04 
1614	 5.51614317370143E-04 
1615	 5.53719719422432E-04 
1616	 5.68932533882343E-04 
1617	 4.68053698317054E-04 
1618	 4.01336493207626E-04 
1619	 6.94026586763536E-04 
1620	 8.48489407851294E-04 
1621	 8.34445519347434E-04 
1622	 1.0174802364221E-03 
1623	 1.02050455861226E-03 
1624	 8.0764532697075E-04 
1625	 6.80157074929378E-04 
1626	 6.08517280952465E-04 
1627	 5.67738457796262E-04 
1628	 5.52657121996294E-04 
1629	 7.33970130318716E-04 
1630	 9.222261851202E-04 
1631	 6.65828677212844E-04 
1632	 3.43361011426037E-04 
1633	 2.7852521498581E-04 
1634	 4.64233757241654E-04 
1635	 6.37048244144486E-04 
1636	 6.18518185561957E-04 
1637	 7.51390593961843E-04 
1638	 6.3572040060416E-04 
1639	 2.91820646723968E-04 
1640	 4.69068276790077E-04 
1641	 6.92425937552037E-04 
1642	 5.77295741084513E-04 
1643	 6.64906871966245E-04 
1644	 7.80648505695578E-04 
1645	 7.4475592283384E-04 
1646	 7.52045536875287E-04 
1647	 7.44994651246215E-04 
1648	 7.83713277124134E-04 
1649	 8.26540740986739E-04 
1650	 8.56373902535354E-04 
1651	 8.51139096088264E-04 
1652	 8.69079529219074E-04 
1653	 7.24749130628409E-04 
1654	 5.43955449348007E-04 
1655	 3.33123917868451E-04 
1656	 4.21358564756866E-04 
1657	 8.13032460065035E-04 
1658	 6.97858686910209E-04 
1659	 3.83710772669819E-04 
1660	 3.65643777217074E-04 
1661	 1.38494027111626E-04 
1662	 7.68869635606763E-05 
1663	 3.36883635300296E-04 
1664	 5.66415534279275E-04 
1665	 8.81482761324375E-04 
1666	 7.74140262424082E-04 
1667	 4.75189180458924E-04 
1668	 6.7957349204704E-04 
1669	 6.81534542079634E-04 
1670	 8.32526369574015E-04 
1671	 1.00937372208648E-03 
1672	 8.22961935424259E-04 
1673	 5.56238658711059E-04 
1674	 5.05603254700314E-04 
1675	 6.37589803838004E-04 
1676	 6.66240044698634E-04 
1677	 6.11679423857727E-04 
1678	 6.5954195849008E-04 
1679	 6.34768325452074E-04 
1680	 6.05093757225126E-04 
1681	 7.06259586436078E-04 
1682	 8.64580730786899E-04 
1683	 8.52687975182517E-04 
1684	 7.9693992609858E-04 
1685	 7.37069219705108E-04 
1686	 4.25300986608521E-04 
1687	 4.69318342026268E-04 
1688	 9.00657302665242E-04 
1689	 1.11719702017754E-03 
1690	 1.09183293542932E-03 
1691	 7.66514179839245E-04 
1692	 5.26943227342325E-04 
1693	 8.12736633592017E-04 
1694	 1.12408136648061E-03 
1695	 1.22688036895979E-03 
1696	 1.2917580970194E-03 
1697	 8.78241830850633E-04 
1698	 3.2799570736046E-04 
1699	 6.45927327612865E-04 
1700	 1.15632392330175E-03 
1701	 7.69866453046526E-04 
1702	 3.14965584493369E-04 
1703	 3.45017130787683E-04 
1704	 7.20795482942559E-05 
1705	 1.22389659891389E-04 
1706	 8.08188234043301E-04 
1707	 9.4389027642729E-04 
1708	 7.10847495581494E-04 
1709	 9.50673294500016E-04 
1710	 1.22133956686155E-03 
1711	 1.03324333788943E-03 
1712	 8.70309444485032E-04 
1713	 5.42895462079686E-04 
1714	 4.8391969740636E-04 
1715	 6.14892695640428E-04 
1716	 4.23965321670462E-04 
1717	 8.40214714327845E-04 
1718	 1.11275674933202E-03 
1719	 5.85081190985518E-04 
1720	 5.57634745610534E-04 
1721	 8.58349975344167E-04 
1722	 4.64268582840478E-04 
1723	 4.49017564983096E-04 
1724	 7.52288187526398E-04 
1725	 1.58254476960847E-04 
1726	-1.62855430603937E-04 
1727	 1.99927042879769E-05 
1728	-8.2789552970936E-05 
1729	 1.85866969250692E-04 
1730	 6.12267961285433E-04 
1731	 6.38565631346019E-04 
1732	 3.43407932758058E-04 
1733	 1.84722371028886E-04 
1734	-1.04604094899025E-04 
1735	-5.18433753216203E-04 
1736	-2.24257868940995E-05 
1737	 1.87031238137356E-04 
1738	-1.10274073117904E-04 
1739	 2.89172034268458E-04 
1740	 1.60602212060594E-04 
1741	-3.98567479930653E-04 
1742	 2.13393304713714E-04 
1743	 9.02087278848351E-04 
1744	 1.10336739124056E-03 
1745	 1.79858509157648E-03 
1746	 1.08304606844874E-03 
1747	 7.13729179524304E-04 
1748	 1.97389726121642E-04 
1749	 1.4012978678642E-04 
1750	 7.21293414108695E-04 
1751	 1.0081237682036E-03 
1752	 1.55540976767311E-03 
1753	 1.46201889460628E-03 
1754	 6.71829150377925E-04 
1755	 5.60408003484375E-04 
1756	 3.93149047003723E-04 
1757	 7.1197611150424E-04 
1758	 8.52598480726482E-04 
1759	 6.94546030790803E-04 
1760	 1.52452982111024E-03 
1761	 1.49329706921675E-03 
1762	 5.54904065414376E-04 
1763	 2.86140859118912E-04 
1764	-4.99393002191522E-04 
1765	-3.25274732576742E-04 
1766	 1.50886500724962E-03 
1767	 1.88895023811507E-03 
1768	 1.58111335024549E-03 
1769	 1.52341149263462E-03 
1770	 3.10652275358103E-04 
1771	 6.14476348822035E-04 
1772	 2.57687164189684E-03 
1773	 2.4496905735423E-03 
1774	 2.3280102307898E-03 
1775	 5.14478465303368E-04 
1776	-2.93968689086956E-04 
1777	 6.38675833195569E-04 
1778	 1.09971059829739E-03 
1779	 2.2596661260706E-03 
1780	 2.67548179844113E-03 
1781	 2.03543765499159E-03 
1782	 1.43005729603386E-03 
1783	-4.4665895284115E-04 
1784	-7.48573797067316E-05 
1785	 2.68612826777548E-03 
1786	 2.44231608553406E-03 
1787	 2.28841672133721E-03 
1788	 1.77033242060654E-03 
1789	-2.76668945470986E-03 
1790	 7.12645643152525E-06 
1791	 4.34611697866389E-05 
1792	-1.20219538199655E-03 
1793	 3.15894417338551E-03 
1794	 3.12671165918099E-03 
1795	 3.13550748893227E-03 
1796	 8.64254428589516E-03 
1797	 6.17008588024485E-03 
1798	 6.79078360727328E-04 
1799	 3.15958869005787E-03 
1800	 1.34233625354629E-03 
1801	 9.30665835243149E-04 
1802	 8.71820239018342E-03 
1803	 0.014550515868512 
1804	 2.33899032252894E-02 
1805	 2.83727156324807E-02 
1806	 2.69605701755565E-02 
1807	 2.48975788756118E-02 
1808	-1.04323918684137E-03 
1809	-1.93315704571171E-02 
1810	-1.33882757169689E-02 
1811	-2.39295103879333E-02 
1812	-7.23102975451195E-02 
1813	-4.31161903359624E-02 
1814	 6.35756550171843E-02 
1815	 0.106867246315222 
1816	 0.225333297691935 
1817	 0.151445161415062 
1818	-2.27885884107135E-02 
1819	 4.04799707357932E-03 
1820	-6.19688121175878E-02 
1821	-0.155574706943063 
1822	-0.148375377749252 
1823	-0.203802200025865 
1824	-0.278328164963053 
1825	-0.18379358585355 
1826	-6.51841024981774E-02 
1827	-0.187612124322133 
1828	-5.86893019769555E-02 
1829	 0.547003188866885 
1830	 0.599896587985116 
1831	-0.828208949935951 
1832	 0.980502957127662 
1833	 0.625879163142293 
1834	 0.579463076585198 
1835	 0.563678953796786 
1836	 0.69036426409802 
1837	 0.947332406215149 
1838	 1.60645199403024 
1839	-3.26115638097372 
1840	-1.48617184569397 
1841	-0.892010390837678 
1842	 0.290142344432922 
1843	 0.447336014331679 
1844	 0.429418223980616 
1845	 0.720694172304199 
1846	 1.37420243148347 
1847	 0.864944505128014 
1848	 0.102145895004503 
1849	-0.151920997802046 
1850	 0.173741133235254 
1851	 0.537090370044865 
1852	 1.10069914299878 
1853	-12.4968626160149 
1854	-2.44409314878504 
1855	-0.444261275748714 
1856	 5.42918642275452E-02 
1857	-0.373220056047725 
1858	-0.490745845806939 
1859	-9.55067101912777 
1860	-2.29301117259372 
1861	-0.834990210424105 
1862	-0.309417669670094 
1863	 4.82936125291987E-02 
1864	 11.3600995684403 
1865	 0.964171245611157 
1866	 0.369201102836284 
1867	 0.169486493120474 
1868	-0.112822740652592 
1869	-0.294807548501016 
1870	-0.962382109099274 
1871	-2.40353966363536 
1872	-1.29796102605578 
1873	-0.83249275843031 
1874	-0.430066977767166 
1875	 0.181883995393917 
1876	 0.428343802846722 
1877	-0.256175917736981 
1878	-0.327823677054853 
1879	-0.533830627061032 
1880	-0.348055802124309 
1881	-1.60251549201357E-02 
1882	 0.374511615035015 
1883	 1.21903978270347 
1884	 4.35267216679986 
1885	-9.89208721791329 
1886	 24.1942102982542 
1887	-0.996154348039813 
1888	 0.389135318065989 
1889	 0.977018314090384 
1890	 1.17843249817686 
1891	 1.03593326881509 
1892	 0.824528334867229 
1893	-12.2921721467476 
1894	-7.11073725917545 
1895	-4.07725627736592 
1896	-0.395400075373065 
1897	-0.30662272107024 
1898	 0.288882040710927 
1899	 0.530606316063912 
1900	 0.458554468520421 
1901	-6.12971099173417E-02 
1902	 4.32247538700682E-02 
1903	 0.846446692434378 
1904	 15.5105434840858 
1905	-0.818303263889377 
1906	-2.0550637059146 
1907	-0.44800593751918 
1908	 0.176543696081539 
1909	 2.68269429052372E-03 
1910	-2.77164923307534 
1911	-0.512171346709609 
1912	-1.18672527919047 
1913	-3.15835629675426 
1914	-0.819563078211902 
1915	-0.221074181553276 
1916	-0.582237214564372 
1917	-0.139390764400464 
1918	 0.908138117336182 
1919	 7.11810959256417E-02 
1920	 1.20719614989677 
1921	 0.446574439784955 
1922	 6.76009147764161E-02 
1923	 2.90975052750514 
1924	-1.18941711285208 
1925	-1.32145087532085 
1926	-1.14805133675164 
1927	-0.766336272259828 
1928	 1.19399912351612E-02 
1929	 7.47830404890674E-02 
1930	-0.313357997993452 
1931	-0.405805029705686 
1932	-0.628104527519157 
1933	-0.638483881067157 
1934	-0.311555944993036 
1935	-0.148242023030855 
1936	-0.120729533139177 
1937	-8.14370101091513E-02 
1938	-8.27002262481569E-02 
1939	-8.06551718002521E-02 
1940	-8.17056104008539E-02 
1941	-5.99561154102458E-02 
1942	-2.84706859721158E-02 
1943	-1.72730464692182E-02 
1944	 1.90438787582888E-03 
1945	 3.56569475280701E-02 
1946	 4.34173452320928E-02 
1947	 0.033733581530844 
1948	 1.55785610239477E-02 
1949	 1.29187703512847E-03 
1950	 8.27541496589444E-03 
1951	 3.29480227746112E-02 
1952	 0.038668355893988 
1953	 5.63495837533721E-02 
1954	 4.78077245721687E-02 
1955	 3.60826602397159E-02 
1956	 2.81040739266109E-02 
1957	 2.34683123917253E-02 
1958	 2.04814369878479E-02 
1959	 8.14976098562439E-03 
1960	-5.64251273004527E-03 
1961	-1.16394422617684E-02 
1962	-7.73771434948894E-03 
1963	-6.30663325590188E-03 
1964	-4.57407723227456E-03 
1965	 2.56928907076686E-03 
1966	 4.44810063417391E-03 
1967	 4.2230355050816E-03 
1968	 4.34256790390659E-03 
1969	 6.23636682833725E-03 
1970	 4.77021629352755E-03 
1971	 4.34791224171309E-03 
1972	 4.24634320794213E-03 
1973	 1.83278418821573E-03 
1974	 2.32226783721998E-04 
1975	-5.70291611692099E-04 
1976	-1.98036801890461E-03 
1977	-3.04704733628834E-03 
1978	-2.2497523560143E-03 
1979	-1.54062793939546E-03 
1980	-7.96946083268171E-04 
1981	 3.46147855696563E-04 
1982	 1.57723136554065E-03 
1983	 1.39848865307591E-03 
1984	 7.84306902480066E-04 
1985	 1.16631981874215E-04 
1986	 7.95203046193179E-04 
1987	 1.74535459801516E-03 
1988	 7.20663699011908E-04 
1989	 9.22922997455096E-06 
1990	 3.34982504138941E-04 
1991	-5.09159990919167E-04 
1992	-6.4244740501401E-04 
1993	 2.53053626874183E-04 
1994	-8.29480361572498E-05 
1995	-1.89878179212139E-03 
1996	-3.28017603434986E-03 
1997	-4.5464840643562E-03 
1998	-6.68956795838014E-03 
1999	-0.00555169513584 
2000	-4.95817000513369E-03 
2001	-5.16741496376147E-03 
2002	-2.59315553436509E-03 
2003	-7.22001777512121E-04 
2004	-8.1421476966158E-04 
2005	-3.17686597516723E-03 
2006	-2.97444397268328E-03 
2007	-6.08492659959284E-03 
2008	-1.22560075133748E-02 
2009	-1.30256093974965E-02 
2010	-9.65427370242629E-03 
2011	-8.04313197984108E-03 
2012	-5.30993772826028E-03 
2013	-5.3873855404895E-04 
2014	 1.81781644897861E-03 
2015	 2.71178778893049E-03 
2016	 1.0259093101462E-03 
2017	-2.02499992025414E-03 
2018	-3.16484528550085E-03 
2019	-3.02450913330167E-03 
2020	-2.43939471366342E-03 
2021	-9.94005466866881E-04 
2022	-1.71221480853747E-04 
2023	-3.3330587127498E-04 
2024	-1.20743234377911E-04 
2025	 3.82789892635663E-04 
2026	 6.01368849373923E-04 
2027	 8.98801530881493E-04 
2028	 7.50143924346346E-04 
2029	 2.9575388071778E-04 
2030	 1.6882104670929E-04 
2031	 7.2638439743796E-04 
2032	 1.4219866552186E-03 
2033	 8.99760939320629E-04 
2034	 4.47682663186944E-04 
2035	 3.35409971454612E-04 
2036	-7.22113279196513E-04 
2037	-2.16660498389435E-04 
2038	 7.16572246181404E-04 
2039	 6.86598543280097E-04 
2040	 1.18634194203448E-04 
2041	-8.92769544386708E-05 
2042	-1.22811819336921E-03 
2043	-1.31744897087996E-03 
2044	-6.74131124345744E-04 
2045	-6.81567624828169E-05 
2046	 6.96546822556224E-04 
2047	 1.61113613689663E-03 
2048	 2.28444101432075E-03 
2049	 2.66564002175502E-03 
2050	 2.35694562989926E-03 
2051	 1.50621956252456E-03 
2052	 4.92689179129961E-04 
2053	-6.71478450152554E-04 
2054	-1.14522354997151E-03 
2055	-2.8170481375467E-04 
2056	-1.05339566816992E-04 
2057	 1.94799125905599E-04 
2058	 1.51982342866612E-04 
2059	-5.00648262294964E-04 
2060	-9.86411945462557E-04 
2061	-1.85511500749036E-03 
2062	-1.19577744269843E-03 
2063	-8.64254211346582E-04 
2064	-1.10981335828909E-03 
2065	-8.90488543238758E-04 
2066	-8.28451342592717E-04 
2067	-1.5802265182965E-03 
2068	-9.55962987101723E-04 
2069	-2.63738424750907E-04 
2070	-1.24350152760891E-03 
2071	-1.14057675559781E-03 
2072	-7.01505833759936E-04 
2073	-8.07690032935688E-04 
2074	-1.13514455265456E-03 
2075	-6.57647057381456E-04 
2076	-1.68175925433544E-05 
2077	-1.19294545374769E-05 
2078	-1.12551296008508E-04 
2079	 2.2204986288155E-04 
2080	 2.71601575377865E-04 
2081	 8.1552394688746E-04 
2082	 1.20739952559053E-03 
2083	 1.70840498291327E-03 
2084	 1.16097084170456E-03 
2085	 5.29437401596345E-04 
2086	 6.37423201799278E-04 
2087	 3.3277273218278E-04 
2088	 8.62106542774107E-05 
2089	-3.20663484163491E-04 
2090	-9.99755388832336E-05 
2091	 6.00576452619421E-04 
2092	 7.59882233988795E-04 
2093	 9.09872094532243E-04 
2094	 1.39446924786651E-03 
2095	 1.91890066962608E-03 
2096	 1.75786312317683E-03 
2097	 2.05637686214958E-03 
2098	 1.83853853357228E-03 
2099	 4.12594431105213E-04 
2100	-7.02836225244273E-04 
2101	-4.68263788906395E-04 
2102	-6.07460641070191E-04 
2103	-5.86500699152722E-04 
2104	-7.8787172400936E-04 
2105	-7.77383751664209E-04 
2106	-8.69328533209987E-04 
2107	-1.05651115474237E-03 
2108	-6.15887217237553E-04 
2109	-5.22081750209119E-04 
2110	-3.25821199452319E-05 
2111	 7.46160711862036E-04 
2112	 1.34419720299294E-03 
2113	 1.70538774431943E-03 
2114	 1.97944005921821E-03 
2115	 1.92661564238665E-03 
2116	 1.18915660582888E-03 
2117	 1.10436263454912E-03 
2118	 1.59495232038617E-03 
2119	 1.35821017973402E-03 
2120	 9.05292730060636E-04 
2121	 5.2905487192784E-04 
2122	-3.9971145146449E-06 
2123	-6.21199357018816E-04 
2124	 5.51971214035848E-05 
2125	 1.48399695675038E-03 
2126	 1.83667571036609E-03 
2127	 1.92046833342829E-03 
2128	 1.5285892977385E-03 
2129	 3.16105468975106E-04 
2130	-4.91865000181329E-04 
2131	-5.33586238142026E-04 
2132	-2.77468280561976E-05 
2133	 1.74841047452167E-04 
2134	 2.68002395839632E-04 
2135	 4.80912122526417E-04 
2136	 8.36143408113563E-04 
2137	 6.62223947264437E-04 
2138	 1.15915326354527E-03 
2139	 3.42707397445758E-03 
2140	 3.3201382338276E-03 
2141	 1.12642800737612E-03 
2142	 9.3760321350906E-04 
2143	 1.33589390973298E-03 
2144	-7.98387465213403E-06 
2145	-1.21242535502202E-03 
2146	-1.50745465330683E-04 
2147	 3.45386559729765E-04 
2148	 1.58692613665066E-04 
2149	 1.50705159612742E-03 
2150	 2.66756365847561E-03 
2151	 1.21104656175781E-03 
2152	 2.46765217462627E-04 
2153	 1.62802831156484E-03 
2154	 9.76271076743596E-04 
2155	-3.74987752101514E-04 
2156	-1.51211042227094E-04 
2157	-4.32707619166589E-04 
2158	-1.82643246021761E-03 
2159	-1.32362567475826E-03 
2160	 1.10022048537717E-03 
2161	 1.16160941118207E-03 
2162	 2.72534008012102E-04 
2163	 6.49082722083499E-04 
2164	 8.16440294816161E-04 
2165	 7.36023826201136E-04 
2166	 1.47900723609341E-03 
2167	 1.96125900489292E-03 
2168	 1.55928934109721E-03 
2169	 1.3990687998883E-03 
2170	 1.94408485101916E-03 
2171	 2.32514410735514E-03 
2172	 1.29455350132554E-03 
2173	-2.04891863900005E-04 
2174	-1.07758528720971E-03 
2175	-1.08062976832637E-03 
2176	-6.24776274190904E-04 
2177	-2.2078909158111E-04 
2178	-2.54587702855462E-04 
2179	-5.75128902206391E-04 
2180	-6.60879334281213E-04 
2181	-1.01564063391151E-03 
2182	-1.6429438324073E-03 
2183	-1.00585107539699E-03 
2184	-9.06296460886516E-04 
2185	-2.06241478149302E-03 
2186	-1.76570004151076E-03 
2187	-7.25910023509115E-05 
2188	 2.68229465465861E-04 
2189	 8.9322299318631E-04 
2190	 1.0856511546221E-03 
2191	-5.96677459976719E-04 
2192	-6.67245800385846E-04 
2193	 5.5764370548183E-04 
2194	 8.04668334245754E-04 
2195	 1.62149621616033E-03 
2196	 2.14129282161632E-03 
2197	 1.93582206270759E-03 
2198	 1.33339353481238E-03 
2199	 5.52992588747446E-04 
2200	-3.30499599802906E-04 
2201	-1.06369308026371E-03 
2202	-2.60176937914423E-03 
2203	-3.24231253152691E-03 
2204	-2.27375046713094E-03 
2205	-6.17955724487023E-04 
2206	 1.35226764299692E-03 
2207	 2.48566545505851E-03 
2208	 1.3566069437064E-03 
2209	-3.89870038116145E-04 
2210	-6.02499732152627E-04 
2211	 2.74009319075885E-04 
2212	 1.94936890770866E-03 
2213	 3.51260023875893E-03 
2214	 2.27260789002274E-03 
2215	 1.5639669148566E-03 
2216	 4.05743873276785E-03 
2217	 4.20160442621573E-03 
2218	 3.55405153671176E-03 
2219	 3.4536685828391E-03 
2220	 2.28972733000515E-03 
2221	 1.55796367280009E-03 
2222	 2.24581165337605E-03 
2223	 2.26559526664167E-03 
2224	 8.87438135714337E-04 
2225	 6.95940955243862E-04 
2226	 1.53802896202168E-03 
2227	 1.39997950029665E-03 
2228	 1.89120868390992E-03 
2229	 1.75419699044836E-03 
2230	-6.9820858077144E-05 
2231	-8.79875333510152E-04 
2232	-1.49537660060979E-03 
2233	-1.96716263434477E-03 
2234	-2.25584080119024E-03 
2235	-1.23463167172101E-03 
2236	-2.05133913093363E-03 
2237	-1.84138911026001E-03 
2238	-1.39017137022325E-03 
2239	-3.39134003069077E-03 
2240	-2.05344588661289E-03 
2241	 4.1112891079069E-04 
2242	 7.12143176792435E-04 
2243	 1.33170859957765E-03 
2244	 7.56033151445177E-04 
2245	-1.15967040868273E-03 
2246	-2.35123073269138E-03 
2247	-2.07600096985488E-03 
2248	-7.57593156205674E-04 
2249	-2.2674227004163E-03 
2250	-0.00485476436023 
2251	-3.45587147221696E-03 
2252	-2.01869679903558E-03 
2253	-2.40019842387095E-04 
2254	 2.51660773735417E-03 
2255	 2.64350754756584E-03 
2256	 2.97621762768053E-03 
2257	 3.8352494202682E-03 
2258	 3.77191444122175E-03 
2259	 4.31555509195022E-03 
2260	 4.78471715274026E-03 
2261	 3.77685698835781E-03 
2262	 3.45528697529461E-03 
2263	 5.67116651400206E-03 
2264	 4.9885878642459E-03 
2265	 1.05881446776485E-03 
2266	 2.30901270345487E-04 
2267	-1.0059365553268E-03 
2268	-9.69645992666526E-04 
2269	 3.39975396618773E-03 
2270	 4.18743058516489E-03 
2271	 1.32889676209799E-03 
2272	 1.8343841639433E-03 
2273	 3.92127659952286E-03 
2274	 3.48173977021002E-03 
2275	 4.68756892421803E-03 
2276	 5.22991192996909E-03 
2277	 8.27329632845676E-04 
2278	 6.82463828849319E-05 
2279	 3.37082563614287E-03 
2280	 4.33887581968694E-03 
2281	 4.66311770984757E-03 
2282	 6.59915886617581E-03 
2283	 6.5916696442157E-03 
2284	 4.05857564340629E-03 
2285	 3.26269150776026E-03 
2286	 3.47219876904794E-03 
2287	 2.8531585888345E-03 
2288	 1.7956788774479E-03 
2289	 2.04338978085027E-03 
2290	 3.82970339377088E-03 
2291	 7.67944066815702E-03 
2292	 9.42941774117004E-03 
2293	 7.06042826746553E-03 
2294	 5.49586456190975E-03 
2295	 4.63356413600167E-03 
2296	 4.14965361216431E-03 
2297	 3.20260332533607E-03 
2298	 9.17821732613384E-04 
2299	-9.25563437566384E-06 
2300	-2.10840213439392E-03 
2301	-3.3053421097398E-03 
2302	-9.58722234419054E-05 
2303	-9.33419671057521E-04 
2304	-2.28111884959036E-03 
2305	 2.54977168490345E-03 
2306	 3.27814700301039E-03 
2307	 1.98826633082543E-03 
2308	 5.16653221255793E-03 
2309	 6.95517555271278E-03 
2310	 4.3501653583889E-03 
2311	 2.15698427093286E-03 
2312	 1.32537941677381E-03 
2313	 5.57381255410342E-04 
2314	 3.50814193480425E-03 
2315	 0.005989252256183 
2316	 3.30081230742263E-03 
2317	-1.88420249897618E-03 
2318	-3.23093085500021E-03 
2319	-1.43226818118258E-03 
2320	-9.46586668571825E-04 
2321	-1.17194302006572E-03 
2322	-3.25245126551296E-03 
2323	-4.81529740190889E-03 
2324	-5.11449612257188E-03 
2325	-3.54282042617109E-03 
2326	-9.6352603647918E-04 
2327	-1.7404693925081E-03 
2328	-9.05759916361943E-04 
2329	 1.05422915180438E-03 
2330	 9.53868675108686E-05 
2331	 4.98712565921339E-03 
2332	 6.29341879947462E-03 
2333	 1.06481961130556E-03 
2334	 5.77166098657044E-03 
2335	 4.01972511115156E-03 
2336	-5.47910275395477E-03 
2337	-5.51920262216484E-03 
2338	-9.54232463388383E-03 
2339	-1.43633068068953E-02 
2340	-5.03441853579621E-03 
2341	-1.48053114712415E-03 
2342	-9.03776785707569E-03 
2343	-8.11081928288727E-03 
2344	-9.86942186342916E-03 
2345	-0.013907389523808 
2346	-6.69181759739105E-03 
2347	-7.28326712942799E-03 
2348	-1.65714336164461E-02 
2349	-1.44554514136108E-02 
2350	-1.15460405129797E-02 
2351	-1.35802721848814E-02 
2352	-7.1721124900937E-03 
2353	-2.11178332468823E-03 
2354	-6.20029216499427E-03 
2355	-7.1918271433465E-03 
2356	-3.61955174508509E-03 
2357	-4.87097624411776E-03 
2358	-4.48792130057521E-03 
2359	-7.30076203683485E-03 
2360	-0.01486036835136 
2361	-5.96009049402755E-03 
2362	-1.13680555402909E-03 
2363	-6.98777925278603E-03 
2364	-1.23281110749113E-03 
2365	-5.66229103273072E-03 
2366	-8.58446637866563E-03 
2367	 1.50614319601606E-02 
2368	 1.60112841530066E-02 
2369	 1.54542986226784E-03 
2370	 4.03277308857529E-03 
2371	-1.34486200422252E-02 
2372	-1.49244369342263E-02 
2373	-3.53679838289655E-03 
2374	-3.08187332605132E-02 
2375	-4.25294728434714E-02 
2376	-4.40318582518307E-02 
2377	-5.31184930563572E-02 
2378	-2.92639484819851E-02 
2379	 3.58306808223545E-04 
2380	 5.62071664770405E-03 
2381	 4.09400526950649E-03 
2382	 6.31097641202303E-03 
2383	-9.52140198708217E-03 
2384	-2.17452733714837E-02 
2385	-9.68080591951974E-05 
2386	 0.02664184718326 
2387	 2.76411259257688E-02 
2388	 0.032275926893604 
2389	 4.56468702275535E-02 
2390	 2.38570305276412E-02 
2391	 0.026961208594664 
2392	 4.80213103312739E-02 
2393	 2.98355821915263E-02 
2394	 8.64992005326193E-03 
2395	-5.12149323452568E-03 
2396	-1.66152375119359E-02 
2397	-2.18424140312631E-02 
2398	-1.11238455805573E-02 
2399	-2.4185725293006E-03 
2400	-2.5262517867188E-03 
2401	 9.93453227519948E-03 
2402	 8.84680007321911E-03 
2403	-0.035840763079056 
2404	-8.64817479747342E-02 
2405	-0.102020459632607 
2406	-0.116266187920496 
2407	-8.98433273292657E-02 
2408	-3.99383112706969E-02 
2409	-7.04137905875075E-02 
2410	-8.86135314938304E-02 
2411	-6.08655084746372E-02 
2412	-9.96174911109913E-02 
2413	-0.123886193103065 
2414	-9.12142696383769E-02 
2415	-8.83316801826348E-02 
2416	-9.36802564597158E-02 
2417	-0.125185585740803 
2418	-0.19765444170574 
2419	-0.204183665959905 
2420	-0.142625770900308 
2421	-0.119132707258519 
2422	-0.142166353067015 
2423	-0.155215073423653 
2424	-0.198560718055224 
2425	-0.17820414942419 
2426	-0.099271180608308 
2427	-9.70681189509824E-02 
2428	-5.46105747818512E-02 
2429	 2.49118022050808E-02 
2430	 2.29766368631904E-02 
2431	-1.27719114956798E-02 
2432	-4.12025753131035E-02 
2433	-8.97478834106525E-02 
2434	-0.153577957387356 
2435	-0.147284094427983 
2436	-0.224288087979423 
2437	-0.32812415236769 
2438	-0.258794567340485 
2439	-0.166384581147081 
2440	-2.04867444898943E-02 
2441	 2.00873741353581E-02 
2442	-3.33749473547305E-02 
2443	 1.35152613870557E-02 
2444	-0.111334699582468 
2445	-0.390238061192926 
2446	-0.459679123243973 
2447	-0.634845454508244 
2448	-0.929878368034756 
2449	-1.06043897513909 
2450	-0.972567470194004 
2451	-0.946368054781802 
2452	-0.547223467973105 
2453	-1.10687718602511E-02 
2454	-0.188348014842457 
2455	-0.549236657484754 
2456	-0.135304949051159 
2457	-0.138033955359874 
2458	-0.574909979921431 
2459	-0.344663113124678 
2460	-0.146070762848068 
2461	-0.242326462841394 
2462	-0.311393269430656 
2463	-0.401176960230242 
2464	-0.525061563496604 
2465	-0.657183481387997 
2466	-0.641325528736965 
2467	-0.512398701584261 
2468	-2.65364372213856 
2469	-8.18865777171713 
2470	-0.648280735124344 
2471	-0.521159514629274 
2472	-7.75692925769448E-02 
2473	-7.45462175501504E-02 
2474	-0.430343030326798 
2475	-0.868332464383327 
2476	-1.82220293789985 
2477	-6.6906913073129 
2478	-2.3577377083849 
2479	 4.4210291304545 
2480	 1.12399972923264 
2481	 1.05914498283898 
2482	 1.23875809648933 
2483	 0.76995620518232 
2484	 0.652037407722298 
2485	 1.52084887077714 
2486	 2.16955566400923 
2487	 3.36153347021283 
2488	 2.25682968379164 
2489	 0.760307587689094 
2490	 2.62212543964111E-02 
2491	-0.102721213208205 
2492	 0.324320827972812 
2493	 0.998246503066113 
2494	 0.457294157160425 
2495	 0.415469260512867 
2496	-7.02404289727244E-02 
2497	-0.235637942137045 
2498	 0.169437056709292 
2499	-0.130721484770955 
2500	-0.245078025669277 
