Wavelength	rt0718close00007.asd
350	 1.17127713227647E-02 
351	 1.15085015190185E-02 
352	 0.011600972213353 
353	 1.19843075278418E-02 
354	 1.24762114368688E-02 
355	 1.25707402505869E-02 
356	 1.25329219781177E-02 
357	 1.24867937128102E-02 
358	 1.24898332839174E-02 
359	 1.24521799995744E-02 
360	 1.27320303442547E-02 
361	 1.30001379362802E-02 
362	 1.26095414380087E-02 
363	 1.26906370947629E-02 
364	 1.28839565001644E-02 
365	 1.29328171456238E-02 
366	 1.30205366103183E-02 
367	 1.31807806579162E-02 
368	 0.013218232422737 
369	 1.30783249241975E-02 
370	 1.34371427087633E-02 
371	 1.35825191107392E-02 
372	 1.34058011963997E-02 
373	 0.013214409817836 
374	 1.34091705708264E-02 
375	 0.013641781309595 
376	 1.37655032858302E-02 
377	 1.40214147374491E-02 
378	 1.40416936193938E-02 
379	 0.01415272987026 
380	 1.45632377332028E-02 
381	 1.46206791366673E-02 
382	 1.46329810494241E-02 
383	 0.014696798315573 
384	 1.48558486311431E-02 
385	 1.55421438919239E-02 
386	 1.59664048967933E-02 
387	 1.58429289758765E-02 
388	 1.55653551462598E-02 
389	 1.55460220252624E-02 
390	 1.56621803023393E-02 
391	 1.57642348803494E-02 
392	 1.59541126292447E-02 
393	 1.61752913114193E-02 
394	 1.64648450096038E-02 
395	 1.68004521247386E-02 
396	 1.66445922201736E-02 
397	 1.67053294986379E-02 
398	 1.70258620337856E-02 
399	 1.70618053631169E-02 
400	 1.72549365152417E-02 
401	 1.73644421178499E-02 
402	 1.72970429503918E-02 
403	 1.75169990178622E-02 
404	 1.76939838766037E-02 
405	 1.76955996514372E-02 
406	 1.75743000828041E-02 
407	 1.79747233637446E-02 
408	 1.82440953613106E-02 
409	 1.82102555258965E-02 
410	 1.82466109408799E-02 
411	 1.85061095322757E-02 
412	 1.87432301916352E-02 
413	 1.87908218482344E-02 
414	 1.88238617430915E-02 
415	 1.90069146086366E-02 
416	 1.92581188163195E-02 
417	 1.94088793040518E-02 
418	 1.94759808151529E-02 
419	 1.96329975500381E-02 
420	 1.99158593835506E-02 
421	 2.01998732178841E-02 
422	 2.02022996439966E-02 
423	 2.02903184372815E-02 
424	 2.06649655095453E-02 
425	 2.06534411451658E-02 
426	 2.08862852303172E-02 
427	 2.12196960253969E-02 
428	 2.12430558524723E-02 
429	 2.15281724648762E-02 
430	 2.18778858651266E-02 
431	 2.21442724190717E-02 
432	 2.23272449567839E-02 
433	 2.25714448391439E-02 
434	 2.28466128951576E-02 
435	 2.31041117858588E-02 
436	 2.33857349563026E-02 
437	 2.35314398780112E-02 
438	 2.36980146677389E-02 
439	 2.41380934932295E-02 
440	 2.43190137288979E-02 
441	 2.45314010795336E-02 
442	 2.48955321803858E-02 
443	 2.51553932981062E-02 
444	 2.53324854114504E-02 
445	 2.55285284152075E-02 
446	 2.58123240564959E-02 
447	 2.60225279730783E-02 
448	 2.62345754015693E-02 
449	 2.64298762948714E-02 
450	 2.65323482719988E-02 
451	 2.66596955738288E-02 
452	 0.026904079449738 
453	 2.72084394203849E-02 
454	 2.72135648219112E-02 
455	 2.73147704775323E-02 
456	 2.74901076544783E-02 
457	 2.75997142670839E-02 
458	 2.77421775877046E-02 
459	 2.78827696262821E-02 
460	 0.028005390992727 
461	 2.81190444726449E-02 
462	 2.82492878035255E-02 
463	 2.83926036565411E-02 
464	 2.85176226791767E-02 
465	 2.85161936951894E-02 
466	 2.86455582555259E-02 
467	 2.88306589929459E-02 
468	 2.88824416292484E-02 
469	 2.91309973980277E-02 
470	 2.92794894040117E-02 
471	 2.92773315888932E-02 
472	 2.94697462461448E-02 
473	 2.96836181006668E-02 
474	 0.029806242155531 
475	 2.98292112190411E-02 
476	 3.00621176961695E-02 
477	 3.02428084209891E-02 
478	 3.03665068300428E-02 
479	 3.05952832030293E-02 
480	 0.030810869212985 
481	 3.09879594842142E-02 
482	 0.031140232898744 
483	 3.13276106375233E-02 
484	 3.15924525183079E-02 
485	 3.18425494592371E-02 
486	 3.19895223907042E-02 
487	 3.22694414115906E-02 
488	 0.032477097239742 
489	 3.26408818545557E-02 
490	 3.30141795906511E-02 
491	 3.31925695185081E-02 
492	 0.033367523296956 
493	 0.033709690262783 
494	 3.40220703291203E-02 
495	 0.034290917791713 
496	 3.45422970421164E-02 
497	 3.48238763680135E-02 
498	 3.51147570290019E-02 
499	 3.54460278228605E-02 
500	 3.58136694174664E-02 
501	 3.61574909382251E-02 
502	 3.64181140774134E-02 
503	 3.66993657623068E-02 
504	 3.70987906241332E-02 
505	 3.75000678101799E-02 
506	 3.77894065094133E-02 
507	 3.80483402825836E-02 
508	 3.84838943497818E-02 
509	 3.87234168456828E-02 
510	 3.89973354651854E-02 
511	 0.039451991213599 
512	 3.98194605557245E-02 
513	 0.040167091088173 
514	 4.05095180366454E-02 
515	 4.08593275611202E-02 
516	 4.13280921833692E-02 
517	 4.18122510678366E-02 
518	 4.22249194698908E-02 
519	 4.25313865130885E-02 
520	 4.29778860417995E-02 
521	 4.34251377059325E-02 
522	 4.37653773678412E-02 
523	 4.43323492583104E-02 
524	 4.47999603523011E-02 
525	 0.045162992610932 
526	 4.56377169045726E-02 
527	 4.61141243547976E-02 
528	 4.65738692957099E-02 
529	 4.70170302887184E-02 
530	 4.74573063665155E-02 
531	 0.047874238870807 
532	 4.83348761703346E-02 
533	 4.88956451722473E-02 
534	 4.93590186451674E-02 
535	 4.98638869833152E-02 
536	 5.04149953249483E-02 
537	 5.08424858139073E-02 
538	 5.13128808147197E-02 
539	 5.18177361525159E-02 
540	 0.052322619977155 
541	 5.28581636817267E-02 
542	 5.33682694868829E-02 
543	 5.38731037859505E-02 
544	 0.054422678841033 
545	 5.48024444638969E-02 
546	 5.52579902788546E-02 
547	 5.58815089783252E-02 
548	 0.056362591193932 
549	 5.68658875174078E-02 
550	 5.73740631534695E-02 
551	 5.78353121482628E-02 
552	 5.83516271591332E-02 
553	 5.88178927265699E-02 
554	 5.92552379849224E-02 
555	 5.98317610756348E-02 
556	 6.03663079069002E-02 
557	 6.08429516095599E-02 
558	 6.12916448226456E-02 
559	 6.17669033192202E-02 
560	 6.22503016780716E-02 
561	 6.27209418428847E-02 
562	 6.31571038446099E-02 
563	 6.35139089989859E-02 
564	 6.39005383007805E-02 
565	 6.43387578540987E-02 
566	 6.46415427542847E-02 
567	 6.49684252024735E-02 
568	 6.53339489851788E-02 
569	 6.56898199186579E-02 
570	 6.59615410078602E-02 
571	 6.61986057866802E-02 
572	 6.64460041174896E-02 
573	 6.67312877559492E-02 
574	 6.69794926363803E-02 
575	 6.71405759570237E-02 
576	 6.72310857607711E-02 
577	 6.74577717708922E-02 
578	 0.067657627888994 
579	 6.77954877675662E-02 
580	 6.79074234484589E-02 
581	 6.78684920771325E-02 
582	 6.78909478207103E-02 
583	 6.80225139737908E-02 
584	 6.79324793491132E-02 
585	 6.78830137613271E-02 
586	 0.067825919532526 
587	 6.76477654456976E-02 
588	 6.75178210603489E-02 
589	 6.74551709976649E-02 
590	 6.73717969544044E-02 
591	 6.70939535444998E-02 
592	 6.69251966663649E-02 
593	 6.67501648003876E-02 
594	 6.64349239007161E-02 
595	 6.60568288907339E-02 
596	 6.55648612842646E-02 
597	 6.50423630027219E-02 
598	 6.46151545309192E-02 
599	 6.39828758065353E-02 
600	 6.34095847084499E-02 
601	 6.30629334563166E-02 
602	 6.28245608485298E-02 
603	 6.26614806372721E-02 
604	 6.25682484634474E-02 
605	 6.25439267839145E-02 
606	 6.25347120286038E-02 
607	 0.062527679882792 
608	 6.25370663668838E-02 
609	 6.25989542470315E-02 
610	 6.26347066065368E-02 
611	 0.062618690140607 
612	 0.062574694032057 
613	 6.26354167585097E-02 
614	 6.26557021642716E-02 
615	 6.26400785977275E-02 
616	 6.26738027654456E-02 
617	 6.27492030366027E-02 
618	 0.062751909627259 
619	 6.26692979800162E-02 
620	 6.26653142907435E-02 
621	 0.062667389774994 
622	 6.27054983268612E-02 
623	 6.27878105847724E-02 
624	 6.26834671613776E-02 
625	 6.25644060842074E-02 
626	 6.25203918734028E-02 
627	 0.062540244657103 
628	 6.25125809351603E-02 
629	 0.062487490366352 
630	 6.25142163046392E-02 
631	 6.25564432647451E-02 
632	 6.25892850420565E-02 
633	 6.25378830475295E-02 
634	 6.23584591785024E-02 
635	 6.23986412751713E-02 
636	 6.24865838018009E-02 
637	 6.24888409573766E-02 
638	 6.24002037106611E-02 
639	 6.23522710449171E-02 
640	 6.23207833009735E-02 
641	 6.22533416813628E-02 
642	 6.21968934818364E-02 
643	 6.21021217034591E-02 
644	 6.19871607560172E-02 
645	 6.19209456692359E-02 
646	 6.18154459904957E-02 
647	 6.17489558065252E-02 
648	 6.17430960558037E-02 
649	 6.16205061902159E-02 
650	 6.14927921384071E-02 
651	 0.061338727637214 
652	 6.11086061023604E-02 
653	 6.08877477852784E-02 
654	 0.060556700209742 
655	 6.01107807169964E-02 
656	 5.97808402421605E-02 
657	 5.94459546814087E-02 
658	 5.91097017709691E-02 
659	 0.058794413592894 
660	 5.85366622572241E-02 
661	 5.83177614933044E-02 
662	 5.81377125650138E-02 
663	 5.80111994093195E-02 
664	 0.057946844909247 
665	 0.057875837284347 
666	 5.77545865421114E-02 
667	 5.75934201707981E-02 
668	 5.75368116875843E-02 
669	 5.75115386381645E-02 
670	 5.74170825013257E-02 
671	 0.057429065244761 
672	 5.73941842423301E-02 
673	 5.73286872581112E-02 
674	 0.057405894104278 
675	 5.74226944414817E-02 
676	 5.74132859664273E-02 
677	 5.74226384629273E-02 
678	 0.057396790331718 
679	 5.74299521040488E-02 
680	 5.75046494484153E-02 
681	 5.75523634575647E-02 
682	 5.75597084686399E-02 
683	 5.75315194533911E-02 
684	 5.74860510579786E-02 
685	 0.057452352453321 
686	 5.73680097143212E-02 
687	 5.72958557195843E-02 
688	 5.72688992127034E-02 
689	 5.70728661671001E-02 
690	 5.68697579075375E-02 
691	 5.66608167014017E-02 
692	 5.63582433758717E-02 
693	 5.60651201752083E-02 
694	 0.055766963252385 
695	 5.54393761644694E-02 
696	 5.50402402987598E-02 
697	 5.45505801758989E-02 
698	 5.40122050740191E-02 
699	 5.34814253123567E-02 
700	 5.28107660768936E-02 
701	 5.21565873346281E-02 
702	 5.15420835021055E-02 
703	 5.08573341084861E-02 
704	 5.01122358767892E-02 
705	 4.93402435995034E-02 
706	 4.85641574157202E-02 
707	 4.77364009503149E-02 
708	 4.67596906037997E-02 
709	 4.57353297944542E-02 
710	 4.47798785938533E-02 
711	 4.36414275854365E-02 
712	 0.042421480150417 
713	 4.11947316380466E-02 
714	 3.99523301609688E-02 
715	 3.86670580137825E-02 
716	 3.72541078700809E-02 
717	 3.57531376899393E-02 
718	 0.034302444948561 
719	 3.29180312405186E-02 
720	 3.17262672655905E-02 
721	 3.05980341561673E-02 
722	 2.93458986376163E-02 
723	 2.80146346763267E-02 
724	 2.67606744357562E-02 
725	 2.54526949123075E-02 
726	 2.40716682108424E-02 
727	 2.26559211950666E-02 
728	 2.12237488585309E-02 
729	 1.95787673484957E-02 
730	 1.80856271840496E-02 
731	 1.68599153614356E-02 
732	 1.57922004501338E-02 
733	 1.47354016515286E-02 
734	 1.38614117197769E-02 
735	 1.32275731054403E-02 
736	 1.26944977655597E-02 
737	 1.22848644006911E-02 
738	 1.19736086922161E-02 
739	 0.011744037037813 
740	 1.16202059719114E-02 
741	 1.14706003418878E-02 
742	 1.13552531762921E-02 
743	 1.13943445079765E-02 
744	 1.13162479617601E-02 
745	 1.12593859897905E-02 
746	 1.12718900486478E-02 
747	 1.12251645033142E-02 
748	 1.11943421713956E-02 
749	 1.12005421618238E-02 
750	 1.12302174374496E-02 
751	 1.12034940153594E-02 
752	 1.11732194218115E-02 
753	 1.11694975861041E-02 
754	 1.11978507622284E-02 
755	 1.11848437714716E-02 
756	 1.11745082768337E-02 
757	 1.11978849867304E-02 
758	 1.12684741930076E-02 
759	 1.11470327698571E-02 
760	 1.09698585479663E-02 
761	 1.11362458196721E-02 
762	 1.13474292700436E-02 
763	 1.13170199801234E-02 
764	 1.12944602819822E-02 
765	 1.15337866337295E-02 
766	 1.15566056805108E-02 
767	 1.16277924196547E-02 
768	 1.17429425470463E-02 
769	 1.16368586269458E-02 
770	 1.17639557798685E-02 
771	 1.19521511622225E-02 
772	 1.20210746041388E-02 
773	 1.21316452275893E-02 
774	 1.22110451699367E-02 
775	 1.22945018132305E-02 
776	 1.24498343543435E-02 
777	 1.26471871034953E-02 
778	 0.012820675484018 
779	 1.29543044551847E-02 
780	 1.30889107872207E-02 
781	 1.32583088603937E-02 
782	 0.013440005144783 
783	 1.36127400090937E-02 
784	 1.37790583585774E-02 
785	 1.40160544689657E-02 
786	 1.43106764310279E-02 
787	 1.45915736057432E-02 
788	 1.46953957011348E-02 
789	 1.49109389607331E-02 
790	 1.52330192239247E-02 
791	 1.54259999782502E-02 
792	 1.56651140812051E-02 
793	 1.60005604365086E-02 
794	 1.63345618784264E-02 
795	 1.63488102709222E-02 
796	 1.66439660259596E-02 
797	 1.69600108391881E-02 
798	 1.70132226759979E-02 
799	 1.72860007978913E-02 
800	 0.017473820456919 
801	 1.76076379319024E-02 
802	 1.78685260692517E-02 
803	 1.80260972188412E-02 
804	 1.80903621717745E-02 
805	 1.80802758770759E-02 
806	 1.80056862122994E-02 
807	 1.80802410123784E-02 
808	 1.82240947386423E-02 
809	 1.82799140880533E-02 
810	 1.80543160995328E-02 
811	 1.77711233586557E-02 
812	 1.76221120662008E-02 
813	 1.76833527889834E-02 
814	 1.74015443983833E-02 
815	 1.70466567783194E-02 
816	 1.67314570657387E-02 
817	 1.64018268748126E-02 
818	 1.62228164734883E-02 
819	 1.60370116529748E-02 
820	 1.56412104731093E-02 
821	 1.48084364584066E-02 
822	 1.41978237428002E-02 
823	 1.37195353736851E-02 
824	 1.31157166997963E-02 
825	 1.22060117266238E-02 
826	 1.14271780131113E-02 
827	 1.06956947111544E-02 
828	 9.8407718420535E-03 
829	 9.17720989232096E-03 
830	 8.59727860708073E-03 
831	 8.0578776205599E-03 
832	 7.60360182469824E-03 
833	 7.33369367778324E-03 
834	 7.04146793138588E-03 
835	 6.73539946706903E-03 
836	 6.73753397103116E-03 
837	 6.40504917950575E-03 
838	 6.11568864012173E-03 
839	 6.18133081921185E-03 
840	 6.16916909139888E-03 
841	 6.10827230999328E-03 
842	 6.02788576464534E-03 
843	 0.005935853693779 
844	 5.64610659477864E-03 
845	 5.55995875011213E-03 
846	 5.66092536916647E-03 
847	 5.63037473349261E-03 
848	 5.37853396943103E-03 
849	 5.30001429072966E-03 
850	 5.40943331147853E-03 
851	 5.1990455494736E-03 
852	 5.1473715250337E-03 
853	 5.11611741269865E-03 
854	 5.02448784802588E-03 
855	 5.19530217056965E-03 
856	 5.06601721822941E-03 
857	 4.77478946242946E-03 
858	 4.63609948741109E-03 
859	 4.85767585261473E-03 
860	 4.90272714905786E-03 
861	 4.72995581950477E-03 
862	 4.58737604727204E-03 
863	 4.69665053361961E-03 
864	 4.59879293739584E-03 
865	 4.32926197350603E-03 
866	 4.36681406906454E-03 
867	 4.36542054121773E-03 
868	 4.34032042323029E-03 
869	 4.24910395318928E-03 
870	 3.9334491993513E-03 
871	 4.02386498496663E-03 
872	 4.24893800885478E-03 
873	 4.21999965001434E-03 
874	 3.73525249771591E-03 
875	 3.63141681487363E-03 
876	 3.71062583004647E-03 
877	 3.6124087159443E-03 
878	 3.71117076400565E-03 
879	 3.83108004370276E-03 
880	 3.78259577689498E-03 
881	 3.46341615603411E-03 
882	 3.17035400321485E-03 
883	 3.22404084806762E-03 
884	 3.40172745574579E-03 
885	 3.18275267844151E-03 
886	 3.17880800855934E-03 
887	 3.25046128124525E-03 
888	 3.2689228883811E-03 
889	 3.21710864826482E-03 
890	 3.07971141725624E-03 
891	 3.13093195340159E-03 
892	 3.33200842353333E-03 
893	 2.98417149723278E-03 
894	 2.93059283470535E-03 
895	 2.98376690100561E-03 
896	 2.77303016714208E-03 
897	 2.3227173810207E-03 
898	 2.68363358335977E-03 
899	 2.94752222901144E-03 
900	 2.2737165792382E-03 
901	 2.51166350393772E-03 
902	 2.65440030718682E-03 
903	 2.47967033581301E-03 
904	 2.19009176127193E-03 
905	 2.38444607165818E-03 
906	 2.53827990660147E-03 
907	 2.4614507718998E-03 
908	 2.30010438843745E-03 
909	 2.47857525712111E-03 
910	 2.66883861119576E-03 
911	 2.73065111259619E-03 
912	 2.77528093803647E-03 
913	 2.8962233621955E-03 
914	 2.73566964058415E-03 
915	 2.28057511462588E-03 
916	 1.95044201026626E-03 
917	 1.77228046015579E-03 
918	 1.59237972177033E-03 
919	 1.53643947995843E-03 
920	 2.09300146767914E-03 
921	 2.26599264785031E-03 
922	 2.25035791552241E-03 
923	 2.20738665565748E-03 
924	 1.70840695509328E-03 
925	 1.97294117342272E-03 
926	 2.51380429705993E-03 
927	 2.35827295006562E-03 
928	 8.40938377725967E-04 
929	 5.95972128269033E-04 
930	 1.65201974584971E-03 
931	 2.3934292737084E-03 
932	 2.40875028025162E-03 
933	 1.72319353840678E-03 
934	 4.8350069602727E-04 
935	-8.40753271845521E-04 
936	-1.55882815016729E-03 
937	-9.826727222062E-04 
938	 1.06955184614143E-03 
939	 3.47715876481372E-03 
940	 6.80117019753126E-04 
941	-6.59188078854607E-04 
942	 3.43185172517542E-05 
943	 4.92583996997598E-04 
944	 2.38541008305519E-03 
945	 1.11681008848323E-03 
946	-1.29973986431165E-03 
947	 1.61042875525012E-04 
948	 2.10782989000457E-03 
949	 1.74071373138347E-03 
950	-2.18996393294958E-04 
951	-8.79226009812728E-04 
952	 1.34639690513653E-03 
953	 1.7906153887617E-03 
954	 6.80587229424592E-04 
955	 1.29608000981843E-03 
956	 6.3690762773522E-04 
957	-9.26086065762605E-04 
958	-1.11918790058621E-03 
959	 1.97062998040043E-03 
960	 1.08594085828779E-03 
961	-7.82448977881269E-04 
962	-1.20053016103733E-03 
963	 3.44553878230814E-04 
964	 9.21637648663644E-04 
965	 1.69737749200454E-03 
966	 2.05264606597211E-03 
967	 5.14284447580193E-04 
968	 1.41252120454515E-03 
969	 1.61259621434003E-03 
970	 8.26785437630679E-04 
971	 1.44336409078211E-03 
972	 1.58075641693725E-03 
973	 1.05420455701481E-03 
974	 7.18987975688981E-04 
975	 1.72612940787867E-03 
976	 6.10220027190595E-04 
977	 6.89144364465892E-04 
978	 1.65246794262913E-03 
979	 2.86665452881746E-04 
980	 1.93651915907334E-03 
981	 2.91905931494252E-03 
982	 2.11156346143997E-03 
983	 1.24154923955584E-03 
984	 2.33833802523618E-04 
985	 1.04041860487354E-03 
986	 2.63024560597472E-03 
987	 2.06755794872495E-03 
988	 1.21820966854943E-03 
989	 9.88022444159277E-04 
990	 1.54267906820394E-03 
991	 2.3606924356531E-03 
992	 2.46736873455349E-03 
993	 2.03420618023579E-03 
994	 1.27201871532582E-03 
995	 5.68218518575848E-04 
996	 1.62956188772404E-03 
997	 1.62013706889458E-03 
998	 1.01422096035893E-03 
999	 1.99321542681197E-03 
1000	 2.80742168333289E-03 
1001	 1.01397555254193E-03 
1002	 1.47752541225224E-03 
1003	 1.56135159991009E-03 
1004	 1.79605151542072E-03 
1005	 1.99168217556258E-03 
1006	 1.97325610573506E-03 
1007	 1.64470972270607E-03 
1008	 1.96201211939329E-03 
1009	 2.24551576836396E-03 
1010	 2.26690993659155E-03 
1011	 2.43846405219994E-03 
1012	 2.42768640960106E-03 
1013	 2.26938593528012E-03 
1014	 2.24264827882181E-03 
1015	 2.27805212569363E-03 
1016	 2.22761316600436E-03 
1017	 2.18113012211275E-03 
1018	 2.16529829399098E-03 
1019	 0.00210780302248 
1020	 2.00604701475845E-03 
1021	 0.001959946718674 
1022	 1.8001585936989E-03 
1023	 1.64999857723826E-03 
1024	 1.69836811458294E-03 
1025	 2.06195702168092E-03 
1026	 2.39745744756431E-03 
1027	 2.51388420549867E-03 
1028	 2.64806150827766E-03 
1029	 2.5659828179387E-03 
1030	 2.13332120978294E-03 
1031	 2.02588482357882E-03 
1032	 1.88851121115377E-03 
1033	 1.87572477145665E-03 
1034	 2.08048257862203E-03 
1035	 2.14273132648944E-03 
1036	 2.29680256644424E-03 
1037	 2.30410753486714E-03 
1038	 2.0318497688157E-03 
1039	 2.07753782717685E-03 
1040	 2.16632674115143E-03 
1041	 2.08917046828146E-03 
1042	 2.14139977573299E-03 
1043	 0.002397730661048 
1044	 2.3913767265214E-03 
1045	 2.21372373715032E-03 
1046	 2.20417008439613E-03 
1047	 2.22513275181551E-03 
1048	 2.19119619622771E-03 
1049	 2.24004157867628E-03 
1050	 2.17367565753804E-03 
1051	 1.78768404185838E-03 
1052	 1.77283424206011E-03 
1053	 2.11902517446855E-03 
1054	 2.1564889127881E-03 
1055	 2.14737582049205E-03 
1056	 2.2337994328249E-03 
1057	 2.28175719412672E-03 
1058	 2.11231352916439E-03 
1059	 2.06569525780421E-03 
1060	 2.22558400587398E-03 
1061	 2.20406879909428E-03 
1062	 1.93236904454022E-03 
1063	 1.91064223236392E-03 
1064	 2.0192447265621E-03 
1065	 2.09206204765469E-03 
1066	 2.35945795813074E-03 
1067	 2.3590285466889E-03 
1068	 2.13669111642183E-03 
1069	 2.06728324606281E-03 
1070	 1.87201043255097E-03 
1071	 1.78552373335875E-03 
1072	 1.93018112794288E-03 
1073	 1.94202185091298E-03 
1074	 1.99983090618981E-03 
1075	 2.09425386234971E-03 
1076	 2.08348750608949E-03 
1077	 2.01059118924158E-03 
1078	 2.03143720967689E-03 
1079	 1.95642794236215E-03 
1080	 1.99877158752367E-03 
1081	 2.34562915756291E-03 
1082	 2.32773282269545E-03 
1083	 2.04794084186029E-03 
1084	 1.9895148817165E-03 
1085	 1.71892095230329E-03 
1086	 1.68491125097126E-03 
1087	 2.30233636002597E-03 
1088	 2.32489651755058E-03 
1089	 1.93668188672629E-03 
1090	 1.67362231240243E-03 
1091	 1.57159067878632E-03 
1092	 1.09776484289588E-03 
1093	 1.21135421723204E-03 
1094	 2.12074117071435E-03 
1095	 2.31563250285736E-03 
1096	 2.25506721860589E-03 
1097	 2.33424531401403E-03 
1098	 2.23112967193114E-03 
1099	 2.15778311910873E-03 
1100	 2.30697334801947E-03 
1101	 2.31394805710149E-03 
1102	 1.88316487490148E-03 
1103	 1.84748859087885E-03 
1104	 2.29499475555074E-03 
1105	 2.30795054028368E-03 
1106	 1.87029274595069E-03 
1107	 1.6194403645388E-03 
1108	 1.25537474470006E-03 
1109	 1.29763170743228E-03 
1110	 1.5022607071425E-03 
1111	 2.83175714657357E-03 
1112	 3.01281441188081E-03 
1113	 2.27989567497166E-03 
1114	 2.09434482387879E-03 
1115	 1.89453978766479E-03 
1116	 1.75898899573705E-03 
1117	 1.81843835885369E-03 
1118	 1.74164744776735E-03 
1119	 1.10458703320367E-03 
1120	 8.66502673996766E-04 
1121	 6.11302480084857E-04 
1122	 2.81305940401812E-03 
1123	 3.1003638400769E-03 
1124	 8.18268674286627E-04 
1125	 7.80598655107641E-04 
1126	 1.17449947131704E-03 
1127	 3.33404225002391E-03 
1128	 4.60746727363491E-03 
1129	 4.29452765892212E-03 
1130	 2.28502204963938E-03 
1131	 1.63178301675297E-03 
1132	 5.97161598064274E-04 
1133	 5.67624519527627E-04 
1134	 4.61126245974114E-04 
1135	 9.37096118630695E-04 
1136	 2.99151907191295E-03 
1137	 3.26962556920117E-03 
1138	 3.08948036048262E-03 
1139	 2.8700576924543E-03 
1140	 2.71320576776958E-03 
1141	 2.2351196448484E-03 
1142	 1.00017283433404E-03 
1143	 3.94556742270626E-04 
1144	 1.54199288210182E-03 
1145	 1.46446735821849E-03 
1146	 1.74657916620328E-04 
1147	 1.05279964817656E-03 
1148	 1.77239584517375E-03 
1149	 4.5582843665345E-04 
1150	 3.66645039786612E-04 
1151	 2.83688875991232E-03 
1152	 2.32754471910066E-03 
1153	-9.49459260697672E-04 
1154	-4.75280544690023E-04 
1155	 1.25941343859027E-03 
1156	 1.41441575194101E-03 
1157	 2.25066519734474E-03 
1158	 2.43402464161325E-03 
1159	 7.64702363347455E-04 
1160	 5.22399372595751E-04 
1161	 1.37801479333367E-03 
1162	 1.81914973580085E-03 
1163	 0.002037407926456 
1164	 1.61519880354221E-03 
1165	 1.12308246462102E-03 
1166	 1.09753714350664E-03 
1167	 1.20982023807324E-03 
1168	 1.37337988981158E-03 
1169	 1.49277312218532E-03 
1170	 1.49890793839261E-03 
1171	 1.4180642182846E-03 
1172	 1.19981611791778E-03 
1173	 1.35712670873048E-03 
1174	 1.65382306470959E-03 
1175	 1.72878332612032E-03 
1176	 1.85239329059502E-03 
1177	 1.85788845072991E-03 
1178	 1.60923496721716E-03 
1179	 1.3525984145433E-03 
1180	 1.24537359507952E-03 
1181	 1.39459438542602E-03 
1182	 1.50016812403654E-03 
1183	 1.37334324067175E-03 
1184	 1.23331193335557E-03 
1185	 1.25717599446424E-03 
1186	 1.38053555782334E-03 
1187	 1.55749559069381E-03 
1188	 1.66854610763703E-03 
1189	 1.41970648903302E-03 
1190	 1.21277440261509E-03 
1191	 1.35775899158844E-03 
1192	 1.30581415531204E-03 
1193	 1.30758213174696E-03 
1194	 1.41295237032409E-03 
1195	 1.62196151223582E-03 
1196	 1.44021889769004E-03 
1197	 1.12302317439761E-03 
1198	 1.33818044285896E-03 
1199	 1.52281895028612E-03 
1200	 0.001172983403368 
1201	 1.25419993356891E-03 
1202	 1.63479709420922E-03 
1203	 1.35186449863451E-03 
1204	 1.1839231118766E-03 
1205	 1.48828592562772E-03 
1206	 1.34800241285961E-03 
1207	 1.10726021564899E-03 
1208	 1.27723809149541E-03 
1209	 1.54900861491303E-03 
1210	 1.70269301925772E-03 
1211	 1.64684335953517E-03 
1212	 1.62685221462257E-03 
1213	 1.60894458745602E-03 
1214	 1.55912175532818E-03 
1215	 1.47897342702159E-03 
1216	 1.65410806404582E-03 
1217	 1.60091993507133E-03 
1218	 1.38759016949536E-03 
1219	 1.42724363801446E-03 
1220	 1.50844509010873E-03 
1221	 1.60069388444694E-03 
1222	 1.62481173817332E-03 
1223	 1.48153770928342E-03 
1224	 1.41410874646473E-03 
1225	 1.36770532100998E-03 
1226	 1.35358196944123E-03 
1227	 1.45530477627802E-03 
1228	 1.48408102309602E-03 
1229	 1.49653435466445E-03 
1230	 1.60028161350879E-03 
1231	 1.52170305695432E-03 
1232	 1.22753180734842E-03 
1233	 1.12800984266283E-03 
1234	 1.22073338112321E-03 
1235	 1.25404350135754E-03 
1236	 1.41650604044382E-03 
1237	 1.47375572877849E-03 
1238	 1.50779788709775E-03 
1239	 1.40171723788059E-03 
1240	 0.00134162801418 
1241	 1.29792329473269E-03 
1242	 1.39309690727474E-03 
1243	 1.49737749564403E-03 
1244	 1.41667954235141E-03 
1245	 1.44568250781788E-03 
1246	 1.50739888086266E-03 
1247	 1.42211161978831E-03 
1248	 1.48779411262486E-03 
1249	 1.61149774965661E-03 
1250	 1.49496100723248E-03 
1251	 1.39140738665219E-03 
1252	 1.47290911871846E-03 
1253	 1.58035282139894E-03 
1254	 1.64057915355504E-03 
1255	 1.69166562702621E-03 
1256	 1.73377349429405E-03 
1257	 1.60736608960426E-03 
1258	 1.52789380526069E-03 
1259	 1.59799485853059E-03 
1260	 1.65219949345587E-03 
1261	 1.59888131251478E-03 
1262	 1.52106987693184E-03 
1263	 1.51324537058894E-03 
1264	 1.40997106337386E-03 
1265	 1.16180232613765E-03 
1266	 1.09159892740258E-03 
1267	 1.23629026850097E-03 
1268	 1.44022798853262E-03 
1269	 1.39283620589958E-03 
1270	 1.31343426478422E-03 
1271	 1.50419873750288E-03 
1272	 1.45678256472356E-03 
1273	 1.31972954372712E-03 
1274	 1.5848681773017E-03 
1275	 1.67565878558216E-03 
1276	 1.4317842403247E-03 
1277	 1.31710971068743E-03 
1278	 1.40968201190668E-03 
1279	 1.44542209429455E-03 
1280	 1.19469859323742E-03 
1281	 1.25789053945511E-03 
1282	 1.71809534756695E-03 
1283	 1.7439401069885E-03 
1284	 1.60695015368953E-03 
1285	 1.58477866293799E-03 
1286	 1.20660084965528E-03 
1287	 1.18626768809638E-03 
1288	 1.70331913097119E-03 
1289	 1.77377226322069E-03 
1290	 1.78074621563852E-03 
1291	 1.6487180467067E-03 
1292	 1.33727508909458E-03 
1293	 1.14693903709584E-03 
1294	 1.45803414152543E-03 
1295	 1.54091335528015E-03 
1296	 1.13591904737129E-03 
1297	 1.17213428531343E-03 
1298	 1.35437907495122E-03 
1299	 1.19964457997493E-03 
1300	 1.14991199775654E-03 
1301	 1.16031138661578E-03 
1302	 1.26040607958751E-03 
1303	 1.3734995032342E-03 
1304	 1.32469266472235E-03 
1305	 1.45663199660598E-03 
1306	 1.63023061009218E-03 
1307	 1.64150257212907E-03 
1308	 1.42331680820739E-03 
1309	 1.20864153311019E-03 
1310	 1.25343815521443E-03 
1311	 9.80959047880784E-04 
1312	 9.08051188334298E-04 
1313	 1.53078335771314E-03 
1314	 1.7335960446253E-03 
1315	 1.43456398296236E-03 
1316	 1.31715800203868E-03 
1317	 1.47133562057844E-03 
1318	 1.49379664599144E-03 
1319	 1.09546757766237E-03 
1320	 1.07712355833384E-03 
1321	 1.42228841616783E-03 
1322	 1.59807238133356E-03 
1323	 1.37880804340345E-03 
1324	 1.46339240651167E-03 
1325	 1.26971042727184E-03 
1326	 7.07376650588652E-04 
1327	 8.32592984474313E-04 
1328	 1.19159496954669E-03 
1329	 1.25118776073253E-03 
1330	 1.47695231323179E-03 
1331	 1.85704691098224E-03 
1332	 1.71547234653523E-03 
1333	 1.12942030042462E-03 
1334	 1.16134803601574E-03 
1335	 1.38151517096402E-03 
1336	 1.61291692311752E-03 
1337	 1.53885100201275E-03 
1338	 2.07966972250357E-03 
1339	 2.07513110822085E-03 
1340	 9.2102143942649E-04 
1341	 5.7246570821977E-04 
1342	 7.09150656007205E-04 
1343	 7.01561508413126E-04 
1344	 1.06417861934901E-03 
1345	 0.001140822921599 
1346	 9.03530386563408E-04 
1347	 1.08074591422688E-03 
1348	 1.44914973039336E-03 
1349	 8.20099453551225E-04 
1350	-3.09989540638782E-04 
1351	 1.02741299264749E-04 
1352	 1.20007507838393E-03 
1353	-8.19651155368503E-04 
1354	 1.08730547799963E-04 
1355	-8.02970235707224E-03 
1356	-2.87253794681135E-02 
1357	-4.60849032941946E-02 
1358	-5.80322576647321E-02 
1359	-7.21274669257313E-02 
1360	-8.82148768890268E-02 
1361	-8.94496587676929E-02 
1362	-0.08612516805856 
1363	-0.084535217906963 
1364	-1.37546376077424E-02 
1365	 6.60255322239078E-02 
1366	-3.92702853237008E-02 
1367	-0.159110975087862 
1368	-0.119001852931585 
1369	-5.05871832291231E-02 
1370	-9.43605674045769E-02 
1371	-2.71093261745815E-02 
1372	 4.47544183382341E-02 
1373	-6.79056999944627E-02 
1374	-8.26284448730566E-02 
1375	 0.313862608646838 
1376	 0.363882243449465 
1377	 3.91836952707082E-03 
1378	-4.02337794433949E-02 
1379	 0.030852834330532 
1380	-4.44316625000913E-02 
1381	-0.234899605008356 
1382	-0.218234736963504 
1383	-8.94274410388462E-03 
1384	-1.73547187268573E-02 
1385	 1.82433896291387E-02 
1386	 1.10092446304635E-02 
1387	-0.630867215458557 
1388	-0.772777523224233 
1389	 0.152229833427517 
1390	 0.31334677417328 
1391	 0.186160039199688 
1392	-0.239499999429201 
1393	-0.577994144208762 
1394	-0.660760489414324 
1395	-0.335529133395011 
1396	-9.21727879830491E-02 
1397	-3.57712242822134E-03 
1398	 6.23796261819515E-02 
1399	 8.41192272622551E-02 
1400	 0.179576883450833 
1401	 6.91065703037155E-02 
1402	 4.17885825643086E-02 
1403	 8.81088552016468E-02 
1404	-0.120105394479058 
1405	-0.11616608599595 
1406	-4.68183486812295E-04 
1407	-1.90874770931929E-02 
1408	-0.100780693825503 
1409	-6.64168531515878E-02 
1410	-4.22671244816636E-02 
1411	-1.00848832552666E-02 
1412	 0.106530939864818 
1413	 8.48736449628775E-02 
1414	 9.07207902573199E-03 
1415	-1.97990744415482E-02 
1416	-0.084956736210582 
1417	-8.53594746691801E-02 
1418	-5.00570971054398E-02 
1419	-3.58430849129872E-02 
1420	-1.83410917737685E-02 
1421	-1.24695710141273E-02 
1422	-8.12446487650494E-03 
1423	-7.54309046411425E-03 
1424	-1.91536883449854E-02 
1425	-0.014106710183722 
1426	 4.89017281668636E-03 
1427	 4.83977428386413E-03 
1428	-2.26645023149704E-03 
1429	-2.25256783286302E-04 
1430	-2.77482229075559E-03 
1431	-3.37753465773533E-03 
1432	 8.18889180372661E-03 
1433	 1.07366337430257E-02 
1434	 3.83925980089281E-03 
1435	 6.79293266413362E-04 
1436	-4.06591469136355E-03 
1437	-5.58381775120562E-03 
1438	-3.91978038545037E-03 
1439	-2.42795479378622E-04 
1440	 2.45279932326126E-03 
1441	 2.9172319786393E-03 
1442	 3.08527424644251E-03 
1443	 2.56537523806822E-04 
1444	-8.86318629066732E-05 
1445	 1.00739361098291E-03 
1446	-1.66347017141189E-03 
1447	-9.44121202006042E-04 
1448	 1.73517147715317E-03 
1449	 1.19911997254762E-03 
1450	 3.40194951295388E-04 
1451	 8.02865216716639E-04 
1452	 2.12556401237326E-03 
1453	 2.28476212788694E-03 
1454	 1.96584852865393E-03 
1455	 2.49416848542356E-03 
1456	 2.52264061253952E-03 
1457	 8.24724595423003E-04 
1458	 7.29688162738336E-04 
1459	 2.32816189462703E-03 
1460	 2.33410008069013E-03 
1461	 1.21726079405103E-03 
1462	 1.3211265833882E-03 
1463	 1.73603603730266E-03 
1464	 1.98532096842164E-03 
1465	 3.3495776469912E-03 
1466	 3.31990468797703E-03 
1467	 1.88882831396677E-03 
1468	 1.07472734222508E-03 
1469	-6.94119368372583E-04 
1470	-5.25745986952966E-04 
1471	 2.03377101472967E-03 
1472	 1.77602091346645E-03 
1473	 4.79710574121334E-04 
1474	 3.67641229115265E-04 
1475	-8.81619289150669E-04 
1476	-1.11518265556098E-03 
1477	 3.73320528833346E-04 
1478	 8.51887845093053E-04 
1479	 8.35020373721567E-04 
1480	 8.75629604333834E-04 
1481	 9.10654425848979E-04 
1482	 9.973969869174E-04 
1483	 1.06938474701484E-03 
1484	 9.0973871353799E-04 
1485	 3.80957881116564E-04 
1486	 4.75912744578624E-04 
1487	 9.78471749771082E-04 
1488	 9.21341000038403E-04 
1489	 8.37112859098075E-04 
1490	 9.57017699797888E-04 
1491	 8.08387406469093E-04 
1492	 7.76541209036978E-04 
1493	 1.11254768954466E-03 
1494	 1.21285460147847E-03 
1495	 9.87267237892514E-04 
1496	 9.7535956117826E-04 
1497	 1.25739248612033E-03 
1498	 1.2304220345867E-03 
1499	 1.05158036549634E-03 
1500	 9.49707863839691E-04 
1501	 5.87735086167968E-04 
1502	 4.85409936905108E-04 
1503	 6.25293606774929E-04 
1504	 7.18079860466794E-04 
1505	 8.16590769429284E-04 
1506	 1.0135697032057E-03 
1507	 1.2562377127273E-03 
1508	 1.33251461901048E-03 
1509	 1.10072625148563E-03 
1510	 9.79444194359921E-04 
1511	 9.35391333536449E-04 
1512	 7.57241074983001E-04 
1513	 8.12663698841661E-04 
1514	 9.92086736186059E-04 
1515	 8.99447718824365E-04 
1516	 7.99347027740583E-04 
1517	 9.27996391344967E-04 
1518	 9.9451566447388E-04 
1519	 9.8194126807575E-04 
1520	 1.02447277374003E-03 
1521	 1.01161605740689E-03 
1522	 9.0149626136037E-04 
1523	 8.69179982824275E-04 
1524	 9.28122656424471E-04 
1525	 8.35660060861259E-04 
1526	 7.22843689348532E-04 
1527	 8.53727653037879E-04 
1528	 1.00314250502734E-03 
1529	 9.25731051056471E-04 
1530	 9.04352324248774E-04 
1531	 1.00181069967235E-03 
1532	 9.20869235002479E-04 
1533	 8.47753301653817E-04 
1534	 9.59440745077276E-04 
1535	 1.01892283718354E-03 
1536	 9.89659964566237E-04 
1537	 1.0276121747825E-03 
1538	 1.08660047903653E-03 
1539	 9.67293465241957E-04 
1540	 8.15528127267902E-04 
1541	 8.34336869154505E-04 
1542	 8.79717452156643E-04 
1543	 9.56703643976588E-04 
1544	 1.08790316504446E-03 
1545	 1.11565140394389E-03 
1546	 1.05363528581724E-03 
1547	 1.0685649704793E-03 
1548	 1.0457429671052E-03 
1549	 9.47548511626922E-04 
1550	 1.09083013876512E-03 
1551	 1.24452327825434E-03 
1552	 1.02789393267247E-03 
1553	 9.54007368677831E-04 
1554	 1.11857434419987E-03 
1555	 1.01357229226705E-03 
1556	 9.94454724027407E-04 
1557	 1.20687240765206E-03 
1558	 1.09906200827521E-03 
1559	 9.47574558451384E-04 
1560	 1.05991322289066E-03 
1561	 1.01212430123449E-03 
1562	 1.02162793008255E-03 
1563	 1.23813524988845E-03 
1564	 1.25036586721509E-03 
1565	 1.27509533878021E-03 
1566	 1.3569654321975E-03 
1567	 1.11629110047881E-03 
1568	 9.98100660287191E-04 
1569	 1.26582167185745E-03 
1570	 1.32516389121806E-03 
1571	 1.03937001735931E-03 
1572	 8.09816267066699E-04 
1573	 8.19615641125727E-04 
1574	 9.31168129271042E-04 
1575	 1.06566847202062E-03 
1576	 1.22795570671432E-03 
1577	 1.28207028804118E-03 
1578	 1.16959038515621E-03 
1579	 1.11897565593337E-03 
1580	 1.17362027319076E-03 
1581	 0.001140339969773 
1582	 9.6106990098297E-04 
1583	 9.11949734899072E-04 
1584	 1.07737710073576E-03 
1585	 9.60746597707128E-04 
1586	 8.05473591346141E-04 
1587	 1.03630582345464E-03 
1588	 1.23802055496264E-03 
1589	 1.22103993213691E-03 
1590	 1.09323658085859E-03 
1591	 7.94345652921905E-04 
1592	 5.95628301919569E-04 
1593	 7.67709970125921E-04 
1594	 9.37071756350402E-04 
1595	 1.16433950114827E-03 
1596	 1.37794266387385E-03 
1597	 1.19893522279878E-03 
1598	 1.17558865939149E-03 
1599	 1.40587133569625E-03 
1600	 1.37530484549797E-03 
1601	 1.25111655549786E-03 
1602	 1.24287025368533E-03 
1603	 1.10828276751918E-03 
1604	 9.98655288998483E-04 
1605	 1.23080692887616E-03 
1606	 1.40278428112478E-03 
1607	 1.25175652806801E-03 
1608	 0.001216066659308 
1609	 1.19116337690086E-03 
1610	 9.91823579391722E-04 
1611	 9.83338394937414E-04 
1612	 9.91052504469168E-04 
1613	 7.54857050939954E-04 
1614	 7.08415957909067E-04 
1615	 9.85048464120193E-04 
1616	 1.10162907390649E-03 
1617	 1.12878124432016E-03 
1618	 0.00116109756225 
1619	 9.91636098443303E-04 
1620	 8.14742171645912E-04 
1621	 8.2515253901487E-04 
1622	 9.05906558024909E-04 
1623	 9.65676386709343E-04 
1624	 1.00628487160451E-03 
1625	 9.57882950846969E-04 
1626	 0.00107237275917 
1627	 1.3209443235434E-03 
1628	 1.36191421275948E-03 
1629	 1.28999424160506E-03 
1630	 1.19909231068946E-03 
1631	 1.09337199903594E-03 
1632	 8.72256729488971E-04 
1633	 7.36071691414438E-04 
1634	 9.43299705849078E-04 
1635	 1.2019838568602E-03 
1636	 1.3369199506879E-03 
1637	 1.34405723910112E-03 
1638	 1.25648956798317E-03 
1639	 9.94457796763028E-04 
1640	 7.5800633694996E-04 
1641	 8.61198284118722E-04 
1642	 1.00927303807822E-03 
1643	 1.01656800588408E-03 
1644	 8.92662618602804E-04 
1645	 8.41129040002258E-04 
1646	 8.31004369368935E-04 
1647	 6.41570255911481E-04 
1648	 8.01555459710776E-04 
1649	 1.06577673745238E-03 
1650	 9.70801066807463E-04 
1651	 1.11413131576744E-03 
1652	 1.21730410273762E-03 
1653	 8.75928945349175E-04 
1654	 8.3010572074579E-04 
1655	 9.09510388103438E-04 
1656	 9.22610168369403E-04 
1657	 9.6801516784103E-04 
1658	 1.05259306364173E-03 
1659	 1.20654399106033E-03 
1660	 1.23130727032548E-03 
1661	 1.19699025696798E-03 
1662	 1.17727842725199E-03 
1663	 1.09563690651255E-03 
1664	 1.13918986612048E-03 
1665	 1.22800982085073E-03 
1666	 1.22757944300225E-03 
1667	 1.31776091546276E-03 
1668	 1.12924402724173E-03 
1669	 9.5474467861191E-04 
1670	 1.22580925153031E-03 
1671	 1.2748881739533E-03 
1672	 9.66200388720209E-04 
1673	 1.18577290353412E-03 
1674	 1.4640711623528E-03 
1675	 1.17889550090557E-03 
1676	 1.03698446186883E-03 
1677	 1.13541146151208E-03 
1678	 9.73132170371392E-04 
1679	 8.62708470838418E-04 
1680	 1.03055109546974E-03 
1681	 9.63104133550682E-04 
1682	 7.62865495727178E-04 
1683	 1.10658811859197E-03 
1684	 1.27487575385132E-03 
1685	 9.91526665886548E-04 
1686	 1.11596679889141E-03 
1687	 1.17542557637571E-03 
1688	 9.82300044094993E-04 
1689	 1.11887665181368E-03 
1690	 1.38419926603586E-03 
1691	 1.25466348416283E-03 
1692	 1.09004281045309E-03 
1693	 1.33423009122641E-03 
1694	 1.03421868376897E-03 
1695	 4.46200079461009E-04 
1696	 7.86110126459441E-04 
1697	 1.24427165524616E-03 
1698	 1.26746544877878E-03 
1699	 1.21351177660546E-03 
1700	 1.06655015505697E-03 
1701	 8.11942830941616E-04 
1702	 8.67193199087736E-04 
1703	 1.48627130812408E-03 
1704	 1.61862998900248E-03 
1705	 1.1880475853187E-03 
1706	 1.08408266593332E-03 
1707	 1.11416507343936E-03 
1708	 9.75430306875022E-04 
1709	 7.52630306638321E-04 
1710	 5.91748187787962E-04 
1711	 5.94780943761402E-04 
1712	 7.03771484048753E-04 
1713	 1.20070747798817E-03 
1714	 1.31639492537889E-03 
1715	 8.14683622953457E-04 
1716	 7.4691800098268E-04 
1717	 1.06197034953575E-03 
1718	 1.34959197144226E-03 
1719	 1.09165528321694E-03 
1720	 0.001129364585023 
1721	 1.23340716992869E-03 
1722	 7.93426448171766E-04 
1723	 1.0845053136674E-03 
1724	 1.32303457305971E-03 
1725	 7.69968929509906E-04 
1726	 7.25962884941617E-04 
1727	 9.3897147078284E-04 
1728	 9.99795902531843E-04 
1729	 1.1910225640033E-03 
1730	 9.41525621397823E-04 
1731	 6.80155524216386E-04 
1732	 8.90657791483824E-04 
1733	 8.66191778841719E-04 
1734	 1.2561931378693E-03 
1735	 1.82762848260052E-03 
1736	 1.44723942719459E-03 
1737	 1.13636384528193E-03 
1738	 1.35770053792276E-03 
1739	 0.001422275769488 
1740	 1.66428956216365E-03 
1741	 2.05870518540595E-03 
1742	 1.68976200082262E-03 
1743	 9.33267443794278E-04 
1744	 9.29522001263303E-04 
1745	 9.66490559341355E-04 
1746	 6.32091217550482E-04 
1747	 8.91125162851948E-04 
1748	 1.14516358324867E-03 
1749	 9.64549263231535E-04 
1750	 1.08874539556185E-03 
1751	 1.11279630656805E-03 
1752	 4.32138813130532E-04 
1753	 4.18989312836679E-04 
1754	 1.36072078784734E-03 
1755	 1.47839697777954E-03 
1756	 1.0222989515359E-03 
1757	 1.03696000932771E-03 
1758	 7.66750525073089E-04 
1759	 7.98010205376933E-04 
1760	 1.48276709303994E-03 
1761	 1.60858482752085E-03 
1762	 1.1703620709701E-03 
1763	 1.22285633713518E-03 
1764	 1.50537382237134E-03 
1765	 1.85274564473784E-03 
1766	 2.0944004498569E-03 
1767	 1.30511096007032E-03 
1768	 8.76460979633102E-04 
1769	 1.05508433584147E-03 
1770	 7.31191765810437E-04 
1771	 1.5176496741977E-03 
1772	 1.84381953391513E-03 
1773	 9.96510154493398E-04 
1774	 1.81148910722195E-03 
1775	 1.31682225009148E-03 
1776	 1.01608622596605E-03 
1777	 3.61272369458955E-04 
1778	 1.12941016052362E-04 
1779	 6.95656228318609E-04 
1780	 8.36186175478167E-04 
1781	 1.24600162194639E-03 
1782	 1.37241151604037E-03 
1783	 9.65972247541374E-04 
1784	 1.00615998673474E-03 
1785	 9.09293728067083E-04 
1786	 9.47909015548232E-04 
1787	 1.10875160871426E-03 
1788	 1.5842187092191E-03 
1789	 0.002487140967182 
1790	 2.69052607236765E-03 
1791	 4.48230987126223E-03 
1792	 2.72084291359203E-03 
1793	 6.59583337279521E-04 
1794	 2.35872092510699E-03 
1795	-3.16596709725298E-04 
1796	-1.30458744596908E-03 
1797	 2.25982706703538E-03 
1798	-4.24961870536548E-04 
1799	 1.12542734255436E-04 
1800	-3.19158659024045E-03 
1801	-3.44389457339524E-03 
1802	 2.81054284484317E-03 
1803	 2.5665249546674E-03 
1804	 3.2166511049114E-03 
1805	 5.19595149182371E-03 
1806	-9.07514578626963E-03 
1807	-2.07292456006252E-02 
1808	-0.025449883546768 
1809	-2.59730493334787E-02 
1810	-1.96368045747943E-02 
1811	-8.93949634662909E-03 
1812	 4.78445584146498E-02 
1813	 4.38669979817793E-02 
1814	-5.14249941838684E-02 
1815	-9.93281801747556E-02 
1816	-0.18664831478137 
1817	-9.27817197895802E-02 
1818	-0.065047774407068 
1819	 0.060993232524076 
1820	 8.40057877410967E-02 
1821	-0.201274531600685 
1822	-0.352090871443281 
1823	-0.464451201190694 
1824	-0.395553560271413 
1825	 0.196798043883184 
1826	 0.245951848392228 
1827	 4.34266242952443E-02 
1828	-1.13801511011349E-02 
1829	-0.335189983817189 
1830	-0.440358101845138 
1831	 1.92977769363673 
1832	 1.51844763393989 
1833	 0.404773170562636 
1834	 0.113930310942375 
1835	-0.751233653789817 
1836	-1.22422419263285 
1837	-1.50477207579855 
1838	-1.54717238960491 
1839	-0.596835645232563 
1840	-0.383446289596421 
1841	-0.769733135321736 
1842	-1.6409816911786 
1843	-2.5736754781776 
1844	 15.6349884113433 
1845	 8.35588301261758 
1846	-4.90692932389928 
1847	-2.63049677771014 
1848	-1.20182050080204 
1849	-2.73424281614015 
1850	-9.03543178998939 
1851	-0.870368766720658 
1852	 0.277304177381175 
1853	 0.476009540121181 
1854	 0.578708824447881 
1855	 0.240098062703899 
1856	 0.328009227832631 
1857	 1.93890400104216 
1858	-3.8825469140597 
1859	-1.11239935127319 
1860	-0.660061502196317 
1861	-0.931867590149371 
1862	-0.842171898877848 
1863	-1.76500300611588 
1864	-1.91314899190882 
1865	-5.98334716902511 
1866	 2.64027141678193 
1867	 1.51642462959151 
1868	 0.391419360783582 
1869	 0.305142980839894 
1870	 0.475519018429996 
1871	 0.253075475960532 
1872	 2.51430913179498 
1873	-16.1782894004101 
1874	 3.26706825049361 
1875	 0.959770398584296 
1876	 0.91268579198016 
1877	 0.783243112164656 
1878	 0.656270174387643 
1879	 2.21853286319157 
1880	 3.05406725502769 
1881	 0.562619286577888 
1882	-0.381126939312384 
1883	 0.994919321856629 
1884	-8.45409844645034 
1885	-9.36864905363423E-02 
1886	-3.39730293970924 
1887	-0.206830683476196 
1888	-0.429856492546689 
1889	-0.378220120831992 
1890	-0.361844933320603 
1891	-0.669865952645755 
1892	-1.46071910081334 
1893	-1.37653314845074 
1894	-0.98874693440869 
1895	-0.452424309139534 
1896	-6.16907857489902E-02 
1897	 0.246878622457874 
1898	 0.482982264701061 
1899	 0.535164658683695 
1900	 0.496877580008882 
1901	-1.45726090537569 
1902	-6.1297525687801 
1903	-4.34566153156751 
1904	 0.262008488809758 
1905	 2.51792993653475 
1906	 79.5894210357009 
1907	-24.6914548749687 
1908	-13.0550224739771 
1909	-5.37491061047128E-02 
1910	 0.378039255367989 
1911	-0.599905465458092 
1912	-1.21273638640615 
1913	-1.64298438188577 
1914	-2.44502514466445 
1915	-2.02078133610517 
1916	-1.08664374123602 
1917	-0.761756751161428 
1918	-0.691078024496455 
1919	-0.355795001536421 
1920	 0.860893469073666 
1921	 0.856151072000155 
1922	 0.997504388861327 
1923	-6.4672930126356 
1924	-5.12166704694161 
1925	 4.72706280461767 
1926	 3.46990168499197 
1927	 0.478843721359035 
1928	-0.390793514721648 
1929	-0.46482090584759 
1930	-0.741568740158644 
1931	-0.254446784656436 
1932	 0.114379524513223 
1933	 2.76088373252086E-02 
1934	-0.083963952254275 
1935	-0.13720372005166 
1936	-0.172973979648317 
1937	-8.06747938357065E-02 
1938	 1.31684559209873E-02 
1939	 1.70041913166193E-02 
1940	-1.71574943661425E-02 
1941	-2.00472010861702E-02 
1942	 1.92358857861363E-03 
1943	 1.57113462220805E-02 
1944	 1.45904777258851E-02 
1945	 0.024629497480689 
1946	 1.87672232568614E-02 
1947	-5.03342770539733E-03 
1948	 1.10989860725732E-02 
1949	 3.53719600522366E-02 
1950	 3.07547888707287E-02 
1951	 2.63500784928564E-02 
1952	 2.29139807032117E-02 
1953	 1.31734908977867E-02 
1954	 2.7320969910929E-03 
1955	 6.90693659192573E-03 
1956	 7.6611266616271E-03 
1957	 1.26610582494845E-02 
1958	 1.84511224354246E-02 
1959	 1.28825106850266E-02 
1960	 1.04437365939734E-02 
1961	 9.45820722524718E-03 
1962	 4.78702851406073E-03 
1963	 4.8714592304891E-03 
1964	 7.55564780026282E-03 
1965	 5.9063054547843E-03 
1966	 5.5703145189274E-03 
1967	 5.68943505026841E-03 
1968	 5.74995223430478E-03 
1969	 3.50993270860572E-03 
1970	 4.91542165894212E-03 
1971	 6.28756090917868E-03 
1972	 4.79127344386584E-03 
1973	 3.68004760607914E-03 
1974	 2.04933765952835E-03 
1975	 1.06146086250175E-03 
1976	 9.34176183693958E-04 
1977	 1.17149211755729E-03 
1978	 2.02958549653629E-03 
1979	 2.25503552738872E-03 
1980	 1.77432730537106E-03 
1981	 1.33094192113073E-03 
1982	 1.22078062906097E-03 
1983	 9.08525598477471E-05 
1984	-4.11703617341556E-04 
1985	-1.15954194026351E-04 
1986	-6.74763031067004E-04 
1987	-4.58812856711278E-04 
1988	-6.12243795851805E-04 
1989	-1.34468774844254E-03 
1990	 1.6613246665066E-04 
1991	 1.52460798463451E-03 
1992	 1.67568620489346E-03 
1993	 1.73145836069546E-03 
1994	 1.91992669072537E-03 
1995	 1.20218934591263E-03 
1996	 6.41409739248318E-04 
1997	 1.0823044594221E-03 
1998	 2.34919545860947E-03 
1999	 1.99555604142608E-03 
2000	 1.89267949744848E-03 
2001	 1.99679559049444E-03 
2002	-5.39167877832103E-04 
2003	-2.05686835469957E-03 
2004	-1.94451535935474E-03 
2005	-1.20102557832647E-03 
2006	 2.45126436181664E-04 
2007	 2.19620718933047E-03 
2008	 3.64645385071399E-03 
2009	 3.92166598399426E-03 
2010	 3.15450930075034E-03 
2011	 2.7581319253316E-03 
2012	 1.84001455286003E-03 
2013	 4.89538612367825E-04 
2014	 1.72649917687216E-04 
2015	 2.13755444018425E-03 
2016	 2.69983755515313E-03 
2017	 2.47176591846789E-03 
2018	 2.63765046054485E-03 
2019	 1.4250026333802E-03 
2020	 1.21529266776696E-03 
2021	 2.39988460084902E-03 
2022	 8.67358175455508E-04 
2023	-1.77568672763537E-03 
2024	-1.92292546264838E-03 
2025	-8.47844206492435E-04 
2026	-1.07449791325382E-03 
2027	-1.13881778393969E-03 
2028	-3.36814780893216E-04 
2029	 1.77056395249554E-04 
2030	-1.06771368844141E-03 
2031	-1.25301455547441E-03 
2032	 1.41557080135099E-04 
2033	 7.62131456712143E-04 
2034	 7.32069919675566E-04 
2035	 0.001067795869781 
2036	 1.70648586967324E-03 
2037	 1.52647993669114E-03 
2038	 1.32098938385601E-03 
2039	 1.42297369985629E-03 
2040	 1.72220000433464E-03 
2041	 1.76437852496613E-03 
2042	 1.95647054101712E-03 
2043	 1.92699197246896E-03 
2044	 1.76155483936408E-03 
2045	 1.46468127334227E-03 
2046	 7.54104716641375E-04 
2047	 1.04198374661676E-03 
2048	 1.31383158788892E-03 
2049	 9.09849636769779E-04 
2050	 1.03701499316037E-03 
2051	 8.31281201640748E-04 
2052	 1.05666136445005E-04 
2053	 2.90527704626932E-05 
2054	 7.26524615592641E-04 
2055	 6.76814505907872E-04 
2056	 6.49976921832498E-04 
2057	 1.21651577964125E-03 
2058	 1.06972095129266E-03 
2059	-5.78604745994582E-04 
2060	-3.27460772044927E-04 
2061	 1.22869006613047E-03 
2062	 1.31009060948772E-03 
2063	 9.96267600996487E-04 
2064	 1.05837145447414E-03 
2065	 1.00533963208577E-04 
2066	-8.85045151424289E-04 
2067	-6.19142658446372E-04 
2068	 8.12683781088156E-05 
2069	 2.53042499979619E-04 
2070	-1.2769057497265E-04 
2071	-6.09742343556875E-05 
2072	 8.35967522220726E-04 
2073	 1.1842294358414E-03 
2074	 1.10887903740053E-03 
2075	 1.44175946592683E-03 
2076	 2.30829399801136E-03 
2077	 2.32880065595516E-03 
2078	 1.90709615777283E-03 
2079	 2.08497313379767E-03 
2080	 2.44901384444979E-03 
2081	 2.05208454275302E-03 
2082	 1.45430734807966E-03 
2083	 1.52028274838188E-03 
2084	 1.75179297011828E-03 
2085	 1.31496320240109E-03 
2086	 1.73001412656365E-03 
2087	 2.18238481117454E-03 
2088	 1.38069936627631E-03 
2089	 6.19494886524765E-04 
2090	-7.33286498591999E-05 
2091	-3.4953020388715E-04 
2092	-6.25142922039426E-05 
2093	 1.26351878327228E-03 
2094	 1.77145127723306E-03 
2095	 2.59806530262688E-03 
2096	 2.61279993109797E-03 
2097	 1.63585199700134E-03 
2098	 1.27983709351898E-03 
2099	 5.75410622849015E-04 
2100	 6.57935651816793E-04 
2101	 1.2899880905828E-03 
2102	 1.84714478867313E-03 
2103	 2.40625488911917E-03 
2104	 2.32300003069056E-03 
2105	 1.69588982398406E-03 
2106	 1.18661496430866E-03 
2107	 8.61996183449615E-04 
2108	-8.63301425410921E-05 
2109	-3.91810098048844E-04 
2110	 1.72593128562767E-04 
2111	-2.66903807514155E-04 
2112	 1.23947824722368E-04 
2113	 5.10184664855236E-04 
2114	 6.57486404616552E-04 
2115	 1.00391604150564E-03 
2116	 2.2839678635378E-03 
2117	 2.45160552898322E-03 
2118	 1.83395771564602E-03 
2119	 1.65594934132576E-03 
2120	 1.08068659905938E-03 
2121	 9.54575411758154E-04 
2122	 1.11919973513143E-03 
2123	 7.75416541659114E-04 
2124	 7.0292229460684E-05 
2125	-5.20662937312235E-04 
2126	-3.3855839517205E-04 
2127	 8.74740037810502E-04 
2128	 1.9360404191011E-03 
2129	 2.19739240657579E-03 
2130	 2.28138870531811E-03 
2131	 1.72094644906535E-03 
2132	 1.06804546474507E-03 
2133	 1.80191691899714E-03 
2134	 1.84790137140437E-03 
2135	 1.23573898036005E-03 
2136	 1.38987858573796E-03 
2137	 2.08953469243681E-03 
2138	 2.25472163779455E-03 
2139	 2.78203547088463E-03 
2140	 3.0197031669906E-03 
2141	 2.99450639200327E-03 
2142	 2.42040202527082E-03 
2143	 1.43276959939226E-03 
2144	 3.96848311506391E-04 
2145	-1.01153158842743E-03 
2146	-1.75117112515918E-03 
2147	-1.02197837625476E-03 
2148	 1.02815276882884E-04 
2149	 8.87969287952885E-04 
2150	 1.70353329177471E-03 
2151	 1.91335171584091E-03 
2152	 1.72556037968129E-03 
2153	 1.10730646229035E-03 
2154	 3.53446875947458E-04 
2155	 1.34242639798405E-04 
2156	-1.45569758817826E-04 
2157	 2.82153104056136E-04 
2158	 2.57569571126757E-03 
2159	 2.85161518947254E-03 
2160	 2.38119986074226E-03 
2161	 1.95451945470748E-03 
2162	 5.52615178064216E-05 
2163	-4.95522886243815E-04 
2164	-3.82093058419165E-04 
2165	-1.30647459144266E-04 
2166	 1.26484028793399E-03 
2167	 1.68040680870918E-03 
2168	 1.41574186050898E-03 
2169	 1.54106009549717E-03 
2170	 1.54077005353543E-03 
2171	 1.32732855469293E-03 
2172	 1.36532106155095E-03 
2173	 2.26154462776817E-03 
2174	 1.45845713874715E-03 
2175	 3.07583857397083E-05 
2176	 2.57115662232092E-04 
2177	 4.73135755337998E-04 
2178	 2.04754787797242E-04 
2179	 7.45385447678866E-04 
2180	 1.85459868845071E-03 
2181	 1.08730393098157E-03 
2182	 8.50364214432346E-04 
2183	 2.30141807946396E-03 
2184	 1.62856841699568E-03 
2185	 1.00201662166722E-03 
2186	 2.93812547585856E-04 
2187	-1.24094951444153E-03 
2188	-1.4339896337976E-03 
2189	-6.23645973707298E-04 
2190	-7.10794352365897E-04 
2191	-2.32340723598782E-04 
2192	-2.49365025855815E-04 
2193	-1.65837262702626E-03 
2194	-1.78557009907751E-03 
2195	-1.01249696047354E-03 
2196	-1.99888775814652E-04 
2197	 1.44986444731058E-03 
2198	 1.98543970375793E-03 
2199	 2.16366356625842E-03 
2200	 2.32253629644992E-03 
2201	 1.25341530845077E-03 
2202	 7.73314835225374E-04 
2203	-1.14452046415057E-04 
2204	-1.2679470792073E-03 
2205	-1.51996457695831E-03 
2206	-1.65732668067768E-03 
2207	-9.73725337078774E-04 
2208	-8.91053637344908E-04 
2209	-6.47431770424259E-04 
2210	-3.20116051024297E-04 
2211	-7.84560515107749E-04 
2212	 5.73823207127247E-04 
2213	 1.2321689964357E-03 
2214	 1.33178570935132E-03 
2215	 1.4929146128387E-03 
2216	 9.69541591428272E-05 
2217	-1.55902471961186E-04 
2218	-1.88209027443435E-04 
2219	-2.14457619165411E-04 
2220	 4.22908059465916E-04 
2221	 6.21967044268223E-04 
2222	 3.8087662816843E-04 
2223	 6.49984736322412E-04 
2224	 1.22328143788933E-03 
2225	 1.53783468509035E-03 
2226	 2.03679803664834E-03 
2227	 2.36827789397611E-03 
2228	 2.76877099284718E-03 
2229	 2.12657643068709E-03 
2230	 7.60540827588406E-04 
2231	-4.39325545657688E-05 
2232	-2.50215304444433E-03 
2233	-2.68459488954676E-03 
2234	-5.70855495705969E-04 
2235	 5.99000948990953E-04 
2236	 7.52528027663728E-04 
2237	 4.95547302235433E-04 
2238	-1.80603528078756E-03 
2239	-3.52531529380282E-03 
2240	-2.35027731603875E-03 
2241	-1.43609240220989E-03 
2242	-6.721517989692E-04 
2243	 9.6506491431486E-04 
2244	 5.42906047434368E-04 
2245	-5.41840164939094E-05 
2246	 1.43656839249087E-03 
2247	 2.92015694802868E-03 
2248	 2.90817080883975E-03 
2249	 2.39830110633278E-03 
2250	 8.68334217334235E-04 
2251	-1.59814750162988E-03 
2252	-1.58530659468933E-03 
2253	-7.25553808985896E-04 
2254	-9.00850827965625E-04 
2255	-3.28768821291316E-04 
2256	 1.70055813152145E-03 
2257	 1.95292820610186E-03 
2258	 4.71608045312167E-04 
2259	 4.45307040202353E-04 
2260	 7.63826319788319E-04 
2261	-4.94301320775397E-04 
2262	-7.64409564998395E-04 
2263	 2.11692755097157E-03 
2264	 2.32610268104954E-03 
2265	-1.14461398619413E-03 
2266	-1.11845249362308E-03 
2267	 9.81402990136269E-04 
2268	 8.99771083703463E-04 
2269	 1.01406179367875E-03 
2270	 1.9243957750333E-03 
2271	 2.89026516255786E-03 
2272	 2.19746521947317E-03 
2273	 1.35698509859002E-03 
2274	 8.18915134987263E-04 
2275	-2.66838840493788E-03 
2276	-3.49180464884669E-03 
2277	-8.44577964513813E-04 
2278	-9.5764947126805E-04 
2279	-2.17817717737212E-03 
2280	-1.71494418534909E-03 
2281	-1.34673044058208E-03 
2282	-1.00245850679232E-03 
2283	 1.40405606028255E-03 
2284	 2.46949220565599E-03 
2285	 5.86227489292793E-04 
2286	-2.72144439947602E-03 
2287	-4.41644035406977E-03 
2288	-4.75305138347297E-03 
2289	-1.65318073801164E-03 
2290	 1.72466427387943E-03 
2291	 1.70169139677143E-03 
2292	 2.93311232805649E-03 
2293	 0.001453245999973 
2294	 1.95784021269335E-03 
2295	 4.82775920957461E-03 
2296	 2.08884178209353E-03 
2297	 1.26744405363722E-04 
2298	-2.31492858529462E-03 
2299	-6.27304068498475E-03 
2300	-5.96230367366732E-03 
2301	-3.77036804067711E-03 
2302	-2.78038082304983E-03 
2303	-1.6290787589943E-03 
2304	-1.15654427944824E-03 
2305	-2.73458173076533E-03 
2306	-2.82512664914467E-03 
2307	-1.14250689612619E-03 
2308	-8.26942887357514E-04 
2309	-3.1512123130632E-04 
2310	 1.43814606457725E-03 
2311	 2.71846703938869E-03 
2312	 4.3893004777038E-03 
2313	 4.53248068242058E-03 
2314	 1.57839542928048E-04 
2315	-3.2344923594907E-03 
2316	-3.2917426081534E-03 
2317	-2.35894121058685E-03 
2318	-5.79928480505306E-04 
2319	-3.06447240796231E-03 
2320	-6.99913043575927E-03 
2321	-8.84781774504389E-03 
2322	-8.62984033924152E-03 
2323	-3.47710347960893E-03 
2324	-2.68638738893248E-03 
2325	-5.04460443412386E-03 
2326	-4.98252173620912E-03 
2327	-2.89242955278488E-03 
2328	 1.43280450558708E-03 
2329	 2.1960623712446E-03 
2330	 2.52699166401174E-03 
2331	 1.74919909368481E-03 
2332	-2.54597309948076E-03 
2333	-2.96534802865781E-03 
2334	-2.6170260815945E-03 
2335	-8.35809661286809E-03 
2336	-1.48552531302623E-02 
2337	-1.61859116661026E-02 
2338	-1.49504735995539E-02 
2339	-1.60688377539919E-02 
2340	-0.013209718158587 
2341	-4.76467988664482E-03 
2342	-3.49279909480526E-03 
2343	-3.04681743871477E-03 
2344	 3.25882535182422E-03 
2345	 4.69323620525503E-03 
2346	-1.16339843593719E-04 
2347	-6.4075973057052E-03 
2348	-0.010466247904916 
2349	-9.37409294546977E-03 
2350	-6.89363056381235E-03 
2351	-6.58976953425783E-03 
2352	-4.47087977192493E-03 
2353	-5.58850084423782E-03 
2354	-1.04421544889586E-02 
2355	-9.14205037573969E-04 
2356	 7.73088898464904E-03 
2357	 3.93749794000824E-03 
2358	 8.8610825948354E-04 
2359	-9.24172259351495E-03 
2360	-1.29842064414926E-02 
2361	-9.59730417628362E-03 
2362	-1.40172603950323E-02 
2363	-8.19188479082424E-03 
2364	-2.68002781927246E-03 
2365	-5.80851899651579E-03 
2366	 6.88335534276953E-03 
2367	 2.00748961109093E-02 
2368	 1.72310405783582E-02 
2369	 8.54950513371812E-03 
2370	 1.86087431581121E-03 
2371	 5.74308029362347E-03 
2372	 6.31314562179061E-03 
2373	 1.22101715734197E-02 
2374	 1.81779037736564E-02 
2375	 1.04092446988511E-03 
2376	-4.27692751030912E-03 
2377	 4.10854039247239E-03 
2378	 1.01813873644935E-02 
2379	 1.18878134911709E-02 
2380	 1.13753610058915E-03 
2381	-5.72996223618865E-03 
2382	-3.80219332693305E-03 
2383	-9.06036644519962E-03 
2384	-1.33871813322855E-02 
2385	-2.33221166574658E-02 
2386	-3.22965666403264E-02 
2387	-2.25325713441393E-02 
2388	-2.30272435419266E-02 
2389	-1.94475662441203E-02 
2390	-9.36061688043798E-03 
2391	-1.90712490592184E-02 
2392	-0.015522452172315 
2393	-6.35556914677715E-03 
2394	-2.68964695633978E-02 
2395	-2.90036358001682E-02 
2396	-9.60090833507466E-03 
2397	-4.40413069417808E-03 
2398	 1.13556730083929E-02 
2399	 8.25928769724506E-03 
2400	-1.00114337766641E-02 
2401	-0.018875240074703 
2402	-0.030057317044842 
2403	-1.88720334927594E-02 
2404	-1.13086691945773E-02 
2405	-1.20030262513441E-02 
2406	-1.80983122783721E-02 
2407	-2.98164336052108E-02 
2408	-3.16543136234766E-02 
2409	-3.98514358225683E-02 
2410	-2.28418741635681E-02 
2411	-4.08430838597401E-03 
2412	-4.86591636597669E-03 
2413	-0.029713731676268 
2414	-0.064009733618883 
2415	-5.44099400707119E-02 
2416	-4.25760511553247E-02 
2417	 1.99313745417463E-03 
2418	 5.77015623419185E-02 
2419	 1.17443276889037E-02 
2420	 2.34838378735366E-03 
2421	 2.29557277999664E-02 
2422	 4.67774007088773E-02 
2423	 7.82735555303652E-02 
2424	 1.74978928928291E-02 
2425	-0.030363979027423 
2426	-0.056216040163382 
2427	-0.122361010396143 
2428	-0.104475372064059 
2429	-5.40210017099525E-02 
2430	-0.039882661771855 
2431	-0.01309875409634 
2432	 2.71001361675313E-02 
2433	 5.19049923952494E-02 
2434	 3.27135971121275E-02 
2435	 8.99642015988327E-02 
2436	 9.18320683886006E-02 
2437	 6.83849458478091E-03 
2438	 6.05698610267848E-03 
2439	 1.02200856964527E-03 
2440	-8.05022641181284E-03 
2441	-4.86862554273386E-02 
2442	-0.169528668168674 
2443	-0.24768156388226 
2444	-0.266274832273717 
2445	-0.301658912159965 
2446	-0.063655873091086 
2447	-9.95458556697149E-02 
2448	-9.23333373411236E-02 
2449	-1.37231059019985E-02 
2450	-5.88259160929416E-02 
2451	-4.82293750657554E-02 
2452	-0.185199400573692 
2453	-0.3144428492879 
2454	-0.13053810524877 
2455	-6.10070960822707E-02 
2456	-8.10953659629438E-02 
2457	-3.75879346961503E-02 
2458	-0.110293604079917 
2459	-0.182341570863918 
2460	-0.167545981558049 
2461	-0.116073491142871 
2462	-0.216051747470271 
2463	 0.174435029146525 
2464	 0.866740416342972 
2465	 0.414133185705097 
2466	 0.23727438048404 
2467	 0.053724539509971 
2468	-0.25928593155967 
2469	 0.14797322701404 
2470	 1.39316815605236 
2471	 1.05820008251179 
2472	 0.640991540208897 
2473	 5.52097247251032E-02 
2474	-0.930581202630226 
2475	-0.916071933365734 
2476	-0.579411642606982 
2477	-0.168148501181695 
2478	 0.211866383036966 
2479	 0.239070912170477 
2480	 6.38360866229867E-02 
2481	 0.039570776600556 
2482	-1.0730362340134 
2483	-2.3211313097223 
2484	 126.359707787425 
2485	-4.56462091380764 
2486	-0.56769235428828 
2487	 0.552845110607726 
2488	 1.01901089485451 
2489	-0.484689511356648 
2490	 3.40972405135894E-02 
2491	 1.16435102989534 
2492	 5.53300041723204 
2493	-2.96861047631383 
2494	-9.61998442460054 
2495	-50.8352132393985 
2496	-1.18600451280966 
2497	-4.74136813604563 
2498	 0.132210122729782 
2499	 0.940927096848599 
2500	 0.623099321534075 
