Wavelength	rt0718far200007.asd
350	 1.37995759711207E-02 
351	 1.39745485144889E-02 
352	 1.42689053843497E-02 
353	 1.44669647340191E-02 
354	 1.45307633095935E-02 
355	 1.45563304388038E-02 
356	 1.45775627458847E-02 
357	 1.45784173645884E-02 
358	 1.45702531929697E-02 
359	 1.47819153316373E-02 
360	 1.48124358850371E-02 
361	 1.47697862659272E-02 
362	 1.50176091981345E-02 
363	 1.46371835600289E-02 
364	 1.43962937657322E-02 
365	 1.47642165335969E-02 
366	 1.54923200572918E-02 
367	 1.53959656114616E-02 
368	 1.50808352143014E-02 
369	 1.52828110980941E-02 
370	 1.53408130918663E-02 
371	 1.54036218595463E-02 
372	 0.015435691759584 
373	 1.53442928729372E-02 
374	 1.54737365638416E-02 
375	 1.56603115532047E-02 
376	 1.58224315819894E-02 
377	 1.60639618346317E-02 
378	 1.59011719589412E-02 
379	 1.59383199546845E-02 
380	 1.65253284320046E-02 
381	 1.64568338140431E-02 
382	 1.62155323864838E-02 
383	 1.61400929729013E-02 
384	 0.016434783616685 
385	 1.68825539996999E-02 
386	 1.72587291951374E-02 
387	 1.73827946681837E-02 
388	 1.71526072334127E-02 
389	 1.70816039444022E-02 
390	 1.72679429642573E-02 
391	 0.017506892093281 
392	 1.70331623610853E-02 
393	 1.73160197869414E-02 
394	 1.79492779418697E-02 
395	 1.79985241852141E-02 
396	 1.77569789231459E-02 
397	 1.79197709687111E-02 
398	 0.01833791726646 
399	 1.82052115970992E-02 
400	 1.84172887734628E-02 
401	 1.85274528314475E-02 
402	 1.83153161087796E-02 
403	 1.85101133546325E-02 
404	 0.018756406141953 
405	 1.88684431092873E-02 
406	 1.88159194046359E-02 
407	 1.91068873467275E-02 
408	 1.92700646367616E-02 
409	 1.91970734861717E-02 
410	 0.019190592040675 
411	 1.94143707963549E-02 
412	 1.96252916067701E-02 
413	 1.96655212475342E-02 
414	 1.97461479617117E-02 
415	 1.99398619064881E-02 
416	 2.01421118096902E-02 
417	 0.02020510437675 
418	 2.02036900914909E-02 
419	 0.020420564413864 
420	 2.07919562559662E-02 
421	 2.08903172366223E-02 
422	 2.09080777374094E-02 
423	 2.10567813423684E-02 
424	 2.13698703323202E-02 
425	 2.13583146384172E-02 
426	 2.15299575467231E-02 
427	 2.18055871116952E-02 
428	 2.18925483864087E-02 
429	 0.022192340404744 
430	 2.24642374825373E-02 
431	 2.26312582390224E-02 
432	 2.28743910162215E-02 
433	 2.30692812181609E-02 
434	 2.32617479327619E-02 
435	 2.34989937055957E-02 
436	 2.37288710613978E-02 
437	 2.39216172145418E-02 
438	 2.41320699508369E-02 
439	 2.44312214667584E-02 
440	 2.46001713218898E-02 
441	 2.47981489345886E-02 
442	 0.025090725954193 
443	 2.53499577658227E-02 
444	 2.55504689169659E-02 
445	 2.57730995735509E-02 
446	 2.60619653943533E-02 
447	 2.61877189414527E-02 
448	 2.63544774838419E-02 
449	 2.65870895770807E-02 
450	 2.67751513492944E-02 
451	 2.69396149215132E-02 
452	 2.71233697907432E-02 
453	 2.73252639658796E-02 
454	 2.74416416951072E-02 
455	 2.75883003252239E-02 
456	 2.77435689569726E-02 
457	 2.78555089126089E-02 
458	 2.79986446731976E-02 
459	 2.80914028100566E-02 
460	 2.81754081146352E-02 
461	 2.84089808235651E-02 
462	 2.85768430002654E-02 
463	 2.87012762975698E-02 
464	 2.88145387309745E-02 
465	 2.88183743977588E-02 
466	 2.89323833938489E-02 
467	 2.91426401027532E-02 
468	 2.93180555584233E-02 
469	 2.94473208582114E-02 
470	 2.95181865554527E-02 
471	 2.96001744701128E-02 
472	 0.029864379413053 
473	 0.030074832074385 
474	 3.01815225673479E-02 
475	 3.02326707904488E-02 
476	 0.03041759663422 
477	 3.06270797002217E-02 
478	 3.08291143114395E-02 
479	 3.10410224836158E-02 
480	 3.11792112262418E-02 
481	 3.13108422932228E-02 
482	 3.14921748212038E-02 
483	 3.17169720816729E-02 
484	 3.19617559316105E-02 
485	 3.21706278953146E-02 
486	 3.23241122842411E-02 
487	 3.26534300890053E-02 
488	 3.28777672325793E-02 
489	 3.29970239385505E-02 
490	 3.32904499468967E-02 
491	 3.34915375352425E-02 
492	 3.36943997798786E-02 
493	 3.39855254343017E-02 
494	 3.42427319796214E-02 
495	 3.45305516640419E-02 
496	 0.034807473214831 
497	 3.50085381040086E-02 
498	 3.53335925252917E-02 
499	 3.56680781706652E-02 
500	 3.59529271274475E-02 
501	 3.62670590936221E-02 
502	 3.65098683529854E-02 
503	 3.67485708527443E-02 
504	 3.70661079805853E-02 
505	 3.74173183129056E-02 
506	 3.76796474262844E-02 
507	 3.79030869528645E-02 
508	 3.82560151844951E-02 
509	 3.84905826842762E-02 
510	 3.87300229270559E-02 
511	 3.90729632770312E-02 
512	 3.94302448595676E-02 
513	 0.039776178494813 
514	 4.01024629390259E-02 
515	 4.04223269128983E-02 
516	 4.08150810254052E-02 
517	 4.12407661237634E-02 
518	 4.16358718609589E-02 
519	 4.19291428157058E-02 
520	 0.042292175431193 
521	 4.27036601630565E-02 
522	 4.31091801058251E-02 
523	 4.35039145236026E-02 
524	 4.38931475113101E-02 
525	 4.42811793742494E-02 
526	 4.46752079030845E-02 
527	 4.51085112270021E-02 
528	 4.55190979374478E-02 
529	 4.58874284393004E-02 
530	 4.63047578226204E-02 
531	 0.046718828683337 
532	 4.71388571802738E-02 
533	 4.75751319566315E-02 
534	 4.79176003739392E-02 
535	 4.83215835089446E-02 
536	 4.87906681382632E-02 
537	 4.91412008000533E-02 
538	 4.95718071749226E-02 
539	 5.00539714295487E-02 
540	 5.05139494031457E-02 
541	 5.09213206218529E-02 
542	 5.13224229602423E-02 
543	 0.051733077361054 
544	 5.21444912679364E-02 
545	 5.24856567253115E-02 
546	 5.29043879857632E-02 
547	 5.34125550736352E-02 
548	 5.37011688108792E-02 
549	 5.40714265100827E-02 
550	 5.45066436442605E-02 
551	 0.05490186883605 
552	 5.53385096651004E-02 
553	 5.57075667403039E-02 
554	 5.60489601717205E-02 
555	 5.65712446897827E-02 
556	 5.69811437361063E-02 
557	 5.73266835104838E-02 
558	 5.77104355499822E-02 
559	 0.058142868263518 
560	 5.85473059568123E-02 
561	 5.88808403989291E-02 
562	 5.91422718923492E-02 
563	 5.94790453733582E-02 
564	 5.98042494463167E-02 
565	 6.00544905088512E-02 
566	 6.02700891303422E-02 
567	 6.05137413849879E-02 
568	 6.07774927730541E-02 
569	 6.10126074811511E-02 
570	 0.061130174648252 
571	 0.061261563030486 
572	 6.14554461521873E-02 
573	 6.16535498529536E-02 
574	 6.17055268152504E-02 
575	 6.17291051551393E-02 
576	 6.18287547078698E-02 
577	 6.18529781411863E-02 
578	 6.18135103018255E-02 
579	 6.17570224669205E-02 
580	 6.17303665440788E-02 
581	 6.15293485491357E-02 
582	 6.13218487953487E-02 
583	 0.061183097550263 
584	 6.09359391199095E-02 
585	 0.060680261035855 
586	 6.04062386084264E-02 
587	 6.00702665140193E-02 
588	 5.96721674451432E-02 
589	 5.93341599485834E-02 
590	 0.059006985641012 
591	 5.84529956362343E-02 
592	 5.81155495159071E-02 
593	 5.77098472653592E-02 
594	 5.70004990853465E-02 
595	 5.63456099968758E-02 
596	 5.55669811214665E-02 
597	 5.46935470924656E-02 
598	 5.38580812404112E-02 
599	 5.29228418875416E-02 
600	 5.20572245227528E-02 
601	 5.14033707791604E-02 
602	 5.09956050102249E-02 
603	 5.06705521258462E-02 
604	 5.04395563154104E-02 
605	 5.03412927769609E-02 
606	 5.02158067189887E-02 
607	 5.01542511770288E-02 
608	 5.01546191615923E-02 
609	 5.01098213941851E-02 
610	 5.00579370160402E-02 
611	 5.00232260645711E-02 
612	 5.00134399137004E-02 
613	 4.99970675717463E-02 
614	 4.99619423073462E-02 
615	 4.98906598683688E-02 
616	 4.97811383896248E-02 
617	 4.97575217503641E-02 
618	 4.97537598424839E-02 
619	 4.97082377558439E-02 
620	 4.95998812722428E-02 
621	 4.94776475389534E-02 
622	 4.94134213218761E-02 
623	 0.049431858036904 
624	 4.93109662176783E-02 
625	 4.91603498981575E-02 
626	 4.90820770025201E-02 
627	 4.91411983966085E-02 
628	 4.90635308990538E-02 
629	 4.89294250224717E-02 
630	 4.88537218241483E-02 
631	 4.88532976935178E-02 
632	 4.88254625111196E-02 
633	 4.87207014219913E-02 
634	 4.85484838348412E-02 
635	 4.85179692986497E-02 
636	 4.85235673080312E-02 
637	 4.84749404400368E-02 
638	 4.83484934010914E-02 
639	 4.82249604109405E-02 
640	 4.81307427460099E-02 
641	 4.80556643369053E-02 
642	 4.79192772895501E-02 
643	 4.77697580803759E-02 
644	 4.76359473994176E-02 
645	 4.75244563600912E-02 
646	 4.73469412184524E-02 
647	 4.72062024559416E-02 
648	 4.71374113655494E-02 
649	 0.04693605371879 
650	 4.67354241900777E-02 
651	 0.046466036629179 
652	 0.046042212885118 
653	 4.57437510630397E-02 
654	 4.53699163414222E-02 
655	 4.48080396952801E-02 
656	 4.41986590445171E-02 
657	 4.37486615147236E-02 
658	 4.33461598909686E-02 
659	 4.28924907291774E-02 
660	 4.26018147528005E-02 
661	 4.22862653405986E-02 
662	 4.19706988708563E-02 
663	 4.18009609945241E-02 
664	 4.16278070037142E-02 
665	 0.041481036139957 
666	 4.13709407206449E-02 
667	 4.12356266529519E-02 
668	 4.11219152380751E-02 
669	 0.040978662405388 
670	 0.040780736980649 
671	 4.07951477063482E-02 
672	 4.07302051142801E-02 
673	 4.05880834040923E-02 
674	 4.06481328418841E-02 
675	 4.06090509487071E-02 
676	 4.05259286310322E-02 
677	 0.040481128738366 
678	 0.04045009796001 
679	 4.04375622234181E-02 
680	 4.04414511918416E-02 
681	 4.04487789459113E-02 
682	 4.04070060411845E-02 
683	 4.02943895916188E-02 
684	 4.01732219907305E-02 
685	 0.040210419845271 
686	 4.00958514256014E-02 
687	 3.99430373281092E-02 
688	 3.98853254273708E-02 
689	 3.95705469296529E-02 
690	 3.92886333285613E-02 
691	 3.90292076316795E-02 
692	 3.86071257263749E-02 
693	 3.80799492408506E-02 
694	 3.76066742309273E-02 
695	 3.72237945204796E-02 
696	 3.67139350472421E-02 
697	 3.61264044655404E-02 
698	 3.54913234154769E-02 
699	 3.48517855131105E-02 
700	 3.41120003953297E-02 
701	 3.33744191047951E-02 
702	 3.26865028949898E-02 
703	 0.032011193891937 
704	 3.11910340650619E-02 
705	 3.02765380171773E-02 
706	 2.93632077470712E-02 
707	 2.85216009557342E-02 
708	 0.027588488016018 
709	 2.65989699748902E-02 
710	 2.56337862797454E-02 
711	 2.45821283759493E-02 
712	 2.35054357434368E-02 
713	 2.23997169123134E-02 
714	 2.11627842858808E-02 
715	 2.01110158306782E-02 
716	 0.019040841776772 
717	 1.78183224103385E-02 
718	 1.67926137950791E-02 
719	 1.58059757278974E-02 
720	 1.49114099824023E-02 
721	 1.40562877115661E-02 
722	 1.31802042768883E-02 
723	 1.23641179022222E-02 
724	 1.16789230446209E-02 
725	 1.08774040272011E-02 
726	 9.96807924126358E-03 
727	 9.17940636747174E-03 
728	 8.61468066996548E-03 
729	 7.80625313727382E-03 
730	 7.06697898876601E-03 
731	 6.56635005908001E-03 
732	 6.2846103301227E-03 
733	 5.82854151350783E-03 
734	 5.44682363753986E-03 
735	 5.21908249971633E-03 
736	 4.94279841641731E-03 
737	 4.85321308561732E-03 
738	 4.83360289799991E-03 
739	 4.7570214528434E-03 
740	 4.72912883029806E-03 
741	 4.7114608537297E-03 
742	 4.68345135824286E-03 
743	 4.64043570788527E-03 
744	 4.62751326169837E-03 
745	 4.59071890893345E-03 
746	 4.53792397434903E-03 
747	 4.57128050707622E-03 
748	 4.54065420229274E-03 
749	 4.46954821366818E-03 
750	 4.43253411885039E-03 
751	 4.5242487461928E-03 
752	 4.51860373873096E-03 
753	 4.43649454253055E-03 
754	 4.43089806557458E-03 
755	 4.4851020376571E-03 
756	 4.50379531193059E-03 
757	 4.46793828823201E-03 
758	 4.47981130305535E-03 
759	 4.44422527757749E-03 
760	 4.49087934854445E-03 
761	 4.71257644200697E-03 
762	 4.81399812688353E-03 
763	 4.59283474120018E-03 
764	 4.38593411003887E-03 
765	 4.50494280603078E-03 
766	 4.54554440512014E-03 
767	 4.53441802145261E-03 
768	 4.51669901158579E-03 
769	 4.53894821198916E-03 
770	 4.61215922673854E-03 
771	 4.6499540573078E-03 
772	 4.60126227253778E-03 
773	 4.54663289364643E-03 
774	 4.62117086780235E-03 
775	 4.69418520991683E-03 
776	 4.59171093602502E-03 
777	 4.66623644595538E-03 
778	 4.7244734571045E-03 
779	 4.71754913560012E-03 
780	 4.77654777989533E-03 
781	 4.88006992516976E-03 
782	 4.90027443058742E-03 
783	 4.83387117393959E-03 
784	 5.00895735712824E-03 
785	 5.10358540848231E-03 
786	 5.12467050623176E-03 
787	 5.17881804974965E-03 
788	 5.2289425281272E-03 
789	 5.30768977613091E-03 
790	 5.38354373248467E-03 
791	 5.39336717185799E-03 
792	 5.5203838613265E-03 
793	 5.69979914749726E-03 
794	 0.005808724976144 
795	 5.68129883541041E-03 
796	 5.84940206761476E-03 
797	 6.05377889591162E-03 
798	 5.99582207147244E-03 
799	 6.0319269230801E-03 
800	 6.07046085173116E-03 
801	 6.15183617043196E-03 
802	 6.34126983233125E-03 
803	 6.36561358412458E-03 
804	 6.3335880804492E-03 
805	 6.32571134351856E-03 
806	 6.34678146506231E-03 
807	 6.38120197852097E-03 
808	 6.41856572655074E-03 
809	 6.44322969492428E-03 
810	 6.4343123430719E-03 
811	 6.27159403865609E-03 
812	 6.09564928546428E-03 
813	 6.13043647149498E-03 
814	 6.31889055861625E-03 
815	 6.16606097760059E-03 
816	 5.80053223139294E-03 
817	 5.80060970914061E-03 
818	 5.72384132121347E-03 
819	 5.65839813249015E-03 
820	 5.57248103579264E-03 
821	 5.21508869749578E-03 
822	 5.01456201003695E-03 
823	 4.87220810586911E-03 
824	 4.65751980450806E-03 
825	 4.51790067561204E-03 
826	 4.3466559858212E-03 
827	 4.10022141718574E-03 
828	 3.79676572080636E-03 
829	 3.53669624979778E-03 
830	 3.48368605413115E-03 
831	 3.5306251115867E-03 
832	 3.40651030948179E-03 
833	 3.28591540512101E-03 
834	 3.14427348729271E-03 
835	 3.05339355774468E-03 
836	 3.22613519611808E-03 
837	 3.10519258574429E-03 
838	 2.97764212374171E-03 
839	 3.08640108589549E-03 
840	 3.07414164342863E-03 
841	 2.97315761374586E-03 
842	 2.93540785101195E-03 
843	 3.05942166970558E-03 
844	 2.94254380537964E-03 
845	 2.8398689070279E-03 
846	 2.9097183323698E-03 
847	 3.14724134802869E-03 
848	 2.93246112587123E-03 
849	 2.79456251090489E-03 
850	 2.91568252959716E-03 
851	 2.87577029460895E-03 
852	 2.84837275259253E-03 
853	 2.77413987505254E-03 
854	 2.68075428046887E-03 
855	 2.85944628167186E-03 
856	 2.94637494441482E-03 
857	 2.83269407673883E-03 
858	 2.6072187583708E-03 
859	 2.75903516592605E-03 
860	 2.80491190591021E-03 
861	 2.76450907970846E-03 
862	 2.84956333339272E-03 
863	 2.69859937681687E-03 
864	 2.55792510074074E-03 
865	 2.5967045034577E-03 
866	 2.81364610916098E-03 
867	 2.7493118927031E-03 
868	 2.56582405164008E-03 
869	 2.44643998654737E-03 
870	 2.4651532484324E-03 
871	 2.42605025560095E-03 
872	 2.5524602448042E-03 
873	 2.8518964569256E-03 
874	 2.6532342282846E-03 
875	 2.63448771708403E-03 
876	 2.62114399941888E-03 
877	 2.40249798212019E-03 
878	 2.64460388963521E-03 
879	 2.75240612525694E-03 
880	 2.63657773132289E-03 
881	 2.48883307081868E-03 
882	 2.4726948789718E-03 
883	 2.4653802742191E-03 
884	 2.4103501627915E-03 
885	 2.32755030311259E-03 
886	 2.29266054852505E-03 
887	 2.32364715842972E-03 
888	 2.39378537703432E-03 
889	 2.43028550177248E-03 
890	 2.24197706738043E-03 
891	 2.19829263403434E-03 
892	 2.40539974013703E-03 
893	 2.29747351299249E-03 
894	 2.28894812533332E-03 
895	 2.40623614850567E-03 
896	 2.45696258694377E-03 
897	 1.9076904539329E-03 
898	 2.3936549473252E-03 
899	 2.92582009758492E-03 
900	 2.35404017188171E-03 
901	 2.37403726293746E-03 
902	 2.34920617822816E-03 
903	 2.06368614608952E-03 
904	 1.63410439933461E-03 
905	 1.89803240115776E-03 
906	 2.35264238529832E-03 
907	 2.46575981660721E-03 
908	 1.91501661239775E-03 
909	 1.76770597612774E-03 
910	 1.76624795464888E-03 
911	 1.94783595907755E-03 
912	 2.57350674169901E-03 
913	 2.45722523956849E-03 
914	 2.30090880980034E-03 
915	 2.45489040185903E-03 
916	 2.55169028627358E-03 
917	 2.13865874495986E-03 
918	 1.8682969478822E-03 
919	 1.87686888940613E-03 
920	 1.45619426787254E-03 
921	 1.75377919762172E-03 
922	 2.36448777350371E-03 
923	 2.65987138465692E-03 
924	 2.19237100420647E-03 
925	 2.27215212344886E-03 
926	 2.54382154176864E-03 
927	 2.28035450841789E-03 
928	 1.41907542092302E-03 
929	 1.36716727801035E-03 
930	 1.41525677163757E-03 
931	 3.08543441598427E-04 
932	 2.13906138342195E-03 
933	 2.84945576491592E-03 
934	 1.3940219926054E-03 
935	-4.90452506473628E-04 
936	-1.40045031630676E-03 
937	 6.8867521599392E-04 
938	 2.68346956588934E-03 
939	 1.70007246410911E-03 
940	 9.69718973285866E-04 
941	 1.1209617743655E-03 
942	 1.75250784722165E-03 
943	 2.0488483156377E-03 
944	 2.36777552612259E-03 
945	 2.64097870408954E-03 
946	 1.6331669141989E-03 
947	-1.09301868804432E-03 
948	 1.61350998278811E-03 
949	 3.19195362444263E-03 
950	 1.79529873048232E-03 
951	-2.33511341283428E-05 
952	 3.91213272456135E-03 
953	 2.26246678051953E-03 
954	-1.61565310034665E-03 
955	 3.32095003843182E-03 
956	 2.49714581446184E-03 
957	 4.32827393360397E-04 
958	 3.44125538376328E-04 
959	 2.29742127787221E-03 
960	 1.2871547335099E-03 
961	-1.0115432917384E-04 
962	-6.48490146659994E-05 
963	 1.47274701901619E-03 
964	 2.09979908969538E-03 
965	 2.5325641687744E-03 
966	 2.69188982801129E-03 
967	 1.98875201871507E-03 
968	 2.17119851897348E-03 
969	 2.43824317158905E-03 
970	 2.38354606605228E-03 
971	 2.16478087350742E-03 
972	 1.62714596044821E-03 
973	 1.95174102433459E-03 
974	 2.74691384405898E-03 
975	 2.23560554505749E-03 
976	 1.4646841213809E-03 
977	 1.22170939203005E-03 
978	 1.41699975982596E-03 
979	 1.38295895630429E-03 
980	 2.15259108829776E-03 
981	 3.11107746930186E-03 
982	 3.00342378085296E-03 
983	 9.5178279784108E-04 
984	 1.11600885108137E-03 
985	 1.9941856077688E-03 
986	 2.60044705432914E-03 
987	 2.86083556251784E-03 
988	 2.31138761076028E-03 
989	 2.45532582954789E-03 
990	 3.06035347394962E-03 
991	 2.60748035025571E-03 
992	 1.2783808448725E-03 
993	 3.76128762721549E-04 
994	 7.06487316252329E-04 
995	 2.15876569832533E-03 
996	 2.67948478913972E-03 
997	 2.8171758155449E-03 
998	 2.69312243412769E-03 
999	 2.11796123536449E-03 
1000	 1.04454213836065E-03 
1001	 1.93880333273165E-03 
1002	 1.6471248091274E-03 
1003	 1.5199810659323E-03 
1004	 1.24482251399013E-03 
1005	 1.17561136424177E-03 
1006	 1.30323621231285E-03 
1007	 1.42181298598658E-03 
1008	 1.64302318127007E-03 
1009	 1.66018017983219E-03 
1010	 1.50758716681457E-03 
1011	 1.58456749970459E-03 
1012	 1.75345081097315E-03 
1013	 1.89048657743316E-03 
1014	 1.9279869880637E-03 
1015	 2.09036298015414E-03 
1016	 2.05873948269447E-03 
1017	 1.76723299170936E-03 
1018	 1.56819537414212E-03 
1019	 1.34969911944025E-03 
1020	 1.23333996832074E-03 
1021	 1.11089029587881E-03 
1022	 9.56499698431066E-04 
1023	 1.22979665408768E-03 
1024	 1.28753208584176E-03 
1025	 1.41662665262329E-03 
1026	 1.70085045960767E-03 
1027	 1.72277976422115E-03 
1028	 1.52338924153597E-03 
1029	 1.58461638551603E-03 
1030	 1.57678475105175E-03 
1031	 1.76917201920446E-03 
1032	 2.4823624710667E-03 
1033	 2.48958679462114E-03 
1034	 2.17619828387674E-03 
1035	 1.95771151475541E-03 
1036	 1.14976926597538E-03 
1037	 8.850997022904E-04 
1038	 9.71885121195637E-04 
1039	 1.07785566956395E-03 
1040	 1.4844911361628E-03 
1041	 1.69758932649846E-03 
1042	 1.8852220015612E-03 
1043	 2.14947013331416E-03 
1044	 2.14532204401429E-03 
1045	 1.85930703818745E-03 
1046	 1.88695730576798E-03 
1047	 2.00312545575263E-03 
1048	 1.92520497182522E-03 
1049	 1.83482967500415E-03 
1050	 1.82034786688724E-03 
1051	 1.65134691702716E-03 
1052	 1.56302186619007E-03 
1053	 1.71215862810271E-03 
1054	 1.74259343684681E-03 
1055	 1.67851476945321E-03 
1056	 1.57568035945171E-03 
1057	 1.45033676149987E-03 
1058	 1.24623133387673E-03 
1059	 1.31516719335614E-03 
1060	 1.5766661545644E-03 
1061	 1.48270260494865E-03 
1062	 1.40728402550182E-03 
1063	 1.31991738561574E-03 
1064	 6.22904556464794E-04 
1065	 7.03231382958524E-04 
1066	 1.60525900559687E-03 
1067	 1.85949206667574E-03 
1068	 2.25757222564608E-03 
1069	 2.34852591929772E-03 
1070	 1.70547538538037E-03 
1071	 1.48409998406198E-03 
1072	 1.39293276870045E-03 
1073	 1.32066067534777E-03 
1074	 1.36589528636791E-03 
1075	 1.68384826044156E-03 
1076	 1.64866312332037E-03 
1077	 1.47943468562486E-03 
1078	 1.44662706059118E-03 
1079	 1.16781035752528E-03 
1080	 1.28360893309802E-03 
1081	 1.92929991738528E-03 
1082	 2.04053248815445E-03 
1083	 2.03641467832705E-03 
1084	 2.05779039459701E-03 
1085	 1.68799160892206E-03 
1086	 1.57284452412119E-03 
1087	 1.77247028227633E-03 
1088	 1.78654104844496E-03 
1089	 1.70618912728349E-03 
1090	 1.61654235877192E-03 
1091	 1.69514168730084E-03 
1092	 1.7390270128615E-03 
1093	 1.98518754278663E-03 
1094	 2.79885411090557E-03 
1095	 2.73673511670216E-03 
1096	 2.12124873886766E-03 
1097	 1.96933759433275E-03 
1098	 1.50560321051995E-03 
1099	 1.21104747451951E-03 
1100	 1.32422109909599E-03 
1101	 1.45717290610731E-03 
1102	 1.43529300221925E-03 
1103	 1.45779564417194E-03 
1104	 1.94042010932271E-03 
1105	 2.08591001670432E-03 
1106	 1.79818794727984E-03 
1107	 1.83843697077615E-03 
1108	 1.72584464789305E-03 
1109	 1.47688298643341E-03 
1110	 1.54414636652672E-03 
1111	 2.03853309324511E-03 
1112	 1.82514417202683E-03 
1113	 1.19616298669205E-03 
1114	 1.16334278484264E-03 
1115	 3.26982220962694E-04 
1116	 5.18993801781861E-04 
1117	 3.68412294808904E-03 
1118	 4.57562847462431E-03 
1119	 3.55419311894519E-03 
1120	 3.55389664119879E-03 
1121	 1.94240302520255E-03 
1122	 1.39432676551206E-03 
1123	 2.12417591975658E-03 
1124	 2.86355678876193E-03 
1125	 4.47225302433373E-03 
1126	 4.10279667885531E-03 
1127	 2.04856252957821E-03 
1128	 1.19351777396472E-03 
1129	 9.31207135544183E-04 
1130	-4.97832926838446E-04 
1131	 1.06777325010299E-04 
1132	 3.68961927096849E-03 
1133	 3.74344054557498E-03 
1134	 2.20599755997112E-03 
1135	 1.71168874796547E-03 
1136	 1.85698761009489E-04 
1137	 4.44108859007758E-05 
1138	 1.06429925148679E-03 
1139	 2.0205914469717E-03 
1140	 2.20426797394219E-03 
1141	 1.64939646618634E-03 
1142	 1.40701303593105E-03 
1143	 1.41968885967693E-03 
1144	 1.45116634418756E-03 
1145	 1.62569676210123E-03 
1146	 1.13473962549649E-03 
1147	 9.53483262798825E-04 
1148	 1.73895278663243E-03 
1149	 2.28065492434686E-03 
1150	 2.24454889021069E-03 
1151	 1.99323988908249E-03 
1152	 1.92541065343001E-03 
1153	 1.31073202378101E-03 
1154	 1.13123576155383E-03 
1155	 1.18209600352008E-03 
1156	 1.79736393736553E-03 
1157	 1.76241503746961E-03 
1158	 1.66400342350581E-03 
1159	 1.77854190852548E-03 
1160	 1.61411017194766E-03 
1161	 1.43911737946828E-03 
1162	 1.57593720645095E-03 
1163	 1.99379550628343E-03 
1164	 2.13674713086655E-03 
1165	 2.04036417668294E-03 
1166	 1.87088055670381E-03 
1167	 1.52566534816055E-03 
1168	 1.55458746260149E-03 
1169	 1.84116836159595E-03 
1170	 1.86307832773518E-03 
1171	 1.87458438727554E-03 
1172	 1.85786446377047E-03 
1173	 1.77335608448509E-03 
1174	 1.48006313972813E-03 
1175	 1.50477751466184E-03 
1176	 1.65481380668215E-03 
1177	 1.76735379104595E-03 
1178	 1.88651965011388E-03 
1179	 1.84164605828484E-03 
1180	 1.67420487370788E-03 
1181	 1.39876446936118E-03 
1182	 1.20087819784545E-03 
1183	 1.27102932871702E-03 
1184	 1.30739806812824E-03 
1185	 1.35931870014846E-03 
1186	 1.36979342474166E-03 
1187	 1.26948778372126E-03 
1188	 1.31917948971906E-03 
1189	 1.48815620039693E-03 
1190	 1.63362308673273E-03 
1191	 1.56559819209665E-03 
1192	 1.50469962619681E-03 
1193	 1.35532190879962E-03 
1194	 1.33836387247496E-03 
1195	 1.39834935425506E-03 
1196	 1.54416105431938E-03 
1197	 1.72271773932143E-03 
1198	 1.56094106196502E-03 
1199	 1.21641266060537E-03 
1200	 1.23838715332956E-03 
1201	 1.42778142680678E-03 
1202	 1.5103888559998E-03 
1203	 1.56375551316901E-03 
1204	 1.4835429164409E-03 
1205	 1.36023876084005E-03 
1206	 1.28798999630786E-03 
1207	 1.21316080980263E-03 
1208	 1.28443074863674E-03 
1209	 1.43855968899034E-03 
1210	 1.48048631062417E-03 
1211	 1.48054478032361E-03 
1212	 1.44148242869374E-03 
1213	 1.24412678950765E-03 
1214	 1.21234257154355E-03 
1215	 1.27479972280549E-03 
1216	 1.55558688255644E-03 
1217	 1.57080669471953E-03 
1218	 1.57074160582542E-03 
1219	 1.74108774130851E-03 
1220	 1.6272227007959E-03 
1221	 1.3834207071672E-03 
1222	 1.37253014729484E-03 
1223	 1.27681542287614E-03 
1224	 1.14264524561017E-03 
1225	 0.001313618100506 
1226	 1.49456521240406E-03 
1227	 1.41206937289482E-03 
1228	 1.3021921647989E-03 
1229	 1.36025996604321E-03 
1230	 1.4295675123291E-03 
1231	 1.43983917036724E-03 
1232	 1.56466199334211E-03 
1233	 1.52669451928654E-03 
1234	 1.2078069686699E-03 
1235	 1.21828172711546E-03 
1236	 1.5876672588627E-03 
1237	 1.55021747906286E-03 
1238	 1.41601900351175E-03 
1239	 1.37845552820214E-03 
1240	 1.33515931868795E-03 
1241	 1.21347540556682E-03 
1242	 1.29389122806218E-03 
1243	 1.55708042632525E-03 
1244	 0.001586016252012 
1245	 1.27860835265971E-03 
1246	 1.26142631246224E-03 
1247	 1.47768854346514E-03 
1248	 1.4969779141779E-03 
1249	 1.58907595809566E-03 
1250	 1.74252881347047E-03 
1251	 1.68977419197977E-03 
1252	 1.64514725271879E-03 
1253	 1.69504961576872E-03 
1254	 1.55720808701343E-03 
1255	 1.45597597318067E-03 
1256	 1.46955371670322E-03 
1257	 1.63598348393361E-03 
1258	 1.59472017054698E-03 
1259	 1.46335856082404E-03 
1260	 1.50426544033397E-03 
1261	 1.63500378296545E-03 
1262	 1.5004551558822E-03 
1263	 1.23155156243246E-03 
1264	 1.32784696603635E-03 
1265	 1.36073999761167E-03 
1266	 1.0867977419981E-03 
1267	 1.06819122247308E-03 
1268	 1.25699636203477E-03 
1269	 1.38602727556505E-03 
1270	 1.36278940998115E-03 
1271	 1.24605151866863E-03 
1272	 1.34887892466539E-03 
1273	 1.31344511845385E-03 
1274	 1.14177157659536E-03 
1275	 1.3451303926566E-03 
1276	 1.43681386356573E-03 
1277	 0.001285921100187 
1278	 1.22096049655619E-03 
1279	 1.16327071495563E-03 
1280	 1.19837818027255E-03 
1281	 1.2915470575099E-03 
1282	 1.46480610445936E-03 
1283	 1.38753861589836E-03 
1284	 1.17593014328409E-03 
1285	 1.16913182220575E-03 
1286	 1.1032269214349E-03 
1287	 1.00040868458915E-03 
1288	 1.07348652277682E-03 
1289	 1.17002783391653E-03 
1290	 1.13337563137286E-03 
1291	 1.0600920492145E-03 
1292	 1.32496365154959E-03 
1293	 1.49556237213462E-03 
1294	 1.36145171368681E-03 
1295	 1.44425038291803E-03 
1296	 1.45754527737707E-03 
1297	 1.21987198937139E-03 
1298	 1.18096171230374E-03 
1299	 1.25839594779553E-03 
1300	 1.21403195037506E-03 
1301	 1.11706997292662E-03 
1302	 1.19565507345458E-03 
1303	 1.27510790495243E-03 
1304	 1.17149264235895E-03 
1305	 1.15300911982852E-03 
1306	 1.15311467435399E-03 
1307	 1.01854939956676E-03 
1308	 1.05001424216775E-03 
1309	 1.34314963589107E-03 
1310	 1.43386828251475E-03 
1311	 1.43271011015788E-03 
1312	 1.5590424374896E-03 
1313	 1.73117053967538E-03 
1314	 1.6239211365072E-03 
1315	 1.50274941386075E-03 
1316	 1.47197265942023E-03 
1317	 1.02971357795531E-03 
1318	 8.85220069465486E-04 
1319	 1.16283971363677E-03 
1320	 1.25918493677992E-03 
1321	 1.14322862262575E-03 
1322	 1.44368895647165E-03 
1323	 1.40673618682562E-03 
1324	 1.17607755693395E-03 
1325	 1.33357849492289E-03 
1326	 1.48468675130405E-03 
1327	 1.42410588484859E-03 
1328	 1.31997518100416E-03 
1329	 1.29114499028212E-03 
1330	 8.36304437048843E-04 
1331	 7.90234174588046E-04 
1332	 1.88669790750689E-03 
1333	 2.26314009502829E-03 
1334	 1.70549484402071E-03 
1335	 1.45361104253096E-03 
1336	 1.06543377869896E-03 
1337	 9.38803369931194E-04 
1338	 6.27575687918542E-04 
1339	 7.28371133499155E-04 
1340	 1.97157244442742E-03 
1341	 1.80076447108214E-03 
1342	-1.10345282028261E-05 
1343	 1.19750835885022E-04 
1344	 1.42796991666956E-03 
1345	 9.41146684989373E-04 
1346	 1.78377460683229E-04 
1347	 1.19688360713899E-03 
1348	 2.50690143037962E-03 
1349	 1.25761699192253E-03 
1350	-1.06101567911607E-03 
1351	 1.55532269732255E-03 
1352	 7.62768501724084E-03 
1353	 5.13139244720783E-03 
1354	 5.76186253617753E-03 
1355	 8.02265008973479E-03 
1356	-1.21100250070577E-02 
1357	-5.19985023042146E-02 
1358	-1.05773721079172E-02 
1359	 0.106634922057178 
1360	 0.145448469127453 
1361	 8.00235927076734E-02 
1362	-3.77519836714693E-02 
1363	-4.59945477756579E-02 
1364	 8.09428936073095E-02 
1365	 9.92134625068299E-02 
1366	 6.55812376297105E-02 
1367	 0.184049859935694 
1368	 0.207105996545002 
1369	 7.84587684302386E-02 
1370	 3.21613343522427E-02 
1371	 9.2704450867012E-03 
1372	-1.38568630354731E-02 
1373	-3.78886350508305E-02 
1374	-5.89789848262481E-02 
1375	-3.21784550869291E-02 
1376	 3.58794388860997E-02 
1377	 9.88791174818375E-03 
1378	 7.68098357041783E-02 
1379	 0.345189007425285 
1380	 0.385703252421878 
1381	 0.3540868397828 
1382	 0.417677141488581 
1383	 0.403059442462992 
1384	 0.300876519986733 
1385	 0.118584961025395 
1386	 4.28322556763247E-02 
1387	-0.154647842503707 
1388	-0.232696953659928 
1389	 0.141357956033555 
1390	 0.25642216213799 
1391	 0.201752780773993 
1392	 7.03788865189244E-02 
1393	-0.478023782110532 
1394	-0.566544262604625 
1395	 2.32520122131186E-02 
1396	 0.119286920338289 
1397	-4.29711967349967E-02 
1398	 9.42062196828628E-02 
1399	 0.265052885225586 
1400	-0.320137866828962 
1401	-0.562016467747576 
1402	-0.119351119940233 
1403	 3.81330455882536E-02 
1404	-0.1656768160074 
1405	-0.194884727324124 
1406	-0.146634029799173 
1407	-2.48131832230495E-02 
1408	 8.93030206107447E-02 
1409	 6.15060961767999E-02 
1410	 7.73944178455559E-02 
1411	 7.20207479312823E-02 
1412	-2.35932523734659E-02 
1413	-5.38717342760281E-02 
1414	-4.16595513310632E-02 
1415	-2.08415595181841E-02 
1416	-1.29219297182269E-02 
1417	-7.83242316215613E-03 
1418	 2.94600744305639E-02 
1419	 2.67862565717157E-02 
1420	-1.01262420923004E-02 
1421	-7.66327988348706E-03 
1422	 0.015333937856699 
1423	 1.02502818473714E-02 
1424	-6.00511667144439E-03 
1425	-4.53955748330965E-03 
1426	-2.82214511298662E-03 
1427	-4.71010716492633E-03 
1428	-8.28202171278336E-04 
1429	 3.34596566217578E-03 
1430	 3.43589352362041E-03 
1431	 3.06553455311068E-03 
1432	 8.35368637161508E-03 
1433	 1.09970135786302E-02 
1434	 7.8033390579246E-03 
1435	 5.96398685881272E-03 
1436	 6.17410577426935E-03 
1437	 5.85719399811557E-03 
1438	 5.85503969736352E-04 
1439	-9.14027891739193E-04 
1440	 2.69831117246061E-03 
1441	 4.20635331637162E-03 
1442	 2.47700166604378E-03 
1443	-2.31277673811019E-04 
1444	-1.77958917366298E-03 
1445	-1.7795020838574E-03 
1446	-2.23335829718347E-03 
1447	-1.24636089455878E-03 
1448	 2.10800462383288E-03 
1449	 2.41315122465326E-03 
1450	-5.0398803062889E-04 
1451	-7.41293311284648E-04 
1452	 4.628135574998E-04 
1453	 3.57036177860689E-04 
1454	-1.78622765070934E-04 
1455	 6.85188388623361E-04 
1456	 1.33761307248656E-03 
1457	 5.35845115355979E-04 
1458	 6.2965103030207E-05 
1459	 1.15873062551264E-03 
1460	 1.09616812167523E-03 
1461	-9.70829626109813E-04 
1462	-1.16001976152932E-03 
1463	 2.11461020811657E-04 
1464	 3.96256442728115E-04 
1465	 3.62133641175465E-04 
1466	 2.25972610975122E-04 
1467	-7.47105055345826E-04 
1468	-8.39877495995116E-04 
1469	-2.89044217109865E-04 
1470	 2.69224323670403E-05 
1471	 8.0954493131266E-04 
1472	 8.69728638305625E-04 
1473	 6.99097272356468E-04 
1474	 3.71107052139292E-04 
1475	-1.17168391219394E-03 
1476	-8.78872265646211E-04 
1477	 3.91142300361764E-04 
1478	 8.45064562097822E-04 
1479	 2.19611781439431E-03 
1480	 2.64507010671031E-03 
1481	 2.35324650872116E-03 
1482	 1.83666152645079E-03 
1483	 2.64755622461907E-04 
1484	 4.09609863801382E-04 
1485	 1.89332535393737E-03 
1486	 1.64316847065713E-03 
1487	 8.82597066699649E-04 
1488	 1.1721231219882E-03 
1489	 1.13044121544281E-03 
1490	 8.71989142025411E-04 
1491	 1.48544593829064E-03 
1492	 1.71485055788402E-03 
1493	 1.02100397320949E-03 
1494	 8.8019633427344E-04 
1495	 1.28667911848206E-03 
1496	 1.40974825470803E-03 
1497	 1.56836587286738E-03 
1498	 1.50883918093242E-03 
1499	 1.16413025960769E-03 
1500	 1.06528712195955E-03 
1501	 9.06381455502395E-04 
1502	 8.12773095543349E-04 
1503	 9.9364388491327E-04 
1504	 1.07084732490179E-03 
1505	 1.13257485706107E-03 
1506	 9.68350977801868E-04 
1507	 8.70156033450464E-04 
1508	 1.04195568099832E-03 
1509	 1.11588617185925E-03 
1510	 1.00194808052917E-03 
1511	 1.06249690129549E-03 
1512	 1.27116967710311E-03 
1513	 1.31135489479339E-03 
1514	 1.27772529752899E-03 
1515	 1.2572152341704E-03 
1516	 1.11285091923262E-03 
1517	 1.00203227554761E-03 
1518	 9.96819338021319E-04 
1519	 9.97358384859326E-04 
1520	 1.09384037071324E-03 
1521	 1.25630422541048E-03 
1522	 1.35623085538411E-03 
1523	 1.2909736368714E-03 
1524	 1.11739669216163E-03 
1525	 1.0691178408501E-03 
1526	 1.08688495778621E-03 
1527	 1.15570825445323E-03 
1528	 1.3219292283443E-03 
1529	 1.28560736271668E-03 
1530	 1.03014934979832E-03 
1531	 9.75420884211718E-04 
1532	 1.04562493465552E-03 
1533	 9.36978091978013E-04 
1534	 9.82916022816238E-04 
1535	 1.19506835032842E-03 
1536	 1.14415018855449E-03 
1537	 1.02590837383034E-03 
1538	 1.12052107664762E-03 
1539	 1.24333935011717E-03 
1540	 1.30281862833573E-03 
1541	 1.3082570197211E-03 
1542	 1.26948988429921E-03 
1543	 1.25934491973312E-03 
1544	 1.20698043829641E-03 
1545	 1.17165680025664E-03 
1546	 1.18969034935019E-03 
1547	 1.07809020540657E-03 
1548	 8.60074510661384E-04 
1549	 8.08412649060659E-04 
1550	 9.65576901541109E-04 
1551	 1.13791020604947E-03 
1552	 1.17950178794351E-03 
1553	 1.11681325507513E-03 
1554	 1.1879942376545E-03 
1555	 1.2630597951447E-03 
1556	 1.22074939731979E-03 
1557	 1.26105266353454E-03 
1558	 1.17068486238912E-03 
1559	 9.69409362544598E-04 
1560	 1.05585328458608E-03 
1561	 1.14557293746271E-03 
1562	 9.54441275812137E-04 
1563	 7.91349703527073E-04 
1564	 7.61427800551106E-04 
1565	 7.94401553555044E-04 
1566	 9.6385061477161E-04 
1567	 1.15751814905531E-03 
1568	 1.03175368508447E-03 
1569	 7.59537540123488E-04 
1570	 8.47435885846917E-04 
1571	 9.8607120968389E-04 
1572	 9.56249654691667E-04 
1573	 1.17266498640965E-03 
1574	 1.21140518783057E-03 
1575	 8.90501700413079E-04 
1576	 9.41834543346147E-04 
1577	 1.17739368469138E-03 
1578	 1.11630310039272E-03 
1579	 1.12809451441008E-03 
1580	 1.18274610415726E-03 
1581	 9.58880192910855E-04 
1582	 8.21450887791901E-04 
1583	 9.76422178212712E-04 
1584	 1.17654928404481E-03 
1585	 1.05102744593701E-03 
1586	 8.79630858582416E-04 
1587	 1.04938460125483E-03 
1588	 1.00108996093927E-03 
1589	 9.27809530393061E-04 
1590	 1.17123444965688E-03 
1591	 1.0819133052203E-03 
1592	 8.94723813695622E-04 
1593	 1.1356996725046E-03 
1594	 1.22945944960294E-03 
1595	 9.96744350724942E-04 
1596	 8.964264708672E-04 
1597	 8.95541358925886E-04 
1598	 9.33338902054165E-04 
1599	 1.03392106982033E-03 
1600	 1.14797449972486E-03 
1601	 1.21592932574511E-03 
1602	 1.14517202271399E-03 
1603	 1.03690422749196E-03 
1604	 1.07394139672321E-03 
1605	 1.3152925324068E-03 
1606	 1.38123770674188E-03 
1607	 1.23016497570515E-03 
1608	 1.18599772964343E-03 
1609	 9.53612708106786E-04 
1610	 7.13066868089454E-04 
1611	 8.53333632731045E-04 
1612	 1.04946217263805E-03 
1613	 1.23350442606226E-03 
1614	 1.46454149317462E-03 
1615	 1.49139457770893E-03 
1616	 1.24244332576205E-03 
1617	 9.31288225550883E-04 
1618	 9.1832089093698E-04 
1619	 1.2705243570315E-03 
1620	 1.4179503925062E-03 
1621	 1.18822274970476E-03 
1622	 9.5816760570357E-04 
1623	 7.14654147312754E-04 
1624	 7.29760480853601E-04 
1625	 1.14650976156005E-03 
1626	 1.21573676637187E-03 
1627	 9.99804141017768E-04 
1628	 9.82936595225413E-04 
1629	 1.03057755712314E-03 
1630	 1.03385307787807E-03 
1631	 9.13684727227865E-04 
1632	 8.58700219019988E-04 
1633	 9.52140186487673E-04 
1634	 1.0932033780359E-03 
1635	 1.37289568925279E-03 
1636	 1.42895222390233E-03 
1637	 1.1916938749635E-03 
1638	 1.14793662109299E-03 
1639	 1.16725838657587E-03 
1640	 1.04837478841357E-03 
1641	 1.01052533406101E-03 
1642	 9.03254740259873E-04 
1643	 6.06188887924764E-04 
1644	 7.99808049897984E-04 
1645	 1.2640702243067E-03 
1646	 9.97344724991025E-04 
1647	 6.1569876014059E-04 
1648	 7.68067107519396E-04 
1649	 7.12749809272461E-04 
1650	 7.15286714119756E-04 
1651	 1.4061052568984E-03 
1652	 1.50718928034633E-03 
1653	 6.90594895665465E-04 
1654	 7.93971143602197E-04 
1655	 1.16444456978295E-03 
1656	 1.06507444909309E-03 
1657	 1.25206825970316E-03 
1658	 1.46275904917691E-03 
1659	 1.21489827010878E-03 
1660	 1.0212567718951E-03 
1661	 1.12768715471414E-03 
1662	 1.22898137970485E-03 
1663	 1.11826339683026E-03 
1664	 1.07769263800125E-03 
1665	 1.26279144049447E-03 
1666	 1.34559016315055E-03 
1667	 1.25655216469002E-03 
1668	 1.34140408156438E-03 
1669	 1.23021238191063E-03 
1670	 9.14476569890515E-04 
1671	 9.05327721081816E-04 
1672	 8.46332992535205E-04 
1673	 8.06867913081981E-04 
1674	 1.21949270947735E-03 
1675	 1.27793802230365E-03 
1676	 9.67549564966801E-04 
1677	 1.10373416147899E-03 
1678	 1.05056919005825E-03 
1679	 8.11228612818253E-04 
1680	 1.21738158923161E-03 
1681	 1.28484852981064E-03 
1682	 7.73322062638922E-04 
1683	 8.28822132048845E-04 
1684	 9.58305491897146E-04 
1685	 1.01380066507724E-03 
1686	 1.44975901537687E-03 
1687	 1.30889860238309E-03 
1688	 8.87182568936455E-04 
1689	 9.79658998172861E-04 
1690	 1.02400081751361E-03 
1691	 1.09811382108394E-03 
1692	 1.31483248650051E-03 
1693	 1.20935199900703E-03 
1694	 8.76662651387386E-04 
1695	 7.60707852393473E-04 
1696	 9.06441917552351E-04 
1697	 9.55372520005904E-04 
1698	 1.04369226773571E-03 
1699	 1.29958865998139E-03 
1700	 1.33227110405806E-03 
1701	 1.1334126245987E-03 
1702	 9.91136307317104E-04 
1703	 1.01840630224612E-03 
1704	 7.42777505700857E-04 
1705	 5.49231416206196E-04 
1706	 1.0613690465946E-03 
1707	 1.29864539660569E-03 
1708	 1.08283191239775E-03 
1709	 9.09731359567929E-04 
1710	 6.56287860000232E-04 
1711	 7.73528474676466E-04 
1712	 1.2333381521261E-03 
1713	 1.2102105298821E-03 
1714	 1.23098428695306E-03 
1715	 8.13964210128145E-04 
1716	 7.86992691062971E-04 
1717	 9.74225314504178E-04 
1718	 8.81929846591255E-04 
1719	 5.4965691724106E-04 
1720	 7.86852845162818E-04 
1721	 1.22025907920353E-03 
1722	 1.35447153577447E-03 
1723	 1.44263723721971E-03 
1724	 1.12682802714851E-03 
1725	 5.0066258423161E-04 
1726	 5.63755344645412E-04 
1727	 5.24020611539337E-04 
1728	-2.90109461298749E-05 
1729	 4.28975816448105E-04 
1730	 8.357138030999E-04 
1731	 5.22779256743793E-04 
1732	 1.04853233686142E-03 
1733	 1.4801492977335E-03 
1734	 1.11225582761506E-03 
1735	 1.1061280394192E-03 
1736	 1.29485233997707E-03 
1737	 1.18678487137681E-03 
1738	 1.11165841228285E-03 
1739	 1.16145929823571E-03 
1740	 9.40672911697766E-04 
1741	 4.4169831313679E-04 
1742	 5.28634769914901E-04 
1743	 9.57444652213226E-04 
1744	 1.06291517162688E-03 
1745	 1.2142047624402E-03 
1746	 5.0458584048802E-04 
1747	 3.30927345138272E-04 
1748	 8.275121648804E-04 
1749	 1.08431817289762E-03 
1750	 1.54536174280245E-03 
1751	 1.49832764149426E-03 
1752	 7.25968041277188E-04 
1753	 7.70244440537785E-04 
1754	 1.15935464593356E-03 
1755	 1.21704563757245E-03 
1756	 1.76699344125628E-03 
1757	 1.38818911811003E-03 
1758	 5.92873563122732E-04 
1759	 2.0029157470359E-04 
1760	 7.87013913467131E-04 
1761	 1.18541186928683E-03 
1762	 1.15194650175465E-03 
1763	 1.31359192815076E-03 
1764	 1.14069371128202E-03 
1765	 1.4120464186551E-03 
1766	 2.44882297658603E-03 
1767	 2.50153992611875E-03 
1768	 1.63051593519908E-03 
1769	 8.85680856778144E-04 
1770	 8.40420994823121E-05 
1771	 3.93017304921003E-04 
1772	 1.68781713504319E-03 
1773	 2.00111885247526E-03 
1774	 1.58602749004275E-03 
1775	 6.33304755430632E-04 
1776	 3.28314068320765E-04 
1777	 7.90992833249946E-04 
1778	 7.45378371346783E-04 
1779	 3.52929484679619E-04 
1780	 4.91255615775202E-04 
1781	 7.93856602929926E-04 
1782	 9.12381265081989E-04 
1783	 2.06823339147511E-03 
1784	 1.96551251034016E-03 
1785	 1.31194208506098E-04 
1786	-5.24503754445776E-04 
1787	-1.95243168649461E-03 
1788	-1.27655193506617E-03 
1789	 2.38623700615924E-03 
1790	 2.49075838276918E-03 
1791	 3.98997241319102E-03 
1792	 2.69324987246816E-03 
1793	-1.06910318799636E-03 
1794	-1.96818380110646E-03 
1795	-4.09147952166951E-03 
1796	-1.44557262668751E-03 
1797	 1.74418172129274E-03 
1798	 7.50935286575256E-04 
1799	 8.06088695688005E-03 
1800	 3.32985016539202E-03 
1801	 7.26458082230637E-04 
1802	-1.80304007273354E-03 
1803	-1.46705620983799E-03 
1804	 1.03266798960911E-02 
1805	 1.47552950664422E-02 
1806	 0.018911066870486 
1807	 2.20072913600615E-02 
1808	-1.98998281599077E-03 
1809	-1.89278163139876E-02 
1810	-3.01192254852171E-02 
1811	-2.19407841926428E-02 
1812	 2.81880641723535E-02 
1813	 3.19138659226295E-02 
1814	 5.70218976593205E-02 
1815	 0.041152241667393 
1816	-0.165781220941289 
1817	-0.141950040717233 
1818	-8.84043245932031E-02 
1819	-8.30629386329657E-02 
1820	 0.134503357944725 
1821	 0.149125826885346 
1822	 0.193637923740347 
1823	-4.02075690431458E-02 
1824	-0.109842903387643 
1825	-4.50866313460397E-02 
1826	 8.88294053140105E-03 
1827	 0.179865522220459 
1828	 0.218478151521372 
1829	 0.155986634562938 
1830	 0.208546258303293 
1831	 3.22021478652256 
1832	 2.90461713938613 
1833	 0.494061168835243 
1834	 0.205098451673848 
1835	 0.03932441190943 
1836	-0.189727290035509 
1837	-0.156012970843481 
1838	-0.103642923087029 
1839	 0.131874299401377 
1840	-7.96743260350397E-02 
1841	-0.267557181756556 
1842	-0.131106055125148 
1843	-0.320284330927738 
1844	 7.06259397477771 
1845	 3.91194435400678 
1846	-1.42204037866911 
1847	-0.585968786548889 
1848	-0.238806672412368 
1849	 0.206343070993633 
1850	 1.69640170038008 
1851	-0.981461181829057 
1852	-0.875135954022024 
1853	-0.455640936747585 
1854	-0.322289231940324 
1855	 0.270144383489069 
1856	 0.346417899728714 
1857	-2.24465390648089 
1858	 4.47967190622402 
1859	 1.08921437290391 
1860	 0.828548417666767 
1861	 0.250400540995627 
1862	-0.462170087743382 
1863	-1.73378282586086 
1864	-0.859917562228836 
1865	-1.45786477235685 
1866	-0.363468908187335 
1867	-0.37151458322387 
1868	-7.33732560218676E-02 
1869	-0.239508313753714 
1870	-0.75349413244356 
1871	-2.39448942534461 
1872	-4.77402903445268 
1873	 19.777110793473 
1874	-3.84808127209724 
1875	-0.423139566347687 
1876	 0.227023830530773 
1877	-0.478991929277652 
1878	-2.27167869575455E-02 
1879	 2.29447121235907 
1880	 3.33132921548417 
1881	 0.884639957285549 
1882	 0.457175131950667 
1883	 1.96431787705474 
1884	-16.4769643096802 
1885	-2.50410511322264 
1886	 7.36827898419178 
1887	-1.16288047393123 
1888	-0.314759177487043 
1889	-9.85195510508715E-02 
1890	 0.580668569598874 
1891	 0.778354828801544 
1892	 0.515227108517246 
1893	 1.82491664607586 
1894	 1.15548594348326 
1895	-0.151474740953659 
1896	-0.407576050596767 
1897	-0.52297832422385 
1898	-0.688210438447397 
1899	-1.34877496243824 
1900	-1.85872827874734 
1901	-2.00579725476587 
1902	-5.54850881782603 
1903	-3.31242338339276 
1904	-1.58158940478329 
1905	-1.94434007104926 
1906	 15.5498695076158 
1907	-6.87554018969174 
1908	-3.32826180813652 
1909	-0.404905871298679 
1910	 0.90645606832321 
1911	 4.74851572964627 
1912	 6.19838886408061 
1913	 3.22774532406155 
1914	 1.39006779379408 
1915	 0.805497229591462 
1916	 1.24612087121374E-02 
1917	-9.56320681412062E-02 
1918	 0.259199530027533 
1919	 0.925261106053623 
1920	-2.94255470037971 
1921	-0.628583362517876 
1922	-8.51112833447616E-02 
1923	 3.72460184560144 
1924	 8.78701117545931 
1925	-6.1304311865843 
1926	-5.07360096001098 
1927	-1.10565767678275 
1928	-0.244268876097983 
1929	 0.258083392062707 
1930	 0.386000815559897 
1931	-0.203988563716951 
1932	-0.191392231360421 
1933	-7.48679454436417E-02 
1934	-0.112975660457859 
1935	-0.161936168694261 
1936	-0.196244329012693 
1937	-0.200587296578526 
1938	-0.190546351690085 
1939	-0.178585637385355 
1940	-0.171409335644266 
1941	-9.49073040181346E-02 
1942	-4.87243458578225E-02 
1943	-5.83279578574011E-02 
1944	-0.033802724303574 
1945	-1.68292835042763E-02 
1946	-3.76725564000541E-02 
1947	-3.50326175553597E-02 
1948	 4.58382221461299E-03 
1949	 1.27454401782462E-02 
1950	 2.85972992896436E-03 
1951	 0.00880365476259 
1952	 1.22634738389712E-02 
1953	 6.51836934682324E-03 
1954	-1.27955784716256E-03 
1955	 8.98290277024349E-03 
1956	 1.88886971710566E-02 
1957	 6.85632907246748E-03 
1958	-5.94985920019619E-03 
1959	-7.78814651145138E-03 
1960	-5.00807851108851E-03 
1961	 1.16761016040893E-03 
1962	 7.48156802617646E-03 
1963	 7.15155985776837E-03 
1964	 9.133966115208E-04 
1965	-3.95985380595389E-03 
1966	-4.62132613187831E-03 
1967	-4.0163119544006E-03 
1968	-1.6004640779892E-03 
1969	 4.35782908074647E-04 
1970	 1.79584786773499E-03 
1971	 2.38575854360505E-03 
1972	 1.83082773185134E-03 
1973	 8.15872751060575E-04 
1974	 9.99635866368711E-04 
1975	 1.44351956832978E-03 
1976	 7.60059333779325E-04 
1977	 1.64810644782606E-03 
1978	 3.07281225931008E-03 
1979	 3.14914718029316E-03 
1980	 2.31722433605643E-03 
1981	 2.12706803547112E-03 
1982	 1.95196681825969E-03 
1983	 9.68847543813224E-04 
1984	 8.96756890301239E-04 
1985	 8.55347788642901E-04 
1986	-3.03458401616068E-04 
1987	-5.20227554798513E-04 
1988	-3.7726537522707E-05 
1989	 2.54208348189213E-05 
1990	-1.01726902734933E-04 
1991	-1.27582319835344E-04 
1992	 3.74266857534131E-05 
1993	-1.28882232524106E-04 
1994	-1.59970332328849E-04 
1995	 8.16009615765374E-04 
1996	 1.2089753557825E-03 
1997	-3.50479132809922E-04 
1998	-1.76755369044178E-03 
1999	-2.21487698591802E-03 
2000	-1.78128087400031E-03 
2001	-8.01618218911049E-04 
2002	-4.22394552416611E-04 
2003	-2.6074569530284E-03 
2004	-3.97734251504942E-03 
2005	-1.5588813975695E-03 
2006	-1.76220919084511E-04 
2007	 1.92971528474624E-04 
2008	 6.20815793467317E-04 
2009	 1.19892165560827E-03 
2010	-5.24969302008161E-04 
2011	-3.484018607817E-04 
2012	 2.74198916492464E-03 
2013	 2.22998190308564E-03 
2014	 1.20804178222712E-03 
2015	 4.77565606526926E-04 
2016	-1.57455710063634E-03 
2017	-1.72829547261423E-03 
2018	-2.21524505425146E-03 
2019	-3.1753315874633E-03 
2020	 6.10443106765842E-04 
2021	 2.77936760376676E-03 
2022	 2.28680141557561E-03 
2023	 3.00842550521483E-03 
2024	 3.08983151355018E-03 
2025	 1.36109892917515E-03 
2026	 7.88677549454512E-04 
2027	 1.16075966655892E-03 
2028	 1.11145781512959E-03 
2029	 6.96694479042617E-04 
2030	 5.24345625705994E-04 
2031	 1.32350867951526E-04 
2032	-5.9995251627949E-04 
2033	-1.0872287638753E-03 
2034	-1.4160387391884E-03 
2035	-1.05028539674642E-03 
2036	 9.79833496805077E-05 
2037	-2.91009853448952E-04 
2038	-1.60105336342989E-03 
2039	-1.53524916979929E-03 
2040	-9.00069730253722E-04 
2041	-9.8816693334489E-04 
2042	-1.40681894297242E-04 
2043	 7.48342868987318E-05 
2044	-8.37492891586875E-04 
2045	-1.66381251312853E-03 
2046	-6.5600204903671E-04 
2047	 2.41523092361431E-04 
2048	-8.83142089995478E-05 
2049	-9.84056398644216E-05 
2050	 1.1013381393204E-04 
2051	-2.96522412990059E-04 
2052	 8.73060587028719E-04 
2053	 1.86863681065446E-03 
2054	 1.0962076969154E-03 
2055	 1.2264320328603E-03 
2056	 9.59919419127575E-04 
2057	 1.09439085225108E-06 
2058	-2.30688216477011E-04 
2059	-1.27269899198067E-04 
2060	-2.7549421644928E-04 
2061	-6.77621024367574E-04 
2062	 9.00759728807821E-04 
2063	 1.2515779183213E-03 
2064	 4.60983073952096E-04 
2065	 1.58649366836506E-04 
2066	-2.7615993081245E-04 
2067	-8.63076664857907E-04 
2068	-3.78249436279076E-04 
2069	 1.71228743620413E-03 
2070	 2.13667408407557E-03 
2071	 1.51330637208487E-03 
2072	 2.00518338012741E-03 
2073	 1.96415645690391E-03 
2074	 8.8529140174661E-04 
2075	 7.59453458185324E-04 
2076	 1.2794952853173E-03 
2077	 9.86427062285323E-04 
2078	 3.87572490100782E-04 
2079	-4.47246796579081E-05 
2080	-9.78204512222515E-04 
2081	-6.82455133565414E-04 
2082	-4.70616073453304E-04 
2083	-2.69224498921306E-04 
2084	 8.0548041471479E-04 
2085	 1.66698115903765E-03 
2086	 1.9488312718665E-03 
2087	 1.84829750505813E-03 
2088	 2.24859896179936E-03 
2089	 2.31023316034775E-03 
2090	 1.26671187685647E-03 
2091	 1.27928192643288E-03 
2092	 1.17372204134989E-03 
2093	 9.57650181801129E-05 
2094	-1.9578595717208E-04 
2095	 7.73862931512087E-04 
2096	 9.26817496849476E-04 
2097	 6.7246317488158E-04 
2098	 6.66181874024528E-04 
2099	 8.1157379202909E-04 
2100	 6.43044384869369E-04 
2101	 3.61692807964043E-04 
2102	-1.20465211197358E-05 
2103	-2.72828279640379E-05 
2104	-1.51211312373392E-04 
2105	-2.52365569927119E-04 
2106	 3.61065468871315E-04 
2107	 8.21630597529267E-04 
2108	 9.04513428599286E-04 
2109	 1.52987133208603E-03 
2110	 1.80064162028189E-03 
2111	 1.8367361869602E-03 
2112	 2.19618842462536E-03 
2113	 2.08047220695821E-03 
2114	 1.34548956070108E-03 
2115	 1.15723330376692E-03 
2116	 9.38799194905421E-04 
2117	 9.24484041163866E-04 
2118	 1.26110120178622E-03 
2119	 1.35558260085588E-03 
2120	 1.58913257315172E-03 
2121	 1.38842382208165E-03 
2122	 1.12033914230233E-03 
2123	 1.91412403029169E-03 
2124	 2.0059175832995E-03 
2125	 2.19580914137871E-03 
2126	 2.89298476407052E-03 
2127	 2.89043625029894E-03 
2128	 0.002574632585817 
2129	 0.002427445095281 
2130	 2.3704177320316E-03 
2131	 1.98899551488962E-03 
2132	 2.16998672548103E-03 
2133	 1.99674937244816E-03 
2134	 1.46579286125554E-03 
2135	 1.27888917564067E-05 
2136	-2.45048988206964E-04 
2137	 3.01344842208741E-05 
2138	-4.32197445805311E-05 
2139	 3.13805875888454E-04 
2140	 4.9505265069337E-04 
2141	 7.66662489432386E-05 
2142	-6.37209151079481E-05 
2143	 1.13106620432912E-04 
2144	 3.87907885660316E-04 
2145	 6.68067107127507E-04 
2146	 9.72020623234776E-04 
2147	 1.30790735739851E-03 
2148	 1.44394087386243E-03 
2149	 8.75738232532654E-04 
2150	 6.08534313350857E-04 
2151	 4.50323363815833E-04 
2152	 4.20819337523678E-04 
2153	 1.4046298316927E-03 
2154	 1.65672720242436E-03 
2155	 9.78099682371859E-04 
2156	 4.17693189410478E-04 
2157	-1.21756941744922E-04 
2158	-1.84812194957312E-03 
2159	-2.18066253115591E-03 
2160	-1.34345735716182E-03 
2161	-9.45496718049482E-04 
2162	-6.01517665205096E-04 
2163	 1.87785495298625E-04 
2164	 2.09537361774872E-03 
2165	 2.29218640393068E-03 
2166	 1.62383805422312E-03 
2167	 1.51143292076773E-03 
2168	-5.86780306747297E-05 
2169	-3.62210451029772E-04 
2170	 1.04263310360781E-03 
2171	 1.40479819146919E-03 
2172	-1.52967500482802E-05 
2173	 1.68301512097996E-04 
2174	-8.10219364022433E-04 
2175	-2.06846118552989E-03 
2176	-5.46259151353951E-04 
2177	 1.07665573974833E-04 
2178	 3.25845013984811E-04 
2179	 1.25533361352135E-03 
2180	 4.17921939945498E-04 
2181	-5.79899821028304E-05 
2182	 9.07944818810483E-04 
2183	 1.41962516993688E-03 
2184	 9.43923118493937E-04 
2185	 2.08899871696544E-06 
2186	-7.47599838743381E-04 
2187	-3.37153727633842E-03 
2188	-3.68464080553166E-03 
2189	-1.62064898936522E-03 
2190	-1.22287927173902E-03 
2191	-1.00669724598754E-03 
2192	-6.47257292156397E-04 
2193	-7.49702067478743E-04 
2194	-9.1708993593917E-04 
2195	-5.27747239129168E-04 
2196	-1.05150651570702E-03 
2197	-3.20740433356488E-03 
2198	-3.68375104585973E-03 
2199	-3.5779962816513E-03 
2200	-3.5083166662467E-03 
2201	-2.70918763111336E-03 
2202	-2.04413498750357E-03 
2203	-1.72687957656146E-03 
2204	-1.37822207040295E-03 
2205	-9.67281406843934E-04 
2206	-9.1783408020094E-04 
2207	-2.22290833607627E-03 
2208	-2.67601858287221E-03 
2209	-2.02962635049766E-03 
2210	-1.21682707195333E-03 
2211	 1.492699320486E-04 
2212	 1.01761584694563E-03 
2213	 2.16616500976319E-03 
2214	 2.7153076115592E-03 
2215	 1.55081751427505E-03 
2216	 4.24650672263184E-04 
2217	-2.41613018083076E-04 
2218	-1.69898771499559E-03 
2219	-2.50500126264584E-03 
2220	-2.18540288614392E-03 
2221	-2.2307772805491E-03 
2222	-2.68721242106957E-03 
2223	-2.30467255427345E-03 
2224	-1.14064746941018E-03 
2225	-8.13871988283664E-04 
2226	-2.68561081982748E-04 
2227	-2.0592377913213E-04 
2228	-1.40189725161592E-03 
2229	-1.25754217371646E-03 
2230	 5.83481026074845E-05 
2231	-4.79648437562744E-04 
2232	-1.62113677151865E-03 
2233	-1.80880754897128E-03 
2234	-2.87617939646322E-03 
2235	-3.2416112383618E-03 
2236	-2.24587934217363E-03 
2237	-2.01953930301382E-03 
2238	-1.64924781964831E-03 
2239	-0.00164767012514 
2240	-2.15706032681498E-03 
2241	-1.47100980076614E-03 
2242	-1.06366074937517E-03 
2243	-0.002050271024854 
2244	-1.33990746076851E-03 
2245	 2.84914981827227E-04 
2246	-3.01850417620648E-05 
2247	 3.02608737372176E-04 
2248	 1.75765089583234E-04 
2249	-1.19822020447546E-03 
2250	-1.01784600607566E-03 
2251	-4.71691770866853E-04 
2252	 2.20302830207252E-04 
2253	 6.30255653977878E-04 
2254	-1.15448809140178E-03 
2255	-3.5478446285161E-03 
2256	-3.51061605205814E-03 
2257	-2.14009893944743E-03 
2258	-1.70182045235276E-03 
2259	-3.58625333789459E-04 
2260	-6.99731001651526E-04 
2261	-5.28733385468679E-03 
2262	-5.07793725711187E-03 
2263	-2.3966400920226E-03 
2264	-1.16934362423456E-03 
2265	 2.81032211390105E-03 
2266	 3.56386991913276E-03 
2267	 6.30469849272734E-04 
2268	 7.16831511489639E-04 
2269	 2.82009704170726E-03 
2270	 2.49824309025867E-03 
2271	 1.07545575630463E-03 
2272	 7.69200495727189E-04 
2273	-1.91518955335965E-04 
2274	-2.52751916607748E-03 
2275	-5.17669488837484E-03 
2276	-5.39437236599837E-03 
2277	-6.36599716094386E-03 
2278	-6.90844141446082E-03 
2279	-4.03466225209172E-03 
2280	-2.85930221353943E-03 
2281	-3.4878390455458E-03 
2282	-3.10625001786808E-03 
2283	-2.7379978335247E-03 
2284	-2.61540882842473E-03 
2285	-2.36068661515714E-03 
2286	-2.8431604098943E-03 
2287	-1.20564455192973E-03 
2288	 7.22869080075463E-04 
2289	 8.88639930695657E-04 
2290	 1.09462189788294E-03 
2291	-1.96199799615042E-03 
2292	-8.25120071139721E-03 
2293	-9.70355505282338E-03 
2294	-0.010130905095621 
2295	-1.00756030486778E-02 
2296	-4.54640795106935E-03 
2297	-2.4257472536413E-03 
2298	-2.33582412474981E-03 
2299	-1.37923317517745E-03 
2300	-1.91337110425522E-03 
2301	-2.11007220614825E-03 
2302	-2.99645417570976E-03 
2303	-4.23401600463227E-03 
2304	-4.77352669999082E-03 
2305	-3.98136264017144E-03 
2306	-3.02420495323526E-03 
2307	-6.62547059039558E-04 
2308	 1.59961060696083E-03 
2309	-4.11281183141965E-04 
2310	-1.98832471576782E-03 
2311	-7.82548806056193E-05 
2312	 1.58594022090577E-03 
2313	 2.84868712773694E-03 
2314	 3.85060412953057E-03 
2315	-5.028129949114E-04 
2316	-3.88420193572876E-03 
2317	-9.90911138642037E-04 
2318	-3.09726461515431E-04 
2319	 1.79554225081716E-03 
2320	 1.70787961345836E-03 
2321	-1.76729776689019E-03 
2322	-1.06037794413515E-03 
2323	-3.97243379999504E-03 
2324	-6.85348526218208E-03 
2325	-7.74744509056008E-03 
2326	-9.14028438847712E-03 
2327	-8.46485984758474E-03 
2328	-7.30171766155259E-03 
2329	-2.43183842683211E-03 
2330	 2.2154590959624E-03 
2331	 3.52870746066546E-03 
2332	 0.004928752867683 
2333	 5.15613375932886E-03 
2334	 4.36344794752176E-03 
2335	 3.10154986599416E-03 
2336	 1.00594811075373E-03 
2337	-3.42837074092483E-03 
2338	-4.04011643856616E-03 
2339	-2.50678886335749E-03 
2340	-2.24341977907904E-03 
2341	 1.66347183725421E-03 
2342	 6.02490995591565E-04 
2343	-2.61299937079519E-03 
2344	-1.98491247691767E-03 
2345	-1.26939641015414E-03 
2346	 8.14282288363437E-06 
2347	 3.28097217453537E-03 
2348	 0.005902957932314 
2349	 4.53617500857414E-03 
2350	 4.90550791773192E-03 
2351	 5.24352760745312E-03 
2352	 0.003401332627863 
2353	 1.78698489041182E-03 
2354	 7.25026827105984E-03 
2355	 1.53031170286991E-02 
2356	 1.32678552748879E-02 
2357	 1.35744377680304E-02 
2358	 7.41863654699391E-03 
2359	-8.3592649321717E-03 
2360	-9.48488240903823E-03 
2361	-1.01905751753485E-02 
2362	-1.84388415713792E-02 
2363	-2.32079330723333E-02 
2364	-2.90582978226507E-02 
2365	-2.61195834097221E-02 
2366	-0.012292888780454 
2367	-6.61119425801835E-03 
2368	-8.03272456854867E-03 
2369	-6.26605218454552E-03 
2370	-4.14877030858723E-03 
2371	 3.64361906978657E-03 
2372	 8.71364650538479E-03 
2373	 3.32578378808874E-03 
2374	 1.97413389723358E-03 
2375	 5.08154420573023E-04 
2376	-1.21007379342951E-03 
2377	-1.1073409726178E-03 
2378	-1.6509025418773E-03 
2379	-1.51544802762891E-02 
2380	-2.52377554586303E-02 
2381	-2.39242167426435E-02 
2382	-2.97781805595698E-02 
2383	-3.26387199976119E-02 
2384	-4.12986535530084E-02 
2385	-3.94841460720651E-02 
2386	-4.81739714183818E-02 
2387	-6.92109018477017E-02 
2388	-5.26983091022114E-02 
2389	-2.78148964425648E-02 
2390	-1.28850375476849E-02 
2391	 1.12695029658855E-02 
2392	 2.81094408759199E-02 
2393	 5.68661422962019E-03 
2394	-1.55441103224906E-02 
2395	-1.85089350543334E-02 
2396	-4.29184366428162E-02 
2397	-5.60897837908803E-02 
2398	-2.61976771484277E-02 
2399	-1.08932176589025E-02 
2400	 2.01629623538581E-03 
2401	 0.038716237568116 
2402	 0.022928866727517 
2403	-2.31521337825178E-02 
2404	-2.33606926380924E-02 
2405	-3.17649137708545E-02 
2406	-6.34172668062813E-02 
2407	-5.52912589951171E-02 
2408	-6.01571954787594E-02 
2409	-0.110534024985385 
2410	-0.11798199454521 
2411	-0.096841770189208 
2412	-9.98564669450587E-02 
2413	-9.72881939991775E-02 
2414	-5.46627323852525E-02 
2415	-1.44227488734411E-02 
2416	-1.96373621984571E-02 
2417	-1.65798295146812E-02 
2418	-3.31802614075352E-02 
2419	-7.08025099970521E-02 
2420	-0.088339096034844 
2421	-0.061377344447153 
2422	-7.03669552081778E-04 
2423	 1.67095851806529E-02 
2424	-2.63270182952732E-02 
2425	-6.91822866761154E-02 
2426	-0.144866083954052 
2427	-0.206381951859203 
2428	-0.126009548400814 
2429	-4.99615685675647E-02 
2430	-2.12706059374741E-02 
2431	 2.69719911023736E-02 
2432	-1.64492042188189E-02 
2433	-6.32563445341921E-02 
2434	-3.29459390203435E-02 
2435	 1.76141006498547E-02 
2436	 3.58448489915578E-02 
2437	-0.040293392255946 
2438	-8.35002261548376E-02 
2439	-0.134943299402175 
2440	-0.186840598519922 
2441	-7.17012427472741E-02 
2442	-1.13740981949458E-02 
2443	-7.03895541141992E-02 
2444	-6.57395018599351E-02 
2445	-0.128032715840683 
2446	-0.308869820243612 
2447	-0.257346056129969 
2448	-0.132277628143841 
2449	 0.200563698022783 
2450	 0.286765616360389 
2451	 0.384394092163911 
2452	-2.67001562392601E-02 
2453	-0.468776274697612 
2454	-0.768362052267818 
2455	-0.827221740042721 
2456	-0.672487586259526 
2457	-0.54508064269853 
2458	-0.386761052653479 
2459	-0.317419720369978 
2460	-0.189122862595938 
2461	-5.32705124591015E-02 
2462	 1.18579772198384E-02 
2463	-3.28741861597897E-02 
2464	-0.578325345075794 
2465	-0.478403268490715 
2466	-0.273308316901872 
2467	-0.280758163438687 
2468	-0.126162243442572 
2469	-0.130826707279072 
2470	-0.802762178636492 
2471	-0.646557608147941 
2472	-0.680680780422418 
2473	-1.05794095420303 
2474	-0.441861281573614 
2475	-0.289407492827623 
2476	-0.672845830248029 
2477	-0.383230903629301 
2478	-0.34832357508928 
2479	-0.116776124972027 
2480	 7.83726780504397E-02 
2481	 0.304124682228568 
2482	 1.20183736638804 
2483	 0.365197238654044 
2484	-29.5049890754704 
2485	 1.65459502929109 
2486	-0.339289935413879 
2487	-0.432763737841613 
2488	-0.204793316165039 
2489	-0.55981279800467 
2490	-0.389297172583593 
2491	 0.189284515237634 
2492	 4.66991284805613 
2493	-3.64750112659697 
2494	-7.87133249767682 
2495	-75.3653349786753 
2496	-8.4178570812553 
2497	-4.68834301081315 
2498	-1.29589232802482 
2499	-0.481124884224291 
2500	 0.160866960480306 
