Wavelength	rt0718far200008.asd
350	 0.014247418522579 
351	 1.37260775195614E-02 
352	 1.41166438055052E-02 
353	 1.48140231253827E-02 
354	 1.51161977867519E-02 
355	 1.46723054021951E-02 
356	 1.45258198415733E-02 
357	 1.47124441097011E-02 
358	 1.49109398585621E-02 
359	 1.48459000680977E-02 
360	 1.49163077014837E-02 
361	 1.50917938541524E-02 
362	 1.50544587035714E-02 
363	 1.48376314851692E-02 
364	 1.47396195453643E-02 
365	 0.014942167041947 
366	 1.54247573649402E-02 
367	 1.56060271151894E-02 
368	 1.54674266897079E-02 
369	 1.52703216218752E-02 
370	 1.56597549951378E-02 
371	 0.015574286237861 
372	 1.52742531892705E-02 
373	 1.56585344653085E-02 
374	 1.57925207546914E-02 
375	 1.57836077881744E-02 
376	 1.58629670035291E-02 
377	 1.62617066366637E-02 
378	 1.60992582533311E-02 
379	 0.015869629090304 
380	 1.61316381506339E-02 
381	 1.66454874716353E-02 
382	 1.65164065179519E-02 
383	 1.61758890672527E-02 
384	 1.65466836819492E-02 
385	 1.68962010565801E-02 
386	 1.73266607710092E-02 
387	 1.76542746054742E-02 
388	 1.73646134073363E-02 
389	 1.73072164238449E-02 
390	 0.017467333988744 
391	 1.75957389295528E-02 
392	 1.72589460549987E-02 
393	 1.76488659233094E-02 
394	 1.83314526254285E-02 
395	 0.018431469767438 
396	 1.82297538666527E-02 
397	 1.82526677723846E-02 
398	 1.85191645297697E-02 
399	 1.86291422519777E-02 
400	 0.018796827531082 
401	 1.88688588955334E-02 
402	 1.87984390876974E-02 
403	 0.018866711394912 
404	 1.90775350285389E-02 
405	 1.92682413543606E-02 
406	 1.92831001185373E-02 
407	 1.94060745589461E-02 
408	 1.96238247222041E-02 
409	 1.97588046558491E-02 
410	 1.95379136917883E-02 
411	 1.97245035524804E-02 
412	 2.00287405086237E-02 
413	 2.01516899305696E-02 
414	 2.02453049185119E-02 
415	 2.03273676322729E-02 
416	 2.04683418301531E-02 
417	 2.07041563933253E-02 
418	 2.07577843242109E-02 
419	 2.08797799641194E-02 
420	 2.11433872523874E-02 
421	 2.13920545155042E-02 
422	 2.14103537507495E-02 
423	 2.15282102190482E-02 
424	 0.021892508589302 
425	 2.17821772847918E-02 
426	 2.19608544950923E-02 
427	 0.022326814444266 
428	 2.24349152327017E-02 
429	 2.26732780379242E-02 
430	 2.29258518781259E-02 
431	 2.31526614405491E-02 
432	 2.34539024041425E-02 
433	 2.36242521128039E-02 
434	 2.37559152335999E-02 
435	 0.023968930019039 
436	 2.42719079587196E-02 
437	 2.45177705860612E-02 
438	 2.47419292217979E-02 
439	 2.50504493604439E-02 
440	 2.52122952587551E-02 
441	 2.53902755298731E-02 
442	 2.56789958238488E-02 
443	 2.60169362068928E-02 
444	 2.62495124930839E-02 
445	 2.64451474244151E-02 
446	 2.66913815077466E-02 
447	 0.026872986937927 
448	 2.70914266229202E-02 
449	 2.73259488832106E-02 
450	 2.74734400206463E-02 
451	 2.76128023010961E-02 
452	 2.77599126248209E-02 
453	 2.79252923975234E-02 
454	 2.81287336869864E-02 
455	 2.83530842081151E-02 
456	 2.85121434820115E-02 
457	 2.85549376211801E-02 
458	 2.87452930977047E-02 
459	 2.88657229177064E-02 
460	 2.89322641999348E-02 
461	 2.91994953710967E-02 
462	 0.029350006959231 
463	 2.94359080557003E-02 
464	 2.95367473128923E-02 
465	 2.95788483782434E-02 
466	 2.97299877233156E-02 
467	 2.99233478880038E-02 
468	 3.00119899878438E-02 
469	 3.02151182582666E-02 
470	 3.03855168476369E-02 
471	 3.04897884268908E-02 
472	 3.06865183403445E-02 
473	 3.09244374649896E-02 
474	 3.10520428797731E-02 
475	 3.10269367355417E-02 
476	 3.12817407450652E-02 
477	 3.15035650772881E-02 
478	 3.16518169393845E-02 
479	 3.18682956828969E-02 
480	 3.20452407058834E-02 
481	 3.22378949879207E-02 
482	 3.24658871926762E-02 
483	 3.26260769918076E-02 
484	 3.28890827299844E-02 
485	 3.31238442584221E-02 
486	 3.31936196207734E-02 
487	 3.35703547638244E-02 
488	 3.38041685403756E-02 
489	 3.38891845580763E-02 
490	 3.42650554975966E-02 
491	 3.44648006344533E-02 
492	 0.034639936486577 
493	 3.49406336862141E-02 
494	 3.51802040964833E-02 
495	 0.035479861710371 
496	 3.57775012030356E-02 
497	 3.59578487136245E-02 
498	 3.62761112059481E-02 
499	 3.66084133656186E-02 
500	 3.69079675832728E-02 
501	 3.73109221285071E-02 
502	 3.75888025751115E-02 
503	 3.78133994623709E-02 
504	 3.81157624690152E-02 
505	 3.84935340770621E-02 
506	 3.87897269990463E-02 
507	 0.039045071396552 
508	 3.94337315200447E-02 
509	 3.95833425315523E-02 
510	 3.97839253838327E-02 
511	 0.040217820341045 
512	 4.05851227278621E-02 
513	 4.08911183037628E-02 
514	 0.041205377309751 
515	 4.16157301524416E-02 
516	 4.20381101541729E-02 
517	 4.24824205889004E-02 
518	 4.29059111246562E-02 
519	 4.31991487961506E-02 
520	 4.35313131654301E-02 
521	 4.39196242023482E-02 
522	 4.43410561592524E-02 
523	 4.47728636171786E-02 
524	 4.51613721126234E-02 
525	 4.55460566712844E-02 
526	 4.60185424492956E-02 
527	 4.64292567387666E-02 
528	 4.68153442953361E-02 
529	 4.72232653468835E-02 
530	 4.76730434836982E-02 
531	 4.80579338621587E-02 
532	 4.84516216023941E-02 
533	 4.89493346733545E-02 
534	 4.93406746199096E-02 
535	 4.97539365862141E-02 
536	 5.02161357906119E-02 
537	 5.06155762526362E-02 
538	 5.10774014210109E-02 
539	 5.15571729086441E-02 
540	 5.20021968640324E-02 
541	 5.24827595345599E-02 
542	 5.28801368704136E-02 
543	 5.32325565332342E-02 
544	 5.36651307470622E-02 
545	 5.40842916049051E-02 
546	 5.45222495515061E-02 
547	 5.49692496740525E-02 
548	 5.52953454480861E-02 
549	 5.57240082605907E-02 
550	 5.61740900501256E-02 
551	 5.65110510684887E-02 
552	 5.69649044370709E-02 
553	 5.73995736509753E-02 
554	 5.77880240595421E-02 
555	 5.82446660141903E-02 
556	 0.058699762788142 
557	 5.91140163123786E-02 
558	 0.059484945945452 
559	 5.99247168375239E-02 
560	 6.03184900674063E-02 
561	 0.060662145188931 
562	 6.10164470992638E-02 
563	 6.13046477159934E-02 
564	 6.16206724347745E-02 
565	 6.19763618283547E-02 
566	 6.21822963397776E-02 
567	 6.23879762202723E-02 
568	 6.26313563878358E-02 
569	 6.28908880429481E-02 
570	 6.30562162613094E-02 
571	 6.32040860018781E-02 
572	 6.33626712173292E-02 
573	 6.34950154495603E-02 
574	 6.36231510377056E-02 
575	 6.37077313983355E-02 
576	 6.37245264898597E-02 
577	 6.37426784412735E-02 
578	 6.37321222531042E-02 
579	 6.36850138819053E-02 
580	 0.06359910618781 
581	 6.33725832921531E-02 
582	 6.32013912342317E-02 
583	 6.31230072741436E-02 
584	 6.28178604048288E-02 
585	 6.25234617775172E-02 
586	 6.22343502474553E-02 
587	 6.18763648681869E-02 
588	 6.15093776125464E-02 
589	 6.11580935220075E-02 
590	 6.07799451347021E-02 
591	 6.02533039129399E-02 
592	 5.98269971295182E-02 
593	 5.93706869461906E-02 
594	 5.87550601872056E-02 
595	 5.80803070974902E-02 
596	 5.72308921882255E-02 
597	 5.62857060333101E-02 
598	 5.54213685373654E-02 
599	 5.45155396971165E-02 
600	 5.36522085610485E-02 
601	 0.052940509406674 
602	 5.24907483668729E-02 
603	 5.21518936781215E-02 
604	 5.19216960639086E-02 
605	 5.18198619009187E-02 
606	 5.17104707785557E-02 
607	 5.16071358865187E-02 
608	 5.15500593855399E-02 
609	 5.15917609188726E-02 
610	 5.15616149495044E-02 
611	 5.15113024970397E-02 
612	 5.14939776688901E-02 
613	 5.14123480026103E-02 
614	 5.13535504369249E-02 
615	 5.13277060306791E-02 
616	 5.13007150489102E-02 
617	 5.12697402257389E-02 
618	 5.12171502278787E-02 
619	 5.11394741444134E-02 
620	 5.10544967983628E-02 
621	 0.051018642357388 
622	 5.10010622832868E-02 
623	 5.09431721747897E-02 
624	 0.050813960237678 
625	 5.06969642254185E-02 
626	 5.06316214992071E-02 
627	 5.06051580196678E-02 
628	 5.05167414399047E-02 
629	 5.04226236673187E-02 
630	 5.03780471312155E-02 
631	 5.03634456109834E-02 
632	 5.02613161482944E-02 
633	 0.050110075623912 
634	 0.050024195058615 
635	 5.00419956610185E-02 
636	 5.00190752069877E-02 
637	 4.98935766499766E-02 
638	 4.97425265987584E-02 
639	 4.95869871408609E-02 
640	 4.94953080919014E-02 
641	 4.94882066642905E-02 
642	 4.93669932253262E-02 
643	 4.92098350975105E-02 
644	 4.90717214420542E-02 
645	 4.89747242019465E-02 
646	 4.87521407344204E-02 
647	 0.048571126798383 
648	 4.85049112755293E-02 
649	 4.82599600819618E-02 
650	 4.80455822056764E-02 
651	 4.78119080208879E-02 
652	 4.74495418804455E-02 
653	 4.70996588208618E-02 
654	 4.66517886944892E-02 
655	 4.60712620903353E-02 
656	 4.55323485182343E-02 
657	 4.50557742009761E-02 
658	 4.45973159616984E-02 
659	 4.41406632842686E-02 
660	 4.38693443639795E-02 
661	 4.35425562078506E-02 
662	 4.31981090907362E-02 
663	 4.30335644996755E-02 
664	 4.28746824988947E-02 
665	 4.27371659583909E-02 
666	 4.26112381565531E-02 
667	 4.23946321382943E-02 
668	 4.22761390268783E-02 
669	 4.21840400439214E-02 
670	 4.20118291850749E-02 
671	 4.19430785017013E-02 
672	 4.18912157742464E-02 
673	 0.041825310040691 
674	 4.17785342912438E-02 
675	 0.041762540743852 
676	 4.17522700698814E-02 
677	 4.17215946910388E-02 
678	 4.16551185901264E-02 
679	 4.16141181963715E-02 
680	 4.16117393142734E-02 
681	 0.041625686768563 
682	 4.15813066205272E-02 
683	 4.14823324362972E-02 
684	 4.13879616366837E-02 
685	 4.14193889630747E-02 
686	 4.13064413657151E-02 
687	 4.11223514477705E-02 
688	 4.09915287826588E-02 
689	 4.07170246744353E-02 
690	 4.04291790812977E-02 
691	 4.01287229274027E-02 
692	 3.97376617348323E-02 
693	 3.92926037735246E-02 
694	 0.03879958952486 
695	 0.038278153874479 
696	 3.77200017960782E-02 
697	 0.037072882654024 
698	 3.64204036002845E-02 
699	 3.58608399533756E-02 
700	 3.51444240919306E-02 
701	 3.43153410873576E-02 
702	 3.34912310769157E-02 
703	 3.27891256929614E-02 
704	 3.19989729143535E-02 
705	 3.11017942349201E-02 
706	 0.030163260428172 
707	 2.93224262430241E-02 
708	 2.83130023711794E-02 
709	 2.72490351486707E-02 
710	 2.63127333107531E-02 
711	 2.52202136050746E-02 
712	 2.40423661497771E-02 
713	 2.28739960450422E-02 
714	 0.021779856990625 
715	 2.06770708952767E-02 
716	 0.019558863899301 
717	 1.84856726878285E-02 
718	 1.72956207387715E-02 
719	 1.61519653618134E-02 
720	 0.015192388744045 
721	 1.43073626179959E-02 
722	 1.34885762434889E-02 
723	 1.26843306202327E-02 
724	 1.19274279958434E-02 
725	 1.11011950665434E-02 
726	 1.02902543119823E-02 
727	 9.50582161736139E-03 
728	 8.74382028458706E-03 
729	 7.9463928870058E-03 
730	 7.17364358096943E-03 
731	 6.60304869402991E-03 
732	 6.32746042789656E-03 
733	 5.92686411875449E-03 
734	 5.56192996982474E-03 
735	 5.33352510796487E-03 
736	 5.2029863050366E-03 
737	 5.13774779737151E-03 
738	 5.02746213763427E-03 
739	 4.82650055513895E-03 
740	 4.70659042626102E-03 
741	 4.71328364049751E-03 
742	 4.77333791867301E-03 
743	 4.76222470204422E-03 
744	 4.72752282532716E-03 
745	 4.69531006163437E-03 
746	 4.66852223525592E-03 
747	 4.62013904863636E-03 
748	 4.62799554300604E-03 
749	 4.63859496918956E-03 
750	 4.59688368783171E-03 
751	 4.55135446164146E-03 
752	 0.004569910977114 
753	 4.60454953867843E-03 
754	 4.56322972502534E-03 
755	 4.57580011737564E-03 
756	 4.57668195157744E-03 
757	 4.53770039328149E-03 
758	 4.50218703542148E-03 
759	 4.58162899930675E-03 
760	 4.67584368330367E-03 
761	 4.58780770449988E-03 
762	 4.6838719039419E-03 
763	 4.55301529088479E-03 
764	 4.45769740335662E-03 
765	 4.66697930867872E-03 
766	 4.60380473676573E-03 
767	 4.5829116011454E-03 
768	 4.63967227596417E-03 
769	 4.54098590041348E-03 
770	 4.64841765280036E-03 
771	 4.73976234383605E-03 
772	 4.65088573196307E-03 
773	 4.6980996619986E-03 
774	 4.75957523884374E-03 
775	 4.78422165143727E-03 
776	 4.76596109656665E-03 
777	 4.78640147389873E-03 
778	 4.86220638937803E-03 
779	 4.92488207777869E-03 
780	 4.84586193739744E-03 
781	 4.89325297930182E-03 
782	 4.96060206451997E-03 
783	 4.97710520024446E-03 
784	 5.12034506770329E-03 
785	 5.19752401516094E-03 
786	 5.24172803075989E-03 
787	 5.33801199851494E-03 
788	 5.38905034321292E-03 
789	 5.45300753864516E-03 
790	 5.50457784413249E-03 
791	 5.47147865027041E-03 
792	 5.55964089005904E-03 
793	 5.78977187185004E-03 
794	 6.02269796956061E-03 
795	 5.90524681844831E-03 
796	 5.97581132981931E-03 
797	 6.08466936023154E-03 
798	 6.03840677527916E-03 
799	 6.19559197878675E-03 
800	 6.24518152301704E-03 
801	 6.26821186807871E-03 
802	 6.49265676070435E-03 
803	 6.46170905029526E-03 
804	 6.46560669622647E-03 
805	 6.55121839164524E-03 
806	 6.44121085486251E-03 
807	 6.38702557670983E-03 
808	 6.46685052924202E-03 
809	 6.61711480355302E-03 
810	 6.50644064803043E-03 
811	 6.4058289133627E-03 
812	 6.34769583235931E-03 
813	 6.27358358657739E-03 
814	 6.17149484361776E-03 
815	 6.08781126741524E-03 
816	 5.96568175908894E-03 
817	 5.72298739007817E-03 
818	 5.79478881871764E-03 
819	 5.78649865953883E-03 
820	 5.52930693597577E-03 
821	 5.22208156720132E-03 
822	 5.01822393408003E-03 
823	 4.83497443038282E-03 
824	 4.60409118758886E-03 
825	 0.004448263519561 
826	 4.43857410126289E-03 
827	 4.30674659219596E-03 
828	 3.80260173140516E-03 
829	 3.55002075670616E-03 
830	 3.48861661829695E-03 
831	 3.51934105457856E-03 
832	 3.5368579683978E-03 
833	 3.39341969387976E-03 
834	 3.24744419609351E-03 
835	 3.22314049105068E-03 
836	 3.34025324943656E-03 
837	 3.08686795306608E-03 
838	 2.92315575552614E-03 
839	 3.15670285520786E-03 
840	 3.14622632679761E-03 
841	 3.13880371922265E-03 
842	 3.14798067433679E-03 
843	 3.09695513329146E-03 
844	 2.82751739360824E-03 
845	 2.84148838524129E-03 
846	 3.08930280686986E-03 
847	 3.13616044946609E-03 
848	 2.9675552087139E-03 
849	 2.78359424260303E-03 
850	 2.72300459053635E-03 
851	 2.78801952739576E-03 
852	 2.7704037500171E-03 
853	 2.79712554072261E-03 
854	 2.91277246443553E-03 
855	 2.84074205849253E-03 
856	 2.74716813089541E-03 
857	 2.69441657250018E-03 
858	 2.70890458640861E-03 
859	 2.81478249135298E-03 
860	 2.85799708465625E-03 
861	 2.78921315239383E-03 
862	 2.67364424841842E-03 
863	 2.86717057099403E-03 
864	 2.90331551970992E-03 
865	 2.72244333179612E-03 
866	 2.67240346439796E-03 
867	 2.63199010716916E-03 
868	 2.60092669169626E-03 
869	 2.55058945473021E-03 
870	 2.41297523344731E-03 
871	 2.62773434443176E-03 
872	 2.89766920778926E-03 
873	 2.87022401370293E-03 
874	 2.41525225637116E-03 
875	 2.50005948573339E-03 
876	 2.69015193897974E-03 
877	 2.42858520894505E-03 
878	 2.43239819108023E-03 
879	 2.73542785785703E-03 
880	 2.94510047327039E-03 
881	 2.62356630927381E-03 
882	 2.24726409923231E-03 
883	 2.31028309718224E-03 
884	 2.52375603784827E-03 
885	 2.18217588051303E-03 
886	 2.34232313629385E-03 
887	 2.57676247335156E-03 
888	 2.58211473762946E-03 
889	 2.40657018694736E-03 
890	 2.22256925013414E-03 
891	 2.39155637707062E-03 
892	 2.75159739481284E-03 
893	 2.1460749710341E-03 
894	 2.27856734522569E-03 
895	 2.59479820975547E-03 
896	 2.26994566004698E-03 
897	 1.8050430717569E-03 
898	 2.25084679865239E-03 
899	 2.62856710186969E-03 
900	 2.01370806588664E-03 
901	 2.29507889711519E-03 
902	 2.32172075083913E-03 
903	 2.09444393421001E-03 
904	 2.04229032129043E-03 
905	 2.31652944923932E-03 
906	 2.39574971356491E-03 
907	 2.17065023764425E-03 
908	 1.9194638938122E-03 
909	 2.09711592873937E-03 
910	 2.10681623486918E-03 
911	 2.17546222885165E-03 
912	 3.05986895297719E-03 
913	 2.54935176148473E-03 
914	 2.04198663915567E-03 
915	 2.16967722799827E-03 
916	 2.14265516577834E-03 
917	 1.69829903506631E-03 
918	 1.51988892756185E-03 
919	 1.88110956497193E-03 
920	 2.32667210328766E-03 
921	 2.38581878448263E-03 
922	 2.0832252852917E-03 
923	 1.68955232890819E-03 
924	 1.7291112802496E-03 
925	 1.79012244442423E-03 
926	 1.96999725589519E-03 
927	 2.12748611752647E-03 
928	 6.38141466327388E-04 
929	 8.37692243966527E-04 
930	 1.77436173030856E-03 
931	 5.55140554140713E-04 
932	 2.41875191605608E-04 
933	 6.12770063952842E-05 
934	 1.17354199489194E-04 
935	 5.78855487911636E-04 
936	 4.71404958178815E-04 
937	 2.76120107214697E-04 
938	 1.13069038665758E-03 
939	 2.87935579294851E-03 
940	-9.46060052467801E-05 
941	-1.52125781080712E-03 
942	-8.57712512656155E-04 
943	-2.7896292829163E-04 
944	 1.37186892607427E-03 
945	 1.58729308048095E-03 
946	 5.81643255364545E-04 
947	 3.45549641315014E-04 
948	 1.55211977092325E-03 
949	 1.62764426168014E-03 
950	 2.78074191039881E-04 
951	-5.7139640138051E-04 
952	 4.30636216439505E-03 
953	 4.82100138521785E-03 
954	 1.6395625751475E-03 
955	 2.25295137684765E-03 
956	 4.96681741787875E-04 
957	-5.67538764838999E-04 
958	 5.60727644005884E-04 
959	 3.00023047136754E-03 
960	 2.62404454079899E-03 
961	 1.05237526524264E-03 
962	 3.31900271945021E-04 
963	 1.49084182116481E-03 
964	 6.26777980384111E-04 
965	 9.85621822959016E-04 
966	 2.06636568480955E-03 
967	 9.59429647777673E-04 
968	 1.61629392375882E-03 
969	 2.70451065860693E-03 
970	 2.97060527147212E-03 
971	 1.91035686840438E-03 
972	 4.01974928653561E-04 
973	 5.52588887288304E-04 
974	 1.92864527996971E-03 
975	 1.79181105860306E-03 
976	 8.80675105774014E-04 
977	 9.91084848984504E-04 
978	 1.50998336059043E-03 
979	 3.28754649833639E-04 
980	 1.4681660789929E-03 
981	 2.51949752620255E-03 
982	 1.77853264463404E-03 
983	-5.55222158099669E-04 
984	 2.1267847989566E-04 
985	 1.39537268199946E-03 
986	 1.63405390737625E-03 
987	 1.44468665851333E-03 
988	 1.67726650468357E-03 
989	 2.05727218523198E-03 
990	 2.04105369874311E-03 
991	 1.24821239496141E-03 
992	 8.56958227683877E-04 
993	 8.63740968045341E-04 
994	 1.42835676076351E-03 
995	 2.53769350988934E-03 
996	 2.3526570044379E-03 
997	 1.95324159185669E-03 
998	 1.73087084852772E-03 
999	 1.61124500672639E-03 
1000	 2.42790655913495E-03 
1001	 2.78875621106156E-03 
1002	 2.47886146610139E-03 
1003	 2.26826866191122E-03 
1004	 1.74715835864963E-03 
1005	 1.50751154990071E-03 
1006	 1.30652635472153E-03 
1007	 1.48005599442619E-03 
1008	 1.79922338984009E-03 
1009	 1.90682321403221E-03 
1010	 1.64182803887595E-03 
1011	 1.43511594954736E-03 
1012	 1.25086929246314E-03 
1013	 9.20045409002926E-04 
1014	 7.98217617884689E-04 
1015	 9.0977955353737E-04 
1016	 1.00264287551289E-03 
1017	 1.11008598023992E-03 
1018	 1.30136450699651E-03 
1019	 1.81736672365499E-03 
1020	 1.96787855088634E-03 
1021	 1.9736061376092E-03 
1022	 1.87334832810654E-03 
1023	 1.62678379768177E-03 
1024	 1.39165061076821E-03 
1025	 1.58830641944439E-03 
1026	 1.7019172382553E-03 
1027	 1.88159945755614E-03 
1028	 2.35652981722032E-03 
1029	 2.51952078835383E-03 
1030	 2.49673611614584E-03 
1031	 2.58328478265402E-03 
1032	 2.65366025114299E-03 
1033	 2.61449919107111E-03 
1034	 2.63750588501826E-03 
1035	 2.47623725583033E-03 
1036	 1.95599638027259E-03 
1037	 1.74255350556211E-03 
1038	 1.59205856274142E-03 
1039	 1.46825556811903E-03 
1040	 1.5027799171787E-03 
1041	 1.63591743193085E-03 
1042	 1.66254481286026E-03 
1043	 1.52597784479391E-03 
1044	 1.72407546136263E-03 
1045	 2.26755584522695E-03 
1046	 2.30329814345777E-03 
1047	 2.30682339387436E-03 
1048	 2.24641857790124E-03 
1049	 1.53196856785174E-03 
1050	 1.48453026285773E-03 
1051	 2.12982867495043E-03 
1052	 0.002199674722893 
1053	 2.19474974660851E-03 
1054	 2.20534143519444E-03 
1055	 1.64832596438078E-03 
1056	 1.53176063443593E-03 
1057	 1.63237289668706E-03 
1058	 2.16728920304213E-03 
1059	 2.26492924851173E-03 
1060	 2.47341229387666E-03 
1061	 2.41461983078759E-03 
1062	 1.93433517999887E-03 
1063	 1.80513116654702E-03 
1064	 1.83316358201026E-03 
1065	 0.001693181674764 
1066	 1.42989960656187E-03 
1067	 1.42086195066127E-03 
1068	 1.38640695631847E-03 
1069	 1.46517135763053E-03 
1070	 2.01037933248654E-03 
1071	 2.23621628975683E-03 
1072	 2.30660846984476E-03 
1073	 2.33657380772058E-03 
1074	 2.30149379053521E-03 
1075	 2.07992078280362E-03 
1076	 2.03091602742499E-03 
1077	 2.05311058752651E-03 
1078	 1.99440810884495E-03 
1079	 1.83795639921628E-03 
1080	 1.91259959968582E-03 
1081	 2.13967445618371E-03 
1082	 0.00214921265415 
1083	 2.30443202583908E-03 
1084	 2.30522332454745E-03 
1085	 1.90011717855012E-03 
1086	 1.79170828429974E-03 
1087	 1.7868624784018E-03 
1088	 1.82808326088117E-03 
1089	 2.04548054757104E-03 
1090	 2.30803854921364E-03 
1091	 2.2717568985235E-03 
1092	 2.0516034227471E-03 
1093	 2.01335401192423E-03 
1094	 1.77313132073767E-03 
1095	 1.83667756252598E-03 
1096	 2.43047445624707E-03 
1097	 2.46897220422217E-03 
1098	 2.16096212130808E-03 
1099	 2.06974633414925E-03 
1100	 1.81743902298336E-03 
1101	 1.63104524242192E-03 
1102	 1.51881149495386E-03 
1103	 1.63600191879848E-03 
1104	 1.86073318021721E-03 
1105	 2.06438267682442E-03 
1106	 2.53499513451155E-03 
1107	 2.74177124186421E-03 
1108	 2.68366989179738E-03 
1109	 2.22437322557025E-03 
1110	 1.99139966268244E-03 
1111	 1.83791955232903E-03 
1112	 1.73626586624898E-03 
1113	 1.39218149731152E-03 
1114	 1.44024499031396E-03 
1115	 2.27391671207629E-03 
1116	 2.32221162089355E-03 
1117	 1.88812212665188E-03 
1118	 2.16982417344186E-03 
1119	 1.73889916289249E-03 
1120	 1.94154963346153E-03 
1121	 3.85100163220475E-03 
1122	 6.2046214586639E-03 
1123	 6.31028389613419E-03 
1124	 5.40941296717561E-03 
1125	 1.59495188308495E-03 
1126	 7.65444129858787E-05 
1127	 2.06156057239607E-03 
1128	 2.90878290894911E-03 
1129	 3.6010394647186E-03 
1130	 0.006111438805328 
1131	 5.77462731370474E-03 
1132	 2.79236035572865E-03 
1133	 2.49761171095057E-03 
1134	 2.87412216078948E-03 
1135	 2.62781502939322E-03 
1136	 2.94514591121466E-03 
1137	 3.16365107042121E-03 
1138	 2.92196723521568E-03 
1139	 2.88680582987996E-03 
1140	 3.37998166686423E-03 
1141	 2.97757833836901E-03 
1142	 2.38119518220946E-03 
1143	 1.81253906786132E-03 
1144	 1.93201299644092E-03 
1145	 3.54943850518017E-03 
1146	 3.67294488810326E-03 
1147	 2.46266233134478E-03 
1148	 2.77358633576399E-03 
1149	 1.65676997111049E-03 
1150	 1.38036291504892E-03 
1151	 3.18106877377407E-03 
1152	 3.60875716684603E-03 
1153	 2.35393439636296E-03 
1154	 2.3374457106218E-03 
1155	 3.26447567829624E-03 
1156	 2.6887131031097E-03 
1157	 1.37760322564297E-03 
1158	 1.82991529763006E-03 
1159	 1.81957325696498E-03 
1160	 1.16402926122286E-03 
1161	 1.72072189234579E-03 
1162	 2.19146002285701E-03 
1163	 0.001804382656472 
1164	 1.51663473322118E-03 
1165	 1.39385060065383E-03 
1166	 1.47847569959525E-03 
1167	 1.76424395421363E-03 
1168	 1.81278553457856E-03 
1169	 1.67508363380053E-03 
1170	 1.63239923644155E-03 
1171	 1.65350284897652E-03 
1172	 1.80007775123072E-03 
1173	 1.89490143766047E-03 
1174	 2.15491658636271E-03 
1175	 2.00490219648157E-03 
1176	 1.76183978805376E-03 
1177	 1.81740154393482E-03 
1178	 1.92395036797085E-03 
1179	 1.7878082962887E-03 
1180	 1.72694387350024E-03 
1181	 1.82359482760686E-03 
1182	 1.5923596815595E-03 
1183	 1.5122242518836E-03 
1184	 1.89283087611148E-03 
1185	 2.06043577340889E-03 
1186	 1.9508325098058E-03 
1187	 1.85693593876452E-03 
1188	 1.78818283412202E-03 
1189	 1.67575890214376E-03 
1190	 0.001484100981317 
1191	 1.38919331131589E-03 
1192	 1.44948455784439E-03 
1193	 1.52127367493654E-03 
1194	 1.42301612377032E-03 
1195	 1.42984029032065E-03 
1196	 1.58703528523295E-03 
1197	 1.52166225523272E-03 
1198	 1.45745429073764E-03 
1199	 1.70699587271664E-03 
1200	 1.9034500219862E-03 
1201	 1.66567043114788E-03 
1202	 1.32341290571687E-03 
1203	 1.37741326804687E-03 
1204	 1.57782803600109E-03 
1205	 1.7129690092653E-03 
1206	 1.76463577220199E-03 
1207	 1.55921370901069E-03 
1208	 1.50415298741373E-03 
1209	 1.8016636758065E-03 
1210	 1.98020539488872E-03 
1211	 1.84415095907861E-03 
1212	 1.6649614925607E-03 
1213	 1.52320427676326E-03 
1214	 1.42563679804398E-03 
1215	 1.43583814544466E-03 
1216	 1.71333553404133E-03 
1217	 1.83581875885577E-03 
1218	 1.66370219953741E-03 
1219	 1.53010203912146E-03 
1220	 1.56130446494256E-03 
1221	 1.5474277275776E-03 
1222	 1.44882452863043E-03 
1223	 1.50390432600156E-03 
1224	 1.45321896622948E-03 
1225	 1.30883192196168E-03 
1226	 1.40874613116776E-03 
1227	 1.41714178304769E-03 
1228	 1.3014646898082E-03 
1229	 1.41477473216225E-03 
1230	 1.56464496891259E-03 
1231	 1.54179192835865E-03 
1232	 1.60685420597077E-03 
1233	 1.61653952186844E-03 
1234	 1.40209917888039E-03 
1235	 1.3859433512594E-03 
1236	 1.6833764687017E-03 
1237	 1.68154992014593E-03 
1238	 1.52143762340093E-03 
1239	 1.53784479792333E-03 
1240	 1.6712251557611E-03 
1241	 1.58535842077992E-03 
1242	 1.61410551254895E-03 
1243	 1.74525423149589E-03 
1244	 1.55394919082724E-03 
1245	 1.26254515638803E-03 
1246	 1.33027381523276E-03 
1247	 1.46730575024868E-03 
1248	 1.51072747301645E-03 
1249	 1.65432045323081E-03 
1250	 1.61784718479622E-03 
1251	 1.32750783324549E-03 
1252	 1.22756569727287E-03 
1253	 1.45309143327202E-03 
1254	 1.54332845467805E-03 
1255	 1.54129240466189E-03 
1256	 1.67425354918483E-03 
1257	 1.8088084933261E-03 
1258	 1.76263837502717E-03 
1259	 1.76144093581157E-03 
1260	 1.78810704520792E-03 
1261	 1.54355336267137E-03 
1262	 1.47924034642148E-03 
1263	 1.56882669024362E-03 
1264	 1.80684408532828E-03 
1265	 1.75185789040114E-03 
1266	 1.6704017855335E-03 
1267	 1.76249675200973E-03 
1268	 1.82640450539922E-03 
1269	 1.96524479148959E-03 
1270	 2.00922809851841E-03 
1271	 1.87301833384569E-03 
1272	 1.80361610200369E-03 
1273	 1.66862414434826E-03 
1274	 1.59455155280136E-03 
1275	 1.57407018812048E-03 
1276	 1.49254660283138E-03 
1277	 1.59174270505166E-03 
1278	 1.68660885255773E-03 
1279	 1.82869663193327E-03 
1280	 1.88955803612864E-03 
1281	 1.79206547303629E-03 
1282	 1.38814685170484E-03 
1283	 1.40917785716911E-03 
1284	 1.64370222242927E-03 
1285	 1.64112915193471E-03 
1286	 1.62488565814071E-03 
1287	 1.7293700885626E-03 
1288	 1.80916874886235E-03 
1289	 1.75437838269808E-03 
1290	 1.82436094238816E-03 
1291	 1.84458309245972E-03 
1292	 1.50101268180496E-03 
1293	 1.26033461198852E-03 
1294	 1.26859224860776E-03 
1295	 1.4780758494686E-03 
1296	 1.85146288129683E-03 
1297	 1.95559463647002E-03 
1298	 1.73712783277369E-03 
1299	 1.51573282307544E-03 
1300	 1.42687184079441E-03 
1301	 1.38950475271318E-03 
1302	 1.47564431325407E-03 
1303	 1.79345933575829E-03 
1304	 2.13547479586845E-03 
1305	 2.01188505842028E-03 
1306	 1.81199336353208E-03 
1307	 1.28653816295023E-03 
1308	 1.39069108164392E-03 
1309	 1.69422611516193E-03 
1310	 1.71979931030216E-03 
1311	 2.16148952310456E-03 
1312	 0.002309293937431 
1313	 1.86491317442915E-03 
1314	 1.59664763212749E-03 
1315	 1.33854924200025E-03 
1316	 1.43379177191686E-03 
1317	 1.81571872187873E-03 
1318	 1.85206851920241E-03 
1319	 2.11201753737845E-03 
1320	 2.17534097219937E-03 
1321	 1.61901177729352E-03 
1322	 1.30300491956229E-03 
1323	 1.61271041124233E-03 
1324	 2.02534270876857E-03 
1325	 1.95850347420906E-03 
1326	 1.76245227504318E-03 
1327	 1.95614336250074E-03 
1328	 1.76791381121163E-03 
1329	 1.66282271327044E-03 
1330	 2.12729660327197E-03 
1331	 2.10697652440022E-03 
1332	 2.08036903376951E-03 
1333	 2.60110190294116E-03 
1334	 2.79759710233778E-03 
1335	 2.71314405301105E-03 
1336	 2.12130162622354E-03 
1337	 1.92918912395064E-03 
1338	 1.62077382536012E-03 
1339	 1.63960218033025E-03 
1340	 1.91568215182186E-03 
1341	 2.32186915564284E-03 
1342	 3.34302151946259E-03 
1343	 3.5812500833176E-03 
1344	 3.66821381723409E-03 
1345	 3.88458714140784E-03 
1346	 3.0200324191602E-03 
1347	 2.47129881693243E-03 
1348	 2.5685733627229E-03 
1349	 2.56068994709061E-03 
1350	 1.50287836793721E-03 
1351	 1.32717456180652E-03 
1352	 4.83607861125924E-03 
1353	 7.07287779736932E-03 
1354	 8.98853406058476E-03 
1355	 1.29882291808791E-02 
1356	 1.30269936126595E-02 
1357	-6.62337579510813E-03 
1358	-9.41238228953157E-03 
1359	 6.18300900709403E-02 
1360	 9.35007879506087E-02 
1361	 6.86611894356742E-02 
1362	 0.130025636105557 
1363	 9.14310019751788E-02 
1364	-8.09631884429001E-02 
1365	 1.36870307208566E-02 
1366	 0.252999282354026 
1367	 0.18738633332187 
1368	 0.113464899188526 
1369	 9.27623684979266E-02 
1370	 0.189451512043391 
1371	 0.168314564760374 
1372	 0.109416878092902 
1373	 0.280066646992849 
1374	 0.384981915332697 
1375	 8.48404741640783E-02 
1376	-8.40520659357985E-03 
1377	 0.312789610977311 
1378	 0.366283373180753 
1379	 0.103531808400516 
1380	 0.114156781521355 
1381	 0.554460971063747 
1382	 0.526670882804533 
1383	-1.55549556820015E-02 
1384	-2.69962440033769E-02 
1385	-3.85251026240674E-03 
1386	-0.100614572233415 
1387	 0.177915267075749 
1388	 0.508472250620626 
1389	 0.720792862890515 
1390	 0.697733985203232 
1391	 0.596649683015905 
1392	 0.84537060234985 
1393	 0.375311782373995 
1394	-0.151059206661598 
1395	-0.305083997121124 
1396	-0.220422607741528 
1397	-0.120458460152415 
1398	 0.18020848806592 
1399	 0.380746579193561 
1400	 0.172372095177566 
1401	 0.14414735814092 
1402	 0.127899757173944 
1403	 6.89402234430037E-02 
1404	 0.158671294678102 
1405	 0.170839851838543 
1406	 7.95584889671174E-02 
1407	 9.03702438001254E-02 
1408	 0.180344739758713 
1409	 0.159588859557813 
1410	 0.125751048868684 
1411	 0.108634266247262 
1412	 6.30907474270722E-02 
1413	 3.53183875247447E-02 
1414	 2.19771260481395E-02 
1415	 1.78514690292029E-02 
1416	 9.02678716426269E-03 
1417	 1.72591018040152E-02 
1418	 0.050308630750869 
1419	 0.037904262665398 
1420	 6.80970599916026E-03 
1421	 4.33366920797896E-03 
1422	 1.67138341304174E-03 
1423	 2.96825029931711E-04 
1424	 9.0488378863621E-03 
1425	 1.00217856634173E-02 
1426	 2.85049438794291E-03 
1427	 2.12891598873597E-03 
1428	 6.70016268126519E-03 
1429	 8.04248687001501E-03 
1430	 7.07290802555958E-03 
1431	 8.81702945556311E-03 
1432	 1.32603667985502E-02 
1433	 1.23379801081131E-02 
1434	 1.07481931591674E-02 
1435	 1.06883548510207E-02 
1436	 7.79529615965132E-03 
1437	 2.9607206128477E-03 
1438	 4.42653449877425E-03 
1439	 2.49083889223428E-03 
1440	-3.79019849633703E-04 
1441	 4.75011400435108E-03 
1442	 8.10548644265805E-03 
1443	 5.73847465495663E-03 
1444	 4.67099385749313E-03 
1445	 3.83854978652833E-03 
1446	 3.87501816165967E-03 
1447	 4.50908137136998E-03 
1448	 3.79789254162021E-03 
1449	 2.69519710318006E-03 
1450	 2.36141028077143E-03 
1451	 3.10632745561811E-03 
1452	 3.61647656828556E-03 
1453	 2.66348991437468E-03 
1454	 2.68464459834487E-03 
1455	 3.01576880419198E-03 
1456	 2.64006307837696E-03 
1457	 1.87938764517016E-03 
1458	 1.97153713477273E-03 
1459	 2.04623630906871E-03 
1460	 1.75229407674227E-03 
1461	 1.82118992470741E-03 
1462	 2.17105855923676E-03 
1463	 1.99803190555024E-03 
1464	 2.14337230944538E-03 
1465	 3.5916243339495E-03 
1466	 3.78151842886221E-03 
1467	 2.98808987295501E-03 
1468	 2.46763374541372E-03 
1469	 6.40716542710437E-04 
1470	 1.31177725556799E-03 
1471	 0.004331534544771 
1472	 4.53729535453804E-03 
1473	 4.93902605056894E-03 
1474	 5.02349869256616E-03 
1475	 2.74747073138862E-03 
1476	 1.82380201744566E-03 
1477	 2.45100763568651E-03 
1478	 2.17512267009018E-03 
1479	 7.69440410239579E-04 
1480	 7.89937277394384E-04 
1481	 1.89345749652212E-03 
1482	 1.84702294235008E-03 
1483	 1.44393386349622E-03 
1484	 1.68617269079248E-03 
1485	 2.24120898692669E-03 
1486	 1.77391202195968E-03 
1487	 7.74456740297547E-04 
1488	 9.17886783713045E-04 
1489	 1.06504191123565E-03 
1490	 9.20195623634127E-04 
1491	 1.52085678862541E-03 
1492	 1.73678649033589E-03 
1493	 1.13199718221865E-03 
1494	 9.79922070057478E-04 
1495	 1.31379275289815E-03 
1496	 1.34347541602334E-03 
1497	 1.17834680657368E-03 
1498	 1.22729178664035E-03 
1499	 1.50496796878223E-03 
1500	 1.37279246910817E-03 
1501	 7.30711038976461E-04 
1502	 7.71499419785371E-04 
1503	 1.12674114548308E-03 
1504	 1.21034149234686E-03 
1505	 1.68680902095365E-03 
1506	 1.93496551409771E-03 
1507	 1.39367059114243E-03 
1508	 9.73006765543708E-04 
1509	 1.02779717048741E-03 
1510	 1.13191967256736E-03 
1511	 1.28993161442123E-03 
1512	 1.43911424722779E-03 
1513	 1.35974727873625E-03 
1514	 1.15491189904579E-03 
1515	 1.10379831500664E-03 
1516	 1.12888479646946E-03 
1517	 1.19445809547069E-03 
1518	 1.42510899793851E-03 
1519	 1.53978305194031E-03 
1520	 1.51878538191201E-03 
1521	 1.51627966993844E-03 
1522	 1.37866547479219E-03 
1523	 1.26270347763201E-03 
1524	 1.43162856505618E-03 
1525	 1.57626427283126E-03 
1526	 1.47880661486026E-03 
1527	 1.27688111268257E-03 
1528	 1.04085853886079E-03 
1529	 9.31335981136585E-04 
1530	 1.11882553059164E-03 
1531	 1.43543312899206E-03 
1532	 1.49832062854687E-03 
1533	 1.36246293112443E-03 
1534	 1.35354827386926E-03 
1535	 1.37635127874964E-03 
1536	 1.21000336378545E-03 
1537	 1.14365828052257E-03 
1538	 1.1041699042172E-03 
1539	 7.96715169143475E-04 
1540	 7.9505541026918E-04 
1541	 1.07213185251492E-03 
1542	 1.15926453962033E-03 
1543	 1.13460160261459E-03 
1544	 1.01684420850855E-03 
1545	 1.10980100135746E-03 
1546	 1.24534822560713E-03 
1547	 1.15248792139649E-03 
1548	 1.31484945048266E-03 
1549	 1.44794652128117E-03 
1550	 1.1746370411453E-03 
1551	 9.89486286262809E-04 
1552	 1.03710884826204E-03 
1553	 1.12595352406462E-03 
1554	 1.1789536280249E-03 
1555	 1.09346330950834E-03 
1556	 1.12306585440401E-03 
1557	 1.29675805106893E-03 
1558	 1.24627500148926E-03 
1559	 1.25560068496983E-03 
1560	 1.39182449712573E-03 
1561	 1.33022598786406E-03 
1562	 1.31215052323147E-03 
1563	 1.48411457777209E-03 
1564	 1.55143731695208E-03 
1565	 1.27381311732133E-03 
1566	 1.07357181310014E-03 
1567	 1.22705889900396E-03 
1568	 1.32600911800918E-03 
1569	 1.49459260035948E-03 
1570	 1.60948296831951E-03 
1571	 1.20873065325837E-03 
1572	 9.49000258447197E-04 
1573	 1.17951102900091E-03 
1574	 1.39960047981263E-03 
1575	 1.41068145184603E-03 
1576	 1.28099727622427E-03 
1577	 1.1518240741567E-03 
1578	 1.03526962950708E-03 
1579	 9.43861219279811E-04 
1580	 9.58433435607408E-04 
1581	 1.04481274079811E-03 
1582	 1.0593732731909E-03 
1583	 1.02519928892564E-03 
1584	 1.04495899617545E-03 
1585	 9.76401417568339E-04 
1586	 9.59585151576557E-04 
1587	 1.0265918135716E-03 
1588	 9.71375003522515E-04 
1589	 1.07951381714388E-03 
1590	 1.20487067983137E-03 
1591	 1.1574563885359E-03 
1592	 1.27845329971173E-03 
1593	 1.33094522741673E-03 
1594	 1.11755196115906E-03 
1595	 1.01818394810357E-03 
1596	 1.10762046282156E-03 
1597	 1.1503142203258E-03 
1598	 1.14256819132435E-03 
1599	 1.1890800799867E-03 
1600	 1.21802726689764E-03 
1601	 1.21658746719437E-03 
1602	 1.30003437821323E-03 
1603	 1.42517429927639E-03 
1604	 1.50826538842848E-03 
1605	 1.43482332716131E-03 
1606	 1.21645006383809E-03 
1607	 1.28629726329291E-03 
1608	 1.43278617310415E-03 
1609	 1.28347526636791E-03 
1610	 1.32455873697016E-03 
1611	 1.42512649150976E-03 
1612	 1.19471363465777E-03 
1613	 1.07465046907544E-03 
1614	 1.36407984153312E-03 
1615	 1.58888647627414E-03 
1616	 1.36056961385428E-03 
1617	 1.20538717204728E-03 
1618	 1.34386913697981E-03 
1619	 1.1913689613983E-03 
1620	 1.01162252182183E-03 
1621	 1.22353177338281E-03 
1622	 1.25339209686288E-03 
1623	 1.01384226191595E-03 
1624	 1.02823280970863E-03 
1625	 1.19287357980796E-03 
1626	 1.19610313320227E-03 
1627	 1.14336118622762E-03 
1628	 1.05636466198844E-03 
1629	 9.86311999692384E-04 
1630	 1.0624015479701E-03 
1631	 1.03322608785768E-03 
1632	 9.9649497164355E-04 
1633	 1.0758084180029E-03 
1634	 1.07592411174099E-03 
1635	 1.13894903217707E-03 
1636	 1.22720162433262E-03 
1637	 1.26467523688873E-03 
1638	 1.20387490998723E-03 
1639	 1.04262930163021E-03 
1640	 1.11689851405662E-03 
1641	 1.28226853223534E-03 
1642	 1.26775849149428E-03 
1643	 1.34176440675361E-03 
1644	 1.37445599396237E-03 
1645	 1.09510182926207E-03 
1646	 1.00639317147951E-03 
1647	 1.22278154670214E-03 
1648	 1.20667083193487E-03 
1649	 1.26293915936749E-03 
1650	 1.50797611747728E-03 
1651	 1.38372654178086E-03 
1652	 1.30813997652308E-03 
1653	 1.59902864150122E-03 
1654	 1.57988389738779E-03 
1655	 1.4020630794544E-03 
1656	 1.39301699225307E-03 
1657	 1.36226064661895E-03 
1658	 1.25746090154562E-03 
1659	 1.1814023716525E-03 
1660	 1.15005591398381E-03 
1661	 1.11667684180609E-03 
1662	 1.00332267911105E-03 
1663	 7.60572709437823E-04 
1664	 8.34346859009185E-04 
1665	 1.12031375482621E-03 
1666	 1.08314568489089E-03 
1667	 1.11168417823633E-03 
1668	 8.93812891136531E-04 
1669	 7.36388441984019E-04 
1670	 9.31927962865556E-04 
1671	 1.3214768142775E-03 
1672	 1.56613659233468E-03 
1673	 1.26321077661052E-03 
1674	 1.08461926494745E-03 
1675	 1.27747688148482E-03 
1676	 1.17176636598949E-03 
1677	 1.12874039903133E-03 
1678	 1.3202884158311E-03 
1679	 1.23166102538623E-03 
1680	 1.14090493460335E-03 
1681	 1.42983232737141E-03 
1682	 1.40515810929214E-03 
1683	 1.03296487564358E-03 
1684	 1.25096355258797E-03 
1685	 1.41743384350238E-03 
1686	 9.29923655847614E-04 
1687	 9.50494074092479E-04 
1688	 1.26417607203887E-03 
1689	 1.07216444184501E-03 
1690	 1.01976538302789E-03 
1691	 1.00285805048453E-03 
1692	 7.4625928254486E-04 
1693	 7.28952491847493E-04 
1694	 1.18051057562038E-03 
1695	 1.72725326030542E-03 
1696	 1.51497656193661E-03 
1697	 1.20886800496083E-03 
1698	 1.36122678284922E-03 
1699	 9.88245544254905E-04 
1700	 9.12934811102265E-04 
1701	 1.29484800813657E-03 
1702	 8.00879518427434E-04 
1703	 6.98953644043342E-04 
1704	 1.56459676648902E-03 
1705	 1.78840434639129E-03 
1706	 1.70269184755464E-03 
1707	 1.64715861244795E-03 
1708	 9.23892609124138E-04 
1709	 5.21056598117228E-04 
1710	 9.46193881681681E-04 
1711	 1.36815706066832E-03 
1712	 1.42911275614567E-03 
1713	 1.42248734235098E-03 
1714	 1.35363166384303E-03 
1715	 1.29330895244612E-03 
1716	 1.47264646521536E-03 
1717	 9.97708656265631E-04 
1718	 8.16859020903046E-04 
1719	 1.2941350249832E-03 
1720	 1.24206413028814E-03 
1721	 1.3293530736448E-03 
1722	 1.76535125383252E-03 
1723	 1.67675818999651E-03 
1724	 1.67472434756006E-03 
1725	 1.70641387407147E-03 
1726	 1.31570472099333E-03 
1727	 1.38752620102691E-03 
1728	 1.76889265350918E-03 
1729	 1.87569843006188E-03 
1730	 1.79346740897108E-03 
1731	 1.39149909673038E-03 
1732	 8.16751742141312E-04 
1733	 4.85648707460796E-04 
1734	 8.71174207022208E-04 
1735	 1.54459116819954E-03 
1736	 1.74670501374344E-03 
1737	 1.95050274965231E-03 
1738	 2.26381480450531E-03 
1739	 2.23606322340144E-03 
1740	 1.68616300931297E-03 
1741	 1.21952129721301E-03 
1742	 9.85018736618174E-04 
1743	 5.26750424331453E-04 
1744	 9.61618981278752E-04 
1745	 1.75385422849407E-03 
1746	 9.55748944118192E-04 
1747	 8.09115144375259E-04 
1748	 7.45644317079202E-04 
1749	 6.25904150982168E-04 
1750	 9.34725862000008E-04 
1751	 1.03547690236003E-03 
1752	 6.91924415679377E-04 
1753	 7.60482594301837E-04 
1754	 1.27925396522283E-03 
1755	 1.32364625659847E-03 
1756	 1.22826568210343E-03 
1757	 1.14987830947702E-03 
1758	 1.00050087137764E-03 
1759	 1.0917333618309E-03 
1760	 1.05743559591716E-03 
1761	 5.79718211208098E-04 
1762	 3.32618584236113E-04 
1763	 6.6747667449511E-04 
1764	 1.21429734577827E-03 
1765	 1.39788469074695E-03 
1766	 1.13502947292042E-03 
1767	 8.78678640575978E-04 
1768	 4.3945455088745E-04 
1769	 5.90727467974186E-04 
1770	 1.23716247283024E-03 
1771	 1.53685142232369E-03 
1772	 1.94132990402776E-03 
1773	 1.8132708695966E-03 
1774	 1.44923954882142E-03 
1775	 2.99140066503391E-04 
1776	 1.52979735380265E-04 
1777	 1.61117667301329E-03 
1778	 1.88402944405969E-03 
1779	 1.40359298208725E-03 
1780	 1.89415476929141E-03 
1781	 2.62127867557978E-03 
1782	 2.67181796805389E-03 
1783	 3.88530570311917E-03 
1784	 4.06776942489155E-03 
1785	 1.31385825402429E-03 
1786	 6.52952960432684E-04 
1787	 1.56935385191657E-03 
1788	 1.51178087706243E-03 
1789	 2.29143293447635E-03 
1790	 3.37234205208781E-03 
1791	 2.15252363383141E-03 
1792	 2.51493328168167E-03 
1793	 2.43475166332058E-03 
1794	 1.90455132503803E-03 
1795	 0.001237135830659 
1796	 3.87117152551303E-03 
1797	 7.46666634411836E-03 
1798	 8.15572895563421E-03 
1799	 1.15884976526211E-02 
1800	-1.04094080320984E-03 
1801	-5.00054328808286E-03 
1802	 1.72623043353675E-04 
1803	-1.18617711654374E-03 
1804	 3.93332910111862E-03 
1805	 8.08709853972933E-03 
1806	-7.08956794961396E-03 
1807	-1.82364092063654E-03 
1808	 5.21981156668522E-02 
1809	 6.52479547528485E-02 
1810	 4.40316124009507E-02 
1811	 4.08401981923468E-02 
1812	-2.73926945326074E-02 
1813	-3.89984498859882E-02 
1814	 5.70722422091305E-02 
1815	 0.111291502990556 
1816	 0.186039824830477 
1817	 0.128827808930408 
1818	 4.85369417681831E-02 
1819	-2.36182127568051E-02 
1820	-0.125398931815852 
1821	-0.133246514564279 
1822	-0.053342662992019 
1823	 9.86212623414782E-02 
1824	 0.223189696251135 
1825	 0.408055103799843 
1826	 0.440443290950126 
1827	 0.465800260767181 
1828	 0.419573266493844 
1829	 7.17576626191364E-02 
1830	-5.16056680088707E-02 
1831	 0.105979292201401 
1832	 0.151765225949464 
1833	 0.28932630087552 
1834	 0.239810259145602 
1835	 0.424765373990736 
1836	 0.623433800301699 
1837	 0.546168842927889 
1838	 0.379656278396535 
1839	 0.259338187424278 
1840	 0.573676149067938 
1841	 0.131136079113671 
1842	-0.390297599005646 
1843	-0.147435190659545 
1844	-6.7591712400386 
1845	-3.80376343370025 
1846	 5.28663482357512 
1847	 2.96567524757416 
1848	 0.26086822661824 
1849	-0.41906020952409 
1850	-1.59802760265258 
1851	-0.196176530897543 
1852	 1.16056626184689 
1853	 1.25057363581474 
1854	 1.23964208911809 
1855	 1.18873783763384 
1856	 1.43664944858372 
1857	 2.38008060083025 
1858	-1.46162023505901 
1859	-2.49486497081542E-02 
1860	 0.355915004527344 
1861	 9.39579626970024E-02 
1862	 0.41003566541112 
1863	-0.53583435509976 
1864	-2.2328403946995 
1865	-6.89475461537327 
1866	 1.86088148742737 
1867	 1.27104357273903 
1868	 0.561592217866865 
1869	 0.304004324349028 
1870	 0.297883919723612 
1871	 0.151322164309111 
1872	-3.23070176898738 
1873	 18.2565287481457 
1874	-5.29943825315586 
1875	-2.04791128087651 
1876	-1.09997955633321 
1877	 1.04544141829247 
1878	 1.43049902673372 
1879	 3.20782731907411 
1880	 4.52019408869881 
1881	 2.42937745158292 
1882	-1.74946086523038 
1883	 3.46811109627555 
1884	-7.10081652482176 
1885	-0.925252842214903 
1886	-3.62900336395295 
1887	 1.87983131386471 
1888	 0.235696084844439 
1889	 0.30707650845416 
1890	 0.79413266621413 
1891	 0.806876379651068 
1892	 1.25445171961524 
1893	 2.57249133580314 
1894	 1.58179626782645 
1895	 0.606995869074715 
1896	 0.446677397416682 
1897	 0.640560227711402 
1898	 0.580346962323545 
1899	 1.06090289724536 
1900	 1.19982074267362 
1901	-0.296777008401911 
1902	-2.17189553407935 
1903	 0.058042253136 
1904	 0.11656174963668 
1905	 0.239712885562492 
1906	-4.94311951529789 
1907	 4.79291800430321 
1908	-3.49947034202953 
1909	-0.615819804042027 
1910	-1.12331763233152 
1911	-4.68757242502424 
1912	-5.86495331932414 
1913	-2.62235372257512 
1914	-0.709169410143397 
1915	-0.726311924333073 
1916	-0.591485599581758 
1917	-0.305739504722426 
1918	-1.22668994570826 
1919	-4.79757143927551 
1920	 8.80677184678965 
1921	 1.13471343632438 
1922	 0.459260528934864 
1923	-0.375590577023115 
1924	-0.758902945182236 
1925	 1.48277039412809 
1926	 1.75374421233574 
1927	 1.23890959662235 
1928	-0.392630096476885 
1929	-0.514364952076942 
1930	-0.191305091273804 
1931	-0.172686356389294 
1932	-0.125792510224154 
1933	-0.03951443457005 
1934	-7.39579516616988E-02 
1935	-0.125184377709868 
1936	-6.53627704754761E-02 
1937	 2.77037908283212E-02 
1938	 7.52844015824192E-02 
1939	 7.11081558041544E-02 
1940	 5.25042441652026E-02 
1941	 3.87187509816917E-02 
1942	 1.40531999857429E-02 
1943	-0.01093643936231 
1944	-1.23584814446745E-02 
1945	 6.3823205201711E-03 
1946	 3.10403986365113E-02 
1947	 4.26229017017724E-02 
1948	 6.69916409243578E-02 
1949	 7.18715046977427E-02 
1950	 3.55885885638785E-02 
1951	 2.06019301190855E-02 
1952	 1.83533719112157E-02 
1953	 0.016452652550482 
1954	 1.65000703658749E-02 
1955	 2.66917393861551E-02 
1956	 0.021399525678404 
1957	 6.7203399116022E-03 
1958	-4.24556137369335E-04 
1959	 9.99366764090287E-04 
1960	 6.11725362742546E-03 
1961	 9.01679999605411E-03 
1962	 7.68231573449603E-03 
1963	 3.79538982506301E-03 
1964	 1.22971881503631E-03 
1965	 2.82214228041555E-03 
1966	 2.40755245052154E-03 
1967	 1.70208866967126E-03 
1968	 8.14087569229552E-04 
1969	 2.52029300627134E-03 
1970	 1.9276404513399E-03 
1971	 1.51827218939184E-03 
1972	 2.97733241922599E-03 
1973	 2.0596373108447E-03 
1974	 6.56401258329729E-04 
1975	 9.32144597385082E-04 
1976	 1.91390641038242E-03 
1977	 2.69404497438165E-03 
1978	 3.58205744328533E-03 
1979	 3.80901207792609E-03 
1980	 3.72890482679815E-03 
1981	 2.6808207084028E-03 
1982	 1.63582218825857E-03 
1983	 5.91222964697633E-04 
1984	-3.33088634804775E-04 
1985	-1.00922650386271E-03 
1986	-5.74583976206117E-04 
1987	 3.25236444502823E-04 
1988	 8.94967028916988E-04 
1989	 2.03363751746729E-03 
1990	 2.58092838909188E-03 
1991	 2.72011102778868E-03 
1992	 3.45644832721793E-03 
1993	 3.50064100189828E-03 
1994	 3.09558974440095E-03 
1995	 2.08269879429958E-03 
1996	 9.22072876926788E-04 
1997	-6.38945805259568E-04 
1998	-1.81094290326651E-03 
1999	-2.46403093949548E-03 
2000	-1.94888832360957E-03 
2001	-1.78806522674049E-03 
2002	-2.35285547325646E-03 
2003	-7.4103630683725E-04 
2004	-1.83552471437168E-03 
2005	-5.0846192153772E-03 
2006	-3.98253451577315E-03 
2007	-2.31386113128679E-03 
2008	-2.68312283734531E-03 
2009	-1.90341771573136E-03 
2010	 2.01029796294429E-03 
2011	 3.21098267268114E-03 
2012	 2.55706236586075E-03 
2013	 1.3561897740114E-03 
2014	 2.89929465415855E-03 
2015	 2.81015756831772E-03 
2016	 1.31771051096638E-03 
2017	 2.15688262301781E-03 
2018	 3.06777398263809E-03 
2019	 2.38373480655692E-03 
2020	 2.09262511135822E-03 
2021	 2.52850044781398E-03 
2022	 2.14348090703583E-03 
2023	 1.49737030506366E-03 
2024	 1.14668529691992E-03 
2025	 7.29190969197562E-04 
2026	 6.05639109015467E-04 
2027	 7.03261405147136E-04 
2028	 7.2892145536318E-04 
2029	 8.41650019917742E-04 
2030	 1.05707279692474E-03 
2031	 7.86800095865765E-04 
2032	 5.25503497723589E-04 
2033	 4.99763924963097E-04 
2034	 1.07302981430529E-03 
2035	 1.83626060061512E-03 
2036	 2.0931433827298E-03 
2037	 2.35570522269853E-03 
2038	 2.08717679857124E-03 
2039	 1.83326767232957E-03 
2040	 1.23817212211446E-03 
2041	 1.18431846538378E-03 
2042	 1.31378652862217E-03 
2043	 1.42876396304263E-03 
2044	 1.87478281159655E-03 
2045	 2.12937131972804E-03 
2046	 2.03791095703605E-03 
2047	 2.08353469492756E-03 
2048	 1.55391918209923E-03 
2049	 1.01921416636386E-03 
2050	 9.70908950636522E-04 
2051	 3.28444910873664E-04 
2052	-3.34788542977453E-04 
2053	 3.10744771419505E-04 
2054	 1.46780551364454E-03 
2055	 2.16399999065195E-03 
2056	 2.19706868286469E-03 
2057	 1.87529324877701E-03 
2058	 1.71004336956431E-03 
2059	 2.85446892048064E-04 
2060	-1.75688341946308E-04 
2061	 9.96200111259779E-05 
2062	 7.93730127956848E-04 
2063	 4.70472065647899E-04 
2064	 9.37996612894597E-04 
2065	 6.82603423459481E-04 
2066	-5.1754465048368E-04 
2067	 1.65282442150881E-04 
2068	 1.05313534418092E-03 
2069	 1.3767611800661E-03 
2070	 1.7664001115844E-03 
2071	 1.42992413180073E-03 
2072	 8.12850351693317E-04 
2073	 6.75986061175359E-04 
2074	 1.36356428035148E-03 
2075	 1.46572548461144E-03 
2076	 1.18051695882754E-03 
2077	 1.17186315646234E-03 
2078	 9.8852258643574E-04 
2079	 1.37565174001578E-03 
2080	 2.29072572966667E-03 
2081	 2.88989358242742E-03 
2082	 3.2196411726668E-03 
2083	 3.24264980238653E-03 
2084	 2.66979457489444E-03 
2085	 2.1056585407406E-03 
2086	 1.7436333792887E-03 
2087	 1.66216840913871E-03 
2088	 1.57667983310042E-03 
2089	 9.0894528530373E-04 
2090	-1.3590581226193E-04 
2091	-5.64226126760039E-04 
2092	-4.46731880469186E-04 
2093	 2.66072515126584E-04 
2094	 4.07242575460047E-04 
2095	 1.01366091480639E-03 
2096	 1.20609727331804E-03 
2097	 8.07893810891672E-04 
2098	 8.23562256362162E-04 
2099	 1.25906923075031E-03 
2100	 1.04087345910937E-03 
2101	 1.03851439641605E-03 
2102	 1.1835088414728E-03 
2103	 6.29991777540968E-04 
2104	 4.78593334639187E-04 
2105	 1.10758252733994E-03 
2106	 8.90050209487848E-04 
2107	 9.22691604938764E-04 
2108	 1.55695029211735E-03 
2109	 1.49500982660907E-03 
2110	 9.87812633653504E-04 
2111	 9.71883607536913E-04 
2112	 8.12935293056976E-04 
2113	 5.84971512961086E-04 
2114	 5.12445030833298E-06 
2115	 2.2486138734024E-04 
2116	 1.08667342634062E-03 
2117	 1.31805168910582E-03 
2118	 1.63522674016334E-03 
2119	 1.7303762152084E-03 
2120	 1.36231246578323E-03 
2121	 9.64117527765347E-04 
2122	 7.80022755359626E-04 
2123	 4.43687150034473E-04 
2124	 4.0005117200647E-04 
2125	 8.98688979577609E-04 
2126	 9.7390755267941E-04 
2127	 1.00608853496772E-03 
2128	 9.47114016408708E-04 
2129	 2.36679507071803E-04 
2130	-1.50556326327432E-04 
2131	 2.09810976687262E-04 
2132	 3.54653429587357E-04 
2133	 6.57648240322034E-04 
2134	 8.01077309539821E-04 
2135	 1.13605050057716E-03 
2136	 9.63759836751662E-04 
2137	-3.90575054868945E-05 
2138	-1.56641881727567E-04 
2139	 1.6345344134869E-04 
2140	 2.028879745915E-04 
2141	 8.5564549609104E-04 
2142	 1.1425162854351E-03 
2143	 9.60863903129203E-04 
2144	 5.72109107837376E-04 
2145	 8.34899433009579E-04 
2146	 7.54791373080154E-04 
2147	 4.15601896132195E-04 
2148	 6.07118286458333E-04 
2149	 1.43418109933587E-03 
2150	 1.5820511355552E-03 
2151	 1.59206605769355E-03 
2152	 2.02425482964512E-03 
2153	 2.05043825385865E-03 
2154	 2.04928215812595E-03 
2155	 1.77655400329799E-03 
2156	 1.61255236938771E-03 
2157	 1.77216270172424E-03 
2158	 1.68473244091924E-03 
2159	 1.9303485758497E-03 
2160	 3.13810759341664E-03 
2161	 3.26254494883579E-03 
2162	 2.6931228105944E-03 
2163	 2.35403705233647E-03 
2164	 1.65951980112811E-03 
2165	 1.57443703650733E-03 
2166	 2.01545925342135E-03 
2167	 1.93091546350956E-03 
2168	 1.2688638480545E-03 
2169	 1.43469230814199E-03 
2170	 2.13125517023181E-03 
2171	 2.35407599427777E-03 
2172	 1.85437521061736E-03 
2173	 1.61221818206394E-03 
2174	 4.99417455764544E-04 
2175	-1.32171311989647E-03 
2176	-1.31269835675003E-03 
2177	 7.32057229208057E-04 
2178	 1.76798139365314E-03 
2179	 1.9209913778415E-03 
2180	 1.81780014030247E-03 
2181	 1.16136522943591E-03 
2182	 4.55760575903834E-04 
2183	 1.00686167046573E-04 
2184	 1.15460459061876E-03 
2185	 1.46519969651695E-03 
2186	 1.32860425268484E-03 
2187	 1.1936259996871E-03 
2188	 9.58898855627966E-04 
2189	-4.59397686852671E-04 
2190	-5.78164868794058E-04 
2191	 3.19287757696668E-04 
2192	 1.6325594141801E-04 
2193	-5.29356804070934E-04 
2194	-5.77615861372275E-05 
2195	 8.78160653438378E-04 
2196	 8.09876038578627E-04 
2197	 1.39949764014907E-03 
2198	 1.87752264090874E-03 
2199	 8.95456918669746E-04 
2200	 9.00995034329517E-04 
2201	 2.00021201843056E-03 
2202	 1.10805701798858E-03 
2203	-9.91578351647231E-05 
2204	-1.36850396043898E-03 
2205	-1.69438292334083E-03 
2206	-8.38067541294059E-04 
2207	-7.26706562721916E-04 
2208	-5.77320397083876E-04 
2209	-8.83824182316135E-05 
2210	 6.95336794881599E-04 
2211	 1.82923821129184E-03 
2212	 2.73538759201367E-03 
2213	 2.55606316298854E-03 
2214	 1.92618768467443E-03 
2215	 1.50313176865226E-03 
2216	 1.7133814628862E-03 
2217	 1.22712699443685E-03 
2218	 4.26170188952439E-04 
2219	 1.48701003966818E-04 
2220	-6.33341846234759E-04 
2221	-4.45056731148662E-04 
2222	 9.85735733215528E-04 
2223	 1.35440274829101E-03 
2224	 1.77633571396432E-03 
2225	 1.86770999155653E-03 
2226	 1.68555357626277E-03 
2227	 1.33431846220776E-03 
2228	 2.64026329859559E-04 
2229	-2.36718128521507E-04 
2230	-1.12677379845531E-03 
2231	-7.47772860109494E-04 
2232	 1.56484452891214E-03 
2233	 1.89721985600678E-03 
2234	 0.001841520151235 
2235	 1.33073510269123E-03 
2236	-3.30296478511958E-04 
2237	-5.653097508091E-04 
2238	 8.00059756210929E-04 
2239	 2.36769020260834E-03 
2240	 4.17290858497372E-03 
2241	 5.63872001143515E-03 
2242	 6.47575299721561E-03 
2243	 6.14555906394857E-03 
2244	 5.41331537303511E-03 
2245	 5.12204805286256E-03 
2246	 4.74819928685112E-03 
2247	 3.95251386671048E-03 
2248	 2.56304398297611E-03 
2249	 2.03052113692334E-03 
2250	 2.33275612594888E-03 
2251	 2.96319779590225E-03 
2252	 4.60684043423303E-03 
2253	 5.44967697438635E-03 
2254	 3.81024650643605E-03 
2255	 2.17829284922403E-03 
2256	-8.75110031603444E-05 
2257	-3.36024311881991E-03 
2258	-2.29194535539305E-03 
2259	-7.92424325045803E-04 
2260	-8.5138272421646E-04 
2261	 1.3721327419424E-04 
2262	 3.40823229623902E-05 
2263	-2.8460365651048E-03 
2264	-3.24447973550755E-03 
2265	-2.73212417886473E-03 
2266	-1.20193251583185E-03 
2267	 2.5860817263221E-03 
2268	 3.0572447639682E-03 
2269	 1.63621521683546E-03 
2270	 3.23501024612683E-03 
2271	 5.6180449601678E-03 
2272	 5.49075802607418E-03 
2273	 6.77692521080606E-03 
2274	 6.42222702759087E-03 
2275	 1.1663948359134E-03 
2276	-6.84331147717794E-04 
2277	 7.27821924862865E-04 
2278	 7.89163892095821E-04 
2279	 1.11842871388257E-04 
2280	-4.10835959550644E-05 
2281	-7.80082474625162E-05 
2282	-6.85984115787407E-04 
2283	 1.35812911995728E-03 
2284	 2.68920026232779E-03 
2285	 2.07276915468691E-03 
2286	 3.98530868420567E-03 
2287	 4.02862783820794E-03 
2288	 1.69230320978006E-03 
2289	 3.54863234739068E-03 
2290	 5.02699569287644E-03 
2291	 4.05366797819568E-03 
2292	 5.95093051447661E-03 
2293	 5.32516920562576E-03 
2294	 1.6870761536596E-03 
2295	 1.06339955538741E-03 
2296	-8.26214255283189E-04 
2297	-1.2334021860521E-03 
2298	 1.5004422799782E-03 
2299	-5.027655716272E-04 
2300	-4.11588263499035E-04 
2301	 2.65199815958933E-03 
2302	 1.42359780080664E-03 
2303	 3.1153403097133E-03 
2304	 6.49158592746953E-03 
2305	 3.78017611167009E-03 
2306	 1.64640355832287E-03 
2307	 2.53005384437501E-03 
2308	 1.25309785650308E-03 
2309	-2.01192609808815E-03 
2310	-4.38830947367197E-03 
2311	-3.46664480000156E-03 
2312	-1.08940951828729E-03 
2313	 2.73734360619112E-03 
2314	 7.78421659147138E-03 
2315	 7.84579499902508E-03 
2316	 4.40394767693784E-03 
2317	 4.39953805715266E-03 
2318	 6.67868106300459E-04 
2319	-3.13981716633337E-03 
2320	 9.57687091857755E-04 
2321	 4.08843835392599E-03 
2322	 9.70673978002346E-03 
2323	 1.10881720313502E-02 
2324	 6.64879089327104E-03 
2325	 3.57433517571901E-03 
2326	-0.001785814148437 
2327	-2.05845016656037E-03 
2328	 9.10589769529324E-04 
2329	 1.52341994117573E-03 
2330	 1.58107405228235E-03 
2331	 4.93568384082014E-03 
2332	 6.83565603175795E-03 
2333	 3.26183128491983E-03 
2334	 4.84985275378756E-03 
2335	 5.99820089673358E-03 
2336	-0.001048681866546 
2337	-7.3345362717774E-03 
2338	-6.13038384714042E-03 
2339	-2.80628372947253E-03 
2340	-2.05568405601124E-03 
2341	-2.04211480404092E-03 
2342	-4.81199803093567E-03 
2343	-6.65288083805098E-03 
2344	-2.25341009947373E-03 
2345	 4.56916444316985E-03 
2346	 6.19677014328357E-03 
2347	 1.35239056499075E-03 
2348	-4.76230267186647E-03 
2349	-8.62665912768589E-03 
2350	-4.08059950734369E-03 
2351	-1.85014993797759E-03 
2352	-1.48252975275294E-02 
2353	-2.07253296760008E-02 
2354	-1.79475227874296E-02 
2355	-0.01609746316965 
2356	-7.41869933973162E-03 
2357	-6.80093815290219E-03 
2358	-1.20087612544218E-02 
2359	-1.17572947781357E-02 
2360	-6.80537753867287E-03 
2361	-1.19033182302328E-03 
2362	-2.36476350235121E-03 
2363	-6.6571931633514E-04 
2364	-3.18697198661233E-03 
2365	-5.50661444371654E-03 
2366	 4.85397008566632E-03 
2367	 7.54000625851557E-03 
2368	 1.08095939924989E-02 
2369	 1.70508440741695E-02 
2370	 1.19973846810496E-02 
2371	 9.07897871249821E-03 
2372	 1.27278634038815E-02 
2373	 1.42933227900414E-02 
2374	 1.31034127109422E-02 
2375	 1.32054054536786E-02 
2376	 3.1917949296208E-03 
2377	-2.01711914222167E-02 
2378	-3.00800599438764E-02 
2379	-2.17602188190802E-02 
2380	-1.87465760337143E-02 
2381	-1.19698614449292E-02 
2382	 1.08665680877295E-02 
2383	 6.57995460455382E-03 
2384	-2.21206705908621E-02 
2385	-1.96513886735425E-02 
2386	-2.48306585256216E-03 
2387	-3.24431650642463E-03 
2388	 1.33807552211709E-02 
2389	 2.71749597944571E-02 
2390	-1.73410575054795E-02 
2391	-4.15562882887553E-02 
2392	-2.03168602969859E-02 
2393	-1.75620853149035E-02 
2394	-1.26620317096999E-02 
2395	-6.18947258108253E-04 
2396	-9.69524705851206E-03 
2397	-8.48793346254673E-03 
2398	 1.96512025177036E-02 
2399	 3.76798225324409E-02 
2400	 3.13484595222219E-02 
2401	 1.48911473676921E-02 
2402	 4.33901038938692E-03 
2403	 7.85948948473808E-03 
2404	 9.07079629041757E-03 
2405	-0.014288981041484 
2406	-0.033380669296467 
2407	-4.84111967238866E-02 
2408	-8.00326546878562E-02 
2409	-5.53337891668314E-02 
2410	-0.034898859836631 
2411	-9.58373268400546E-02 
2412	-0.121303451395441 
2413	-0.117841955637661 
2414	-0.107834584306244 
2415	-5.17992655080741E-02 
2416	 0.046915285377978 
2417	 0.084584172276824 
2418	-2.27409677377185E-03 
2419	-5.94574874056142E-02 
2420	-0.119423398783076 
2421	-0.138465458034311 
2422	-0.083628934984701 
2423	-6.89463926557771E-02 
2424	-4.44572277698495E-02 
2425	-2.13696324463299E-02 
2426	-3.87603277263707E-02 
2427	-6.38885322898341E-02 
2428	-2.82293185785583E-02 
2429	 2.61117858886414E-02 
2430	 9.60807561759649E-02 
2431	 0.166044654971899 
2432	 0.159729299586892 
2433	 9.90550555093755E-02 
2434	 3.75483528980315E-02 
2435	 2.28559226821486E-02 
2436	-6.56515268417895E-03 
2437	-7.68748235773521E-02 
2438	-0.145678272102023 
2439	-0.152607930010834 
2440	-8.72236122920543E-02 
2441	 1.25638366340467E-02 
2442	 0.089739568240655 
2443	 0.070614682233458 
2444	 4.24356620667318E-02 
2445	-1.51227715113383E-02 
2446	-0.132523004568098 
2447	 1.20511177611643E-02 
2448	 2.04837880614743E-02 
2449	-6.75579638073383E-02 
2450	-0.122356057378364 
2451	-0.226990405836333 
2452	-0.330108740541163 
2453	-0.292301364894323 
2454	-0.273202152808733 
2455	-0.261559132970135 
2456	-0.134415642219184 
2457	-7.03767602570922E-03 
2458	 8.36646665528993E-03 
2459	 4.52079208028637E-02 
2460	 0.173950924229045 
2461	 0.218076341095965 
2462	 0.193252198920498 
2463	 0.188267988297139 
2464	-7.10319480897163E-02 
2465	-0.127689601300565 
2466	 0.102020477361711 
2467	 0.216117188585306 
2468	 9.07632381944691E-02 
2469	 0.228731848226176 
2470	 0.353820350524653 
2471	-1.29329352318782E-02 
2472	 0.261937648217304 
2473	 0.403472875415856 
2474	 0.716498492354851 
2475	 1.54281887409872 
2476	 1.72014382728154 
2477	 1.25731159416052 
2478	 0.81902904664007 
2479	 0.324448235898638 
2480	 0.212009667085389 
2481	-0.374426340005457 
2482	-2.3588080991777 
2483	-1.11336273053948 
2484	 39.7135471950971 
2485	-2.93294915421908 
2486	-0.465905113400674 
2487	-1.33940017325411 
2488	-1.49011002021446 
2489	 1.10878006790366 
2490	 1.35627498375956 
2491	 1.81117520833367 
2492	-0.852773037783971 
2493	 1.32820193767511 
2494	 10.932766162094 
2495	 51.8786055239915 
2496	-2.70847681023522 
2497	 7.96342936357352 
2498	 1.29776576602452 
2499	 0.507971680143014 
2500	-0.272801054421233 
