Wavelength	rt0718far00005.asd
350	 3.11678367581457E-02 
351	 3.05485078987449E-02 
352	 3.03854046118131E-02 
353	 3.06978131584529E-02 
354	 3.11651485810256E-02 
355	 3.10891913159246E-02 
356	 3.10986436686684E-02 
357	 3.12664659576666E-02 
358	 3.15028481338955E-02 
359	 3.18779242299786E-02 
360	 3.18430511070006E-02 
361	 3.16076412279051E-02 
362	 3.17951073165203E-02 
363	 3.15875279084997E-02 
364	 3.13551619082465E-02 
365	 3.14013549323657E-02 
366	 3.17169136054005E-02 
367	 3.19269479581063E-02 
368	 3.19944797410243E-02 
369	 3.20070090631557E-02 
370	 3.21059360750434E-02 
371	 0.032139429929111 
372	 3.21771185754713E-02 
373	 3.23500447350352E-02 
374	 3.20952358226405E-02 
375	 3.20931027912405E-02 
376	 3.25669231352688E-02 
377	 3.29514660214101E-02 
378	 3.28987336147487E-02 
379	 3.27302968464457E-02 
380	 3.28360676317687E-02 
381	 3.33069764454714E-02 
382	 3.31157819030208E-02 
383	 3.28225663082519E-02 
384	 3.34831916881967E-02 
385	 0.033702282632247 
386	 3.39020765349994E-02 
387	 0.034215923285296 
388	 3.43070758514377E-02 
389	 3.43394272023828E-02 
390	 3.43293126880534E-02 
391	 3.42754754756468E-02 
392	 3.41467026186681E-02 
393	 3.44105498962443E-02 
394	 3.49632742601587E-02 
395	 3.54150493209608E-02 
396	 3.51723794267458E-02 
397	 3.51430624763679E-02 
398	 3.54358933140003E-02 
399	 3.54406642847735E-02 
400	 0.035558831303513 
401	 0.03560121170734 
402	 3.55149063976593E-02 
403	 0.035756090757757 
404	 3.59329973729572E-02 
405	 3.59202051419941E-02 
406	 0.035797030741252 
407	 3.61823022363157E-02 
408	 3.64113150289635E-02 
409	 3.63453353219252E-02 
410	 3.64268363923289E-02 
411	 0.036725118683877 
412	 3.69502994673915E-02 
413	 3.69547683589431E-02 
414	 3.70806581491173E-02 
415	 3.71955110780129E-02 
416	 0.037345388359882 
417	 3.75848712527111E-02 
418	 3.75701990462798E-02 
419	 0.037777879327703 
420	 3.82152351488148E-02 
421	 3.83502969956682E-02 
422	 3.84128175697287E-02 
423	 3.86612811163322E-02 
424	 3.91078674225656E-02 
425	 0.039030209480606 
426	 3.92666454274024E-02 
427	 3.96891034183301E-02 
428	 3.97951941857792E-02 
429	 4.00781959426342E-02 
430	 4.03997300974164E-02 
431	 4.06560344306826E-02 
432	 0.040854598313624 
433	 4.11547106736641E-02 
434	 4.14210869121336E-02 
435	 4.15794469150534E-02 
436	 4.19473173719433E-02 
437	 4.22229066353086E-02 
438	 0.042470951839957 
439	 4.29045270910173E-02 
440	 4.31569014424012E-02 
441	 4.33877992609874E-02 
442	 4.37010783087984E-02 
443	 4.40360421514287E-02 
444	 4.43451589413389E-02 
445	 4.46049125991523E-02 
446	 4.48279026141181E-02 
447	 4.51204934297304E-02 
448	 4.54281266596231E-02 
449	 4.56637602080661E-02 
450	 4.57503927240158E-02 
451	 4.59868670921907E-02 
452	 4.62480440261542E-02 
453	 4.64328353037648E-02 
454	 4.66195986638516E-02 
455	 4.67911287173164E-02 
456	 0.046940558460754 
457	 4.70760568079349E-02 
458	 4.72762959979337E-02 
459	 4.74133305107464E-02 
460	 4.75229592112094E-02 
461	 4.77976041326062E-02 
462	 4.79453160831659E-02 
463	 0.048026023670106 
464	 0.048135466987562 
465	 4.82571990660807E-02 
466	 4.84233591016706E-02 
467	 4.86024324648511E-02 
468	 0.048737550000158 
469	 4.88344036732548E-02 
470	 4.90007968269301E-02 
471	 4.92405592537858E-02 
472	 0.049409599028116 
473	 4.95855311234089E-02 
474	 4.97711003040332E-02 
475	 0.049964748899698 
476	 5.02274025728895E-02 
477	 0.05037776420772 
478	 5.04864957770419E-02 
479	 5.07714156939668E-02 
480	 5.10026750653454E-02 
481	 5.12396038804341E-02 
482	 5.15082045256222E-02 
483	 5.16765113087382E-02 
484	 5.19586367593074E-02 
485	 5.22570424068946E-02 
486	 5.24369656973175E-02 
487	 5.28443559847924E-02 
488	 5.31182133008762E-02 
489	 5.32640826032271E-02 
490	 5.36522990516549E-02 
491	 5.39197181453807E-02 
492	 5.41640909156052E-02 
493	 5.45015287701779E-02 
494	 5.48566911371837E-02 
495	 5.52407380333328E-02 
496	 5.56086626036983E-02 
497	 5.59105006467711E-02 
498	 0.056290844959168 
499	 5.66557234379479E-02 
500	 5.69737562471435E-02 
501	 5.73455895574763E-02 
502	 5.77623607138801E-02 
503	 5.81570766190106E-02 
504	 0.058492618471838 
505	 5.89283312238322E-02 
506	 5.92948695018429E-02 
507	 5.96393654221449E-02 
508	 6.01535661141807E-02 
509	 6.03941460803903E-02 
510	 6.06358030126058E-02 
511	 6.10922350888195E-02 
512	 6.15805728734272E-02 
513	 6.20272505345298E-02 
514	 6.24085510399995E-02 
515	 6.27629721126762E-02 
516	 6.33149129959288E-02 
517	 6.39390604024625E-02 
518	 6.45083680926277E-02 
519	 6.49472361700316E-02 
520	 0.065373701643387 
521	 6.58375807008253E-02 
522	 6.63584788571397E-02 
523	 6.69164974237373E-02 
524	 0.067470621589982 
525	 6.79973902252074E-02 
526	 6.84968435877987E-02 
527	 6.90347927623401E-02 
528	 6.96245415424412E-02 
529	 7.02192158557331E-02 
530	 7.06630544521153E-02 
531	 7.11557833109656E-02 
532	 7.17424326618935E-02 
533	 7.23778565854865E-02 
534	 7.28764082936509E-02 
535	 7.34441094958774E-02 
536	 7.40867374929582E-02 
537	 7.45583937569825E-02 
538	 7.51238592150846E-02 
539	 7.57302554617827E-02 
540	 0.076295829054773 
541	 7.69150695857165E-02 
542	 7.74688906487728E-02 
543	 7.80019532830341E-02 
544	 7.86371323097325E-02 
545	 7.91366474889386E-02 
546	 7.96384228428828E-02 
547	 8.02071017647916E-02 
548	 0.080664454499214 
549	 8.12391919120789E-02 
550	 8.18531849182598E-02 
551	 8.23656082890851E-02 
552	 8.29452257268675E-02 
553	 0.083513574359757 
554	 8.40642575122577E-02 
555	 8.46811849987259E-02 
556	 8.52329944546646E-02 
557	 8.57542244268355E-02 
558	 8.63049190979572E-02 
559	 8.69260102988996E-02 
560	 8.73985308581064E-02 
561	 0.087779976218869 
562	 8.82817197326573E-02 
563	 8.87129025614172E-02 
564	 8.91303724713471E-02 
565	 8.95600130956007E-02 
566	 8.99055743633852E-02 
567	 9.02705213584324E-02 
568	 9.06405053091936E-02 
569	 9.09600392080549E-02 
570	 9.12149796017591E-02 
571	 9.14392961398085E-02 
572	 9.16583012155223E-02 
573	 9.18815865601231E-02 
574	 9.20575006370702E-02 
575	 9.21603171094499E-02 
576	 9.21906551306721E-02 
577	 9.22056974853919E-02 
578	 9.22099968322856E-02 
579	 9.21728695825929E-02 
580	 9.20417989297971E-02 
581	 9.17738070647376E-02 
582	 9.15580550520503E-02 
583	 9.14308070903434E-02 
584	 9.10948766137376E-02 
585	 9.08269593855843E-02 
586	 9.05305277168872E-02 
587	 9.00413268013032E-02 
588	 8.96420488963402E-02 
589	 8.92556212259679E-02 
590	 8.87915541009219E-02 
591	 8.81606232779946E-02 
592	 8.77191236081568E-02 
593	 8.71622912775875E-02 
594	 8.62597243260707E-02 
595	 8.54024991746002E-02 
596	 8.43780596699441E-02 
597	 0.083221939970392 
598	 8.21043512457668E-02 
599	 8.09474502633997E-02 
600	 7.99085384031552E-02 
601	 7.91037794976735E-02 
602	 0.078534207819955 
603	 7.80789421593985E-02 
604	 7.77495484467006E-02 
605	 7.75773340330636E-02 
606	 7.74331562945947E-02 
607	 7.73197349910201E-02 
608	 7.72658590525568E-02 
609	 7.73118218476542E-02 
610	 7.72320473195776E-02 
611	 7.71369663793211E-02 
612	 7.71284840801346E-02 
613	 7.70609399928716E-02 
614	 0.07698475899408 
615	 7.68868227721802E-02 
616	 7.67448985516937E-02 
617	 7.67516972510525E-02 
618	 0.0767457475838 
619	 7.66320457336736E-02 
620	 7.64760758507911E-02 
621	 7.64225925595063E-02 
622	 0.076393696694008 
623	 7.62771115581384E-02 
624	 0.076214914336104 
625	 7.60482316523007E-02 
626	 7.58469696075937E-02 
627	 7.58822763762502E-02 
628	 7.57867219537878E-02 
629	 0.075648975409866 
630	 7.55847465199916E-02 
631	 7.55543755312053E-02 
632	 7.54256324663956E-02 
633	 7.52488701559286E-02 
634	 7.51493521891297E-02 
635	 7.50492867968369E-02 
636	 7.49640534410781E-02 
637	 7.48809141417582E-02 
638	 7.47354656736056E-02 
639	 7.45353077804838E-02 
640	 7.44090700594191E-02 
641	 7.44162457727549E-02 
642	 7.42003765862294E-02 
643	 7.39236478981761E-02 
644	 0.073703904324257 
645	 7.36030610421625E-02 
646	 7.34514238890569E-02 
647	 7.32701443430836E-02 
648	 7.30713520791452E-02 
649	 7.27456646268523E-02 
650	 7.24784092840967E-02 
651	 7.21848272924037E-02 
652	 7.17232818615691E-02 
653	 7.12787609423748E-02 
654	 7.07503287078871E-02 
655	 7.00549643196598E-02 
656	 6.92675930999314E-02 
657	 6.86367565562467E-02 
658	 6.80528292320918E-02 
659	 6.74158941991843E-02 
660	 6.69660737362917E-02 
661	 6.66018136208074E-02 
662	 6.62859811727659E-02 
663	 6.60206809333247E-02 
664	 6.57208391922168E-02 
665	 6.54897672780699E-02 
666	 6.53568891008905E-02 
667	 6.51889132881379E-02 
668	 6.49663083070328E-02 
669	 6.47552472817267E-02 
670	 6.46312880004976E-02 
671	 6.45374350250592E-02 
672	 6.44253638451043E-02 
673	 6.43154630073334E-02 
674	 6.42856874970971E-02 
675	 6.42461317261118E-02 
676	 6.41435315908928E-02 
677	 6.39959188632444E-02 
678	 6.39768193167311E-02 
679	 6.39954411657785E-02 
680	 6.39878880274761E-02 
681	 6.39189595146208E-02 
682	 6.38888715606333E-02 
683	 6.38052916111821E-02 
684	 6.36721489181307E-02 
685	 6.36354068537138E-02 
686	 6.34859955239158E-02 
687	 6.33062409028939E-02 
688	 6.31833837425414E-02 
689	 6.28310619663878E-02 
690	 6.24885856943727E-02 
691	 6.21077949311497E-02 
692	 6.14951488100219E-02 
693	 0.060985533767152 
694	 6.03890455208128E-02 
695	 5.96472022358835E-02 
696	 5.89532601644638E-02 
697	 5.82026016936827E-02 
698	 5.74100280908778E-02 
699	 0.056624304548689 
700	 5.56621560781727E-02 
701	 5.45795071322641E-02 
702	 5.35003168301871E-02 
703	 5.25360105380802E-02 
704	 5.14496690132506E-02 
705	 5.03019078717426E-02 
706	 4.91708366459167E-02 
707	 4.80126814175543E-02 
708	 4.66615632022566E-02 
709	 4.52495283067638E-02 
710	 4.39502080724936E-02 
711	 4.24846139845721E-02 
712	 0.040938577964836 
713	 3.93942668754471E-02 
714	 3.78669482326293E-02 
715	 3.63343511271164E-02 
716	 3.48511006971283E-02 
717	 3.34865845286148E-02 
718	 3.17039154607166E-02 
719	 3.00851201419964E-02 
720	 2.88098106991679E-02 
721	 2.75711532707775E-02 
722	 2.63451737366185E-02 
723	 2.51035494330316E-02 
724	 2.39437024545053E-02 
725	 2.27249631417032E-02 
726	 2.14322595234305E-02 
727	 2.02623681391018E-02 
728	 1.92842004605097E-02 
729	 1.79621376186187E-02 
730	 1.67672158746402E-02 
731	 1.58459947861813E-02 
732	 1.51045774658745E-02 
733	 1.44794826409809E-02 
734	 0.013960406376415 
735	 1.35424134198542E-02 
736	 1.32049246810044E-02 
737	 1.29592154009005E-02 
738	 1.27460491310924E-02 
739	 1.25497332664968E-02 
740	 1.25362862423054E-02 
741	 1.24568948219294E-02 
742	 1.23534760383618E-02 
743	 1.23799242266563E-02 
744	 1.22206643486056E-02 
745	 1.21613177613861E-02 
746	 1.22545390479377E-02 
747	 1.21647309323334E-02 
748	 1.21152803397164E-02 
749	 1.20914427536923E-02 
750	 1.20511346674483E-02 
751	 1.20645734061564E-02 
752	 1.20215402885316E-02 
753	 1.19786269217314E-02 
754	 1.20433938691497E-02 
755	 1.19215701138966E-02 
756	 1.18718099036035E-02 
757	 1.19634994274363E-02 
758	 1.19145291956796E-02 
759	 1.19102770655014E-02 
760	 1.20131094839125E-02 
761	 1.21211828733654E-02 
762	 1.22731325927406E-02 
763	 1.20256136330222E-02 
764	 1.18269339824241E-02 
765	 1.20951099594412E-02 
766	 1.20250842135763E-02 
767	 1.19429986887788E-02 
768	 1.19438910530625E-02 
769	 1.18909520068583E-02 
770	 1.18871714605761E-02 
771	 1.19465098388984E-02 
772	 1.20136119974884E-02 
773	 1.18695706587444E-02 
774	 0.011963313135829 
775	 1.21774522118345E-02 
776	 1.21984460317915E-02 
777	 1.22036525198319E-02 
778	 1.22224664944683E-02 
779	 1.22710728517228E-02 
780	 1.23549232421026E-02 
781	 1.24098765526017E-02 
782	 1.24612654917081E-02 
783	 0.012541085208813 
784	 1.26572518908877E-02 
785	 1.27861670503059E-02 
786	 1.29273849770654E-02 
787	 0.013074676145659 
788	 0.013149009541964 
789	 1.32690873344245E-02 
790	 1.34183207889289E-02 
791	 1.34854227817603E-02 
792	 1.36601031434551E-02 
793	 1.38258573545921E-02 
794	 1.38933468875356E-02 
795	 1.38780619441865E-02 
796	 0.014103116303029 
797	 1.43118502929129E-02 
798	 1.42784746143298E-02 
799	 1.44629999413478E-02 
800	 1.45355603279979E-02 
801	 1.46091530231507E-02 
802	 1.49449497791634E-02 
803	 1.49453861499495E-02 
804	 1.48809472225898E-02 
805	 1.49124101497851E-02 
806	 1.49821756674074E-02 
807	 1.49528932909657E-02 
808	 1.49493641638259E-02 
809	 0.015025377281524 
810	 1.49140335741011E-02 
811	 1.47614425413814E-02 
812	 1.46362323722217E-02 
813	 1.45680259833493E-02 
814	 1.44891321110497E-02 
815	 1.44006147642691E-02 
816	 1.42073614341573E-02 
817	 1.38160967242074E-02 
818	 1.37084709199098E-02 
819	 0.013622772806448 
820	 1.33511424539188E-02 
821	 1.28465036326679E-02 
822	 1.25254167032365E-02 
823	 0.012228039941813 
824	 1.17926125544389E-02 
825	 1.13954205050691E-02 
826	 1.11581545050696E-02 
827	 1.08892866178089E-02 
828	 0.010377092181227 
829	 1.00063667069138E-02 
830	 9.70171482094481E-03 
831	 9.49271061503289E-03 
832	 9.47217663765114E-03 
833	 9.36600276873137E-03 
834	 9.22697610507371E-03 
835	 9.09418761655346E-03 
836	 8.93256810047448E-03 
837	 8.76056264492253E-03 
838	 8.75178325259762E-03 
839	 8.92521832283143E-03 
840	 8.82557472135784E-03 
841	 8.8148232435274E-03 
842	 8.81024865073506E-03 
843	 8.63582061138515E-03 
844	 8.44807759101337E-03 
845	 8.53350672643325E-03 
846	 8.7241865799565E-03 
847	 8.59622753840232E-03 
848	 8.48620162304067E-03 
849	 8.42846330890258E-03 
850	 8.38418739915291E-03 
851	 8.27241734027938E-03 
852	 8.29621781360267E-03 
853	 8.34137234180311E-03 
854	 8.31624408238725E-03 
855	 8.32818148616467E-03 
856	 8.34833768318918E-03 
857	 8.2266647020227E-03 
858	 7.95670566134803E-03 
859	 8.15217149602194E-03 
860	 8.30917042196747E-03 
861	 8.26749462531188E-03 
862	 8.1137586128011E-03 
863	 8.18492821718147E-03 
864	 8.10562413077894E-03 
865	 7.92802881979534E-03 
866	 8.06950723505185E-03 
867	 8.0318103484671E-03 
868	 7.94468693538235E-03 
869	 7.88838825230967E-03 
870	 7.77081904305615E-03 
871	 7.82431726842408E-03 
872	 7.93107180717241E-03 
873	 7.94318949863969E-03 
874	 7.8194838210937E-03 
875	 7.81154553828025E-03 
876	 7.86135035082387E-03 
877	 7.84789569218104E-03 
878	 7.81166168767639E-03 
879	 7.90666167922867E-03 
880	 7.89536137807204E-03 
881	 7.5066486425753E-03 
882	 7.31531444535498E-03 
883	 7.45407632301731E-03 
884	 7.64397953749671E-03 
885	 7.42538524745837E-03 
886	 7.39170971578722E-03 
887	 7.4304273737171E-03 
888	 7.4740609141498E-03 
889	 7.58018634334852E-03 
890	 7.5161278714509E-03 
891	 7.51382025677582E-03 
892	 7.66339583565152E-03 
893	 7.63790172616502E-03 
894	 7.58990481748719E-03 
895	 7.65416166661386E-03 
896	 7.78363872622569E-03 
897	 7.37922367785192E-03 
898	 7.50121997602422E-03 
899	 7.69986390197654E-03 
900	 7.35528328538823E-03 
901	 7.23139639593575E-03 
902	 7.22923489631579E-03 
903	 7.29195040642386E-03 
904	 7.37233196568481E-03 
905	 7.45542809205397E-03 
906	 7.17947390508532E-03 
907	 6.77297485050266E-03 
908	 6.81875622569702E-03 
909	 6.92341612534543E-03 
910	 6.92140731410007E-03 
911	 6.96812956800822E-03 
912	 7.39748933478779E-03 
913	 7.6735489280947E-03 
914	 7.45871630210185E-03 
915	 6.90932197367878E-03 
916	 6.66334418283907E-03 
917	 6.94570396067743E-03 
918	 6.88206455151604E-03 
919	 6.38723705480914E-03 
920	 6.56643988109815E-03 
921	 6.89987120840676E-03 
922	 7.20829194080833E-03 
923	 7.26455116097184E-03 
924	 6.60696665835362E-03 
925	 6.98042452099466E-03 
926	 7.5568904481119E-03 
927	 7.0148380037036E-03 
928	 5.32866406807746E-03 
929	 6.14288756193225E-03 
930	 7.92694384583568E-03 
931	 6.94332650841751E-03 
932	 8.66700724957446E-03 
933	 7.44087222885274E-03 
934	 4.63854665598373E-03 
935	 4.50506504033452E-03 
936	 3.8438332459395E-03 
937	 5.61041904979286E-03 
938	 8.15165253279793E-03 
939	 8.86264503742558E-03 
940	 6.61281424005552E-03 
941	 6.91186572419518E-03 
942	 7.72853370002955E-03 
943	 4.92352104763334E-03 
944	 6.83463611875805E-03 
945	 7.63147672993793E-03 
946	 5.96507652390676E-03 
947	 4.49468498065632E-03 
948	 7.38220877807415E-03 
949	 6.92301324279967E-03 
950	 4.15763806922662E-03 
951	 5.15395879558897E-03 
952	 8.04016004884465E-03 
953	 7.78243512465725E-03 
954	 5.65349695069332E-03 
955	 6.41555671823321E-03 
956	 5.80604782396085E-03 
957	 4.68413893299605E-03 
958	 4.87589619511671E-03 
959	 7.41346890052343E-03 
960	 6.27259750477254E-03 
961	 4.77372662439355E-03 
962	 4.84351240588507E-03 
963	 6.12909661469472E-03 
964	 5.94293423760631E-03 
965	 0.006249949002745 
966	 6.89440327251664E-03 
967	 6.28439399689688E-03 
968	 6.59695097808433E-03 
969	 6.96609372152716E-03 
970	 6.9805516388274E-03 
971	 6.84284888542207E-03 
972	 6.10997073816219E-03 
973	 6.28435121068741E-03 
974	 7.02103013435545E-03 
975	 6.25162832214153E-03 
976	 4.75502110377114E-03 
977	 4.40689030683413E-03 
978	 4.98175966401271E-03 
979	 4.80170825598119E-03 
980	 7.12257086336356E-03 
981	 7.56870018618316E-03 
982	 5.94509307505084E-03 
983	 5.73186423926704E-03 
984	 5.88377789246354E-03 
985	 6.11818676505111E-03 
986	 6.40326294739424E-03 
987	 6.71597780430404E-03 
988	 5.68156391916137E-03 
989	 5.48039691957969E-03 
990	 6.30457140312473E-03 
991	 6.60655816517518E-03 
992	 6.10232881445299E-03 
993	 4.89968360139713E-03 
994	 4.09911937970837E-03 
995	 4.92885356056852E-03 
996	 5.79382156413032E-03 
997	 5.5431237494929E-03 
998	 4.7722863333023E-03 
999	 4.98430214873374E-03 
1000	 6.13384964856427E-03 
1001	 6.58682816295928E-03 
1002	 6.71523710359635E-03 
1003	 6.6704362948256E-03 
1004	 6.56176619879953E-03 
1005	 6.42579838514831E-03 
1006	 6.07289911028827E-03 
1007	 5.9231826660279E-03 
1008	 5.74202797271746E-03 
1009	 5.76595155818472E-03 
1010	 6.04448137568515E-03 
1011	 6.0408644350586E-03 
1012	 6.02068215392011E-03 
1013	 5.93821206159992E-03 
1014	 0.00589060220129 
1015	 5.58117870888409E-03 
1016	 5.66983898970978E-03 
1017	 6.14693178990375E-03 
1018	 6.31728989871224E-03 
1019	 6.58962847438869E-03 
1020	 6.65800527248961E-03 
1021	 6.60659061448212E-03 
1022	 6.24737658685278E-03 
1023	 6.09694403979296E-03 
1024	 5.87908567829886E-03 
1025	 5.43796118568165E-03 
1026	 5.69855148061637E-03 
1027	 5.85278301416652E-03 
1028	 6.18069932920821E-03 
1029	 6.24415540729386E-03 
1030	 6.36204257131761E-03 
1031	 6.34480918570067E-03 
1032	 6.10268600680932E-03 
1033	 5.9807086412402E-03 
1034	 5.88060542048166E-03 
1035	 5.81009310970174E-03 
1036	 5.59428912432109E-03 
1037	 5.65747040296478E-03 
1038	 6.04482212207314E-03 
1039	 6.22209117675896E-03 
1040	 6.53216180195698E-03 
1041	 6.65326876573408E-03 
1042	 6.52588607127086E-03 
1043	 6.04642796621313E-03 
1044	 5.82249533827941E-03 
1045	 5.38114038733795E-03 
1046	 5.2914454245765E-03 
1047	 5.38306838542227E-03 
1048	 5.55532641002848E-03 
1049	 6.04663234316235E-03 
1050	 6.29902385955875E-03 
1051	 6.71772607118978E-03 
1052	 6.80561356684275E-03 
1053	 0.006520284942353 
1054	 6.37586447484736E-03 
1055	 6.12416802796306E-03 
1056	 5.85196031324377E-03 
1057	 5.58905646616078E-03 
1058	 5.22638791572772E-03 
1059	 5.37320793873074E-03 
1060	 5.79425486287502E-03 
1061	 5.94708811994574E-03 
1062	 6.50892696223442E-03 
1063	 6.61316464353667E-03 
1064	 6.15318050569813E-03 
1065	 6.03693647363442E-03 
1066	 6.12052538359294E-03 
1067	 5.98564432300603E-03 
1068	 5.67670435922504E-03 
1069	 5.53408909408682E-03 
1070	 5.19657448681989E-03 
1071	 5.14890912854335E-03 
1072	 5.51520422575025E-03 
1073	 5.73645696661193E-03 
1074	 5.84537869450581E-03 
1075	 6.03352364306171E-03 
1076	 6.05095219080224E-03 
1077	 5.80644637259559E-03 
1078	 5.75537721959176E-03 
1079	 5.63769173471889E-03 
1080	 5.75891838722687E-03 
1081	 6.1961646460109E-03 
1082	 6.28161703541192E-03 
1083	 6.46424984838547E-03 
1084	 6.39152779025403E-03 
1085	 5.6413533808739E-03 
1086	 5.48620124186778E-03 
1087	 5.56519730081095E-03 
1088	 5.68282992755412E-03 
1089	 6.33771551928937E-03 
1090	 6.74374221987979E-03 
1091	 6.67990788596526E-03 
1092	 6.1918068544388E-03 
1093	 5.97289405252021E-03 
1094	 5.31358384460605E-03 
1095	 5.28056481805661E-03 
1096	 5.93393710003109E-03 
1097	 5.96758263389269E-03 
1098	 5.75221124203415E-03 
1099	 5.81571815034162E-03 
1100	 5.81912268720704E-03 
1101	 5.80034490667276E-03 
1102	 5.9443204554085E-03 
1103	 6.08925519387485E-03 
1104	 6.12017778012841E-03 
1105	 6.27370567128828E-03 
1106	 5.64870270082055E-03 
1107	 5.49494049457432E-03 
1108	 5.65992911196065E-03 
1109	 5.04769097291241E-03 
1110	 5.10226840747362E-03 
1111	 6.66276743363648E-03 
1112	 6.75877287918384E-03 
1113	 5.47165698166561E-03 
1114	 5.38048525598123E-03 
1115	 5.0847403389715E-03 
1116	 5.02950208515331E-03 
1117	 7.55410221731038E-03 
1118	 7.68412690756937E-03 
1119	 3.82252554651483E-03 
1120	 3.40355172024058E-03 
1121	 4.89353701860392E-03 
1122	 3.62104759765303E-03 
1123	 6.62174769175334E-03 
1124	 1.05908984486992E-02 
1125	 8.0588254272134E-03 
1126	 6.98828496264375E-03 
1127	 8.85326220499496E-03 
1128	 8.81030090174252E-03 
1129	 8.01172199889534E-03 
1130	 0.006654538947905 
1131	 6.73329073945383E-03 
1132	 6.77902017300591E-03 
1133	 6.55577304963994E-03 
1134	 7.37613115878138E-03 
1135	 7.77048333520434E-03 
1136	 6.54319073956824E-03 
1137	 6.44479504055941E-03 
1138	 7.23081339506197E-03 
1139	 8.45787841002344E-03 
1140	 8.26925977702729E-03 
1141	 7.86059030571454E-03 
1142	 7.83867724600111E-03 
1143	 7.01826488620194E-03 
1144	 6.28438714491054E-03 
1145	 6.54403546451059E-03 
1146	 6.30258177134337E-03 
1147	 6.16702916933525E-03 
1148	 6.50540196502158E-03 
1149	 6.74287640190205E-03 
1150	 6.52010257497929E-03 
1151	 5.43377654294607E-03 
1152	 5.69131567006532E-03 
1153	 6.68706364310053E-03 
1154	 6.60767465188487E-03 
1155	 6.62606265093254E-03 
1156	 6.6673081227645E-03 
1157	 5.89219786732997E-03 
1158	 5.41484267368576E-03 
1159	 5.67970926694123E-03 
1160	 5.93653656298655E-03 
1161	 5.95902477427313E-03 
1162	 6.05500981259737E-03 
1163	 5.92387336763242E-03 
1164	 5.38390749544384E-03 
1165	 5.16617203441902E-03 
1166	 5.05275637637058E-03 
1167	 4.94694579665584E-03 
1168	 5.48204998480114E-03 
1169	 5.74031403489662E-03 
1170	 5.3936920681468E-03 
1171	 5.34044667412733E-03 
1172	 5.20561531367314E-03 
1173	 5.11822013937456E-03 
1174	 5.04626805569418E-03 
1175	 5.32423872717649E-03 
1176	 5.45203050963979E-03 
1177	 5.12238862650416E-03 
1178	 5.00748233133855E-03 
1179	 5.32502628989167E-03 
1180	 5.20127115181148E-03 
1181	 4.98229932285163E-03 
1182	 5.16767710079818E-03 
1183	 5.26428271764232E-03 
1184	 5.38080626832703E-03 
1185	 5.50357789776375E-03 
1186	 5.3092901042688E-03 
1187	 5.06528510937136E-03 
1188	 4.96221671393796E-03 
1189	 5.10406411780791E-03 
1190	 5.25435460114448E-03 
1191	 5.04372811243365E-03 
1192	 5.06248914065468E-03 
1193	 5.04158998361618E-03 
1194	 5.24185436125223E-03 
1195	 5.34503503366495E-03 
1196	 5.42587153900266E-03 
1197	 5.41576163256619E-03 
1198	 5.2398476153168E-03 
1199	 5.15403847568711E-03 
1200	 5.35002725559014E-03 
1201	 5.45817818493558E-03 
1202	 5.29079976667643E-03 
1203	 5.19717273930418E-03 
1204	 5.30389095460148E-03 
1205	 5.25697485936438E-03 
1206	 5.08667099064741E-03 
1207	 5.13563121351794E-03 
1208	 5.12084554146159E-03 
1209	 4.94786102687079E-03 
1210	 5.06441807595799E-03 
1211	 5.24771561246625E-03 
1212	 5.10877838743899E-03 
1213	 4.98898644445975E-03 
1214	 4.98196708063877E-03 
1215	 0.005009284953608 
1216	 4.98537188118749E-03 
1217	 5.0468183437114E-03 
1218	 5.12555975652923E-03 
1219	 5.24836851596773E-03 
1220	 5.29091083206108E-03 
1221	 5.15320629933682E-03 
1222	 5.16299854507998E-03 
1223	 5.1643359856062E-03 
1224	 4.98714403766166E-03 
1225	 4.92002076863176E-03 
1226	 4.93897113288895E-03 
1227	 4.93238709035186E-03 
1228	 4.93890841224824E-03 
1229	 5.0356417805095E-03 
1230	 5.07118869786731E-03 
1231	 4.86852985164963E-03 
1232	 4.77521891964771E-03 
1233	 4.94370735881221E-03 
1234	 4.90837875346171E-03 
1235	 4.87966708664887E-03 
1236	 4.98682961127446E-03 
1237	 5.03853416267128E-03 
1238	 4.95256193552755E-03 
1239	 4.81433194618165E-03 
1240	 5.02468958164764E-03 
1241	 5.07349390043979E-03 
1242	 4.8527618697976E-03 
1243	 4.83322318804893E-03 
1244	 5.00043954750496E-03 
1245	 4.9459102662881E-03 
1246	 4.7518715443638E-03 
1247	 4.83078044425727E-03 
1248	 4.91832869423394E-03 
1249	 4.71147450972647E-03 
1250	 4.7032265921443E-03 
1251	 4.97475188119926E-03 
1252	 4.87110368506773E-03 
1253	 4.69122137128223E-03 
1254	 4.8648773703302E-03 
1255	 4.9719423148426E-03 
1256	 4.99157431658763E-03 
1257	 5.09173266426182E-03 
1258	 5.1067250677578E-03 
1259	 4.88046406761005E-03 
1260	 4.79659391373898E-03 
1261	 4.79979373555347E-03 
1262	 4.85817290082081E-03 
1263	 5.00690630401032E-03 
1264	 5.00933716812904E-03 
1265	 5.03048694189184E-03 
1266	 5.19544953075786E-03 
1267	 5.22123384567896E-03 
1268	 5.17383216916975E-03 
1269	 5.1639267724467E-03 
1270	 5.11461639060394E-03 
1271	 4.99481749526225E-03 
1272	 4.83052454002243E-03 
1273	 4.93245228837424E-03 
1274	 5.00494033844191E-03 
1275	 4.86645326058383E-03 
1276	 4.94433572283023E-03 
1277	 4.93409751495245E-03 
1278	 4.81680077233463E-03 
1279	 4.93000299359725E-03 
1280	 4.92236936154279E-03 
1281	 4.8183168717483E-03 
1282	 4.54379582319938E-03 
1283	 4.49679324929739E-03 
1284	 4.50584591567884E-03 
1285	 4.53821869432742E-03 
1286	 4.7530060456803E-03 
1287	 4.80659280222929E-03 
1288	 4.65499706021962E-03 
1289	 4.68524417997029E-03 
1290	 4.87532307693788E-03 
1291	 4.92299867676283E-03 
1292	 4.68174197536979E-03 
1293	 4.65917389617432E-03 
1294	 4.71889038693643E-03 
1295	 4.63552082496633E-03 
1296	 4.7357449717165E-03 
1297	 4.79983364461866E-03 
1298	 4.65257060628734E-03 
1299	 4.61671512505709E-03 
1300	 4.56530318480447E-03 
1301	 4.32442071898258E-03 
1302	 4.29142873972134E-03 
1303	 4.40752013334963E-03 
1304	 4.47612101872399E-03 
1305	 4.61482143566396E-03 
1306	 4.68898523855305E-03 
1307	 4.25291849968951E-03 
1308	 4.2710539209133E-03 
1309	 4.90279258203598E-03 
1310	 4.9949884101747E-03 
1311	 4.68303888931076E-03 
1312	 4.76708455837136E-03 
1313	 4.93864328528225E-03 
1314	 4.91629393035882E-03 
1315	 5.03168570663694E-03 
1316	 5.11259418986194E-03 
1317	 5.0071970671498E-03 
1318	 4.91854885350609E-03 
1319	 4.84623999727454E-03 
1320	 4.9096234563625E-03 
1321	 5.05026642175642E-03 
1322	 4.83588825286298E-03 
1323	 5.12732917898928E-03 
1324	 5.35911673696089E-03 
1325	 4.89066061514704E-03 
1326	 4.83111071176352E-03 
1327	 5.15000013954478E-03 
1328	 4.92361668175692E-03 
1329	 4.80259255895241E-03 
1330	 5.45017766375238E-03 
1331	 5.44436378236005E-03 
1332	 5.03256618738383E-03 
1333	 5.4665630158265E-03 
1334	 6.25724344047073E-03 
1335	 6.39064661283081E-03 
1336	 6.15947333015215E-03 
1337	 6.18975411474241E-03 
1338	 6.0909677928538E-03 
1339	 5.65507727234473E-03 
1340	 4.93887448908621E-03 
1341	 5.02486215724119E-03 
1342	 5.23520179161419E-03 
1343	 5.1122120039364E-03 
1344	 5.72372682432279E-03 
1345	 6.12252518213811E-03 
1346	 5.68586391797674E-03 
1347	 5.46478507373778E-03 
1348	 5.56855613733382E-03 
1349	 5.94240934598271E-03 
1350	 6.09557364815714E-03 
1351	 7.63685318015814E-03 
1352	 0.015938527645145 
1353	 2.17543719717127E-02 
1354	 2.73344439321705E-02 
1355	 1.92311402401627E-02 
1356	 2.63505888593536E-02 
1357	 3.80587677567634E-02 
1358	-3.05503945211222E-03 
1359	-9.12336155318442E-03 
1360	 7.62839404195075E-02 
1361	 7.43025749633334E-02 
1362	 9.66280973949186E-02 
1363	 0.241718779360851 
1364	 0.171584643018674 
1365	 9.62548526737512E-04 
1366	 0.116806343015154 
1367	 0.199173318096801 
1368	 0.179062046140041 
1369	-1.52788983126587E-02 
1370	 5.92927154079529E-04 
1371	 0.106065224777715 
1372	 6.31165970196764E-02 
1373	-1.55810112593121E-02 
1374	 3.48976462421632E-03 
1375	-2.65984436238686E-02 
1376	-8.83856701565294E-02 
1377	-9.57608326395866E-02 
1378	 2.68462040050631E-02 
1379	 0.24470361520743 
1380	 0.291350319746371 
1381	 0.522008262425431 
1382	 0.705679127527103 
1383	 0.529751395980993 
1384	 0.359172072758429 
1385	 0.145288189036911 
1386	 0.139337635126987 
1387	 0.162751831035601 
1388	 0.10953966506285 
1389	 0.433382366719559 
1390	 0.534604449264913 
1391	 0.124459931703115 
1392	 8.51506472785749E-02 
1393	-5.88951204700691E-03 
1394	-7.41933765529221E-02 
1395	 5.82390853228531E-03 
1396	 5.69257783769558E-02 
1397	 8.27390311862142E-02 
1398	 0.225959660671605 
1399	 0.5019390783164 
1400	 0.496886442652131 
1401	 0.236979627568048 
1402	 0.217789628186517 
1403	 0.183834546493454 
1404	 8.08376209044309E-02 
1405	 8.83878722464624E-02 
1406	 0.210811857501794 
1407	 0.148042468902949 
1408	 4.05754594869437E-02 
1409	 1.34351693156344E-02 
1410	-4.93994974689798E-02 
1411	-2.52646359830597E-02 
1412	 8.13605791085755E-02 
1413	 7.22349670027107E-02 
1414	 4.19204650643737E-02 
1415	 2.72557987237551E-02 
1416	-3.97793708106061E-02 
1417	-2.74710370218525E-02 
1418	 3.88217043493641E-02 
1419	 4.36532335670535E-02 
1420	 4.14382208145232E-02 
1421	 0.041044111868958 
1422	 2.40047758516514E-02 
1423	 1.64160529779193E-02 
1424	 2.29239221153238E-02 
1425	 1.97811685674815E-02 
1426	 3.72708576113504E-03 
1427	 2.9446876507673E-03 
1428	 8.80842295915603E-03 
1429	 9.00824280736247E-03 
1430	 1.13145714450623E-02 
1431	 0.015539209947735 
1432	 2.36362998720963E-02 
1433	 2.23491836849169E-02 
1434	 1.18567699822235E-02 
1435	 1.29326927341263E-02 
1436	 1.76754571748287E-02 
1437	 1.41956128697322E-02 
1438	 1.37585333201784E-02 
1439	 1.90867826504881E-02 
1440	 1.46455115201557E-02 
1441	 7.80202714309434E-03 
1442	 7.52182197396547E-03 
1443	 9.34240801553432E-03 
1444	 1.01512032649271E-02 
1445	 8.65753670285709E-03 
1446	 5.8160081470608E-03 
1447	 5.71860814790052E-03 
1448	 7.54741091004927E-03 
1449	 8.03135448541021E-03 
1450	 7.70995743086036E-03 
1451	 7.39310845417402E-03 
1452	 7.37932726457098E-03 
1453	 7.07411805877082E-03 
1454	 6.49242507444691E-03 
1455	 6.9675143562733E-03 
1456	 7.20297115017326E-03 
1457	 6.59193758568952E-03 
1458	 6.20062252573442E-03 
1459	 6.30763124836992E-03 
1460	 6.74790472463151E-03 
1461	 7.06336297595683E-03 
1462	 6.64048055991981E-03 
1463	 6.35810486708201E-03 
1464	 6.77800903492687E-03 
1465	 6.94959189692581E-03 
1466	 6.03824438377097E-03 
1467	 5.09924145107555E-03 
1468	 5.77205469304195E-03 
1469	 6.32057487372462E-03 
1470	 5.57707595355424E-03 
1471	 5.75909123379072E-03 
1472	 6.36632505657119E-03 
1473	 6.04506556773265E-03 
1474	 4.61257969398008E-03 
1475	 3.06698554963496E-03 
1476	 3.64598768741566E-03 
1477	 4.07302495341014E-03 
1478	 3.4632791152769E-03 
1479	 4.45398950432983E-03 
1480	 5.2377975559992E-03 
1481	 3.94567455943259E-03 
1482	 3.55752983688518E-03 
1483	 4.81884698802289E-03 
1484	 5.41183814835644E-03 
1485	 5.55629158371161E-03 
1486	 5.16745646163503E-03 
1487	 4.48038424973939E-03 
1488	 4.54119780525955E-03 
1489	 4.63103324873684E-03 
1490	 4.29033684122771E-03 
1491	 4.03329924147331E-03 
1492	 4.23737462114804E-03 
1493	 4.34561002026141E-03 
1494	 4.23003914807907E-03 
1495	 4.36119188149004E-03 
1496	 4.60605949242287E-03 
1497	 4.79022061924764E-03 
1498	 4.58923314315395E-03 
1499	 4.25546279770816E-03 
1500	 4.37221024635649E-03 
1501	 4.50201490996685E-03 
1502	 4.29141575486012E-03 
1503	 4.24778931805524E-03 
1504	 4.35888624017148E-03 
1505	 4.25120274896588E-03 
1506	 3.94199214640803E-03 
1507	 3.97179577273463E-03 
1508	 4.1462566935962E-03 
1509	 3.94592063547093E-03 
1510	 3.60978435118759E-03 
1511	 3.8331304905341E-03 
1512	 4.08814049207268E-03 
1513	 3.89548289262071E-03 
1514	 3.91264839961409E-03 
1515	 4.22724279615086E-03 
1516	 4.15277571151338E-03 
1517	 3.85832440937954E-03 
1518	 3.9608094030547E-03 
1519	 4.09314592535849E-03 
1520	 3.8785965391167E-03 
1521	 3.77544788340098E-03 
1522	 4.00557615875222E-03 
1523	 4.23706335248389E-03 
1524	 4.16179089172247E-03 
1525	 4.00726277909959E-03 
1526	 3.97687196694823E-03 
1527	 3.75808294599353E-03 
1528	 3.63993566311112E-03 
1529	 3.77620711514845E-03 
1530	 3.80368797556249E-03 
1531	 3.81505321902725E-03 
1532	 3.76549220643664E-03 
1533	 3.72137385743084E-03 
1534	 3.73481935012641E-03 
1535	 3.68469236990918E-03 
1536	 3.70370957366782E-03 
1537	 3.70781152671287E-03 
1538	 3.76990079566859E-03 
1539	 3.78084420183176E-03 
1540	 3.48650102104852E-03 
1541	 3.40224967007154E-03 
1542	 3.66767592773202E-03 
1543	 3.73268102420339E-03 
1544	 3.63420770211185E-03 
1545	 3.72973162662866E-03 
1546	 3.84870083636353E-03 
1547	 3.8428458526863E-03 
1548	 3.8664255715386E-03 
1549	 3.9386144204797E-03 
1550	 4.06812270391419E-03 
1551	 4.14294448653919E-03 
1552	 4.02250411676218E-03 
1553	 3.9492918480664E-03 
1554	 3.93295785576699E-03 
1555	 3.70710499338482E-03 
1556	 3.65522163911192E-03 
1557	 3.88001546865237E-03 
1558	 3.82814800391698E-03 
1559	 3.63604126310942E-03 
1560	 3.77506640019949E-03 
1561	 4.06112543641767E-03 
1562	 4.04650539577743E-03 
1563	 3.95431571645321E-03 
1564	 4.00702819874022E-03 
1565	 3.7965265892334E-03 
1566	 3.53444997452812E-03 
1567	 3.74173410833653E-03 
1568	 3.96868793590427E-03 
1569	 3.84529080720033E-03 
1570	 3.81319436448967E-03 
1571	 3.93570431173933E-03 
1572	 3.94586302287617E-03 
1573	 3.9414252131131E-03 
1574	 3.91765852046354E-03 
1575	 3.84411648703551E-03 
1576	 3.78117302875701E-03 
1577	 3.73785398357938E-03 
1578	 3.74646932290979E-03 
1579	 3.74038418321001E-03 
1580	 3.87260931102558E-03 
1581	 4.16089673239788E-03 
1582	 4.1591331978996E-03 
1583	 3.67294392904716E-03 
1584	 3.43314790674573E-03 
1585	 3.84301900707111E-03 
1586	 4.00897821299886E-03 
1587	 4.01826841683301E-03 
1588	 4.29273577423888E-03 
1589	 4.2096554348912E-03 
1590	 4.02378261042508E-03 
1591	 4.1818852871224E-03 
1592	 4.20399700604536E-03 
1593	 3.83670544226195E-03 
1594	 3.65596656491399E-03 
1595	 3.93691029923948E-03 
1596	 4.04686347793645E-03 
1597	 3.93906489946701E-03 
1598	 3.91623942649882E-03 
1599	 3.90433149493793E-03 
1600	 3.97559366489839E-03 
1601	 3.97181194188013E-03 
1602	 3.76292621767395E-03 
1603	 3.57304453798182E-03 
1604	 3.49505001501327E-03 
1605	 3.57560065825728E-03 
1606	 3.85582958130135E-03 
1607	 3.94888481019418E-03 
1608	 3.77289757939309E-03 
1609	 3.89717950815733E-03 
1610	 4.0970681181192E-03 
1611	 3.91476579502754E-03 
1612	 3.73964259175131E-03 
1613	 3.72851304283426E-03 
1614	 3.81888169441801E-03 
1615	 3.91636040870626E-03 
1616	 4.00320931327569E-03 
1617	 4.11939350118705E-03 
1618	 3.89495282489505E-03 
1619	 3.59326922387362E-03 
1620	 3.52358430256168E-03 
1621	 3.55257790106386E-03 
1622	 3.79581654694858E-03 
1623	 4.12277474073234E-03 
1624	 4.1784847682819E-03 
1625	 3.89573558725224E-03 
1626	 3.65627962251844E-03 
1627	 3.78726624153282E-03 
1628	 4.17880179721294E-03 
1629	 4.26787542108636E-03 
1630	 3.86495145665768E-03 
1631	 3.62086764287968E-03 
1632	 3.7155022525542E-03 
1633	 3.96340468805872E-03 
1634	 4.17479607844532E-03 
1635	 4.08238755365691E-03 
1636	 4.0587909064531E-03 
1637	 0.00422764188456 
1638	 4.09372823913869E-03 
1639	 3.80847934861195E-03 
1640	 3.70125090886506E-03 
1641	 3.56842502262642E-03 
1642	 3.69789856715339E-03 
1643	 3.97515609557974E-03 
1644	 3.72650566873724E-03 
1645	 3.36028484683172E-03 
1646	 3.37100319289878E-03 
1647	 3.60026259398984E-03 
1648	 3.86368672865728E-03 
1649	 3.9521210567846E-03 
1650	 3.87914514362995E-03 
1651	 3.92658887419494E-03 
1652	 3.90613451197109E-03 
1653	 3.69018645861473E-03 
1654	 3.62434552324935E-03 
1655	 3.42139965384786E-03 
1656	 3.40785988280964E-03 
1657	 3.78341133948816E-03 
1658	 3.88591684917912E-03 
1659	 3.69368829428449E-03 
1660	 3.62933883204083E-03 
1661	 3.67582763107126E-03 
1662	 3.66794445813855E-03 
1663	 3.53207624254859E-03 
1664	 3.56997861704673E-03 
1665	 3.82797094395104E-03 
1666	 3.86458595446192E-03 
1667	 3.89225729874129E-03 
1668	 4.15955173421127E-03 
1669	 3.87194058052684E-03 
1670	 3.42970337361198E-03 
1671	 3.56596761574678E-03 
1672	 3.9197701897995E-03 
1673	 3.99541299001831E-03 
1674	 4.20749038336402E-03 
1675	 4.44097496295822E-03 
1676	 4.09469640455933E-03 
1677	 3.74596897317505E-03 
1678	 3.81557027008769E-03 
1679	 3.82948365768917E-03 
1680	 3.69818767290573E-03 
1681	 3.65934366233372E-03 
1682	 3.52714821384643E-03 
1683	 3.43013591483701E-03 
1684	 3.68355811445677E-03 
1685	 0.00397055392426 
1686	 4.13217079987915E-03 
1687	 4.18015208065664E-03 
1688	 3.81906711941578E-03 
1689	 3.59458995839781E-03 
1690	 4.07950339002028E-03 
1691	 4.20065252002896E-03 
1692	 4.13192220357752E-03 
1693	 4.28956689128412E-03 
1694	 3.80149672013059E-03 
1695	 3.58570861435517E-03 
1696	 4.12523685077462E-03 
1697	 4.26127249376689E-03 
1698	 3.91859103355179E-03 
1699	 3.77121267788637E-03 
1700	 3.5921994917476E-03 
1701	 3.34711477448229E-03 
1702	 3.64799555447443E-03 
1703	 3.8390495495789E-03 
1704	 3.70103848633522E-03 
1705	 3.98793698923399E-03 
1706	 4.09166974327417E-03 
1707	 3.93328351165276E-03 
1708	 4.01466036569204E-03 
1709	 3.82921806358457E-03 
1710	 3.50475251533769E-03 
1711	 3.44290735173917E-03 
1712	 3.26487476263811E-03 
1713	 3.50426120374515E-03 
1714	 3.83265387823992E-03 
1715	 4.38311961841932E-03 
1716	 4.09591234498002E-03 
1717	 3.54023756774012E-03 
1718	 3.16969666726041E-03 
1719	 3.31852130751652E-03 
1720	 3.82436713737493E-03 
1721	 4.4914432669813E-03 
1722	 4.30292834250909E-03 
1723	 3.70328123759822E-03 
1724	 3.71697361818234E-03 
1725	 3.66080161239122E-03 
1726	 3.52155620272175E-03 
1727	 3.88365369300536E-03 
1728	 4.06566825560895E-03 
1729	 3.62231664825506E-03 
1730	 3.60899514056825E-03 
1731	 3.89805339066706E-03 
1732	 3.42878320267437E-03 
1733	 3.19254979595871E-03 
1734	 3.71238451235237E-03 
1735	 3.64128395255968E-03 
1736	 3.50728117993965E-03 
1737	 4.28855807065315E-03 
1738	 4.1074031413794E-03 
1739	 3.26744093409656E-03 
1740	 3.27288980969207E-03 
1741	 2.97868116301799E-03 
1742	 2.81828545244843E-03 
1743	 3.52949365971597E-03 
1744	 3.79260249061832E-03 
1745	 3.17683769547707E-03 
1746	 2.91540303785301E-03 
1747	 3.05357448960223E-03 
1748	 4.09220402576546E-03 
1749	 4.32533088786515E-03 
1750	 3.86895342599726E-03 
1751	 3.80225235818996E-03 
1752	 3.47399227275297E-03 
1753	 3.29863286687637E-03 
1754	 3.64488592641771E-03 
1755	 3.84406958361807E-03 
1756	 3.91583747291827E-03 
1757	 3.86640778882798E-03 
1758	 3.62544709458472E-03 
1759	 4.03377644232516E-03 
1760	 4.07033726143539E-03 
1761	 3.60011062957668E-03 
1762	 3.87455632872732E-03 
1763	 3.57655939057689E-03 
1764	 2.53012758831355E-03 
1765	 2.82033279066555E-03 
1766	 3.54959964288104E-03 
1767	 3.90750729640602E-03 
1768	 4.36462870374559E-03 
1769	 3.9407166350434E-03 
1770	 3.29561917599483E-03 
1771	 3.29148080571528E-03 
1772	 3.6557935122884E-03 
1773	 4.41917356203905E-03 
1774	 4.6793491189689E-03 
1775	 3.89955662784514E-03 
1776	 3.72137344723775E-03 
1777	 3.97676508820481E-03 
1778	 3.87985920097687E-03 
1779	 3.57909314979507E-03 
1780	 3.63862340263239E-03 
1781	 3.58516082390445E-03 
1782	 4.08351253271502E-03 
1783	 5.78850975711088E-03 
1784	 5.74422413073224E-03 
1785	 4.71477169969168E-03 
1786	 4.71769749418049E-03 
1787	 3.85668372507706E-03 
1788	 4.20928000687222E-03 
1789	 6.8189946606354E-03 
1790	 6.46097437896042E-03 
1791	 5.64945534748388E-03 
1792	 0.004730804464325 
1793	 2.04055615330581E-03 
1794	 6.09910255343512E-04 
1795	 3.15477799745318E-03 
1796	 8.17187144424766E-03 
1797	 1.34622028681928E-02 
1798	 1.64007163182691E-02 
1799	 1.48811910800172E-02 
1800	 8.35429210637836E-03 
1801	 4.35212777611689E-03 
1802	 5.71879258205597E-04 
1803	 3.42542734045838E-04 
1804	 5.99723383636006E-03 
1805	 0.01023358696712 
1806	 3.02586234661167E-02 
1807	 3.90314882521508E-02 
1808	 2.84510905519244E-02 
1809	 2.09690316256332E-02 
1810	-1.68976226749006E-02 
1811	-2.38241395984253E-02 
1812	 4.71248851701992E-03 
1813	 3.46654876254899E-02 
1814	 0.140621038764162 
1815	 0.210786948322553 
1816	 0.25204522488882 
1817	 0.081995176988578 
1818	-0.040638333508637 
1819	-0.124505855572038 
1820	-0.154281333154386 
1821	 0.426605465800208 
1822	 0.958675742497919 
1823	 0.697279850135818 
1824	 0.567293836710934 
1825	 5.17755661082777E-02 
1826	-6.86320866047113E-02 
1827	-0.129162964843526 
1828	-0.126854972038935 
1829	 0.147073590106766 
1830	 0.305099212360633 
1831	 0.98737269456683 
1832	 0.814930377902834 
1833	 0.441377555285252 
1834	 0.341405230343512 
1835	 0.928987416933981 
1836	 0.98931503858946 
1837	-0.102837544777573 
1838	-0.27559763939168 
1839	 0.135761617644586 
1840	 0.146017203046255 
1841	 0.285828373362941 
1842	 0.773022328681253 
1843	 1.82190014442282 
1844	-14.3827527034004 
1845	-7.80143288584578 
1846	 8.328500178025 
1847	 4.3537564493683 
1848	 0.818195762070414 
1849	-0.217448653724662 
1850	-2.79046333928678 
1851	-0.862524480416497 
1852	-0.37793134937354 
1853	 0.672397444712649 
1854	 0.580398132027801 
1855	-0.108194839340906 
1856	-0.200885774186134 
1857	-1.06643352870071 
1858	 4.10823988624407 
1859	 0.75179881490605 
1860	 0.699693322793691 
1861	 1.89578559898234 
1862	 2.81571193371591 
1863	 3.6879352161425 
1864	 2.07576810120082 
1865	 5.34698294324597 
1866	-2.33576734655239 
1867	-1.15855861160761 
1868	-0.200172182029593 
1869	-8.80224803129368E-02 
1870	 0.019863761457417 
1871	 0.521501626856885 
1872	 0.157675204885324 
1873	 8.73935911111569 
1874	 0.273437167498472 
1875	 1.34775507294099 
1876	 1.69384198194351 
1877	 1.39696863197113 
1878	 1.67642222199545 
1879	 4.08640875310248 
1880	 6.50532856027879 
1881	 5.94456161812314 
1882	 3.73539860536691 
1883	-2.55263238185862 
1884	 4.154136883361 
1885	-0.55958169792294 
1886	-1.34748069120798 
1887	 3.29622827743796 
1888	 1.70937532031793 
1889	 1.37385983058548 
1890	 0.532714785068245 
1891	 0.358199261010727 
1892	-0.14638420558721 
1893	-1.9793624776089 
1894	 0.368262065754776 
1895	 0.684970535989262 
1896	 7.23002834052151E-02 
1897	-9.34801529245935E-02 
1898	-0.296101060858956 
1899	-1.44792571304696 
1900	-2.48947432312566 
1901	-1.25619877401786 
1902	-2.25927020044547 
1903	-1.91341950337846 
1904	-0.520162981563056 
1905	-0.309644817251171 
1906	 11.7604178030492 
1907	 2.09617904922711 
1908	 9.20025493873511 
1909	 1.72337243539347 
1910	 1.87253845077813 
1911	 3.4360596202274 
1912	 2.81639056497933 
1913	 0.758146417611432 
1914	-0.987645370082339 
1915	-0.575860481777187 
1916	 0.243107118797941 
1917	 0.61499388970768 
1918	 0.801926931531774 
1919	 2.37056138211037 
1920	-3.62735203676424 
1921	 0.161245887319015 
1922	 1.66963316774029E-02 
1923	 4.87149036928964 
1924	 3.9382838148473 
1925	-2.33547398908129 
1926	-2.53337807741089 
1927	-1.89398534488993 
1928	-1.20465348457306 
1929	-0.692435341178304 
1930	-0.621618764499827 
1931	-0.53871900105164 
1932	-0.151948859407603 
1933	 1.52448434582816E-02 
1934	 0.123043875042753 
1935	 0.192627859915542 
1936	 0.133998643356641 
1937	 0.016395416335192 
1938	 1.81456205085289E-02 
1939	 2.22356068820181E-02 
1940	 4.08374274603952E-02 
1941	 5.06287083408849E-02 
1942	 5.40864960592574E-02 
1943	 6.44680048816791E-03 
1944	-3.00307997804854E-02 
1945	-2.70899687379346E-02 
1946	-1.18147131199173E-02 
1947	-0.021028959591119 
1948	-4.19466966620731E-02 
1949	-0.034086631923959 
1950	-0.025886471666173 
1951	-1.37574281841529E-02 
1952	-2.98566319006378E-03 
1953	 1.86467182303303E-02 
1954	 1.99459915351219E-02 
1955	 1.62135482198375E-02 
1956	 1.59202446883138E-02 
1957	 8.53073893139441E-03 
1958	 4.77507330439696E-03 
1959	 5.07715069625838E-03 
1960	 2.52747867223459E-04 
1961	 2.81505587762931E-03 
1962	 6.52259022085095E-03 
1963	 4.89598750694061E-03 
1964	 4.51201979648702E-03 
1965	 5.95606313453455E-03 
1966	 5.71091965564365E-03 
1967	 3.95518550889777E-03 
1968	 2.06190605513227E-03 
1969	 1.80305155499414E-03 
1970	 1.66141815906043E-03 
1971	 1.94104993257653E-03 
1972	 2.29801225939954E-03 
1973	 3.22895376872626E-03 
1974	 3.8894204889376E-03 
1975	 3.37462626785675E-03 
1976	 2.63450784013749E-03 
1977	 1.82165756289311E-03 
1978	 1.22535232259128E-03 
1979	 1.32429019463468E-03 
1980	 1.82443525285818E-03 
1981	 3.1829847865421E-03 
1982	 3.93055286568953E-03 
1983	 3.42383137765954E-03 
1984	 3.53032535424228E-03 
1985	 2.69425074683769E-03 
1986	 1.06728610031765E-03 
1987	 2.13051644663138E-03 
1988	 3.07550407096133E-03 
1989	 3.02608902748434E-03 
1990	 3.59404909477326E-03 
1991	 2.55344763251127E-03 
1992	 9.37667786365732E-04 
1993	 7.29117779730054E-04 
1994	 8.89733328057009E-04 
1995	 2.32997854989644E-03 
1996	 3.66457974408465E-03 
1997	 5.01735407134145E-03 
1998	 6.29025610645554E-03 
1999	 6.37698563180371E-03 
2000	 8.12486501273224E-03 
2001	 1.03496661523621E-02 
2002	 9.92805424141045E-03 
2003	 0.009191223475729 
2004	 6.56377327008053E-03 
2005	 3.47596369284626E-03 
2006	 5.4814526791984E-03 
2007	 6.56341080984384E-03 
2008	 5.3332243629266E-03 
2009	 5.7442673167352E-03 
2010	 5.92366948214544E-03 
2011	 5.38855349135432E-03 
2012	 4.44474147701247E-03 
2013	 6.39339906164669E-03 
2014	 7.24910583607782E-03 
2015	 7.00351228616233E-03 
2016	 7.21079093134031E-03 
2017	 7.01856550286364E-03 
2018	 6.03589060703181E-03 
2019	 5.36780698495958E-03 
2020	 4.52178051236612E-03 
2021	 3.2809483269357E-03 
2022	 2.27524931404846E-03 
2023	 1.90069534124739E-03 
2024	 1.74501857740804E-03 
2025	 1.8354095609389E-03 
2026	 1.78851887510869E-03 
2027	 1.97090816215163E-03 
2028	 2.12651923783854E-03 
2029	 2.04003421027343E-03 
2030	 2.39671852488149E-03 
2031	 2.54338608861354E-03 
2032	 2.04845951744281E-03 
2033	 1.92895224741326E-03 
2034	 1.6956280259039E-03 
2035	 1.53836500503041E-03 
2036	 1.72113625009089E-03 
2037	 2.01099605011154E-03 
2038	 2.70920008033662E-03 
2039	 2.8330089929493E-03 
2040	 2.83385288669527E-03 
2041	 3.28667520764119E-03 
2042	 0.003769443854165 
2043	 3.52648147868572E-03 
2044	 3.39778125197233E-03 
2045	 3.0950251960821E-03 
2046	 2.57293074736275E-03 
2047	 1.87184523293984E-03 
2048	 1.84836326020214E-03 
2049	 2.62094546664939E-03 
2050	 2.01423515245185E-03 
2051	 1.6635799636347E-03 
2052	 2.02726312529444E-03 
2053	 1.67884112146771E-03 
2054	 2.58552977831871E-03 
2055	 4.1048587904015E-03 
2056	 4.14092963108841E-03 
2057	 3.42470986210989E-03 
2058	 3.35945875142444E-03 
2059	 1.68761195014614E-03 
2060	 1.2609669348557E-03 
2061	 1.85908489383602E-03 
2062	 3.25254370856402E-03 
2063	 3.08629662511194E-03 
2064	 3.60558415884147E-03 
2065	 3.13928801657728E-03 
2066	 2.2869483207883E-03 
2067	 2.97135226582633E-03 
2068	 2.65739966092848E-03 
2069	 3.16858122545142E-03 
2070	 3.9305778872614E-03 
2071	 2.47689188236017E-03 
2072	 1.65286424763371E-03 
2073	 1.63253108504679E-03 
2074	 1.62861399338396E-03 
2075	 1.7990348551766E-03 
2076	 3.67463908114011E-03 
2077	 3.73020049081763E-03 
2078	 2.11515762526426E-03 
2079	 1.67304141492773E-03 
2080	 1.07637083289712E-03 
2081	 9.45213611979198E-04 
2082	 1.72398580751589E-03 
2083	 2.07468072197143E-03 
2084	 1.84675593459131E-03 
2085	 1.99412870795403E-03 
2086	 1.74212658904742E-03 
2087	 2.13210248511043E-03 
2088	 3.20322604472833E-03 
2089	 3.34750310131883E-03 
2090	 2.57924565269946E-03 
2091	 2.07976103314609E-03 
2092	 2.11020937588731E-03 
2093	 2.16402992424372E-03 
2094	 2.29362362806591E-03 
2095	 3.16989146389699E-03 
2096	 3.4453948632044E-03 
2097	 3.2327868449911E-03 
2098	 3.34325328858718E-03 
2099	 3.51147676407749E-03 
2100	 3.90261988987161E-03 
2101	 3.82981654603772E-03 
2102	 3.3961408168396E-03 
2103	 2.33260265252748E-03 
2104	 1.51910245348485E-03 
2105	 1.57269479163771E-03 
2106	 1.33254202076138E-03 
2107	 1.34328678701699E-03 
2108	 1.8546443013431E-03 
2109	 2.2548633837458E-03 
2110	 2.76701513713316E-03 
2111	 2.74965189211933E-03 
2112	 2.22179560284578E-03 
2113	 2.23688677810061E-03 
2114	 2.16820837414249E-03 
2115	 2.14905324266108E-03 
2116	 2.53160876626183E-03 
2117	 2.71595449472935E-03 
2118	 2.70133166299552E-03 
2119	 2.54800821217627E-03 
2120	 2.01960626731552E-03 
2121	 2.36206997200425E-03 
2122	 3.75282385792335E-03 
2123	 4.34521606487534E-03 
2124	 3.61324367308077E-03 
2125	 3.85125328485335E-03 
2126	 4.67166571815421E-03 
2127	 4.1919218660735E-03 
2128	 4.58820227744862E-03 
2129	 5.31253641140893E-03 
2130	 3.90670470091014E-03 
2131	 2.54944251344258E-03 
2132	 2.42830609790086E-03 
2133	 2.48292120682627E-03 
2134	 2.53356572633465E-03 
2135	 2.94521965171125E-03 
2136	 3.20868418027794E-03 
2137	 3.43087280650987E-03 
2138	 3.40857547439948E-03 
2139	 3.39743074618892E-03 
2140	 3.16435659507103E-03 
2141	 2.13989592117829E-03 
2142	 2.12602837538455E-03 
2143	 2.73862571865529E-03 
2144	 3.18593690608743E-03 
2145	 3.29437717649511E-03 
2146	 3.90456093779974E-03 
2147	 3.33160843623047E-03 
2148	 1.7995566196839E-03 
2149	 1.49926870650229E-03 
2150	 1.73346174440625E-03 
2151	 1.48691719348546E-03 
2152	 2.23937602905625E-03 
2153	 3.12863981055543E-03 
2154	 2.66447336063969E-03 
2155	 3.01311541079425E-03 
2156	 3.18460875086436E-03 
2157	 3.26190835860029E-03 
2158	 3.08891140958911E-03 
2159	 3.15957173633795E-03 
2160	 3.4630640168418E-03 
2161	 3.02770553922858E-03 
2162	 1.86742783828761E-03 
2163	 1.79812792179599E-03 
2164	 1.90487452969728E-03 
2165	 2.06941463783346E-03 
2166	 2.82432788319472E-03 
2167	 3.15364233036172E-03 
2168	 3.3510747664042E-03 
2169	 3.58117955599597E-03 
2170	 4.20844825230313E-03 
2171	 4.22480694168792E-03 
2172	 3.88603603064321E-03 
2173	 2.91339267292456E-03 
2174	 2.06367029978958E-03 
2175	 2.08535692361752E-03 
2176	 2.19380347649657E-03 
2177	 2.98711492334352E-03 
2178	 3.48350510571638E-03 
2179	 3.08775513754106E-03 
2180	 4.6627064665598E-03 
2181	 5.48458070911933E-03 
2182	 3.85947708377629E-03 
2183	 3.85690608690102E-03 
2184	 3.49505142406642E-03 
2185	 1.30160540160685E-03 
2186	 1.60803989576036E-04 
2187	 4.24387579869616E-04 
2188	 9.07398157771585E-04 
2189	 7.73816364700389E-04 
2190	 1.30416777002254E-03 
2191	 3.68431470284552E-03 
2192	 4.76152267295588E-03 
2193	 5.39335130779374E-03 
2194	 5.81437409846543E-03 
2195	 6.12296926871663E-03 
2196	 6.06609515666188E-03 
2197	 5.05821998656695E-03 
2198	 4.08812073902858E-03 
2199	 3.14237324442984E-03 
2200	 1.96120994021268E-03 
2201	 6.53991159532016E-05 
2202	-4.14681588011128E-05 
2203	 2.89026625847487E-04 
2204	 3.08778146582388E-04 
2205	 1.44365308005631E-03 
2206	 1.41157117598911E-03 
2207	-6.87227469734322E-05 
2208	-1.12344430786432E-04 
2209	 3.35516024111142E-04 
2210	-4.03600534206196E-04 
2211	-0.000530402187269 
2212	 1.12263161783762E-03 
2213	 2.56013150614684E-03 
2214	 3.32299665850205E-03 
2215	 4.3486434291476E-03 
2216	 4.73980079703767E-03 
2217	 4.95832388011967E-03 
2218	 3.8510429080809E-03 
2219	 3.79036530338254E-03 
2220	 4.60344787685602E-03 
2221	 4.79590680660392E-03 
2222	 5.1880700278222E-03 
2223	 4.57398484207751E-03 
2224	 2.75586156360745E-03 
2225	 2.0630754043305E-03 
2226	 1.1057239444281E-03 
2227	 2.09195029655575E-04 
2228	-1.2591987674044E-05 
2229	 5.04914279660904E-04 
2230	 1.71739444522149E-03 
2231	 1.7651759550803E-03 
2232	 2.09224772052799E-03 
2233	 1.7650633270288E-03 
2234	-4.56438115851701E-04 
2235	-1.73170368767589E-03 
2236	-1.15853758266955E-03 
2237	-4.87312041472562E-04 
2238	-1.65693394544268E-04 
2239	 7.19094537702703E-04 
2240	 1.18245492417445E-03 
2241	 1.21634665102333E-03 
2242	 1.83283789619254E-03 
2243	 1.26636874917701E-03 
2244	 2.60346042902874E-05 
2245	 7.48867883585453E-04 
2246	 1.89736004370076E-03 
2247	 9.80331630700429E-04 
2248	-5.80070869851534E-04 
2249	 6.71297728174423E-04 
2250	 2.36715863941084E-03 
2251	 2.86765140066644E-03 
2252	 5.65530042478704E-03 
2253	 5.13285847946879E-03 
2254	 2.19938570096144E-03 
2255	 3.84362179391799E-03 
2256	 4.73298971963585E-03 
2257	 5.17657988086418E-03 
2258	 6.67439264958093E-03 
2259	 6.00260424525458E-03 
2260	 5.51546074044875E-03 
2261	 4.38207692845147E-03 
2262	 3.70170610032724E-03 
2263	 2.33459894587599E-03 
2264	 2.63532973021492E-03 
2265	 4.34482594995475E-03 
2266	 4.4199569266066E-03 
2267	 5.20130931287747E-03 
2268	 4.25187558132338E-03 
2269	 7.53821998601696E-04 
2270	-8.33879418320892E-04 
2271	-3.16350112749078E-03 
2272	-2.62391878550212E-03 
2273	 8.1211794022601E-04 
2274	 2.38061528269265E-03 
2275	 5.56503500949147E-03 
2276	 6.72039260894874E-03 
2277	 5.50433499415436E-03 
2278	 4.78951405151535E-03 
2279	 3.68618992649179E-03 
2280	 3.28603164757342E-03 
2281	 2.38925270162048E-03 
2282	 2.5142693435623E-03 
2283	 4.67471559345998E-03 
2284	 4.86948948152561E-03 
2285	 5.1156791331349E-03 
2286	 5.83342100142826E-03 
2287	 5.97749753318935E-03 
2288	 7.18957023801695E-03 
2289	 7.36953102469407E-03 
2290	 5.66346804022314E-03 
2291	 4.42771989837836E-03 
2292	 7.33440577102578E-04 
2293	-2.5281134048836E-03 
2294	-1.38222667437476E-03 
2295	-1.48574832049154E-03 
2296	-4.35808848154793E-04 
2297	 2.97043252207713E-03 
2298	 2.28710939619902E-03 
2299	 1.23195142822206E-04 
2300	-1.21776146967368E-03 
2301	-3.56225605217631E-03 
2302	-2.57012629531792E-03 
2303	 9.59618613823393E-04 
2304	 2.59632268941519E-03 
2305	 3.21487462911801E-03 
2306	 1.45340440087165E-03 
2307	-1.49557801762091E-03 
2308	-3.37565566651672E-03 
2309	-4.41476541401542E-03 
2310	-4.26939122198027E-03 
2311	-2.61406795956974E-03 
2312	-3.00130882253799E-03 
2313	-5.55296673498824E-03 
2314	-3.12651933055775E-03 
2315	-1.69456706910005E-05 
2316	 1.11667948614114E-03 
2317	 7.7877854972506E-04 
2318	-4.65354378337652E-03 
2319	-4.52589892830535E-03 
2320	 4.49718409584562E-05 
2321	 2.40897665495314E-03 
2322	 6.0047607925894E-03 
2323	 1.95352970428152E-03 
2324	-6.50096793628681E-03 
2325	-8.36753970598086E-03 
2326	-4.14907019912036E-03 
2327	 2.08430033882059E-03 
2328	 5.98755750941654E-03 
2329	 6.14710248347391E-03 
2330	 4.50789402567868E-03 
2331	 5.99198036158895E-03 
2332	 6.71791119452529E-03 
2333	 6.51981756535435E-03 
2334	 7.39274878935753E-03 
2335	 1.54491267442915E-03 
2336	-7.07761033574766E-03 
2337	-9.55524452295004E-03 
2338	-6.44068030875902E-03 
2339	-4.02684941645015E-03 
2340	-4.95878718367203E-04 
2341	 6.38363349691651E-04 
2342	-1.03662999479324E-02 
2343	-1.46842073421641E-02 
2344	-9.74169834410488E-03 
2345	-1.21019578776878E-02 
2346	-8.86202317245936E-03 
2347	-4.61669439636905E-04 
2348	-5.26029754953026E-03 
2349	-7.05283440643289E-03 
2350	 8.40078857107357E-04 
2351	-5.14675125077087E-03 
2352	-1.10656803657422E-02 
2353	-1.45193787049547E-02 
2354	-2.16542583488673E-02 
2355	-1.01104224237985E-02 
2356	 5.45612255426563E-04 
2357	-4.37129528380774E-03 
2358	-5.94384659524864E-03 
2359	-5.44006337347393E-03 
2360	-7.9007681597516E-03 
2361	-5.96505898802862E-03 
2362	-4.22729473438831E-03 
2363	-1.70324495977685E-02 
2364	-3.24596288111657E-02 
2365	-2.79883964821312E-02 
2366	-1.49526372869335E-02 
2367	-4.48113089471439E-03 
2368	-8.15963187114471E-04 
2369	-1.53396692205242E-03 
2370	 1.00522439018849E-03 
2371	 4.25656333590047E-03 
2372	 0.016990966133782 
2373	 1.38723334547152E-02 
2374	-1.35425560942096E-03 
2375	-5.9812513524195E-03 
2376	-1.75159940097438E-02 
2377	-1.43726130683368E-02 
2378	-7.74918259084564E-03 
2379	-1.40484766831444E-02 
2380	-1.22183016679125E-03 
2381	 1.30771086003552E-02 
2382	 8.67819054868308E-03 
2383	 1.29352284865583E-02 
2384	 1.76578459641819E-02 
2385	 7.12730955962214E-03 
2386	 5.7388908223204E-03 
2387	 5.14521022424667E-03 
2388	-1.68712643981654E-03 
2389	 1.32142233482736E-02 
2390	 2.26251090014907E-02 
2391	 2.20549997679745E-02 
2392	 0.036739730863124 
2393	 4.88871947134175E-02 
2394	 4.65905975702014E-02 
2395	 4.07888608290714E-02 
2396	 4.01075708911134E-02 
2397	 3.47920496644165E-02 
2398	 3.81788708148682E-02 
2399	 4.32007240072378E-02 
2400	 3.25247645236248E-02 
2401	 7.26608358143979E-04 
2402	-1.31332917927514E-02 
2403	-6.02549760461547E-03 
2404	-2.19409159974748E-02 
2405	-9.54376173399299E-03 
2406	-6.6706537064535E-05 
2407	-3.72883490608953E-02 
2408	-5.64247602439814E-02 
2409	-6.27379138667954E-02 
2410	-9.47957730380549E-02 
2411	-0.120852260446794 
2412	-0.120940175247801 
2413	-9.97728373163445E-02 
2414	-0.114221609540797 
2415	-9.20899619908815E-02 
2416	 6.32886992709569E-04 
2417	-3.37389995743069E-02 
2418	-5.26390622265984E-02 
2419	 1.64092639419449E-03 
2420	-5.82019356583626E-02 
2421	-0.110615071195009 
2422	-0.135623727814551 
2423	-0.181256902557659 
2424	-0.146190581760525 
2425	-6.78772558348876E-02 
2426	-2.65839003415233E-02 
2427	-9.84340648095019E-03 
2428	-5.42515868009961E-02 
2429	-0.106334111285222 
2430	-7.83773681595767E-02 
2431	-0.108071330085455 
2432	-8.97586934236956E-02 
2433	 1.08486031148261E-02 
2434	-1.48781737372927E-02 
2435	 1.20796702254221E-02 
2436	 7.05736340842117E-02 
2437	 3.09528411146707E-02 
2438	 2.16684897362866E-02 
2439	 6.00375454074537E-02 
2440	 2.47753671819735E-02 
2441	-7.90084525182008E-03 
2442	 6.69488893568181E-02 
2443	 0.085110875317501 
2444	 5.23022741523006E-02 
2445	 0.116457875588263 
2446	 0.139058373080152 
2447	 8.88723823124607E-02 
2448	 0.107190187969287 
2449	 0.122614181055286 
2450	 0.137915726051551 
2451	 0.243060153103316 
2452	 8.33690221442532E-02 
2453	-0.039231541716362 
2454	-0.140612526738508 
2455	-0.367970758071845 
2456	-0.206962166081549 
2457	 6.30273599690903E-02 
2458	 3.32072082582781E-02 
2459	 5.48054911291298E-02 
2460	 4.65329261672302E-02 
2461	-7.00827727290213E-02 
2462	-0.351239506950459 
2463	-0.691438421217879 
2464	-0.67016616458966 
2465	-0.549935719902889 
2466	-0.431327963055235 
2467	-0.195544369087986 
2468	-0.165106244048477 
2469	-0.590923219302627 
2470	-0.843621401987524 
2471	-0.372597297836694 
2472	-0.282490597446753 
2473	-1.37286157346084E-02 
2474	 0.230137779542732 
2475	-0.292260083085134 
2476	-0.520160061583841 
2477	-0.233297907670063 
2478	-0.21712706024427 
2479	-0.316650721856468 
2480	-0.461874636238502 
2481	-0.645787093116437 
2482	-0.794975894379613 
2483	 8.97465034829891E-02 
2484	-35.4318916637696 
2485	 1.40712804009144 
2486	 8.85416943815648E-03 
2487	-0.369021407973859 
2488	-1.33079810955435 
2489	 4.72186014421871 
2490	 1.65925572233883 
2491	 3.41178082753809 
2492	 4.72528926473575 
2493	-3.80858031134436E-02 
2494	 3.36352549668666 
2495	 49.8568178740147 
2496	 11.9489156588123 
2497	-5.81214470884259 
2498	 9.81085255407711E-02 
2499	 0.193478945036207 
2500	 0.294716694838357 
