Wavelength	rt0718far00003.asd
350	 2.58617721679558E-02 
351	 2.54307770904308E-02 
352	 2.54201289621156E-02 
353	 2.59116047751595E-02 
354	 2.65779236295706E-02 
355	 2.64929333440674E-02 
356	 2.63753103474517E-02 
357	 2.63055957594852E-02 
358	 2.62467106501796E-02 
359	 2.65724123508579E-02 
360	 2.65626535488697E-02 
361	 2.63707382894065E-02 
362	 2.66673849045426E-02 
363	 2.67939871479314E-02 
364	 2.67925171488526E-02 
365	 2.68326252477013E-02 
366	 0.027147998601259 
367	 2.71311944003544E-02 
368	 2.69924135631467E-02 
369	 2.70442395860769E-02 
370	 0.027147064493656 
371	 2.71592507998933E-02 
372	 0.027055602058154 
373	 0.026919421904221 
374	 2.70000833076078E-02 
375	 2.73511502996098E-02 
376	 2.78527971004438E-02 
377	 2.82013599192636E-02 
378	 2.78572773428811E-02 
379	 2.78302863919842E-02 
380	 2.86990844571849E-02 
381	 2.86030390980421E-02 
382	 2.83067626842723E-02 
383	 2.81272921114906E-02 
384	 2.81796719421177E-02 
385	 0.028651453709034 
386	 2.93793145123592E-02 
387	 0.029898113728015 
388	 2.95303939950807E-02 
389	 2.94881572082073E-02 
390	 2.96437652673713E-02 
391	 2.96883457391751E-02 
392	 0.029513424352959 
393	 2.99142711948296E-02 
394	 3.04696685686305E-02 
395	 3.05115981879249E-02 
396	 3.06614189490969E-02 
397	 3.08198136337126E-02 
398	 3.09059618289204E-02 
399	 3.09047125736628E-02 
400	 3.10520478463673E-02 
401	 3.12508268846528E-02 
402	 0.031373720799898 
403	 3.13166369881882E-02 
404	 3.14203747852417E-02 
405	 3.15933949919003E-02 
406	 3.16396196650317E-02 
407	 3.17811735318147E-02 
408	 3.19941773971728E-02 
409	 3.21797197164648E-02 
410	 3.22011126674247E-02 
411	 3.23611225260047E-02 
412	 3.25649589338163E-02 
413	 3.27156537511659E-02 
414	 3.28987680162726E-02 
415	 3.30044081753908E-02 
416	 0.033143847736589 
417	 3.34411694138963E-02 
418	 3.35104814914913E-02 
419	 3.36699535604078E-02 
420	 3.39907854251883E-02 
421	 3.42340471220209E-02 
422	 3.44109510147215E-02 
423	 3.46228961617992E-02 
424	 3.48895216144796E-02 
425	 3.49116763244559E-02 
426	 3.51633443046944E-02 
427	 3.55440303709336E-02 
428	 3.57347184151271E-02 
429	 3.60663174072097E-02 
430	 3.64075737058239E-02 
431	 3.66746252249871E-02 
432	 3.68906409342932E-02 
433	 3.72251869233018E-02 
434	 0.037544463764655 
435	 3.77530499911095E-02 
436	 0.038082186657349 
437	 3.83538730862217E-02 
438	 3.86500863188471E-02 
439	 3.91315997778792E-02 
440	 3.93418121265329E-02 
441	 3.95605719701297E-02 
442	 0.039919906250013 
443	 4.02178365110659E-02 
444	 4.05451891630617E-02 
445	 4.08915612249102E-02 
446	 4.12132954189004E-02 
447	 4.14375886606029E-02 
448	 4.16913542333624E-02 
449	 4.19747532325072E-02 
450	 4.21966264489152E-02 
451	 4.23889367701782E-02 
452	 4.25947049075547E-02 
453	 0.042831231256425 
454	 4.30620155579631E-02 
455	 0.043277539444355 
456	 4.34546595868483E-02 
457	 0.043584708387993 
458	 4.37385783248349E-02 
459	 4.39257685372762E-02 
460	 4.41115834815252E-02 
461	 4.42286356098067E-02 
462	 4.44646101288162E-02 
463	 4.46539808056563E-02 
464	 4.46987012038976E-02 
465	 0.044875092785174 
466	 4.50793146724515E-02 
467	 4.52759383151865E-02 
468	 4.54603448209752E-02 
469	 4.56332406422896E-02 
470	 4.58024609016194E-02 
471	 4.59637709446873E-02 
472	 4.60942532896188E-02 
473	 4.63500387038453E-02 
474	 4.65717574361679E-02 
475	 0.046646546096849 
476	 4.69355726195886E-02 
477	 4.71688606071565E-02 
478	 0.04737379394271 
479	 4.77484718719755E-02 
480	 0.047931362768886 
481	 4.81123068294977E-02 
482	 4.84011411101678E-02 
483	 4.85833761501325E-02 
484	 4.89078329608409E-02 
485	 4.92481486794306E-02 
486	 4.94311015030375E-02 
487	 4.98362827924444E-02 
488	 5.01119733429195E-02 
489	 5.02506292916048E-02 
490	 5.05958529974268E-02 
491	 5.09543094116442E-02 
492	 5.12899919398266E-02 
493	 5.16235959319091E-02 
494	 5.20700957701844E-02 
495	 5.24285377107163E-02 
496	 5.26920780567071E-02 
497	 5.29730325423989E-02 
498	 5.34424418546784E-02 
499	 5.38694539215743E-02 
500	 5.42007868902752E-02 
501	 0.054723853572966 
502	 5.50633758943634E-02 
503	 5.53328827320956E-02 
504	 5.57414315464219E-02 
505	 5.62960759510681E-02 
506	 5.66884814217211E-02 
507	 5.69644359906881E-02 
508	 5.74288005384192E-02 
509	 5.77180107433252E-02 
510	 5.80255737231336E-02 
511	 5.84962782215822E-02 
512	 0.058963997747316 
513	 5.94542962307484E-02 
514	 5.99402596422146E-02 
515	 0.060393503988041 
516	 6.09195603973294E-02 
517	 6.15311531093264E-02 
518	 6.21296450919217E-02 
519	 6.25047166136447E-02 
520	 6.29790797099169E-02 
521	 6.35329547117645E-02 
522	 6.40846290316082E-02 
523	 6.46294525876444E-02 
524	 6.51785506931922E-02 
525	 0.065730005380402 
526	 6.62800851673825E-02 
527	 6.68985776693904E-02 
528	 0.06748605081641 
529	 6.79967753468649E-02 
530	 6.85298566422256E-02 
531	 6.91187328132265E-02 
532	 6.97144251722575E-02 
533	 7.02540452262644E-02 
534	 7.08308010052135E-02 
535	 7.14489631680543E-02 
536	 7.20621146165352E-02 
537	 7.25741318431782E-02 
538	 7.31898489735982E-02 
539	 7.38578518874149E-02 
540	 0.074483344473441 
541	 7.50549426774746E-02 
542	 7.55958619452865E-02 
543	 7.61443752455468E-02 
544	 0.076740835601571 
545	 7.73370902276368E-02 
546	 7.79166918909357E-02 
547	 0.078471111476898 
548	 7.89909054551749E-02 
549	 7.95991991807972E-02 
550	 0.080223717134373 
551	 8.07649547279757E-02 
552	 8.14114728859833E-02 
553	 8.20000900124457E-02 
554	 8.25138839413824E-02 
555	 8.31162651023846E-02 
556	 8.37403848725182E-02 
557	 8.43370286207841E-02 
558	 8.48809624656933E-02 
559	 8.54383277954887E-02 
560	 8.59894673927805E-02 
561	 8.65074857893409E-02 
562	 8.69705974135105E-02 
563	 8.74294805609549E-02 
564	 8.78776616589017E-02 
565	 8.83016639881587E-02 
566	 8.86928883111986E-02 
567	 8.90500858719129E-02 
568	 8.94037880395906E-02 
569	 8.97688364525381E-02 
570	 9.00073506651877E-02 
571	 9.02460978262355E-02 
572	 9.05284296084001E-02 
573	 9.07886031667194E-02 
574	 9.09291698944281E-02 
575	 9.10199570111613E-02 
576	 9.11259409262101E-02 
577	 9.11615894748345E-02 
578	 9.11297830996362E-02 
579	 9.10629549354554E-02 
580	 9.09991580670533E-02 
581	 9.08247617109377E-02 
582	 9.06123897594069E-02 
583	 9.03930854295548E-02 
584	 0.090074565502632 
585	 8.98030108095433E-02 
586	 8.95021604893737E-02 
587	 8.90513561510663E-02 
588	 8.86006463981679E-02 
589	 8.82038734636054E-02 
590	 8.77861114466022E-02 
591	 8.71382967897301E-02 
592	 8.66450557290828E-02 
593	 8.60560472358428E-02 
594	 8.51676720893682E-02 
595	 8.42896003759318E-02 
596	 8.32713372740315E-02 
597	 8.21241396555546E-02 
598	 8.09546590303464E-02 
599	 7.97521629308956E-02 
600	 7.86839764207034E-02 
601	 7.78695185983688E-02 
602	 7.73167861329326E-02 
603	 7.68453460238045E-02 
604	 7.65203457649526E-02 
605	 7.64223947811312E-02 
606	 7.62458192593955E-02 
607	 0.076110890863793 
608	 7.60824488164771E-02 
609	 7.61385163863792E-02 
610	 7.60540270026758E-02 
611	 7.59565528587558E-02 
612	 0.075953067495219 
613	 7.58522076568252E-02 
614	 7.57322856313547E-02 
615	 7.56396851623422E-02 
616	 7.56040611339805E-02 
617	 0.07565464927783 
618	 7.56155424801109E-02 
619	 7.54562210220092E-02 
620	 0.075411728852266 
621	 7.52958982131361E-02 
622	 7.51881663083509E-02 
623	 7.51824044614663E-02 
624	 7.50169255688228E-02 
625	 7.48933532044828E-02 
626	 7.48494463232072E-02 
627	 7.47548974534422E-02 
628	 7.46482685083161E-02 
629	 7.45375628485551E-02 
630	 7.44410111145161E-02 
631	 7.44262547558507E-02 
632	 7.43682880138455E-02 
633	 7.42323642630384E-02 
634	 7.40504300063323E-02 
635	 0.073973061175017 
636	 7.39287055748335E-02 
637	 7.38327654102754E-02 
638	 7.36103539970498E-02 
639	 7.35101673567825E-02 
640	 0.073437113144054 
641	 7.32563393265294E-02 
642	 7.31230682437518E-02 
643	 7.29528909873495E-02 
644	 7.27550568269245E-02 
645	 7.26095819036734E-02 
646	 7.23659046578115E-02 
647	 7.21453506969308E-02 
648	 7.20015788574378E-02 
649	 7.17112842781616E-02 
650	 7.14241705331645E-02 
651	 0.07111754060113 
652	 7.07179202332931E-02 
653	 7.02195927218747E-02 
654	 6.96348093545984E-02 
655	 6.89228290773756E-02 
656	 6.80791562445445E-02 
657	 0.067424202081718 
658	 6.68848271859493E-02 
659	 6.63412137330268E-02 
660	 6.58674641807858E-02 
661	 6.54335454847408E-02 
662	 6.50681234487453E-02 
663	 6.48302260671629E-02 
664	 6.46213569780596E-02 
665	 6.44102743892548E-02 
666	 6.41787292103009E-02 
667	 6.39093261548673E-02 
668	 6.37638496048283E-02 
669	 6.36650640494681E-02 
670	 6.34910537529713E-02 
671	 6.33391710252002E-02 
672	 6.32098369347171E-02 
673	 6.31047663458645E-02 
674	 6.30297388538113E-02 
675	 6.29679750830824E-02 
676	 6.29452859119247E-02 
677	 6.29577531605524E-02 
678	 6.29080887750836E-02 
679	 6.28471752110561E-02 
680	 6.28074836505627E-02 
681	 6.27989940707109E-02 
682	 6.27390129460842E-02 
683	 6.26111223234234E-02 
684	 6.24831385375134E-02 
685	 6.25238588048699E-02 
686	 6.24422288683328E-02 
687	 6.22661058013519E-02 
688	 6.20929207978374E-02 
689	 6.17884841038453E-02 
690	 6.14095984502579E-02 
691	 6.09491756526037E-02 
692	 6.03648577738325E-02 
693	 5.97796214034827E-02 
694	 5.91530817278322E-02 
695	 5.84678579238914E-02 
696	 5.77093297899049E-02 
697	 5.69406910924184E-02 
698	 5.61616998006994E-02 
699	 5.53623069715346E-02 
700	 5.43595759606366E-02 
701	 5.32931844827459E-02 
702	 5.22475527643727E-02 
703	 5.12099182017373E-02 
704	 0.05009775898539 
705	 4.89616607288757E-02 
706	 0.04782283327514 
707	 4.65210785505206E-02 
708	 4.51186118421882E-02 
709	 4.37162724579153E-02 
710	 4.23797015294729E-02 
711	 4.09007963521487E-02 
712	 3.93490625437305E-02 
713	 0.037759765365469 
714	 3.60812975148259E-02 
715	 3.45860850920727E-02 
716	 3.31080845938842E-02 
717	 3.15158971818811E-02 
718	 2.97853406106987E-02 
719	 2.82244518811936E-02 
720	 2.69443134581394E-02 
721	 2.56783667068514E-02 
722	 2.43738315897006E-02 
723	 0.023096171254096 
724	 2.19653048928308E-02 
725	 2.07282324273066E-02 
726	 1.94651987778223E-02 
727	 1.83072630972085E-02 
728	 1.72701729438194E-02 
729	 1.58979716060893E-02 
730	 1.46782715754344E-02 
731	 1.37851118305485E-02 
732	 1.31207131786496E-02 
733	 1.24311684536327E-02 
734	 1.18957464826117E-02 
735	 1.15396063950272E-02 
736	 1.11340464809244E-02 
737	 1.09741754214047E-02 
738	 1.08534975482201E-02 
739	 1.05947566549853E-02 
740	 1.04719525648528E-02 
741	 1.03834872738148E-02 
742	 1.03361112700065E-02 
743	 1.03657199239592E-02 
744	 1.02824938371197E-02 
745	 1.02221069121248E-02 
746	 1.02277578375319E-02 
747	 1.01740118420127E-02 
748	 1.01598727715044E-02 
749	 1.01606493257418E-02 
750	 0.010136094901944 
751	 1.01025960466137E-02 
752	 1.00354240619658E-02 
753	 9.98893819325815E-03 
754	 1.00378328298747E-02 
755	 1.00548944810467E-02 
756	 1.00435642983816E-02 
757	 1.00442784624877E-02 
758	 1.01596836449256E-02 
759	 1.01080299813082E-02 
760	 1.01061510743764E-02 
761	 1.04257385540183E-02 
762	 1.03005298050617E-02 
763	 1.01838979652092E-02 
764	 1.01155238931444E-02 
765	 1.00173139132612E-02 
766	 1.00199506199845E-02 
767	 1.00812162232629E-02 
768	 1.01156228242163E-02 
769	 9.99861372783223E-03 
770	 1.00461151772367E-02 
771	 1.01265280873742E-02 
772	 1.01185982341746E-02 
773	 0.010191600080533 
774	 1.02508673850472E-02 
775	 1.02817523618005E-02 
776	 1.03129898760416E-02 
777	 1.04183283959748E-02 
778	 0.010436562404851 
779	 0.010384685352871 
780	 1.04668922941033E-02 
781	 1.06375686508233E-02 
782	 1.07244080483566E-02 
783	 1.06790926212071E-02 
784	 1.07767660280597E-02 
785	 1.09350434172654E-02 
786	 1.11159200872754E-02 
787	 1.12739108641748E-02 
788	 0.011281906725302 
789	 1.14176444637931E-02 
790	 1.16586337597824E-02 
791	 0.011750308007529 
792	 1.18765133325614E-02 
793	 1.20894516100013E-02 
794	 0.012294894063251 
795	 1.21848624427281E-02 
796	 1.23008377767745E-02 
797	 1.24895961289723E-02 
798	 1.25274942259124E-02 
799	 1.26507784029581E-02 
800	 1.27554846179144E-02 
801	 1.29036013971693E-02 
802	 1.31821589384361E-02 
803	 1.31718494853925E-02 
804	 1.31282972989183E-02 
805	 1.31516605642133E-02 
806	 1.31074165793441E-02 
807	 1.31690453833323E-02 
808	 1.32540013141056E-02 
809	 1.32545994111972E-02 
810	 1.31286556103208E-02 
811	 1.29813615320289E-02 
812	 1.28864210659594E-02 
813	 1.28665102606486E-02 
814	 1.27198840398221E-02 
815	 0.012574229728255 
816	 1.24393430275184E-02 
817	 1.22381410653896E-02 
818	 1.22039897933583E-02 
819	 1.20022587583277E-02 
820	 1.15550801438097E-02 
821	 0.011165396179302 
822	 1.07951094929068E-02 
823	 1.04280595616968E-02 
824	 1.00601639017133E-02 
825	 9.6881971645675E-03 
826	 9.48079592281106E-03 
827	 9.18620515782988E-03 
828	 8.57458776167731E-03 
829	 8.43462490858371E-03 
830	 8.31156006317032E-03 
831	 8.05238324426836E-03 
832	 7.79704785623733E-03 
833	 7.62886569232971E-03 
834	 7.54826860444574E-03 
835	 7.49223979024656E-03 
836	 7.34489470859966E-03 
837	 7.34633345270952E-03 
838	 7.34577174137624E-03 
839	 7.23177436843279E-03 
840	 7.22315336218298E-03 
841	 7.16935261546797E-03 
842	 7.10889975883907E-03 
843	 7.11192886564062E-03 
844	 7.05023423771169E-03 
845	 7.03932378652696E-03 
846	 7.12330325965085E-03 
847	 7.23982625030014E-03 
848	 6.91314309849789E-03 
849	 6.78588475601765E-03 
850	 6.97911776413411E-03 
851	 6.82434228452968E-03 
852	 6.91813341824678E-03 
853	 6.90695771013348E-03 
854	 6.62981235058431E-03 
855	 6.73132243114218E-03 
856	 6.76774657029517E-03 
857	 6.68693683743079E-03 
858	 6.59131173729103E-03 
859	 6.72701856022735E-03 
860	 6.77428653611338E-03 
861	 6.70205093517918E-03 
862	 6.65282510705412E-03 
863	 6.79813242462497E-03 
864	 6.79477694664044E-03 
865	 6.65630427241254E-03 
866	 6.70767931089315E-03 
867	 6.55562243153317E-03 
868	 6.46715665074858E-03 
869	 6.51784196467277E-03 
870	 6.4339073892767E-03 
871	 6.34273717040553E-03 
872	 6.46459182361534E-03 
873	 6.73432261999992E-03 
874	 6.41381890930754E-03 
875	 6.23270895901815E-03 
876	 6.24710335066399E-03 
877	 6.31579592585831E-03 
878	 6.42959334940516E-03 
879	 6.56365347817282E-03 
880	 6.52281806227346E-03 
881	 6.16208101170326E-03 
882	 5.94909803481336E-03 
883	 6.15622898040063E-03 
884	 6.3477040467777E-03 
885	 5.80204682322358E-03 
886	 5.96963786839961E-03 
887	 6.15880000534466E-03 
888	 6.07074095672087E-03 
889	 6.10221420318129E-03 
890	 5.94546924938661E-03 
891	 6.07197277326452E-03 
892	 6.49555537619265E-03 
893	 6.15296877555695E-03 
894	 5.9969238654041E-03 
895	 6.16025033624405E-03 
896	 6.37509484656185E-03 
897	 5.94141515806584E-03 
898	 5.8199570306958E-03 
899	 5.84526963751735E-03 
900	 5.73354698214678E-03 
901	 6.3821263262672E-03 
902	 6.30481390265092E-03 
903	 5.67048104071346E-03 
904	 5.32585248047765E-03 
905	 5.90475760003823E-03 
906	 6.48453155661041E-03 
907	 6.39353707226433E-03 
908	 5.50940785877235E-03 
909	 5.68021816442901E-03 
910	 5.92054357598087E-03 
911	 6.01698293069696E-03 
912	 6.57176272720994E-03 
913	 6.66709002107937E-03 
914	 6.13424596545968E-03 
915	 5.57893985217362E-03 
916	 6.08165514700757E-03 
917	 5.71847403009301E-03 
918	 5.32084555520381E-03 
919	 5.42091098092181E-03 
920	 5.58430280167647E-03 
921	 5.13047862815224E-03 
922	 4.91691701947483E-03 
923	 5.39349767617574E-03 
924	 5.52367110408251E-03 
925	 5.94156523828886E-03 
926	 6.25281223642522E-03 
927	 5.9134692853131E-03 
928	 4.92869441371964E-03 
929	 5.49816254867019E-03 
930	 6.30884012762588E-03 
931	 4.87630879844116E-03 
932	 6.76390020929865E-03 
933	 5.36937441010837E-03 
934	 3.19776781224232E-03 
935	 5.22378202984103E-03 
936	 4.08164596484887E-03 
937	 4.57196547464033E-03 
938	 6.18862138268165E-03 
939	 6.83952444762411E-03 
940	 5.40035123927348E-03 
941	 4.2930203109758E-03 
942	 4.47228973270853E-03 
943	 5.72147885897357E-03 
944	 6.15711734886095E-03 
945	 5.87247630321735E-03 
946	 5.77579012771871E-03 
947	 6.57787467035999E-03 
948	 5.68470698426225E-03 
949	 5.59062293707921E-03 
950	 5.84416734364761E-03 
951	 4.77569511421783E-03 
952	 6.76110500411411E-03 
953	 5.15587027276443E-03 
954	 1.94563872678772E-03 
955	 4.00761579665623E-03 
956	 5.67001123337797E-03 
957	 4.1360328692652E-03 
958	 2.43153016196912E-03 
959	 5.68056999740246E-03 
960	 6.44887747829719E-03 
961	 4.38221885510533E-03 
962	 2.70976274255548E-03 
963	 5.15169208473492E-03 
964	 5.70781140682362E-03 
965	 5.85909776313446E-03 
966	 6.05828394824407E-03 
967	 5.62522466853318E-03 
968	 5.14050754672595E-03 
969	 5.1073630875189E-03 
970	 5.40579649601601E-03 
971	 0.005395717744156 
972	 4.54485163220962E-03 
973	 4.34309034344009E-03 
974	 4.77307876577599E-03 
975	 4.40448668405988E-03 
976	 4.94305060731204E-03 
977	 5.36408675318067E-03 
978	 4.73636619815519E-03 
979	 3.15858134557075E-03 
980	 5.0811263932465E-03 
981	 6.35567032408305E-03 
982	 5.89101340091078E-03 
983	 5.65229709199097E-03 
984	 4.28518591113124E-03 
985	 4.36257420924838E-03 
986	 5.61097172613079E-03 
987	 5.48586068682766E-03 
988	 4.21810659944094E-03 
989	 4.73920463437561E-03 
990	 6.26183524880834E-03 
991	 5.5485522803114E-03 
992	 4.29555692385732E-03 
993	 3.96710335581586E-03 
994	 4.37356710906629E-03 
995	 4.47456904142363E-03 
996	 6.09116964247446E-03 
997	 5.88130425636633E-03 
998	 4.35060713035585E-03 
999	 4.29740653984661E-03 
1000	 5.34242857701238E-03 
1001	 5.48957258693683E-03 
1002	 5.41936171959573E-03 
1003	 5.31813794790532E-03 
1004	 5.02633812131487E-03 
1005	 4.89664196264895E-03 
1006	 4.85498696096174E-03 
1007	 4.84475905973799E-03 
1008	 4.85800122403483E-03 
1009	 4.57729172159656E-03 
1010	 4.60344377256564E-03 
1011	 4.58425251361532E-03 
1012	 4.38956495724449E-03 
1013	 4.64161151250515E-03 
1014	 4.67239771348589E-03 
1015	 4.50519445529038E-03 
1016	 4.58982059250865E-03 
1017	 4.82999079347527E-03 
1018	 4.90948452060198E-03 
1019	 5.08308310785032E-03 
1020	 5.16337204777556E-03 
1021	 5.02628463372228E-03 
1022	 5.13108492439609E-03 
1023	 5.25873567159326E-03 
1024	 5.18560452389679E-03 
1025	 5.24694974538112E-03 
1026	 5.35405233063425E-03 
1027	 5.24613722556087E-03 
1028	 4.97988094303759E-03 
1029	 4.91857801517089E-03 
1030	 4.71109335350796E-03 
1031	 4.72829223605772E-03 
1032	 5.16483021406642E-03 
1033	 5.1630192410905E-03 
1034	 4.94423650985959E-03 
1035	 4.90274171370359E-03 
1036	 4.70935832740597E-03 
1037	 4.59423494019348E-03 
1038	 4.7726216947317E-03 
1039	 4.64726283740073E-03 
1040	 4.24262819853964E-03 
1041	 4.60324360068466E-03 
1042	 4.76862827188271E-03 
1043	 5.13718216024392E-03 
1044	 5.25249424778509E-03 
1045	 5.49023696122537E-03 
1046	 5.27718416033641E-03 
1047	 4.46205149419719E-03 
1048	 4.32905106943732E-03 
1049	 0.004212731515051 
1050	 4.28160265427982E-03 
1051	 5.05676096069519E-03 
1052	 5.32200236624022E-03 
1053	 5.43721655738335E-03 
1054	 5.37878138367365E-03 
1055	 4.87493547419316E-03 
1056	 4.65252729423274E-03 
1057	 4.48263744030615E-03 
1058	 4.18119877456146E-03 
1059	 4.24594468702928E-03 
1060	 4.67308965144583E-03 
1061	 4.89443969632772E-03 
1062	 5.3233866085757E-03 
1063	 5.39425565929004E-03 
1064	 5.24043572886128E-03 
1065	 5.16242230798994E-03 
1066	 4.82434394252628E-03 
1067	 4.7166052638987E-03 
1068	 4.79640009288537E-03 
1069	 4.80927581720726E-03 
1070	 4.81211523470738E-03 
1071	 4.86673541246687E-03 
1072	 4.97202614276748E-03 
1073	 5.07958940727459E-03 
1074	 5.05914007888189E-03 
1075	 5.11649654750424E-03 
1076	 4.98914483450319E-03 
1077	 4.43721507860224E-03 
1078	 4.44674536124564E-03 
1079	 4.61386091552782E-03 
1080	 4.82127098728306E-03 
1081	 5.74673043027284E-03 
1082	 5.8158037189889E-03 
1083	 5.17116845404854E-03 
1084	 5.03864728968184E-03 
1085	 4.74379687043932E-03 
1086	 4.53072439733258E-03 
1087	 4.70953294468531E-03 
1088	 4.81878535913391E-03 
1089	 4.91907963202314E-03 
1090	 4.64802808185126E-03 
1091	 4.73564911808235E-03 
1092	 5.17484090634767E-03 
1093	 5.10888750808469E-03 
1094	 4.80880181821948E-03 
1095	 4.80193803867121E-03 
1096	 4.6340741429604E-03 
1097	 4.61862028910155E-03 
1098	 5.03751001515923E-03 
1099	 5.00601763788089E-03 
1100	 4.45700927740821E-03 
1101	 4.41337129029606E-03 
1102	 4.70837031916289E-03 
1103	 4.72595457389936E-03 
1104	 4.79268910383206E-03 
1105	 4.89176699081612E-03 
1106	 5.22971551231206E-03 
1107	 5.14619285272359E-03 
1108	 4.82474744622798E-03 
1109	 4.9651807588353E-03 
1110	 4.94364999823317E-03 
1111	 4.11396744589008E-03 
1112	 4.22570460227934E-03 
1113	 5.92825703327435E-03 
1114	 5.90746708486028E-03 
1115	 4.46993412262923E-03 
1116	 4.26964885415968E-03 
1117	 3.59001731791454E-03 
1118	 3.19600566058462E-03 
1119	 5.11045246705679E-03 
1120	 5.92970193107541E-03 
1121	 5.49331322836508E-03 
1122	 4.30795414654283E-03 
1123	 5.2482888568743E-03 
1124	 6.66620538449521E-03 
1125	 5.39833030817951E-03 
1126	 3.10854808185074E-03 
1127	 3.13370623841339E-03 
1128	 5.57033301880326E-03 
1129	 5.84392579852114E-03 
1130	 7.79960449593748E-03 
1131	 8.21287840621957E-03 
1132	 5.09297422034747E-03 
1133	 4.97167577635565E-03 
1134	 8.4910912260017E-03 
1135	 8.15116958147737E-03 
1136	 5.56707025304161E-03 
1137	 5.56500242437308E-03 
1138	 6.03185446978966E-03 
1139	 4.32641102820584E-03 
1140	 5.1836810691165E-03 
1141	 5.88355402077885E-03 
1142	 3.97691381492741E-03 
1143	 3.86946033690435E-03 
1144	 4.3606445160757E-03 
1145	 4.35629793568057E-03 
1146	 4.96453066311871E-03 
1147	 4.76977164366961E-03 
1148	 4.48893675966424E-03 
1149	 4.76265618624529E-03 
1150	 4.85757503921215E-03 
1151	 5.10850841269467E-03 
1152	 5.12470784619533E-03 
1153	 5.09713738214577E-03 
1154	 4.90413015089254E-03 
1155	 4.59019145485624E-03 
1156	 4.29698454229563E-03 
1157	 4.11545692739793E-03 
1158	 4.04821656336694E-03 
1159	 4.19073609820409E-03 
1160	 4.39699882918599E-03 
1161	 4.71162669883333E-03 
1162	 4.93802241819904E-03 
1163	 5.17881640349996E-03 
1164	 5.34463071440647E-03 
1165	 4.82447336621653E-03 
1166	 4.47182701112183E-03 
1167	 4.53990224346855E-03 
1168	 4.3782232489551E-03 
1169	 4.48297854949975E-03 
1170	 4.75713277761663E-03 
1171	 4.74235387946469E-03 
1172	 4.22731359942522E-03 
1173	 4.16184010689764E-03 
1174	 4.35725224775532E-03 
1175	 4.2398588983334E-03 
1176	 3.80701451996103E-03 
1177	 3.92221441266897E-03 
1178	 4.22710281982528E-03 
1179	 4.23669364495229E-03 
1180	 4.52826618513527E-03 
1181	 4.61784751150955E-03 
1182	 4.06043783611002E-03 
1183	 3.80910299433339E-03 
1184	 4.08072669018428E-03 
1185	 4.36851310403568E-03 
1186	 4.36337179837045E-03 
1187	 4.20664532941474E-03 
1188	 4.19386979015688E-03 
1189	 4.20742141454301E-03 
1190	 4.38459539974877E-03 
1191	 4.58112256126253E-03 
1192	 4.5724685891089E-03 
1193	 4.30774442266034E-03 
1194	 4.1303816266368E-03 
1195	 4.1390729077444E-03 
1196	 4.19810894261608E-03 
1197	 4.59257308352357E-03 
1198	 4.70932068064814E-03 
1199	 4.33005557195036E-03 
1200	 4.14333584561444E-03 
1201	 3.97497039463431E-03 
1202	 3.89267723376052E-03 
1203	 4.2648090541914E-03 
1204	 4.53171711163003E-03 
1205	 4.36563280561654E-03 
1206	 4.26137938234502E-03 
1207	 4.25236664248097E-03 
1208	 4.04437939503358E-03 
1209	 4.04863844137924E-03 
1210	 4.37727421723152E-03 
1211	 4.47226371783651E-03 
1212	 4.28730355207601E-03 
1213	 4.20439619045598E-03 
1214	 4.26255377442872E-03 
1215	 4.23515975504548E-03 
1216	 4.15510302383498E-03 
1217	 4.27050479013825E-03 
1218	 4.49198866920951E-03 
1219	 4.46352296651352E-03 
1220	 4.24023599006636E-03 
1221	 4.21854271255642E-03 
1222	 4.31350592713187E-03 
1223	 4.25446386778604E-03 
1224	 4.03731523433603E-03 
1225	 3.97564093650854E-03 
1226	 4.22641262491477E-03 
1227	 4.25302438861942E-03 
1228	 4.07004589235707E-03 
1229	 4.11509358416335E-03 
1230	 4.11878105274749E-03 
1231	 3.98929236550012E-03 
1232	 4.10950705105879E-03 
1233	 4.28308833320751E-03 
1234	 4.02430330520276E-03 
1235	 3.97593652326236E-03 
1236	 4.15285450802053E-03 
1237	 4.2372445043665E-03 
1238	 4.3142909773874E-03 
1239	 4.31834667180907E-03 
1240	 4.26413578471435E-03 
1241	 3.97138256212031E-03 
1242	 3.88136961041622E-03 
1243	 4.00032092694218E-03 
1244	 4.11469586128156E-03 
1245	 4.19439502469481E-03 
1246	 4.20070241089609E-03 
1247	 4.13330441706704E-03 
1248	 4.07873736417877E-03 
1249	 4.23192894621755E-03 
1250	 4.27052272062335E-03 
1251	 4.06120507362174E-03 
1252	 4.07513063920722E-03 
1253	 4.2405441992698E-03 
1254	 4.12170891535723E-03 
1255	 3.99972837749252E-03 
1256	 4.11653999737231E-03 
1257	 4.40738001249524E-03 
1258	 4.28018260612088E-03 
1259	 4.15139452536387E-03 
1260	 4.20406806185735E-03 
1261	 3.83578597024616E-03 
1262	 3.71244169523137E-03 
1263	 3.97932495222845E-03 
1264	 4.23611887120385E-03 
1265	 3.88597543833476E-03 
1266	 3.79805392511515E-03 
1267	 3.93693218200377E-03 
1268	 4.03104403204218E-03 
1269	 4.15544543300244E-03 
1270	 4.15797841994355E-03 
1271	 4.12238156919001E-03 
1272	 4.08887908643893E-03 
1273	 4.04035329492034E-03 
1274	 3.98241175682322E-03 
1275	 3.94049548990966E-03 
1276	 3.86061232543853E-03 
1277	 3.71368043796032E-03 
1278	 3.77105539088696E-03 
1279	 3.93552995008293E-03 
1280	 3.84592412025357E-03 
1281	 3.87455994825157E-03 
1282	 4.12333230504616E-03 
1283	 4.22107155334993E-03 
1284	 4.1503510763172E-03 
1285	 4.19594214051407E-03 
1286	 4.33432844528598E-03 
1287	 4.29299704502182E-03 
1288	 4.16398630865769E-03 
1289	 4.17075347001601E-03 
1290	 4.20099243618831E-03 
1291	 4.05062067787249E-03 
1292	 4.0222810030412E-03 
1293	 4.14023289577234E-03 
1294	 4.0805381712408E-03 
1295	 3.85975593890549E-03 
1296	 3.85340663689131E-03 
1297	 3.97523930003462E-03 
1298	 4.04256043181766E-03 
1299	 4.08248921776448E-03 
1300	 4.17552067213033E-03 
1301	 4.29563836664511E-03 
1302	 4.2230929777371E-03 
1303	 4.06630115349238E-03 
1304	 4.07182646428081E-03 
1305	 4.02083622373467E-03 
1306	 3.91643422481765E-03 
1307	 3.83929514433668E-03 
1308	 3.84132538187104E-03 
1309	 3.73199781544855E-03 
1310	 3.65494265641385E-03 
1311	 3.66267549995772E-03 
1312	 3.7779831841811E-03 
1313	 4.06839595592168E-03 
1314	 4.1223881413249E-03 
1315	 4.06733951133511E-03 
1316	 4.14594984243158E-03 
1317	 4.13953768111248E-03 
1318	 4.13492584371316E-03 
1319	 4.39510659290629E-03 
1320	 4.41092439878418E-03 
1321	 4.14629091541887E-03 
1322	 3.91213700095658E-03 
1323	 3.77532944258288E-03 
1324	 3.99851085531208E-03 
1325	 4.63238223655815E-03 
1326	 4.61888840724572E-03 
1327	 4.03840802172989E-03 
1328	 3.9170619391814E-03 
1329	 3.85557496708118E-03 
1330	 3.34203721753433E-03 
1331	 2.93416024143007E-03 
1332	 2.73954165746649E-03 
1333	 2.91252224164111E-03 
1334	 3.27162165792426E-03 
1335	 3.38605909143278E-03 
1336	 4.31153286831483E-03 
1337	 4.47108864762591E-03 
1338	 3.21601514121628E-03 
1339	 3.19220306732228E-03 
1340	 4.33880940615456E-03 
1341	 4.64021072778486E-03 
1342	 4.80182541235674E-03 
1343	 5.09356698196805E-03 
1344	 4.73346942956873E-03 
1345	 4.54898988897274E-03 
1346	 4.92794969321295E-03 
1347	 5.48687736067604E-03 
1348	 7.07675209637872E-03 
1349	 7.26401043415295E-03 
1350	 4.33761268972748E-03 
1351	 3.56757339618169E-03 
1352	 9.49446062806172E-04 
1353	-1.38515107839783E-03 
1354	 5.3358046613335E-03 
1355	 1.89062877372524E-02 
1356	 1.24726030656398E-02 
1357	 5.41846801547711E-02 
1358	 0.107607934950382 
1359	 0.114986826495224 
1360	 0.161411375978438 
1361	 0.173597509184791 
1362	 0.122909911760989 
1363	 0.105738218709823 
1364	 7.42723646238161E-02 
1365	-1.9087233627327E-03 
1366	-2.13456588118102E-02 
1367	-1.50849096438706E-02 
1368	 1.07158864192018E-02 
1369	 8.67537634529481E-02 
1370	 2.29351961193615E-02 
1371	-0.11817957292102 
1372	-0.139744198388859 
1373	-0.197271408749353 
1374	-0.20539295147296 
1375	-1.01618756606222E-02 
1376	 2.89317305091691E-02 
1377	-0.146693556173893 
1378	-0.133213985072929 
1379	 2.69018477017006E-02 
1380	 9.26684482738523E-02 
1381	 0.26191246546493 
1382	 0.271646629085184 
1383	-8.15222580118058E-02 
1384	-7.02700455243185E-02 
1385	 0.282562970285119 
1386	 0.304741393780842 
1387	 0.248478780412147 
1388	 0.165480634034596 
1389	-0.610356255212886 
1390	-0.913947899132776 
1391	-0.638468617843202 
1392	-0.288809009205654 
1393	 0.165153417682089 
1394	 0.274822952564992 
1395	 0.12818976919251 
1396	 0.22916577776639 
1397	 0.164691579190485 
1398	-0.244227506320705 
1399	-3.28508950801926E-02 
1400	 0.123819022741796 
1401	-9.34561469968159E-02 
1402	-2.60002145348284E-02 
1403	 0.249664010334353 
1404	 0.1920079167893 
1405	 5.04408696560891E-02 
1406	-8.64039556901104E-02 
1407	-2.64603877692049E-02 
1408	-4.83748704647014E-02 
1409	-6.55460747197434E-02 
1410	 1.45664514772766E-02 
1411	 5.03766294866736E-02 
1412	 0.031061761253635 
1413	 1.93840658597014E-02 
1414	 4.67892236697352E-02 
1415	 5.29426956303981E-02 
1416	 2.06841630366399E-02 
1417	 9.97202542635718E-03 
1418	 2.32461341364187E-02 
1419	 2.39796891979124E-02 
1420	 1.53639446927082E-02 
1421	 7.08698699575004E-03 
1422	-5.25003472704338E-03 
1423	 8.1004781754758E-04 
1424	 1.85395395528232E-02 
1425	 1.41779942263682E-02 
1426	 3.75976117497875E-03 
1427	 6.68393257001829E-03 
1428	 7.84780494252416E-03 
1429	 4.03139950488357E-03 
1430	 5.78321949903548E-03 
1431	 8.13682644136874E-03 
1432	 2.11469099073354E-03 
1433	-1.23417557458178E-04 
1434	 8.31709546241987E-03 
1435	 1.13630497494275E-02 
1436	 0.009653397495693 
1437	 5.72184023100669E-03 
1438	 5.14337565879751E-03 
1439	 4.22511166862312E-03 
1440	 4.61275804069729E-03 
1441	 5.63397407918771E-03 
1442	 6.9002406406224E-03 
1443	 6.42402309836797E-03 
1444	 5.15961556745351E-03 
1445	 4.10558009066509E-03 
1446	 1.37064964207451E-03 
1447	 1.13305420058846E-03 
1448	 3.54311850749184E-03 
1449	 5.09195412501942E-03 
1450	 5.80314295919268E-03 
1451	 5.85085886205142E-03 
1452	 5.80034322851776E-03 
1453	 5.22405730807674E-03 
1454	 4.6189892837149E-03 
1455	 4.79510564621982E-03 
1456	 4.53828869162074E-03 
1457	 3.05537550840179E-03 
1458	 3.01215604711365E-03 
1459	 4.23437708680796E-03 
1460	 4.30606346792023E-03 
1461	 3.83706587802299E-03 
1462	 4.08473681682006E-03 
1463	 4.73110791564698E-03 
1464	 4.27767243775511E-03 
1465	 3.39201078308266E-03 
1466	 3.60414693278894E-03 
1467	 3.30954587121162E-03 
1468	 3.03154991352804E-03 
1469	 4.52807383683748E-03 
1470	 4.62150132371729E-03 
1471	 2.97071983620022E-03 
1472	 2.24737346610489E-03 
1473	 1.65176485561079E-03 
1474	 1.99353468666414E-03 
1475	 2.60539093109843E-03 
1476	 2.9772769071675E-03 
1477	 4.40347524275713E-03 
1478	 4.95547695243726E-03 
1479	 4.79415514861992E-03 
1480	 4.68101370086836E-03 
1481	 4.38947290124724E-03 
1482	 4.2672685054966E-03 
1483	 3.93890271262336E-03 
1484	 4.03048086161482E-03 
1485	 4.79049796722684E-03 
1486	 4.64473140152072E-03 
1487	 3.94284162780083E-03 
1488	 3.87949477596846E-03 
1489	 3.86268730032399E-03 
1490	 3.67926426718114E-03 
1491	 3.71723955903568E-03 
1492	 3.72072790182612E-03 
1493	 3.58460048009786E-03 
1494	 3.41838056371874E-03 
1495	 3.21227491024185E-03 
1496	 3.15667534938672E-03 
1497	 3.06005610497073E-03 
1498	 3.07478469346471E-03 
1499	 3.34150212881316E-03 
1500	 3.43246280659876E-03 
1501	 3.49150133683933E-03 
1502	 3.45599137083506E-03 
1503	 3.17255145198573E-03 
1504	 3.15431874030335E-03 
1505	 3.23949915900157E-03 
1506	 3.34054611691275E-03 
1507	 3.24147000194669E-03 
1508	 3.29802506366315E-03 
1509	 3.54577690524856E-03 
1510	 3.48786966285687E-03 
1511	 3.31174918237699E-03 
1512	 3.65312571417211E-03 
1513	 0.003820991695192 
1514	 3.48027485814242E-03 
1515	 3.51336424130213E-03 
1516	 3.70823366696669E-03 
1517	 3.67432726742405E-03 
1518	 3.70242561583508E-03 
1519	 3.59390734757417E-03 
1520	 3.38322421621077E-03 
1521	 3.32688301989048E-03 
1522	 3.30274935856873E-03 
1523	 3.46319830308673E-03 
1524	 3.72452221863488E-03 
1525	 3.72715535589587E-03 
1526	 3.63248686880557E-03 
1527	 3.67929189751264E-03 
1528	 3.72488381593947E-03 
1529	 3.6161831321857E-03 
1530	 3.52950102448006E-03 
1531	 3.47065247709705E-03 
1532	 3.27713602527077E-03 
1533	 3.05230893562972E-03 
1534	 3.09891883445527E-03 
1535	 3.31808401392036E-03 
1536	 3.35506664588883E-03 
1537	 3.38439915144905E-03 
1538	 3.50678637358034E-03 
1539	 3.55219534086384E-03 
1540	 3.43942058063525E-03 
1541	 3.33054644439297E-03 
1542	 3.40271726525949E-03 
1543	 3.44189909517483E-03 
1544	 3.37779656091389E-03 
1545	 3.45458601378589E-03 
1546	 3.58333807354796E-03 
1547	 3.42480027572137E-03 
1548	 3.25552929982861E-03 
1549	 3.25666446917142E-03 
1550	 3.21208291896638E-03 
1551	 3.29779997095175E-03 
1552	 3.36248917559667E-03 
1553	 3.28128113435514E-03 
1554	 3.39621676696086E-03 
1555	 3.58079842512883E-03 
1556	 3.43186005622019E-03 
1557	 3.15279185192946E-03 
1558	 3.13454477701475E-03 
1559	 3.11437076601934E-03 
1560	 2.94377247355022E-03 
1561	 3.04860821610114E-03 
1562	 3.37724527320023E-03 
1563	 3.3412793979729E-03 
1564	 3.19939978949954E-03 
1565	 3.43530937841344E-03 
1566	 3.53028605204706E-03 
1567	 3.44619949252623E-03 
1568	 3.59536928318856E-03 
1569	 3.63220122841279E-03 
1570	 3.44781869508896E-03 
1571	 3.26262165752763E-03 
1572	 3.20722880190472E-03 
1573	 3.31861419273241E-03 
1574	 3.42266131857856E-03 
1575	 3.51876032209685E-03 
1576	 3.48624181118775E-03 
1577	 3.36209762446497E-03 
1578	 3.42536753575844E-03 
1579	 3.52759548465688E-03 
1580	 3.53094394719377E-03 
1581	 3.62190816494007E-03 
1582	 3.73412997132931E-03 
1583	 3.50531654379467E-03 
1584	 3.35437830840751E-03 
1585	 3.55486904939755E-03 
1586	 3.48250318692092E-03 
1587	 3.34318286906002E-03 
1588	 3.46590607064098E-03 
1589	 3.4578372218386E-03 
1590	 3.32959674930064E-03 
1591	 3.22172372263499E-03 
1592	 3.24331929749038E-03 
1593	 3.5284471690861E-03 
1594	 3.58414665737071E-03 
1595	 3.41725280188254E-03 
1596	 3.47775757197711E-03 
1597	 3.39047074887816E-03 
1598	 3.1789474497595E-03 
1599	 3.1975962032263E-03 
1600	 3.27264158551342E-03 
1601	 3.30917214507045E-03 
1602	 3.31061113040954E-03 
1603	 3.23867568198389E-03 
1604	 3.30538759950488E-03 
1605	 3.47120961667693E-03 
1606	 3.38456371442835E-03 
1607	 3.24370789323238E-03 
1608	 3.24342309180892E-03 
1609	 3.23055881312378E-03 
1610	 3.24579791246494E-03 
1611	 3.36488139424607E-03 
1612	 3.49222702855457E-03 
1613	 3.46970074526143E-03 
1614	 3.35629538556009E-03 
1615	 3.31458230448492E-03 
1616	 3.22669097065583E-03 
1617	 3.24760091813891E-03 
1618	 3.39609578748074E-03 
1619	 3.34149420710416E-03 
1620	 3.24455226718988E-03 
1621	 3.1972575762927E-03 
1622	 3.20541536114164E-03 
1623	 3.26007743992447E-03 
1624	 3.31603614936409E-03 
1625	 3.54135420980012E-03 
1626	 3.6280610074154E-03 
1627	 3.47524582915089E-03 
1628	 3.52139911493243E-03 
1629	 3.48563763482029E-03 
1630	 3.23810094629409E-03 
1631	 3.19101889428526E-03 
1632	 3.26010977339167E-03 
1633	 3.24512411191656E-03 
1634	 3.16653162827156E-03 
1635	 3.1384806083669E-03 
1636	 3.35933092987132E-03 
1637	 3.55907807926065E-03 
1638	 3.39990002446126E-03 
1639	 3.49932914473356E-03 
1640	 3.70271771717933E-03 
1641	 3.37346086031153E-03 
1642	 3.1483348529762E-03 
1643	 3.16362554952487E-03 
1644	 2.94579885276473E-03 
1645	 2.88148907026626E-03 
1646	 3.37758459194186E-03 
1647	 3.55702489079155E-03 
1648	 3.18575104346554E-03 
1649	 3.2159464422877E-03 
1650	 3.25007089085511E-03 
1651	 2.87448551510929E-03 
1652	 2.99839872246399E-03 
1653	 3.79082720501612E-03 
1654	 3.83394005066466E-03 
1655	 3.66764222565785E-03 
1656	 3.77875999144642E-03 
1657	 3.64957057845366E-03 
1658	 3.44016944729408E-03 
1659	 3.40814190146286E-03 
1660	 3.52575834953346E-03 
1661	 3.46349510161324E-03 
1662	 3.39470390926798E-03 
1663	 3.72457104673798E-03 
1664	 3.6986196614643E-03 
1665	 3.12335999235113E-03 
1666	 3.11763475042109E-03 
1667	 3.50775894132612E-03 
1668	 3.50946994812852E-03 
1669	 3.4097204414825E-03 
1670	 3.11106925141519E-03 
1671	 2.88406562862939E-03 
1672	 3.25172290762235E-03 
1673	 3.59630782844718E-03 
1674	 3.34496326217693E-03 
1675	 3.34839968033167E-03 
1676	 3.4458810478238E-03 
1677	 3.11974411472129E-03 
1678	 3.06810308587059E-03 
1679	 3.29616173703599E-03 
1680	 3.36418208858399E-03 
1681	 3.44095228033267E-03 
1682	 3.60583883781964E-03 
1683	 3.59949069498496E-03 
1684	 3.2331390978252E-03 
1685	 3.13859335872189E-03 
1686	 3.49439326197234E-03 
1687	 3.5592821392845E-03 
1688	 3.55722811567135E-03 
1689	 3.21198005511346E-03 
1690	 2.47470438199497E-03 
1691	 2.47306719693109E-03 
1692	 2.9731685107581E-03 
1693	 3.46354796543321E-03 
1694	 3.8920404687742E-03 
1695	 3.78998045763688E-03 
1696	 3.25477277687869E-03 
1697	 3.0834144415968E-03 
1698	 3.30242928432278E-03 
1699	 3.60048777837208E-03 
1700	 3.6293627915372E-03 
1701	 3.23785241411671E-03 
1702	 3.18702967157079E-03 
1703	 3.45533149027264E-03 
1704	 3.51339784176654E-03 
1705	 3.69953831996694E-03 
1706	 3.88585796288562E-03 
1707	 3.4858385486314E-03 
1708	 3.11154337884361E-03 
1709	 0.003258238043625 
1710	 3.20178441296601E-03 
1711	 2.74814026599814E-03 
1712	 2.6933247620468E-03 
1713	 3.00062591262326E-03 
1714	 3.06201176772287E-03 
1715	 3.24979392746382E-03 
1716	 3.06140417753496E-03 
1717	 3.12132519123687E-03 
1718	 3.36628105945617E-03 
1719	 3.4319987282427E-03 
1720	 3.38932910980455E-03 
1721	 0.003264592409328 
1722	 3.18147047101092E-03 
1723	 3.31415363893994E-03 
1724	 3.44894751779884E-03 
1725	 3.37715358790043E-03 
1726	 3.37711518471022E-03 
1727	 3.46413840833658E-03 
1728	 3.45974972965266E-03 
1729	 3.43056490525831E-03 
1730	 3.15643227344222E-03 
1731	 2.9450374837303E-03 
1732	 3.09920273280426E-03 
1733	 3.26728524475481E-03 
1734	 3.37681619078129E-03 
1735	 3.21650239110232E-03 
1736	 3.00431121873311E-03 
1737	 3.19154226353857E-03 
1738	 3.35178367587229E-03 
1739	 3.36891335047411E-03 
1740	 3.20283154525732E-03 
1741	 2.9368609975876E-03 
1742	 2.93680891720446E-03 
1743	 2.78839676615429E-03 
1744	 2.85045302341462E-03 
1745	 3.36400076518027E-03 
1746	 4.09496552791888E-03 
1747	 4.11278493616069E-03 
1748	 3.4329836798304E-03 
1749	 3.30671202474722E-03 
1750	 2.98804232803821E-03 
1751	 2.83875573922572E-03 
1752	 3.51998101967152E-03 
1753	 3.65033323798443E-03 
1754	 3.21999630788142E-03 
1755	 3.00134385028826E-03 
1756	 2.64546078787365E-03 
1757	 2.49831439953185E-03 
1758	 2.6565252176955E-03 
1759	 2.72024858262899E-03 
1760	 3.08535189918097E-03 
1761	 3.67758947175964E-03 
1762	 3.60782804031776E-03 
1763	 3.10156828763708E-03 
1764	 3.65451837748142E-03 
1765	 3.82369463309299E-03 
1766	 3.18403116802425E-03 
1767	 3.51899526020589E-03 
1768	 3.25191128902976E-03 
1769	 2.67738428659398E-03 
1770	 3.44705293293857E-03 
1771	 3.91031832522087E-03 
1772	 3.29016716866775E-03 
1773	 2.44158327745714E-03 
1774	 2.44485895247111E-03 
1775	 4.47643852495825E-03 
1776	 4.60917175679753E-03 
1777	 3.39438268827361E-03 
1778	 3.35680700816814E-03 
1779	 2.0051151614833E-03 
1780	 2.15020609817637E-03 
1781	 6.33510846304441E-03 
1782	 7.02268202182922E-03 
1783	 5.10815033671569E-03 
1784	 4.67010832646573E-03 
1785	 2.70860872641167E-03 
1786	 2.14945322702197E-03 
1787	 3.57279827088475E-03 
1788	 3.57903936598369E-03 
1789	 3.44457302818173E-03 
1790	 4.42908374542225E-03 
1791	 5.03380684190998E-03 
1792	 6.40274041830161E-03 
1793	 4.97415879989598E-03 
1794	 3.30690336349618E-03 
1795	 3.3752270293735E-03 
1796	 5.23129134399108E-03 
1797	 7.20613762178975E-03 
1798	 5.78049788598885E-03 
1799	 3.38826997708724E-03 
1800	-2.38018681658559E-04 
1801	 3.7856662443452E-04 
1802	 1.52785639311015E-02 
1803	 1.96276444623258E-02 
1804	 1.66334387898756E-02 
1805	 1.79733131473521E-02 
1806	-5.97644971329083E-04 
1807	-2.90359059636718E-03 
1808	 3.29219985752299E-02 
1809	 4.28339394008615E-02 
1810	 4.11021679076993E-02 
1811	 0.041899831363149 
1812	 8.14595553587456E-03 
1813	-8.38374530933754E-03 
1814	 0.011051707231524 
1815	-4.79279184169807E-02 
1816	-0.230635157691953 
1817	-0.19454742296981 
1818	-9.42901946935966E-02 
1819	 0.135711733216331 
1820	 0.482961203517332 
1821	 0.405553863502217 
1822	 0.522130205292816 
1823	 0.495545355077356 
1824	 0.379747786486897 
1825	 0.309404505459645 
1826	 0.266815291157756 
1827	 5.43145415279515E-02 
1828	-0.106999751354869 
1829	-0.259907456521354 
1830	-0.279978773672596 
1831	-0.53521005033775 
1832	-0.684673650099925 
1833	-0.280406430348613 
1834	-0.198077649442154 
1835	 0.185482021432266 
1836	 0.174074543218916 
1837	-0.610348975462605 
1838	-0.872194228523119 
1839	-0.649320157206763 
1840	-0.960032914774653 
1841	-1.13766129784241 
1842	-1.38031125614095 
1843	-1.77402701722996 
1844	 11.1524015112834 
1845	 5.36655297034467 
1846	-0.841515704500882 
1847	-0.560886876855262 
1848	-0.699881070311828 
1849	-2.61311600167117 
1850	-11.5778616519723 
1851	-2.1817548237315 
1852	-1.38406867150268 
1853	-5.40271788767923E-02 
1854	 0.335150813202301 
1855	 0.273619135220671 
1856	 0.465590363755631 
1857	 1.82816644059856 
1858	-3.84929596285952 
1859	-1.05622972237685 
1860	-1.09588049114323 
1861	-0.887976936691366 
1862	-0.255549991212535 
1863	 2.35289008760736 
1864	 2.86674813824166 
1865	 7.9836206584834 
1866	-1.0023724376055 
1867	-0.430558376158226 
1868	-0.058059183762569 
1869	-7.00029008756572E-02 
1870	-0.544754280376179 
1871	-1.21563544006241 
1872	-5.68058908574877 
1873	 21.8325012450059 
1874	-3.80503125453693 
1875	-2.59118309284151 
1876	-1.17358349388608 
1877	 2.54224485520053 
1878	 2.75585216755707 
1879	 3.98572945864757 
1880	 6.12416036340596 
1881	 3.10353928443892 
1882	 1.08134601308129 
1883	-1.17631684315369 
1884	 11.0676263090607 
1885	 3.20645577839454 
1886	-6.89370741634314 
1887	 1.89090038644083 
1888	 0.332661770072926 
1889	 0.175542977227685 
1890	 0.467932343593793 
1891	 0.533243357583599 
1892	 1.03767588295943 
1893	 1.28298650844765 
1894	 0.316182150670529 
1895	-0.134589911533997 
1896	-0.195684171443232 
1897	-0.287648853389555 
1898	-0.447880231938849 
1899	-0.72916613390323 
1900	-0.860741438162606 
1901	-0.562242998532513 
1902	-1.95656563197852 
1903	-0.884381456174676 
1904	-1.38652945574421 
1905	-4.13870558061709 
1906	-53.3237010797754 
1907	 26.6158145489819 
1908	 26.6954243778144 
1909	 3.38298357666497 
1910	 1.27850565428667 
1911	 0.679000035614887 
1912	 3.29749498322799 
1913	 2.15460126532904 
1914	 2.54963627310807 
1915	 2.1039239399104 
1916	 1.15381622343431 
1917	 0.369532503873866 
1918	-0.145524514097994 
1919	-0.588480846361336 
1920	 2.68644273727964 
1921	 0.984343161921669 
1922	 0.429141149106943 
1923	 4.25849303789039 
1924	 4.35979104313898 
1925	-4.40150133110991 
1926	-4.92759223367367 
1927	-3.25952008539159 
1928	-1.15531210850095 
1929	-0.312025536874814 
1930	-0.082583530440759 
1931	-0.127226321654166 
1932	 0.023516746430426 
1933	 7.67829209845038E-02 
1934	 3.10836219091379E-02 
1935	-3.73170658427636E-02 
1936	-5.75371597143536E-02 
1937	-7.55874534736894E-02 
1938	-7.09730121740786E-02 
1939	-0.049117119021607 
1940	 1.67410077233746E-02 
1941	 2.12404388940505E-02 
1942	 7.69397650609112E-03 
1943	 1.15987937870835E-02 
1944	 5.64028908574266E-03 
1945	 2.68229516298713E-02 
1946	 3.39225368306116E-02 
1947	 6.36888151862861E-03 
1948	-1.09247083817084E-02 
1949	-2.89822728933358E-02 
1950	-4.24961305843238E-02 
1951	-2.48612157719915E-02 
1952	-0.019473512844401 
1953	-7.6341418668266E-03 
1954	-1.61395586127902E-02 
1955	-1.22157364531293E-02 
1956	-1.66291977850997E-02 
1957	-0.018705640009064 
1958	-7.37207610844442E-03 
1959	-8.11384890137091E-03 
1960	-4.98633110621195E-03 
1961	-4.13893642586985E-03 
1962	-4.4528874665627E-03 
1963	 3.11945854544947E-03 
1964	 3.8912958841321E-03 
1965	 1.36491356612744E-03 
1966	 3.95881075280889E-04 
1967	-5.28821894535023E-04 
1968	-4.17664809726763E-03 
1969	-4.27976306606548E-03 
1970	-8.17206125437724E-04 
1971	 2.21622232482119E-03 
1972	 3.10811901716897E-03 
1973	 2.71318595185141E-03 
1974	 1.83901879045062E-03 
1975	 1.02790298860668E-03 
1976	 2.07719179231728E-03 
1977	 1.54954225710838E-03 
1978	 7.32028901551908E-04 
1979	 1.1796046295743E-03 
1980	 2.03577220073553E-03 
1981	 1.65578963714402E-03 
1982	 2.56039166221037E-03 
1983	 4.14653357221373E-03 
1984	 3.97901723684991E-03 
1985	 3.31365303626795E-03 
1986	 3.69692718886234E-03 
1987	 3.56517085023582E-03 
1988	 2.85901030953993E-03 
1989	 2.89419030727237E-03 
1990	 1.9468257214873E-03 
1991	 8.41423173757311E-04 
1992	 7.33161231512877E-04 
1993	 8.62361843588103E-04 
1994	 8.67031612620943E-04 
1995	 1.30786924922086E-03 
1996	 1.99742696860291E-03 
1997	 3.03476986448902E-03 
1998	 3.62167609184211E-03 
1999	 3.9232059122162E-03 
2000	 2.98107408984741E-03 
2001	 3.52962192934733E-04 
2002	-1.17038725754042E-03 
2003	-1.68842321061977E-03 
2004	 9.84359327525536E-04 
2005	 5.48686334696674E-03 
2006	 6.01994562126463E-03 
2007	 5.75289213183057E-03 
2008	 3.33207809686757E-03 
2009	 0.001874853547354 
2010	 1.53268637375137E-04 
2011	-1.1117963173629E-03 
2012	-2.41836885877011E-03 
2013	-2.80825800990294E-03 
2014	-2.85502572496028E-03 
2015	-2.42352920214014E-03 
2016	 1.03320492619053E-03 
2017	 3.02249361394475E-03 
2018	 4.2819052569073E-03 
2019	 5.02728351357557E-03 
2020	 3.91088558043073E-03 
2021	 3.69590646384955E-03 
2022	 3.63353683534897E-03 
2023	 2.66643821604492E-03 
2024	 2.35169625332138E-03 
2025	 2.0570717275988E-03 
2026	 2.3232301879316E-03 
2027	 3.24641292149308E-03 
2028	 3.33973445123296E-03 
2029	 3.0697348805817E-03 
2030	 2.94403289669588E-03 
2031	 2.38469816602927E-03 
2032	 1.84443389352384E-03 
2033	 2.25628473584868E-03 
2034	 2.41939478519398E-03 
2035	 2.26025030537308E-03 
2036	 3.08977332351439E-03 
2037	 3.73507652359569E-03 
2038	 3.36138382590939E-03 
2039	 3.15739281041842E-03 
2040	 2.71323953632538E-03 
2041	 2.41060139155074E-03 
2042	 1.99680889065019E-03 
2043	 1.74974164721397E-03 
2044	 1.66623981501989E-03 
2045	 1.40596206056876E-03 
2046	 1.2858116771412E-03 
2047	 1.97112739500424E-03 
2048	 2.5884782232666E-03 
2049	 3.26864924815417E-03 
2050	 3.01589482233589E-03 
2051	 1.61632003854527E-03 
2052	 1.20861422518648E-03 
2053	 3.12192422720306E-04 
2054	 7.57624906640071E-05 
2055	 1.82699657384484E-03 
2056	 2.25283551239743E-03 
2057	 2.03339044145274E-03 
2058	 2.01961401292549E-03 
2059	 1.65233387762813E-03 
2060	 1.34003476857874E-03 
2061	 9.89359646136447E-04 
2062	 9.46549580739392E-04 
2063	 1.16735793182696E-03 
2064	 1.3797021844478E-03 
2065	 8.18401356736807E-04 
2066	 1.14378662857045E-03 
2067	 1.6116032933169E-03 
2068	 7.59917754646405E-04 
2069	 5.18672847071155E-04 
2070	 9.02754390571631E-04 
2071	 1.22353185167556E-03 
2072	 2.09855342413316E-03 
2073	 2.26005592580287E-03 
2074	 1.96380599323635E-03 
2075	 2.18166393374166E-03 
2076	 2.80971726129808E-03 
2077	 2.43948064446889E-03 
2078	 1.69044330478112E-03 
2079	 1.48866596395869E-03 
2080	 1.03543598696396E-03 
2081	-2.42342142228984E-05 
2082	-3.25617642835626E-04 
2083	 6.82511526701299E-04 
2084	 1.24136956011415E-03 
2085	 1.27523522899617E-03 
2086	 1.73133193111737E-03 
2087	 1.86531645331849E-03 
2088	 1.79423886768789E-03 
2089	 1.45289310870265E-03 
2090	 1.15370240776302E-03 
2091	 1.73857891954631E-03 
2092	 2.18688141970128E-03 
2093	 2.98660294794285E-03 
2094	 3.21375513908427E-03 
2095	 3.08471932501255E-03 
2096	 3.11746579331356E-03 
2097	 3.10717913169597E-03 
2098	 3.00474372456893E-03 
2099	 3.0679561930081E-03 
2100	 3.01025510607453E-03 
2101	 2.6746251864116E-03 
2102	 2.10005145010657E-03 
2103	 2.37601577803039E-03 
2104	 2.71260152554849E-03 
2105	 1.70941608661404E-03 
2106	 5.88983900423894E-04 
2107	-1.85482057366756E-04 
2108	-2.10642110078436E-04 
2109	 7.65232387173846E-04 
2110	 1.11102359484195E-03 
2111	 1.02731595646926E-03 
2112	 9.39874239020921E-04 
2113	 1.13516031718002E-03 
2114	 2.1320330556723E-03 
2115	 2.2770888194747E-03 
2116	 1.73096573366121E-03 
2117	 1.61723120783723E-03 
2118	 1.02033265024381E-03 
2119	 8.98968516647903E-04 
2120	 1.08982475870626E-03 
2121	 2.15744056595932E-03 
2122	 3.08504261512242E-03 
2123	 3.3355418394658E-03 
2124	 2.70041004179573E-03 
2125	 2.27047588841801E-03 
2126	 1.53681571754698E-03 
2127	 7.99770637688806E-04 
2128	 1.45324723225429E-03 
2129	 2.08747758322821E-03 
2130	 2.37587750026322E-03 
2131	 2.74710981104282E-03 
2132	 3.30407670034159E-03 
2133	 3.18651006079601E-03 
2134	 2.84098649573225E-03 
2135	 1.91830850229613E-03 
2136	 1.87034946065834E-03 
2137	 2.11484354988463E-03 
2138	 1.90746369945276E-03 
2139	 1.82693033867974E-03 
2140	 1.77117911912373E-03 
2141	 1.21036425372284E-03 
2142	 9.3008191434397E-04 
2143	 7.89086529632098E-04 
2144	 1.5911737230183E-03 
2145	 1.85395451235457E-03 
2146	 1.21074408723671E-03 
2147	 1.90282167708053E-03 
2148	 2.52566883378594E-03 
2149	 2.15228467752849E-03 
2150	 1.95152339562065E-03 
2151	 2.41928029468061E-03 
2152	 2.37112020224005E-03 
2153	 1.62314721661546E-03 
2154	 2.33213900796405E-03 
2155	 3.28312068570096E-03 
2156	 3.36901512496156E-03 
2157	 3.33310609355191E-03 
2158	 3.77493430879478E-03 
2159	 4.1417549924428E-03 
2160	 4.03535522607078E-03 
2161	 3.40282233657341E-03 
2162	 2.67863578779645E-03 
2163	 2.10752218486347E-03 
2164	 2.73091021830533E-04 
2165	-1.46078459531149E-04 
2166	 1.21406545988082E-03 
2167	 1.93354802641861E-03 
2168	 2.87182976633892E-03 
2169	 2.77679252146508E-03 
2170	 1.63252389321709E-03 
2171	 1.6345838632706E-03 
2172	 1.66804745327019E-03 
2173	 1.84782569177089E-03 
2174	 2.97365042083118E-03 
2175	 2.73409778967539E-03 
2176	 1.91496511875024E-03 
2177	 1.68786183838714E-03 
2178	 1.39517276742171E-03 
2179	 1.36415561096711E-03 
2180	 8.13372922575154E-04 
2181	 1.7709907710813E-04 
2182	 1.20063057718511E-03 
2183	 1.78785176406874E-03 
2184	 9.67285638088545E-04 
2185	 7.85950106243604E-04 
2186	 4.13263165940449E-04 
2187	-1.68517894002853E-03 
2188	-1.33791723053959E-03 
2189	 1.38979526975995E-03 
2190	 1.57048859819446E-03 
2191	 1.15424013005259E-03 
2192	 1.15157246138402E-03 
2193	 3.64526675710231E-04 
2194	 9.77459647160035E-05 
2195	 4.8635895057207E-04 
2196	 4.50726462211576E-04 
2197	-2.67292403322241E-04 
2198	-7.85325648744812E-04 
2199	-1.69638824707875E-03 
2200	-7.27310561714288E-04 
2201	 4.67161813968129E-04 
2202	 1.54346347945809E-03 
2203	 4.19099264530427E-03 
2204	 6.95632046471671E-03 
2205	 6.92881682299932E-03 
2206	 5.22041820519134E-03 
2207	 3.5505519671403E-03 
2208	 1.29785659420839E-03 
2209	-9.78683593512313E-04 
2210	-1.10489143586918E-03 
2211	 8.08624310268354E-04 
2212	 1.63691525123933E-03 
2213	 2.45030102138704E-03 
2214	 3.95005868414168E-03 
2215	 2.56998000345363E-03 
2216	 3.87198793017967E-04 
2217	-3.23645782803955E-04 
2218	-2.40160360015583E-04 
2219	-5.90944735437549E-04 
2220	-5.99159818635092E-04 
2221	-4.88085108769355E-04 
2222	-7.23910308195566E-04 
2223	 1.11831715710172E-04 
2224	 2.61162284966419E-03 
2225	 2.92235877693324E-03 
2226	 2.23871022723689E-03 
2227	 1.98882886858151E-03 
2228	 8.70004037571524E-04 
2229	 2.8403969936527E-04 
2230	-2.00031211593241E-04 
2231	 2.86241900614471E-04 
2232	 2.02564773406126E-03 
2233	 1.97933230814755E-03 
2234	 1.63023069624557E-03 
2235	 1.96519486680408E-03 
2236	 9.60616606445713E-04 
2237	-4.21412601395438E-05 
2238	 5.75619493495336E-04 
2239	 1.68219520436148E-03 
2240	 2.64331447300007E-03 
2241	 1.57518064822078E-03 
2242	-9.56044756357431E-05 
2243	 4.21571987274631E-04 
2244	 1.2448489848596E-03 
2245	 9.27517692648291E-04 
2246	 2.95186784008862E-03 
2247	 3.70463123844256E-03 
2248	 6.95207175086065E-04 
2249	-5.67065511084017E-04 
2250	-2.59360041704012E-03 
2251	-4.02950107105984E-03 
2252	-2.52039116253865E-03 
2253	-2.17065895652759E-03 
2254	 1.59632575192347E-04 
2255	 2.81847442855231E-03 
2256	 2.5543058605821E-03 
2257	 3.46682533439075E-03 
2258	 4.57263666058223E-03 
2259	 4.42331221913397E-03 
2260	 3.69546442579486E-03 
2261	 2.68999331516233E-03 
2262	 2.05351075234876E-03 
2263	 8.38043878119848E-05 
2264	-3.48922372520123E-04 
2265	 1.51069962315197E-03 
2266	 1.32582320996348E-03 
2267	 1.5928334741662E-04 
2268	-1.73247686354736E-04 
2269	-9.690120926388E-04 
2270	-1.41182116668273E-03 
2271	-1.35313655664791E-03 
2272	-1.57462512611052E-03 
2273	-2.11714405757262E-03 
2274	-2.02249067105312E-03 
2275	-1.66885143148209E-03 
2276	-7.40721756988232E-04 
2277	 9.80758347513347E-04 
2278	 1.93903506492238E-03 
2279	 4.4256380808661E-03 
2280	 4.49752920841909E-03 
2281	 2.26793776756596E-03 
2282	 1.55540305327858E-04 
2283	-4.98272071663297E-04 
2284	-7.89969657065691E-05 
2285	 3.38755110976268E-03 
2286	 3.8491394244207E-03 
2287	 2.28418149611086E-03 
2288	 1.68292100661301E-03 
2289	-0.001731780136662 
2290	-2.73419027412075E-03 
2291	-2.53660270289795E-04 
2292	 1.9685152771118E-03 
2293	 3.00713222359303E-03 
2294	 3.12623612653472E-03 
2295	 2.09104235361473E-03 
2296	-1.23429570561435E-04 
2297	-5.94866726038758E-04 
2298	 2.41670587343864E-03 
2299	 5.24910089184045E-03 
2300	 3.22123917711592E-03 
2301	 8.51795616087051E-04 
2302	 2.11925633338159E-03 
2303	 1.70119511953082E-03 
2304	-2.49547177023714E-04 
2305	 1.27466562041818E-03 
2306	 6.49328063542807E-04 
2307	-2.97939132687748E-03 
2308	-1.20074618910401E-03 
2309	 2.66431024550553E-03 
2310	 3.40521007843478E-03 
2311	 5.84237486967737E-03 
2312	 6.35184729530434E-03 
2313	 1.32466406904021E-03 
2314	-2.23541281781928E-03 
2315	-1.39486117003877E-03 
2316	 1.88565299741206E-03 
2317	 4.3572862096998E-03 
2318	 3.91407113376111E-03 
2319	-1.41920131001565E-04 
2320	-4.3587589095114E-04 
2321	 1.3754036730139E-03 
2322	-1.32752288528362E-03 
2323	-4.14104799337801E-03 
2324	-7.7648790485902E-03 
2325	-9.15682964345492E-03 
2326	-6.17059582263404E-03 
2327	-2.01505198491527E-03 
2328	-6.2270250763292E-04 
2329	-1.45511128983041E-03 
2330	-1.63121974545456E-03 
2331	-3.10129549393183E-03 
2332	-4.04887167008109E-03 
2333	-3.46494823846621E-03 
2334	-6.81517718295648E-04 
2335	 4.67658913496948E-03 
2336	 7.24055017984115E-03 
2337	-1.74154546406846E-04 
2338	-1.04421573168624E-02 
2339	-1.52755273992233E-02 
2340	-0.020907802783296 
2341	-1.63643551566307E-02 
2342	-6.4428706048545E-03 
2343	-9.09284277272909E-03 
2344	-1.11726035365579E-02 
2345	-6.93351320733857E-03 
2346	-6.66116730892846E-03 
2347	-1.03264926267646E-02 
2348	-7.67086467194463E-03 
2349	-6.69154692749731E-03 
2350	-1.56743819213776E-02 
2351	-0.016678100267561 
2352	-1.29421262324707E-02 
2353	-1.39629640609569E-02 
2354	-8.78350464323409E-03 
2355	-1.23440026633545E-02 
2356	-2.61477214608863E-02 
2357	-0.027102659170031 
2358	-2.27653091625144E-02 
2359	-1.59331919559586E-02 
2360	-1.50551556563999E-03 
2361	 2.72573993939357E-03 
2362	-7.25855259263831E-04 
2363	 4.1281252825262E-04 
2364	 3.53227398286434E-03 
2365	 4.16193763399955E-03 
2366	-4.34207385044666E-03 
2367	-8.53510846283161E-03 
2368	-5.2176199902231E-03 
2369	-5.8727055759781E-03 
2370	-0.013477925921114 
2371	-1.92233364203356E-02 
2372	-0.016885377509933 
2373	-1.44195077443572E-02 
2374	-7.37286309525885E-04 
2375	 9.03401494847586E-03 
2376	-5.03763190012389E-03 
2377	-2.59888065914577E-02 
2378	-3.08131769042057E-02 
2379	-3.09847029808031E-02 
2380	-3.49865762712293E-02 
2381	-0.029008478157042 
2382	-3.11666843502226E-02 
2383	-3.57773877798056E-02 
2384	-3.43079608561688E-02 
2385	-3.18904524380623E-02 
2386	-1.21066354043459E-02 
2387	-7.30483467691655E-03 
2388	-1.58318885536193E-02 
2389	 8.98415972629871E-03 
2390	 1.72731295875397E-02 
2391	 2.14955847060451E-02 
2392	 4.08233320527704E-02 
2393	 0.014857796465329 
2394	-4.98543039002988E-04 
2395	 2.12720395277643E-03 
2396	-1.45994387692886E-02 
2397	-3.46319380765163E-02 
2398	-4.72556592064449E-02 
2399	-5.43593659015894E-02 
2400	-5.74245105338669E-02 
2401	-3.81673891775477E-02 
2402	-2.84379684218105E-02 
2403	-5.56941437138542E-02 
2404	-8.29526038034811E-02 
2405	-9.25625397270429E-02 
2406	-8.42578432184481E-02 
2407	-6.66485920715939E-02 
2408	-5.29839026067101E-02 
2409	-5.66734898790074E-02 
2410	-6.72999226867078E-02 
2411	-6.02081683397097E-02 
2412	-6.43578745687503E-02 
2413	-5.53531815336369E-02 
2414	-7.49634895656323E-02 
2415	-0.130736018285397 
2416	-0.116158929194491 
2417	-7.33791040040441E-02 
2418	-2.51380324339646E-02 
2419	-1.16008752443664E-02 
2420	-3.33040921617537E-02 
2421	-7.20587876652594E-02 
2422	-9.42180693050071E-02 
2423	-0.111465214651944 
2424	-0.115910725681669 
2425	-1.19450488221075E-02 
2426	 4.08358982124105E-02 
2427	-7.89747665562681E-03 
2428	-5.78743376651705E-03 
2429	-0.101349565515021 
2430	-0.188680013110346 
2431	-0.1119270400613 
2432	-8.60434775447813E-02 
2433	-0.099735916274939 
2434	-6.46008336001837E-02 
2435	-0.100009829187262 
2436	-0.145491131314258 
2437	-0.105447319104061 
2438	-0.15614976460956 
2439	-0.203017825302356 
2440	-0.103788477408601 
2441	-7.09856388116741E-03 
2442	 6.80466750732255E-02 
2443	 6.72116044124894E-02 
2444	 3.84582870584213E-02 
2445	-0.06618137037951 
2446	-0.403235878849757 
2447	-0.368665843814626 
2448	-0.400647543919815 
2449	-0.446107674447635 
2450	-0.32841946026121 
2451	-7.56049073610334E-02 
2452	-6.52449470602407E-02 
2453	 0.110415613453734 
2454	-6.11408933884776E-02 
2455	-0.389992518019285 
2456	-0.366111497821216 
2457	-0.307457367643969 
2458	-0.274603104919542 
2459	-0.17312240182665 
2460	-0.132989024701998 
2461	-0.271926441429678 
2462	-0.557507121754283 
2463	-0.727932187451135 
2464	-0.894459427994422 
2465	-0.708472353493749 
2466	-0.408715290597196 
2467	-0.453994126285069 
2468	-0.66501239991466 
2469	-0.617991840360952 
2470	-0.736293592510687 
2471	-0.577878958981421 
2472	-0.698801351823436 
2473	-1.34679383085341 
2474	-1.41010333264465 
2475	-1.81204799863008 
2476	-1.40843596926287 
2477	-0.579834452498603 
2478	-0.625540506898559 
2479	-0.68334607343449 
2480	-0.480858517101489 
2481	-0.303610427308656 
2482	-0.158858958071789 
2483	 0.290280615099446 
2484	-14.6525695749148 
2485	 1.03444498054512 
2486	 0.506260818419711 
2487	 1.0759988470937 
2488	 1.20603140882887 
2489	 0.317636003702875 
2490	 0.292021411790546 
2491	-0.353232191133429 
2492	-0.888336482234479 
2493	-0.455110473424095 
2494	-9.4933507020207 
2495	-86.095275779945 
2496	-9.31402666138842 
2497	 2.67563804127448 
2498	-0.495123206923994 
2499	-0.150956983436052 
2500	-6.57791578381633E-02 
