Wavelength	rt0718west_far00005.asd
350	 2.02581993691835E-02 
351	 1.92226658113408E-02 
352	 1.93065482399859E-02 
353	 1.97136291585622E-02 
354	 1.97153270334583E-02 
355	 1.98232735788614E-02 
356	 2.02203203989217E-02 
357	 2.06794692587327E-02 
358	 2.08267669009493E-02 
359	 2.02201544407694E-02 
360	 2.03727646724326E-02 
361	 2.09238815957433E-02 
362	 2.04195632493471E-02 
363	 2.04344262984112E-02 
364	 0.020341199168925 
365	 2.00086027943988E-02 
366	 2.04398790877244E-02 
367	 2.11386288537102E-02 
368	 2.13371058554146E-02 
369	 2.07729531942604E-02 
370	 0.021130829580833 
371	 2.14144043335676E-02 
372	 2.13488081522294E-02 
373	 2.11910173637472E-02 
374	 0.021662588286972 
375	 2.23336332685223E-02 
376	 2.26290230520126E-02 
377	 2.20036874298123E-02 
378	 2.21895274076044E-02 
379	 2.25263326977645E-02 
380	 2.23464329986264E-02 
381	 2.28750225493173E-02 
382	 2.31458902368445E-02 
383	 2.31507152574078E-02 
384	 2.33254273848291E-02 
385	 2.36254654058497E-02 
386	 2.41139515617522E-02 
387	 2.45464123100971E-02 
388	 2.43990774714879E-02 
389	 2.47211926604849E-02 
390	 2.49780286056285E-02 
391	 2.47861389677235E-02 
392	 2.48451867328395E-02 
393	 2.50616322707327E-02 
394	 2.55064583292004E-02 
395	 2.61518363898083E-02 
396	 2.62932494089019E-02 
397	 0.02637649035429 
398	 2.64997380743137E-02 
399	 2.64289991520123E-02 
400	 2.67179269432128E-02 
401	 2.69792325236171E-02 
402	 2.69565943356945E-02 
403	 2.69682436351391E-02 
404	 2.71176735110363E-02 
405	 2.73774941960174E-02 
406	 2.76477046575738E-02 
407	 2.77977093135863E-02 
408	 2.80148788569415E-02 
409	 2.82126145524634E-02 
410	 2.80603830609488E-02 
411	 2.82619133811045E-02 
412	 0.02865164971235 
413	 2.89459258479537E-02 
414	 2.89602157369107E-02 
415	 2.90622284310232E-02 
416	 2.93566077705885E-02 
417	 2.97809629246471E-02 
418	 0.030048706240419 
419	 0.030221734853792 
420	 3.03988291955005E-02 
421	 3.06800676196064E-02 
422	 3.09124296439937E-02 
423	 3.11235967580433E-02 
424	 0.031357784547892 
425	 3.15969532449885E-02 
426	 3.18284625933543E-02 
427	 3.20919053236423E-02 
428	 3.24500382944558E-02 
429	 3.29645333595273E-02 
430	 3.33398941146942E-02 
431	 3.35511830684468E-02 
432	 3.39189565663691E-02 
433	 0.034220094980735 
434	 3.45553152410437E-02 
435	 3.49894650187718E-02 
436	 3.52646735668027E-02 
437	 3.56610009709337E-02 
438	 3.60937687599498E-02 
439	 3.63260524406401E-02 
440	 3.66779247495382E-02 
441	 3.71019644408695E-02 
442	 3.75180645383823E-02 
443	 3.78604264515665E-02 
444	 3.82116611784813E-02 
445	 3.85802566051887E-02 
446	 0.038943661044291 
447	 0.039258970354382 
448	 3.94745966722511E-02 
449	 3.96824790872641E-02 
450	 4.00590873217596E-02 
451	 4.04597319138631E-02 
452	 4.06763378900727E-02 
453	 4.07250045848628E-02 
454	 0.041091332030527 
455	 4.13785076960511E-02 
456	 4.15697037211317E-02 
457	 4.17626489913324E-02 
458	 4.18936481620017E-02 
459	 4.20930006670976E-02 
460	 4.23341809437764E-02 
461	 4.24355078286985E-02 
462	 4.25622910869895E-02 
463	 0.042759939789747 
464	 4.29937411918637E-02 
465	 4.30625474100802E-02 
466	 4.32812420016593E-02 
467	 4.35834703786179E-02 
468	 4.37494457211963E-02 
469	 4.39618844779832E-02 
470	 4.41483318168905E-02 
471	 4.43184659490383E-02 
472	 0.04461711264883 
473	 4.48770243657066E-02 
474	 4.51444754872061E-02 
475	 4.54479272232567E-02 
476	 4.55159510679438E-02 
477	 4.57877357133876E-02 
478	 4.62228174394381E-02 
479	 4.64678173420082E-02 
480	 0.046671912993901 
481	 4.68939281873975E-02 
482	 4.71769185847942E-02 
483	 4.75617876632917E-02 
484	 4.78884343852428E-02 
485	 4.81335140333444E-02 
486	 4.83819054740339E-02 
487	 4.89621697724183E-02 
488	 4.93955617251733E-02 
489	 4.96151092895757E-02 
490	 4.99842513618942E-02 
491	 5.04613566171914E-02 
492	 5.08969561700912E-02 
493	 5.12130604896922E-02 
494	 5.15824782174142E-02 
495	 5.20676921899901E-02 
496	 5.26152767086641E-02 
497	 5.31125373027201E-02 
498	 5.35413705122438E-02 
499	 5.40252427960741E-02 
500	 5.46004227857071E-02 
501	 5.51512461024797E-02 
502	 5.56418765214395E-02 
503	 5.61538353645176E-02 
504	 5.67372834917895E-02 
505	 5.71427227216808E-02 
506	 5.76556333652823E-02 
507	 5.82881408172093E-02 
508	 5.88330067539496E-02 
509	 0.05936993171645 
510	 5.99165914733648E-02 
511	 6.04810963359082E-02 
512	 6.10769307089422E-02 
513	 6.16754747485416E-02 
514	 6.22591486025161E-02 
515	 6.28412531923719E-02 
516	 6.36338177249015E-02 
517	 6.43943511391357E-02 
518	 6.50687086137507E-02 
519	 6.58836387059803E-02 
520	 6.65567551134931E-02 
521	 6.71917384913832E-02 
522	 6.79280785142802E-02 
523	 6.87019172844211E-02 
524	 6.94369744532331E-02 
525	 7.01192374289019E-02 
526	 7.07980771988978E-02 
527	 7.16142440093966E-02 
528	 7.25290455962732E-02 
529	 7.34246808372122E-02 
530	 7.40700412787642E-02 
531	 7.48323027860236E-02 
532	 7.56670414713182E-02 
533	 7.64214707470649E-02 
534	 7.73136488005394E-02 
535	 7.82016327544472E-02 
536	 7.90128949383938E-02 
537	 7.97735432413277E-02 
538	 8.06032025920595E-02 
539	 8.14815301307629E-02 
540	 8.23666096286647E-02 
541	 8.32893054987493E-02 
542	 8.41559223881001E-02 
543	 8.49791186250454E-02 
544	 8.58378827375139E-02 
545	 8.67153399266246E-02 
546	 8.75573478489841E-02 
547	 8.83584428098054E-02 
548	 8.92187521403752E-02 
549	 9.00532458688937E-02 
550	 9.08797676374769E-02 
551	 9.17425780841858E-02 
552	 9.26137306487088E-02 
553	 9.34491862497431E-02 
554	 9.42526917637426E-02 
555	 9.50766957796577E-02 
556	 9.59202506016511E-02 
557	 9.67865756288176E-02 
558	 9.76497268788837E-02 
559	 9.84282006865975E-02 
560	 9.91793015074379E-02 
561	 9.99065688899772E-02 
562	 0.100589717816019 
563	 0.101282807453348 
564	 0.101959844747619 
565	 0.102588199540263 
566	 0.103139059427475 
567	 0.103735415152142 
568	 0.104289034422883 
569	 0.104695939805217 
570	 0.105252704712491 
571	 0.105745291016691 
572	 0.106132565548642 
573	 0.10658558279911 
574	 0.106892315113519 
575	 0.107137507223892 
576	 0.107409435444176 
577	 0.107589404813611 
578	 0.107697823016726 
579	 0.107768634545865 
580	 0.107834331153459 
581	 0.107815030996218 
582	 0.107713871233969 
583	 0.107556436313537 
584	 0.107390639013281 
585	 0.107179700050975 
586	 0.106892880993361 
587	 0.106510455176993 
588	 0.106072861433714 
589	 0.105735430140428 
590	 0.105457588810887 
591	 0.104980048111599 
592	 0.104488653359738 
593	 0.10390918944031 
594	 0.103179164443102 
595	 0.102407526915372 
596	 0.101407927612185 
597	 0.100252327345805 
598	 9.91564115002721E-02 
599	 9.80505659825404E-02 
600	 0.097114902019312 
601	 9.64065883638808E-02 
602	 9.57143658059005E-02 
603	 0.095295977738091 
604	 9.50970598964956E-02 
605	 0.094976149879332 
606	 9.49182282798513E-02 
607	 9.47985049223229E-02 
608	 9.46907911468151E-02 
609	 9.48565074456987E-02 
610	 9.48526577623967E-02 
611	 9.48168028041937E-02 
612	 9.48795576620455E-02 
613	 9.47537180004271E-02 
614	 9.47462100446304E-02 
615	 9.48145980946558E-02 
616	 9.47402817775025E-02 
617	 9.46587823883051E-02 
618	 9.45908883369879E-02 
619	 9.45382734807257E-02 
620	 0.094494510075851 
621	 9.44558745031452E-02 
622	 9.43824780965356E-02 
623	 9.42712286209545E-02 
624	 9.43566062075576E-02 
625	 9.43284408476164E-02 
626	 0.094157664694782 
627	 9.40960509402675E-02 
628	 9.41342946889424E-02 
629	 9.40900974794263E-02 
630	 9.39029544653347E-02 
631	 9.39316935611557E-02 
632	 9.38825510166545E-02 
633	 9.37796690318449E-02 
634	 9.37629417793133E-02 
635	 9.36112076872041E-02 
636	 9.34861177296412E-02 
637	 9.34640346722427E-02 
638	 0.093454611971822 
639	 9.32534295615208E-02 
640	 9.30782973267716E-02 
641	 9.31332515768687E-02 
642	 9.30097570476693E-02 
643	 9.28953858027307E-02 
644	 9.27817960711105E-02 
645	 9.25143346674482E-02 
646	 9.23764050336868E-02 
647	 9.23026119506329E-02 
648	 0.092185860094533 
649	 9.19835801067458E-02 
650	 9.16953094919384E-02 
651	 9.13532626460693E-02 
652	 9.09833557827017E-02 
653	 9.04116034833576E-02 
654	 8.97755145135565E-02 
655	 8.90657964154468E-02 
656	 8.81518812164296E-02 
657	 8.74527950655945E-02 
658	 8.68829936038551E-02 
659	 8.62838700171285E-02 
660	 8.56580651846603E-02 
661	 8.52725838555816E-02 
662	 8.50216029546695E-02 
663	 8.45948760154519E-02 
664	 0.084158108629915 
665	 8.38471837997616E-02 
666	 8.36607270666217E-02 
667	 8.33663201577591E-02 
668	 8.31520803420031E-02 
669	 0.082998563844176 
670	 8.28373223719004E-02 
671	 8.27050355534095E-02 
672	 8.25947462922779E-02 
673	 8.25164000892531E-02 
674	 0.082494257981729 
675	 8.24762133985036E-02 
676	 0.082489560734907 
677	 8.25422719944934E-02 
678	 8.25472170682059E-02 
679	 8.26217153942881E-02 
680	 0.082746251225575 
681	 8.28427575515808E-02 
682	 8.29073239690062E-02 
683	 8.30120040021419E-02 
684	 8.31279447927212E-02 
685	 8.30845065274724E-02 
686	 8.31725087167885E-02 
687	 0.083218712239496 
688	 8.30288933332808E-02 
689	 8.28612033568574E-02 
690	 8.26174601312274E-02 
691	 8.22536658309028E-02 
692	 8.17594516950044E-02 
693	 8.12680175814379E-02 
694	 8.06323239306932E-02 
695	 7.98611952615313E-02 
696	 7.91896440019148E-02 
697	 7.84482488688843E-02 
698	 0.077538584848412 
699	 7.64653216452176E-02 
700	 7.53783085825878E-02 
701	 7.42849368111762E-02 
702	 7.31236670125532E-02 
703	 7.17800922871557E-02 
704	 7.05706394868368E-02 
705	 6.92516282512886E-02 
706	 6.77211332339607E-02 
707	 6.62909147727749E-02 
708	 6.48202133265176E-02 
709	 6.31811203830937E-02 
710	 6.12926066363393E-02 
711	 5.93617066574061E-02 
712	 5.73240905541341E-02 
713	 5.52143936192788E-02 
714	 5.31337441919307E-02 
715	 5.11332588341468E-02 
716	 4.90369316939105E-02 
717	 4.67963506610626E-02 
718	 4.44440370785658E-02 
719	 4.21235404148205E-02 
720	 4.01696304734296E-02 
721	 0.038437503094131 
722	 3.66394630710726E-02 
723	 0.034583730124133 
724	 3.25523011732925E-02 
725	 3.08331793038795E-02 
726	 2.88377957015845E-02 
727	 2.66439760204314E-02 
728	 2.44993159305399E-02 
729	 0.02255084543915 
730	 2.05289551765293E-02 
731	 0.01865619699771 
732	 1.72094867033031E-02 
733	 1.59567458767552E-02 
734	 1.49617384970398E-02 
735	 1.41851672970731E-02 
736	 1.33975855395165E-02 
737	 1.29052352530807E-02 
738	 1.26094518313933E-02 
739	 1.23572320781044E-02 
740	 1.21190457801741E-02 
741	 1.19693085612817E-02 
742	 1.18775505529278E-02 
743	 1.17730975129967E-02 
744	 1.17864524780486E-02 
745	 1.17282369930039E-02 
746	 1.15820909474328E-02 
747	 1.16002641314691E-02 
748	 1.16801682880878E-02 
749	 1.16694352203771E-02 
750	 1.15180177682289E-02 
751	 1.15503902041773E-02 
752	 0.011584564396966 
753	 1.15464558587045E-02 
754	 1.14497015952875E-02 
755	 1.14688989108827E-02 
756	 0.011542604789851 
757	 1.16249581830135E-02 
758	 1.17491420458318E-02 
759	 1.17388089945263E-02 
760	 1.16087364042704E-02 
761	 1.16177510674487E-02 
762	 1.16798244415146E-02 
763	 1.18454319385662E-02 
764	 1.19131448516002E-02 
765	 1.17731002798969E-02 
766	 1.18915132530778E-02 
767	 1.19679666318377E-02 
768	 1.19698982276983E-02 
769	 1.21155020855379E-02 
770	 1.21888451103996E-02 
771	 1.22355661319194E-02 
772	 1.23210281617874E-02 
773	 1.24072608555155E-02 
774	 1.25915972613442E-02 
775	 1.28087446112418E-02 
776	 1.29497161409328E-02 
777	 1.30996948828461E-02 
778	 1.33223214753754E-02 
779	 1.35850860215261E-02 
780	 1.37673782824736E-02 
781	 1.39053519402165E-02 
782	 1.40599359706302E-02 
783	 1.42709674115783E-02 
784	 0.01452667981476 
785	 1.47271680133939E-02 
786	 1.49527040036928E-02 
787	 1.52999031264134E-02 
788	 1.55888851004904E-02 
789	 1.58466269812977E-02 
790	 1.61409044978455E-02 
791	 0.016543670381013 
792	 1.68769585850926E-02 
793	 0.017074343162171 
794	 1.72400528158039E-02 
795	 1.77163312674488E-02 
796	 1.81250114352152E-02 
797	 1.83694599681646E-02 
798	 1.85149530949464E-02 
799	 1.88362902667685E-02 
800	 1.91302123316988E-02 
801	 1.93225509526625E-02 
802	 1.94514214042839E-02 
803	 1.97233006183606E-02 
804	 1.99191080204015E-02 
805	 1.99316669944537E-02 
806	 1.98330794055602E-02 
807	 1.99606905675707E-02 
808	 2.01161500675852E-02 
809	 0.020071402109172 
810	 1.98087668016399E-02 
811	 1.95340847312938E-02 
812	 1.93630033016606E-02 
813	 1.93096941942969E-02 
814	 1.90584626814871E-02 
815	 1.86419539227987E-02 
816	 1.82172831410341E-02 
817	 1.79495415263763E-02 
818	 1.75006615601588E-02 
819	 0.01692872889068 
820	 1.63252818558679E-02 
821	 1.58045042919952E-02 
822	 1.52787336779869E-02 
823	 1.44102283196403E-02 
824	 1.32033096597208E-02 
825	 1.23976656877577E-02 
826	 1.16104587354939E-02 
827	 1.07612835220603E-02 
828	 9.89878196265404E-03 
829	 8.8658308450797E-03 
830	 8.20188017262261E-03 
831	 7.84681191389836E-03 
832	 7.35719488531305E-03 
833	 7.32459239125046E-03 
834	 7.05380852919856E-03 
835	 6.45369379808424E-03 
836	 6.37966363978961E-03 
837	 6.38881469852422E-03 
838	 6.34781507840304E-03 
839	 6.21350659071073E-03 
840	 5.98224510666579E-03 
841	 5.92562601049803E-03 
842	 5.95387701781833E-03 
843	 5.87682553138943E-03 
844	 5.78346002195019E-03 
845	 5.56653062562841E-03 
846	 5.37165262560266E-03 
847	 5.45866615696663E-03 
848	 5.44941272433753E-03 
849	 5.35050733308152E-03 
850	 5.21266394165891E-03 
851	 5.08352504637188E-03 
852	 5.02772113262501E-03 
853	 5.00324645442159E-03 
854	 4.93408026799729E-03 
855	 4.71424628921404E-03 
856	 4.87502689496215E-03 
857	 5.05038290602936E-03 
858	 4.86001394466477E-03 
859	 4.81322096838762E-03 
860	 4.68640500706994E-03 
861	 4.55463405284945E-03 
862	 0.004582850841846 
863	 4.51365796771052E-03 
864	 4.43178135122011E-03 
865	 4.34850634746751E-03 
866	 4.21631769123618E-03 
867	 4.30542777676767E-03 
868	 4.36485229724512E-03 
869	 4.29030148226439E-03 
870	 4.25411095197621E-03 
871	 3.96960524790186E-03 
872	 4.01597147666791E-03 
873	 4.49247230059564E-03 
874	 4.02645026924338E-03 
875	 3.89037192875415E-03 
876	 3.99819776301092E-03 
877	 3.98778508842046E-03 
878	 4.1762669405251E-03 
879	 4.02530444286127E-03 
880	 3.7836034888962E-03 
881	 3.89722092144101E-03 
882	 3.57338630587407E-03 
883	 3.60376082213355E-03 
884	 3.74560490677411E-03 
885	 3.17752987407332E-03 
886	 3.64394580542888E-03 
887	 3.76575800616397E-03 
888	 3.2384327964767E-03 
889	 3.2824205392442E-03 
890	 3.16708807197778E-03 
891	 3.28864628367442E-03 
892	 3.65695543554858E-03 
893	 3.24036754871428E-03 
894	 3.34573178198123E-03 
895	 3.42030382431069E-03 
896	 2.95274584630566E-03 
897	 3.29613437633953E-03 
898	 3.45841688334499E-03 
899	 3.36963687056547E-03 
900	 3.35011605618144E-03 
901	 3.85435150162978E-03 
902	 3.28242703506836E-03 
903	 2.34379117836777E-03 
904	 2.38017307718318E-03 
905	 3.11227295908376E-03 
906	 3.11225999365866E-03 
907	 2.62193187494228E-03 
908	 2.9465541469654E-03 
909	 3.11747534689853E-03 
910	 2.95599989302382E-03 
911	 2.61329961750466E-03 
912	 2.44658687458245E-03 
913	 2.32954698353045E-03 
914	 2.75694110906733E-03 
915	 3.27010725362265E-03 
916	 2.5492836282365E-03 
917	 2.41700670532381E-03 
918	 2.41102698940418E-03 
919	 2.35847484261968E-03 
920	 2.89228799524227E-03 
921	 3.03372445100958E-03 
922	 2.6424392228251E-03 
923	 2.1406088064836E-03 
924	 2.73376597261746E-03 
925	 2.90344411280755E-03 
926	 2.99177223967961E-03 
927	 3.29722143683999E-03 
928	 1.73326243580741E-03 
929	 1.14723038573145E-03 
930	 1.69202292775692E-03 
931	 1.80795247884228E-03 
932	 3.06896949144082E-04 
933	-7.11127647769194E-04 
934	 3.16918087397743E-04 
935	 2.71936432906582E-03 
936	 2.40840462470922E-03 
937	 9.31658081810412E-04 
938	 1.29814881810199E-03 
939	 4.12789617868491E-03 
940	 1.04936859073845E-04 
941	-1.02244049954311E-03 
942	 1.57341455742531E-03 
943	 3.54024976926314E-03 
944	 7.90509323355726E-04 
945	-8.15939493743806E-06 
946	 6.19112047190908E-04 
947	-1.47116237048688E-03 
948	-9.82024382287636E-04 
949	 3.17348421545105E-03 
950	 5.36867900835416E-03 
951	-5.90135351967065E-04 
952	-9.40878247322179E-04 
953	 5.32479209022016E-04 
954	 1.19337812922097E-03 
955	 8.16398866586829E-04 
956	 1.9446870703117E-03 
957	 3.47318617152563E-03 
958	 3.88788199899435E-03 
959	 2.35657798685824E-03 
960	 2.0739393478638E-03 
961	 2.27510803573151E-03 
962	 1.92498614292766E-03 
963	 6.51730580801339E-04 
964	 0.001380645393794 
965	 2.3118411517291E-03 
966	 2.29673342296615E-03 
967	 1.47462139116447E-03 
968	 3.43189354112966E-03 
969	 2.28874462278318E-03 
970	 2.52702268442162E-05 
971	 4.1855892559631E-03 
972	 3.96665044794504E-03 
973	 2.65327402485307E-03 
974	 2.33633301082673E-03 
975	 2.19556009890992E-03 
976	 6.49018871158039E-04 
977	 1.02312326338163E-03 
978	 2.81710685431451E-03 
979	 2.34063915602178E-03 
980	 1.70465112394581E-03 
981	 2.22978302154355E-03 
982	 3.4433619049795E-03 
983	 3.58691059987617E-03 
984	 2.23700845861483E-03 
985	 1.99030871359178E-03 
986	 2.67213031422089E-03 
987	 1.99173204089559E-03 
988	 9.34436229523709E-04 
989	 1.17349259464269E-03 
990	 2.34589256665642E-03 
991	 2.77583635840489E-03 
992	 3.80067210519351E-03 
993	 2.54180563981425E-03 
994	 4.27068332472288E-04 
995	 1.12535870554104E-03 
996	 1.32257600592952E-03 
997	 7.16682721010401E-04 
998	 5.70183107394482E-04 
999	 2.16744227105996E-03 
1000	 2.13745252566588E-03 
1001	 2.32678653886275E-03 
1002	 2.74644956685725E-03 
1003	 2.76609623219395E-03 
1004	 2.43192387131439E-03 
1005	 2.24982163960721E-03 
1006	 1.84160502401995E-03 
1007	 1.43900376628859E-03 
1008	 1.6790427943037E-03 
1009	 1.87426200405537E-03 
1010	 2.11016807148123E-03 
1011	 2.6792128159216E-03 
1012	 2.49919421480168E-03 
1013	 2.37551741751743E-03 
1014	 2.50410647652521E-03 
1015	 2.58510886777354E-03 
1016	 2.66622388435291E-03 
1017	 3.23525060197701E-03 
1018	 3.31350451214024E-03 
1019	 3.02892852522252E-03 
1020	 2.8044068139396E-03 
1021	 2.46317507925938E-03 
1022	 2.04264843075283E-03 
1023	 1.96413977984024E-03 
1024	 1.64970022742426E-03 
1025	 1.47595949692819E-03 
1026	 1.5093113728374E-03 
1027	 1.35331421374694E-03 
1028	 9.46372414968835E-04 
1029	 1.05374133270036E-03 
1030	 1.38200739692508E-03 
1031	 1.59807545196564E-03 
1032	 2.19629376947062E-03 
1033	 2.39063312932818E-03 
1034	 2.28558217679208E-03 
1035	 2.28602078502612E-03 
1036	 2.10077690805131E-03 
1037	 2.08698084235359E-03 
1038	 2.23303830795306E-03 
1039	 2.30545272899431E-03 
1040	 0.00209333370936 
1041	 2.25272601660542E-03 
1042	 2.31953593246482E-03 
1043	 2.35359538683005E-03 
1044	 2.25995041180489E-03 
1045	 2.18253298985647E-03 
1046	 2.1499047566647E-03 
1047	 1.9315274841016E-03 
1048	 1.87922564325407E-03 
1049	 2.11469985483212E-03 
1050	 2.1210750866063E-03 
1051	 1.83975790287942E-03 
1052	 1.86623923547442E-03 
1053	 2.02914848694642E-03 
1054	 2.16388766736038E-03 
1055	 2.65905474423631E-03 
1056	 2.82486136409489E-03 
1057	 2.8387219585145E-03 
1058	 2.63821229683732E-03 
1059	 2.55400297413696E-03 
1060	 2.32401199460702E-03 
1061	 2.17548848053175E-03 
1062	 2.01293818718847E-03 
1063	 2.01889650037118E-03 
1064	 2.10528058490818E-03 
1065	 2.14419792969514E-03 
1066	 2.41413855765834E-03 
1067	 2.46659722043692E-03 
1068	 2.36356401979144E-03 
1069	 2.24498912634278E-03 
1070	 1.8670714153505E-03 
1071	 1.76431809800138E-03 
1072	 1.71653696628435E-03 
1073	 1.83588694486834E-03 
1074	 1.84924467421231E-03 
1075	 2.07897498411071E-03 
1076	 2.09693828767706E-03 
1077	 1.81930432662558E-03 
1078	 1.86293260447208E-03 
1079	 2.14890865327634E-03 
1080	 2.19760736021533E-03 
1081	 2.26513503568203E-03 
1082	 2.28635936566802E-03 
1083	 2.03610757165474E-03 
1084	 2.01413336491086E-03 
1085	 2.23619416893841E-03 
1086	 2.2864186132938E-03 
1087	 2.40681163675148E-03 
1088	 2.3705686053178E-03 
1089	 2.04880299082272E-03 
1090	 1.79501949622871E-03 
1091	 1.80280305091464E-03 
1092	 1.91325058127155E-03 
1093	 0.001983903999951 
1094	 2.47468636928317E-03 
1095	 2.43790406651199E-03 
1096	 1.77343507292298E-03 
1097	 1.77587424256701E-03 
1098	 2.04336591755063E-03 
1099	 1.99487636072434E-03 
1100	 2.29313204764686E-03 
1101	 2.4086487118388E-03 
1102	 1.87713584659865E-03 
1103	 1.69079398465701E-03 
1104	 1.82199062413717E-03 
1105	 1.89775888894966E-03 
1106	 1.51746725822375E-03 
1107	 1.79739154830245E-03 
1108	 1.99378187262792E-03 
1109	 1.68448899249606E-03 
1110	 1.86313107861438E-03 
1111	 2.52817401196892E-03 
1112	 2.60493159014741E-03 
1113	 2.67677232734962E-03 
1114	 2.50004736983144E-03 
1115	 1.12265261404046E-03 
1116	 1.01071082141071E-03 
1117	 1.91123063628941E-03 
1118	 2.40952090455807E-03 
1119	 4.67276632793632E-03 
1120	 4.6553377987407E-03 
1121	 9.6302079494553E-04 
1122	-3.10885038597417E-04 
1123	-2.22953174014187E-03 
1124	-4.46040269179243E-04 
1125	 5.14930118922831E-03 
1126	 5.8344980198987E-03 
1127	 3.68971930986105E-03 
1128	 1.38259977071179E-03 
1129	 1.38661084580896E-03 
1130	 2.20364009785641E-03 
1131	 2.82486294493793E-03 
1132	 4.69001616884957E-03 
1133	 5.39437650446146E-03 
1134	 4.7740292691738E-03 
1135	 4.14429039461709E-03 
1136	 4.22111527075392E-03 
1137	 4.11996921115147E-03 
1138	 2.88962874977799E-03 
1139	 3.2893607596182E-03 
1140	 4.37899600812681E-03 
1141	 3.46242879093795E-03 
1142	 2.42549760758756E-03 
1143	 2.64780332985888E-03 
1144	 1.85711783180641E-03 
1145	 5.10065290662136E-05 
1146	 1.34317960220244E-03 
1147	 3.12993672808673E-03 
1148	 2.61743008533681E-03 
1149	 3.08284483198259E-03 
1150	 3.42768292627309E-03 
1151	 2.37587474727044E-03 
1152	 1.88713239199451E-03 
1153	 2.72827296493221E-03 
1154	 2.59755047096484E-03 
1155	 1.87897476767743E-03 
1156	 1.03331751727737E-03 
1157	 1.2193700792883E-03 
1158	 1.7419277860478E-03 
1159	 2.04908318980021E-03 
1160	 2.64585052175462E-03 
1161	 3.12598808210178E-03 
1162	 2.72288353212112E-03 
1163	 2.50811248707844E-03 
1164	 2.56372323399911E-03 
1165	 2.12043961995028E-03 
1166	 2.04747902805202E-03 
1167	 2.21670679783456E-03 
1168	 1.95509959507563E-03 
1169	 1.8616922698516E-03 
1170	 2.05622882944605E-03 
1171	 2.17129513468713E-03 
1172	 2.38685121931576E-03 
1173	 2.41022461505192E-03 
1174	 2.39230022302048E-03 
1175	 2.33595071301971E-03 
1176	 2.10070495465182E-03 
1177	 2.11437589046731E-03 
1178	 2.38093228095314E-03 
1179	 2.34251833754141E-03 
1180	 2.28702443859367E-03 
1181	 2.16116602809533E-03 
1182	 1.92020868927477E-03 
1183	 1.86418389677099E-03 
1184	 1.88407825051488E-03 
1185	 1.90809567878917E-03 
1186	 1.85868669709836E-03 
1187	 1.61174226829913E-03 
1188	 1.43426044969549E-03 
1189	 1.7221225553422E-03 
1190	 2.03886862797149E-03 
1191	 1.90971764069122E-03 
1192	 1.91397755499751E-03 
1193	 1.84302439840281E-03 
1194	 1.88997127552915E-03 
1195	 2.00254449777945E-03 
1196	 2.18887696077889E-03 
1197	 2.40741990988093E-03 
1198	 2.15549134132525E-03 
1199	 1.65173222239156E-03 
1200	 1.82449097881497E-03 
1201	 2.17350307500317E-03 
1202	 2.17239237625512E-03 
1203	 2.0277894655774E-03 
1204	 1.89545538220422E-03 
1205	 2.00234422183304E-03 
1206	 2.16736282242591E-03 
1207	 2.20172263503217E-03 
1208	 2.17187844756082E-03 
1209	 2.11605489515003E-03 
1210	 2.0444741721465E-03 
1211	 2.08253442992885E-03 
1212	 2.14324729212835E-03 
1213	 2.18777326547916E-03 
1214	 2.26196263305535E-03 
1215	 2.36434552992892E-03 
1216	 2.35314475477766E-03 
1217	 2.1147386620561E-03 
1218	 1.91146862620991E-03 
1219	 1.88375498111586E-03 
1220	 1.76276128160776E-03 
1221	 1.6444615130901E-03 
1222	 1.78729690206641E-03 
1223	 1.76043984406352E-03 
1224	 1.71511858262545E-03 
1225	 2.02131516043778E-03 
1226	 2.15087489321108E-03 
1227	 1.86070403060312E-03 
1228	 1.68295299300784E-03 
1229	 1.85502451291067E-03 
1230	 1.97981134413825E-03 
1231	 1.93424426589828E-03 
1232	 1.92400075188287E-03 
1233	 1.90690689630761E-03 
1234	 1.81541471949918E-03 
1235	 1.79271069116903E-03 
1236	 1.94607859764273E-03 
1237	 2.0314761259226E-03 
1238	 2.1041418783153E-03 
1239	 2.04414531802068E-03 
1240	 2.04724135994017E-03 
1241	 1.86290269735361E-03 
1242	 1.7285867765042E-03 
1243	 1.94164668864351E-03 
1244	 1.9417278812625E-03 
1245	 1.95968676649576E-03 
1246	 2.24232689664214E-03 
1247	 2.11643272067436E-03 
1248	 1.82933205339382E-03 
1249	 1.91737707484267E-03 
1250	 1.88262165386939E-03 
1251	 1.58234486827569E-03 
1252	 1.69564910979509E-03 
1253	 1.93381769611675E-03 
1254	 1.77504866257259E-03 
1255	 1.58362651231668E-03 
1256	 1.61748753412597E-03 
1257	 1.9479878531116E-03 
1258	 1.93068645302595E-03 
1259	 1.60387038668971E-03 
1260	 1.75577859036251E-03 
1261	 2.14734101753401E-03 
1262	 2.05489661828423E-03 
1263	 1.83511510941387E-03 
1264	 2.27663949161821E-03 
1265	 2.21185025730655E-03 
1266	 1.75418298387353E-03 
1267	 1.90727263446365E-03 
1268	 2.17431252537585E-03 
1269	 2.10002621214208E-03 
1270	 1.81876848099616E-03 
1271	 1.63001812097398E-03 
1272	 1.72772736496876E-03 
1273	 1.90121213273515E-03 
1274	 2.05176795966842E-03 
1275	 2.06673158864038E-03 
1276	 1.86108362818285E-03 
1277	 1.69166611745263E-03 
1278	 1.70205804401092E-03 
1279	 2.01843938077892E-03 
1280	 2.30399480465702E-03 
1281	 2.26142583297616E-03 
1282	 1.77467403379732E-03 
1283	 1.78562894718439E-03 
1284	 1.85788505868473E-03 
1285	 1.79975771633693E-03 
1286	 2.05090317909362E-03 
1287	 2.06192939666734E-03 
1288	 1.54971516016812E-03 
1289	 1.56724302028814E-03 
1290	 1.96899523675763E-03 
1291	 2.17707003480814E-03 
1292	 2.11305042626086E-03 
1293	 2.01899332091657E-03 
1294	 2.17728164963357E-03 
1295	 2.22518720044451E-03 
1296	 1.9763924781168E-03 
1297	 2.02443184963575E-03 
1298	 2.04266894828763E-03 
1299	 1.76503017897634E-03 
1300	 1.88982033743284E-03 
1301	 2.21140660185879E-03 
1302	 1.96889179140848E-03 
1303	 1.50931387327376E-03 
1304	 1.51411595666652E-03 
1305	 1.60067781705037E-03 
1306	 1.64344101181379E-03 
1307	 1.83444928498952E-03 
1308	 1.86620364686163E-03 
1309	 1.87959874287842E-03 
1310	 1.83044730910402E-03 
1311	 1.4020761094129E-03 
1312	 1.43523415147216E-03 
1313	 1.88350148214435E-03 
1314	 1.96558724054442E-03 
1315	 2.10941629561359E-03 
1316	 2.20925860198623E-03 
1317	 2.04096046131319E-03 
1318	 1.78170432474954E-03 
1319	 1.46587534880425E-03 
1320	 1.41015925010584E-03 
1321	 1.31398902706477E-03 
1322	 1.27155091516018E-03 
1323	 1.31790270590392E-03 
1324	 1.54561732239716E-03 
1325	 2.06007311148481E-03 
1326	 2.20625678472795E-03 
1327	 2.01218339681608E-03 
1328	 2.3307962691157E-03 
1329	 2.76623432535251E-03 
1330	 2.2897905650675E-03 
1331	 1.90574053018994E-03 
1332	 2.41866401405554E-03 
1333	 2.77999903457046E-03 
1334	 2.52360172565379E-03 
1335	 2.16050816788217E-03 
1336	 1.59506232043397E-03 
1337	 1.59555540695957E-03 
1338	 1.61190773143412E-03 
1339	 1.33418190102478E-03 
1340	 1.46335668059738E-03 
1341	 1.71955065166603E-03 
1342	 1.54486232728194E-03 
1343	 1.38308324890337E-03 
1344	 1.9197811781683E-03 
1345	 2.13314121044645E-03 
1346	 1.37446243617811E-03 
1347	 6.85078559623431E-04 
1348	-1.3346448791348E-04 
1349	 9.06481313553043E-05 
1350	 3.51658087001612E-03 
1351	 1.07073954666371E-03 
1352	-1.36628234823883E-02 
1353	-1.76353144729158E-02 
1354	-8.86944023754034E-03 
1355	-2.22640172150691E-02 
1356	-3.10348402117556E-02 
1357	 2.78760292708449E-02 
1358	 1.33793385833606E-02 
1359	-0.078364416341028 
1360	 1.36773170068293E-02 
1361	 8.28688775033511E-02 
1362	-1.46626724589589E-02 
1363	-2.67079272641352E-02 
1364	-0.042189243360314 
1365	-5.52364791403055E-02 
1366	-2.53011451105253E-02 
1367	-0.124756858214257 
1368	-0.112209238372297 
1369	-9.28535668774783E-02 
1370	-0.181122865763417 
1371	-0.268709898045019 
1372	-0.223598027331708 
1373	-0.31877806766812 
1374	-0.4244663306153 
1375	-0.111538281062287 
1376	-1.98539228499099E-02 
1377	-0.125837059929129 
1378	-0.122096604699211 
1379	 1.59686249553748E-02 
1380	 0.113704959989936 
1381	 0.28541167062334 
1382	 0.187829159531901 
1383	-0.206057044603864 
1384	-0.125273422475947 
1385	 0.26290796515405 
1386	 0.164508416393275 
1387	 1.63343507100263E-02 
1388	 0.083180864590372 
1389	-0.178145029594799 
1390	-0.301000515715427 
1391	-0.196762922790481 
1392	 0.241785568688394 
1393	 0.449911015674394 
1394	 0.26604785741711 
1395	 0.139700823782015 
1396	 0.167951042900126 
1397	 0.17095753563418 
1398	 6.02790561313554E-02 
1399	 0.019757291209482 
1400	 3.77397647778542E-02 
1401	-4.87356670935123E-02 
1402	-1.52885295327613E-02 
1403	 0.137246472446918 
1404	-4.56386366622105E-02 
1405	-6.64251942475978E-02 
1406	-7.01419231870508E-02 
1407	-6.97438393734791E-02 
1408	-5.14597423305612E-02 
1409	-0.038978574945583 
1410	-5.85329377187052E-02 
1411	-3.21013541210537E-02 
1412	 3.16701706527454E-02 
1413	 3.63810782561269E-02 
1414	 4.10185796508338E-02 
1415	 3.59669437879471E-02 
1416	 4.83083981952336E-03 
1417	-9.28631442478925E-03 
1418	-2.27888328360027E-02 
1419	-1.56277320631201E-02 
1420	 8.18970893782752E-03 
1421	 2.40765201672051E-03 
1422	-8.96147466146325E-03 
1423	-5.43358514846336E-03 
1424	-8.34556847448891E-03 
1425	-1.26411494285524E-02 
1426	-1.13707052016163E-02 
1427	-4.75597910621778E-03 
1428	 5.32093289492301E-03 
1429	 3.56538126501237E-03 
1430	-1.61781466161154E-03 
1431	 7.9344219815861E-04 
1432	-1.61870493505544E-03 
1433	-3.76420478683596E-03 
1434	 3.95192831135937E-03 
1435	 9.53670369621316E-03 
1436	 1.48693485633645E-02 
1437	 6.91167843135496E-03 
1438	-3.15273931489556E-03 
1439	-1.82548022780119E-03 
1440	-2.14441755483849E-03 
1441	-6.72342251679202E-03 
1442	-5.2006595879951E-04 
1443	 5.87332023058824E-03 
1444	 9.12084779585057E-04 
1445	-3.16946779319725E-03 
1446	-1.17510708964492E-03 
1447	-3.21571137718215E-04 
1448	-1.28336737894927E-03 
1449	 6.61735011036886E-04 
1450	 5.92994333066312E-04 
1451	-1.8228698683908E-03 
1452	 6.86271181862481E-04 
1453	 2.58536609896512E-03 
1454	 1.75187523279282E-03 
1455	-1.42118631943221E-04 
1456	 2.68927119342033E-04 
1457	-2.43316727846967E-05 
1458	-4.38913702388626E-04 
1459	 6.09373424223896E-04 
1460	 1.19974820078509E-03 
1461	 6.11968722530915E-04 
1462	 2.94341663779744E-04 
1463	 1.13551193122081E-03 
1464	 1.30438435706544E-03 
1465	 6.92228935958593E-06 
1466	-3.60723489667608E-04 
1467	 6.31588736413361E-06 
1468	 8.25524368813592E-04 
1469	 2.51450266199261E-03 
1470	 1.88437107598323E-03 
1471	 5.27871979703371E-04 
1472	 7.07093483918238E-04 
1473	-7.15597666136933E-04 
1474	-9.52385164671986E-04 
1475	 1.50834541622332E-03 
1476	 2.10816726474024E-03 
1477	 1.17555131851122E-03 
1478	 1.12026251042023E-03 
1479	 1.52780198734973E-03 
1480	 1.63270263289758E-03 
1481	 1.71796533062538E-03 
1482	 1.71233110916537E-03 
1483	 1.38238870721787E-03 
1484	 1.38999239781716E-03 
1485	 1.48359299595133E-03 
1486	 1.5499176682546E-03 
1487	 1.92270076602766E-03 
1488	 2.16105317102829E-03 
1489	 2.22391767225327E-03 
1490	 2.21939210530317E-03 
1491	 2.41689945148555E-03 
1492	 2.24770992499516E-03 
1493	 1.50186852173043E-03 
1494	 1.41816039092393E-03 
1495	 1.7819796204514E-03 
1496	 1.6420216726552E-03 
1497	 1.36096567526969E-03 
1498	 1.39515964732566E-03 
1499	 1.3032667407466E-03 
1500	 1.2556704999036E-03 
1501	 1.6061182020952E-03 
1502	 1.69563540263304E-03 
1503	 1.45818581119388E-03 
1504	 1.35571771473238E-03 
1505	 1.13333925662005E-03 
1506	 1.24390641492008E-03 
1507	 1.6675585679838E-03 
1508	 1.97301751960931E-03 
1509	 1.92485315264589E-03 
1510	 1.7609770069389E-03 
1511	 1.67033683049988E-03 
1512	 1.43686266675574E-03 
1513	 1.20503961581999E-03 
1514	 1.31658145091119E-03 
1515	 1.24305170162075E-03 
1516	 1.15205925753741E-03 
1517	 1.31883131336216E-03 
1518	 1.33461589871701E-03 
1519	 1.34786808070787E-03 
1520	 1.3093650931954E-03 
1521	 1.05695712142486E-03 
1522	 1.06920701861577E-03 
1523	 1.23794523558966E-03 
1524	 1.10974796580171E-03 
1525	 1.06788734153476E-03 
1526	 1.2145799603952E-03 
1527	 1.24518302877369E-03 
1528	 1.24515969077518E-03 
1529	 1.29237303894532E-03 
1530	 1.34571694875436E-03 
1531	 1.30159135691268E-03 
1532	 1.25001012004924E-03 
1533	 1.37632330912343E-03 
1534	 1.53725160360083E-03 
1535	 1.5136950034743E-03 
1536	 1.42723687179431E-03 
1537	 1.55430430553012E-03 
1538	 1.71873611591948E-03 
1539	 1.61183469695652E-03 
1540	 1.40745724036865E-03 
1541	 1.29943727659048E-03 
1542	 1.26312617383207E-03 
1543	 1.41669750654631E-03 
1544	 1.45204229737778E-03 
1545	 1.33643427162818E-03 
1546	 1.35753723546506E-03 
1547	 1.25209030820038E-03 
1548	 1.23949289145008E-03 
1549	 1.37224785714068E-03 
1550	 1.39596486105931E-03 
1551	 1.34201202113809E-03 
1552	 1.25489012733492E-03 
1553	 1.34345460237593E-03 
1554	 1.41969664683416E-03 
1555	 1.24895793090713E-03 
1556	 1.16732665827057E-03 
1557	 1.30524129417318E-03 
1558	 1.33329741473518E-03 
1559	 1.36282257389673E-03 
1560	 1.39017209449565E-03 
1561	 1.33926055488182E-03 
1562	 1.42166039766058E-03 
1563	 1.47321551779182E-03 
1564	 1.57355223455118E-03 
1565	 1.63057494980281E-03 
1566	 1.61423511880587E-03 
1567	 1.62258121118034E-03 
1568	 1.57350520961813E-03 
1569	 1.63957157179848E-03 
1570	 1.52639051287841E-03 
1571	 1.23649374675503E-03 
1572	 1.3037645266885E-03 
1573	 1.41514456562214E-03 
1574	 1.15965757594351E-03 
1575	 1.03531967800025E-03 
1576	 1.37252382445389E-03 
1577	 1.66163553960259E-03 
1578	 0.001583889660478 
1579	 1.4515331216854E-03 
1580	 1.43579262243317E-03 
1581	 1.54451664547842E-03 
1582	 1.68375197359566E-03 
1583	 1.68231544380789E-03 
1584	 1.41866086079862E-03 
1585	 1.0624959313343E-03 
1586	 9.95488423424827E-04 
1587	 1.00300016083995E-03 
1588	 1.05917576720293E-03 
1589	 1.18961883402742E-03 
1590	 1.11098692240794E-03 
1591	 1.23838603140115E-03 
1592	 1.51451226834279E-03 
1593	 1.40864282645581E-03 
1594	 1.15629646344372E-03 
1595	 1.1491693619993E-03 
1596	 1.42476086819259E-03 
1597	 1.66495803778939E-03 
1598	 1.6176476527869E-03 
1599	 1.52181666354774E-03 
1600	 1.45883031871784E-03 
1601	 1.24957589291549E-03 
1602	 1.30690067131205E-03 
1603	 1.56080034382128E-03 
1604	 1.27203915676587E-03 
1605	 1.04905388914078E-03 
1606	 1.19347257973959E-03 
1607	 1.13075735380432E-03 
1608	 1.27427021198208E-03 
1609	 1.49183007541066E-03 
1610	 1.53960595185653E-03 
1611	 1.63276341101969E-03 
1612	 1.47443166783872E-03 
1613	 1.29938346603531E-03 
1614	 1.39024446604805E-03 
1615	 1.39030757431899E-03 
1616	 1.32175197558641E-03 
1617	 1.4298408799401E-03 
1618	 1.44944994602836E-03 
1619	 1.44621156829012E-03 
1620	 1.69831083336631E-03 
1621	 1.93463205221044E-03 
1622	 1.95070596939113E-03 
1623	 1.9270231253282E-03 
1624	 1.91212516044985E-03 
1625	 1.74347945669594E-03 
1626	 1.56395622667103E-03 
1627	 1.37165105164754E-03 
1628	 1.24847948927075E-03 
1629	 1.32012918358235E-03 
1630	 1.20336087945755E-03 
1631	 1.03524723396653E-03 
1632	 1.14144080602834E-03 
1633	 1.16900259284034E-03 
1634	 1.22655484334709E-03 
1635	 1.66314158923027E-03 
1636	 1.77598793769803E-03 
1637	 1.44746689502686E-03 
1638	 1.3942977867642E-03 
1639	 1.54697827659199E-03 
1640	 1.55043946021332E-03 
1641	 1.47482380691345E-03 
1642	 1.49043306481788E-03 
1643	 1.32580321678327E-03 
1644	 1.14394999378462E-03 
1645	 1.29465398359513E-03 
1646	 1.22273839584053E-03 
1647	 1.12487793812605E-03 
1648	 1.35644398621023E-03 
1649	 1.3884397924174E-03 
1650	 1.44736183003438E-03 
1651	 1.64764117111007E-03 
1652	 1.71090161309696E-03 
1653	 1.82323312694092E-03 
1654	 1.70786754263173E-03 
1655	 1.38152284094809E-03 
1656	 1.35832605650662E-03 
1657	 1.31394770944897E-03 
1658	 1.40082740683354E-03 
1659	 1.95477155255644E-03 
1660	 1.89869457304842E-03 
1661	 1.36171205284327E-03 
1662	 1.28955278279652E-03 
1663	 1.16287473413077E-03 
1664	 1.12092794853051E-03 
1665	 1.39518273111761E-03 
1666	 1.51621699620932E-03 
1667	 1.64709012045369E-03 
1668	 1.74335028250243E-03 
1669	 1.50519293340469E-03 
1670	 1.4181856844015E-03 
1671	 1.35034388913264E-03 
1672	 1.30340220310513E-03 
1673	 1.68311023431054E-03 
1674	 1.89455486919783E-03 
1675	 1.71706925663049E-03 
1676	 1.71942678427381E-03 
1677	 1.53718039918532E-03 
1678	 1.07361214919149E-03 
1679	 1.01652597767549E-03 
1680	 1.24970598184433E-03 
1681	 1.26277349908415E-03 
1682	 1.10218960240912E-03 
1683	 0.001223243560906 
1684	 1.50571337907898E-03 
1685	 1.71248331176146E-03 
1686	 1.81941628263471E-03 
1687	 1.52824655359415E-03 
1688	 1.16242247598268E-03 
1689	 1.30465480115019E-03 
1690	 1.64077897896071E-03 
1691	 1.79613912463756E-03 
1692	 1.99766027429551E-03 
1693	 1.94752241953162E-03 
1694	 1.38343456668402E-03 
1695	 1.34478271354467E-03 
1696	 1.6462289739541E-03 
1697	 1.19770638981142E-03 
1698	 8.06440050018861E-04 
1699	 8.43763239747367E-04 
1700	 7.47077821208946E-04 
1701	 8.8726248720218E-04 
1702	 1.67611615996961E-03 
1703	 2.17506339426451E-03 
1704	 1.93059342864895E-03 
1705	 1.74747276183425E-03 
1706	 1.6651740901546E-03 
1707	 1.66943818074704E-03 
1708	 1.94704141424552E-03 
1709	 2.1132785625844E-03 
1710	 1.93088775427005E-03 
1711	 1.74993632470052E-03 
1712	 1.58473272761176E-03 
1713	 2.08544689642982E-03 
1714	 2.00658579301411E-03 
1715	 1.46602544132405E-03 
1716	 1.90404425244625E-03 
1717	 1.96186322805531E-03 
1718	 1.69450232116385E-03 
1719	 1.82118129204456E-03 
1720	 1.68913776399164E-03 
1721	 1.14121159493637E-03 
1722	 1.43994730953551E-03 
1723	 2.24805565285643E-03 
1724	 2.11830355658017E-03 
1725	 1.65914822833892E-03 
1726	 1.86746305275386E-03 
1727	 1.64878374250465E-03 
1728	 1.15640207552537E-03 
1729	 1.61719345117836E-03 
1730	 1.86240745584813E-03 
1731	 1.67380269292366E-03 
1732	 1.99389462539018E-03 
1733	 2.08760413318508E-03 
1734	 1.26298550221124E-03 
1735	 7.00306287825333E-04 
1736	 9.69287015451769E-04 
1737	 1.0189972127867E-03 
1738	 1.45084021211408E-03 
1739	 2.04129398483797E-03 
1740	 1.57811615142707E-03 
1741	 1.33175873027404E-03 
1742	 1.94385435323766E-03 
1743	 2.26409193523454E-03 
1744	 2.20001321308296E-03 
1745	 2.11111187299812E-03 
1746	 9.22827509738044E-04 
1747	 7.69574133592047E-04 
1748	 1.91663491705458E-03 
1749	 1.95940967504306E-03 
1750	 1.43567732049798E-03 
1751	 1.59488599897908E-03 
1752	 1.83151296475212E-03 
1753	 1.66452995859178E-03 
1754	 1.7281651548445E-03 
1755	 1.94952780223634E-03 
1756	 1.56714438483866E-03 
1757	 1.63075645319165E-03 
1758	 1.95541782664764E-03 
1759	 1.56462433529361E-03 
1760	 1.75017573497713E-03 
1761	 2.38349666183409E-03 
1762	 2.36991970543984E-03 
1763	 1.85784109650866E-03 
1764	 7.3013230040551E-04 
1765	 1.42303829964071E-04 
1766	 9.22368315833121E-04 
1767	 1.94046574636263E-03 
1768	 2.39946335484516E-03 
1769	 2.09288444290274E-03 
1770	 1.37767623895272E-03 
1771	 1.38939055235434E-03 
1772	 1.98816315758442E-03 
1773	 1.54049056463886E-03 
1774	 9.08207572775116E-04 
1775	 1.17887831780716E-03 
1776	 1.1177741265949E-03 
1777	 2.52022831154979E-03 
1778	 2.94673475416563E-03 
1779	 1.16028275340586E-03 
1780	 6.3488021513038E-04 
1781	 9.97850621667743E-04 
1782	 1.60633530425319E-03 
1783	 3.88918966451573E-03 
1784	 3.86925816308553E-03 
1785	 1.79381428033831E-03 
1786	 8.23609386491263E-04 
1787	-1.59222890156978E-03 
1788	-2.27658427293294E-03 
1789	-4.20174787841096E-04 
1790	 1.29205886451858E-03 
1791	 2.1266094180241E-03 
1792	 7.07906453168796E-04 
1793	 3.72448724941416E-04 
1794	 1.15987803978544E-04 
1795	-4.87060500937888E-03 
1796	-4.25030857907011E-03 
1797	-3.55338635851763E-04 
1798	-2.76727784384821E-03 
1799	 7.21777191536798E-05 
1800	-5.20252940006757E-03 
1801	-5.95910335244268E-03 
1802	 2.87319980415076E-03 
1803	 3.57489949986061E-03 
1804	 2.40343423976363E-03 
1805	 4.51680431230823E-03 
1806	-4.19865471354533E-03 
1807	-1.08638303798259E-02 
1808	-0.01245720526403 
1809	-1.19942038153493E-02 
1810	-2.77477831696384E-02 
1811	-7.30047965099906E-03 
1812	 0.133862910951767 
1813	 0.156298076488133 
1814	 7.50657244295778E-02 
1815	 2.23746816638366E-02 
1816	-0.214967806725827 
1817	-0.166774513646838 
1818	-3.29835472653225E-02 
1819	-8.72977672437587E-02 
1820	-3.40872798673658E-02 
1821	-3.33943911594879E-02 
1822	-0.100768691774365 
1823	-0.113437121685421 
1824	-7.07860988785913E-02 
1825	-0.259862700750955 
1826	-0.284838205279386 
1827	 0.180400035303578 
1828	 0.142876593315207 
1829	-0.229973514798513 
1830	-0.364570256579602 
1831	-0.172256925701408 
1832	 0.280041553742303 
1833	 0.62334871832264 
1834	 0.510989518416809 
1835	 0.410213520193733 
1836	 0.490910793252938 
1837	 0.19891207134654 
1838	 0.490930813261008 
1839	-1.72450499309245 
1840	-2.31640527452278 
1841	-3.70381561662771 
1842	-1.92235877845267 
1843	-1.5626581305515 
1844	-1.88154846285326 
1845	-1.76037556869892 
1846	-1.40374620093218 
1847	-0.644312562974456 
1848	 0.240776347683903 
1849	 1.1131066152788 
1850	 0.72346281616388 
1851	 0.12151324549392 
1852	-0.292873306333853 
1853	 8.68249064346666 
1854	 2.15582914994613 
1855	 1.00963728268513 
1856	 1.02669551181672 
1857	 2.18823498037568 
1858	 2.88103196246619 
1859	-43.5471048188122 
1860	-32.8900547552532 
1861	 1.18730313099328 
1862	 0.79538630566363 
1863	 1.64994295314657 
1864	 42.4431796494727 
1865	 3.68353777787935 
1866	 2.18843057294762 
1867	 2.44869582869101 
1868	 1.0494028232409 
1869	 0.91717081285649 
1870	 1.53169712286855 
1871	 2.68133621097048 
1872	 1.8530816225329 
1873	 1.01332972333045 
1874	 0.511708877971173 
1875	 0.910385505466481 
1876	 0.840427900493643 
1877	 0.310160299387465 
1878	 3.07595691802552E-02 
1879	 2.08988436982855E-02 
1880	-0.146559120101878 
1881	-0.390463272126744 
1882	-0.393170133292795 
1883	-0.333215806576389 
1884	-1.18240164666508 
1885	 3.16007471351377 
1886	-12.6294274332061 
1887	 1.54632514883736 
1888	 0.123658705914958 
1889	-1.49060984164543E-02 
1890	-0.324278102447837 
1891	-0.342551760124001 
1892	-1.09906016466503E-02 
1893	-0.138233170561403 
1894	 3.20693740981222 
1895	 5.98186893284213 
1896	 1.23082702615169 
1897	 0.928953966383327 
1898	 0.5787888914445 
1899	 0.320169746188305 
1900	 0.251075480788005 
1901	 0.622227948083753 
1902	 0.954293406376705 
1903	 1.61138947487432 
1904	 47.4307401594129 
1905	-1.90175904511728 
1906	-1.30278834462917 
1907	-0.330650868923453 
1908	-1.40523819802417 
1909	 2.00848611519649 
1910	 29.9822530907196 
1911	-2.20058214905683 
1912	-2.90141428845624 
1913	-7.22940751298394 
1914	-4.86987014064035 
1915	-7.14794400993383 
1916	 0.291748094424071 
1917	 0.937357926521858 
1918	 2.52126147265112 
1919	 0.331802207635863 
1920	 0.498996746206712 
1921	-7.50280130119107E-02 
1922	-0.248052921339731 
1923	-35.9892176584536 
1924	 2.21928393317984 
1925	 0.305549618264137 
1926	 0.259384466511699 
1927	 0.357025254283476 
1928	 0.19415610009814 
1929	 0.287732654861904 
1930	 0.540383542977769 
1931	 0.324492198988416 
1932	 0.367013093593186 
1933	 0.246998452245796 
1934	 0.126436963297689 
1935	 0.17495226366128 
1936	 0.118918248482516 
1937	 0.060103798585652 
1938	 3.58112803149453E-02 
1939	 3.97046069142498E-02 
1940	 5.31324465565299E-02 
1941	 5.00699334891482E-02 
1942	 1.69299059620764E-02 
1943	 1.35596261902431E-03 
1944	-8.6129991075427E-03 
1945	-1.49790338856138E-02 
1946	-1.77713603294748E-02 
1947	-2.12206454093372E-02 
1948	-0.013011783913064 
1949	-3.26752397761216E-03 
1950	 4.51930817355235E-03 
1951	 2.60381375652964E-02 
1952	 3.95965703744801E-02 
1953	 4.62965349009068E-02 
1954	 0.034285262304751 
1955	 3.77616069099324E-02 
1956	 3.61891975705597E-02 
1957	 1.31483064318168E-02 
1958	 3.01244538035865E-03 
1959	 8.22443928110236E-03 
1960	 9.50618195987027E-03 
1961	 7.68520107896248E-03 
1962	 0.010093260502072 
1963	 9.38494001107271E-03 
1964	 4.23403955645272E-03 
1965	 4.24925124583565E-03 
1966	 4.11577464749497E-03 
1967	 3.86840506042128E-03 
1968	 1.53555594161394E-03 
1969	 4.19248843396731E-03 
1970	 6.6253183079733E-03 
1971	 6.44319784339419E-03 
1972	 6.76715919539335E-03 
1973	 6.55250116163529E-03 
1974	 5.58403227531327E-03 
1975	 4.00079532045472E-03 
1976	 2.53584535681995E-03 
1977	 1.51036848755889E-03 
1978	 2.95453511728021E-04 
1979	-3.94846507861019E-04 
1980	-2.65150458209494E-04 
1981	 5.51810004327845E-04 
1982	 4.46508250200756E-04 
1983	 1.0940713732581E-04 
1984	 7.19942314620492E-04 
1985	 1.55783726511699E-03 
1986	 1.88252250361269E-03 
1987	 2.16700727460278E-03 
1988	 2.29426752224225E-03 
1989	 2.18348524554974E-03 
1990	 2.75071894570882E-03 
1991	 3.39411599226799E-03 
1992	 4.19218316118706E-03 
1993	 5.24810553914907E-03 
1994	 5.21639311033077E-03 
1995	 4.11813279983471E-03 
1996	 3.03113368157806E-03 
1997	 1.5274227589674E-03 
1998	 4.42858935017293E-04 
1999	 1.94817633909125E-03 
2000	 0.002895953508151 
2001	 4.03756378412834E-03 
2002	 4.60132458266186E-03 
2003	 3.01044403981898E-03 
2004	 3.29725091635944E-03 
2005	 3.68162919887324E-03 
2006	 1.16401096948771E-03 
2007	-2.83492710770911E-04 
2008	 6.6816604054715E-05 
2009	 7.21559992072141E-04 
2010	 4.56200239170717E-03 
2011	 5.47352482181483E-03 
2012	 6.0965970698981E-03 
2013	 3.67150925041577E-03 
2014	 1.89235663418761E-03 
2015	 2.76523335019465E-04 
2016	-2.11592470758162E-05 
2017	 7.56810527180406E-04 
2018	 5.04879655472291E-04 
2019	-1.45121821592966E-04 
2020	 2.48422923836982E-04 
2021	 2.38358093689397E-04 
2022	-4.93803481490426E-04 
2023	 5.04302356953848E-04 
2024	 1.44415599109975E-03 
2025	 2.47004692739583E-03 
2026	 3.04230933760971E-03 
2027	 4.29443650990841E-03 
2028	 4.41920070593854E-03 
2029	 3.63408326454443E-03 
2030	 3.37622060086782E-03 
2031	 2.82277295365901E-03 
2032	 2.40336940774901E-03 
2033	 1.63025514763937E-03 
2034	 6.87699663180426E-04 
2035	 1.10544807409621E-03 
2036	 1.31556528043089E-03 
2037	 1.13376259976762E-03 
2038	 1.76392923012897E-03 
2039	 2.00868440883952E-03 
2040	 1.77341575633678E-03 
2041	 1.4613165191225E-03 
2042	 7.42377090699553E-04 
2043	 4.6525118367347E-04 
2044	 8.2642114809836E-07 
2045	 2.74750413621311E-04 
2046	 4.39809383144446E-05 
2047	 9.27424281783546E-04 
2048	 1.20594294600799E-03 
2049	 4.02142463746924E-04 
2050	 9.85174227547478E-04 
2051	 2.10059395315674E-03 
2052	 3.04006693018968E-03 
2053	 3.61784897360588E-03 
2054	 4.25409431816711E-03 
2055	 5.24472396422962E-03 
2056	 4.98022905142359E-03 
2057	 3.32157541072151E-03 
2058	 3.01487836016431E-03 
2059	 2.55339005932836E-03 
2060	 1.84780942257478E-03 
2061	 1.37405298354711E-03 
2062	 2.27921308398669E-03 
2063	 1.98915776481619E-03 
2064	 7.50815872127216E-04 
2065	 1.05364774032066E-03 
2066	 0.001660243383395 
2067	 1.25778136973792E-03 
2068	 8.2646395626736E-04 
2069	 8.99084315168242E-04 
2070	 7.19506137141079E-04 
2071	 1.15250397971737E-03 
2072	 2.41572977214797E-03 
2073	 2.59097724733759E-03 
2074	 2.09152621344779E-03 
2075	 1.99337392590684E-03 
2076	 1.67899653035843E-03 
2077	 1.23703954340156E-03 
2078	 1.01122460549101E-03 
2079	 1.03469658388023E-03 
2080	 1.08361022110378E-03 
2081	 3.82175940161948E-04 
2082	 6.23129589582097E-04 
2083	 5.1657978115477E-04 
2084	 1.39287587508951E-04 
2085	 8.2207444381123E-04 
2086	 1.29504183663411E-03 
2087	 1.50623880794726E-03 
2088	 1.79964563038642E-03 
2089	 1.95071908941175E-03 
2090	 1.55777558793725E-03 
2091	 8.94109587982033E-04 
2092	 9.08637432195474E-04 
2093	 9.6033799866893E-04 
2094	 8.77210719634777E-04 
2095	 1.56484657626773E-03 
2096	 1.84706757387374E-03 
2097	 1.19007806433004E-03 
2098	 1.35040863470036E-03 
2099	 2.03524392347005E-03 
2100	 2.76868019455419E-03 
2101	 3.04794175970505E-03 
2102	 3.11752246737798E-03 
2103	 3.22353970585945E-03 
2104	 3.33380721998345E-03 
2105	 3.21408261988168E-03 
2106	 3.24809881228105E-03 
2107	 2.93204165068897E-03 
2108	 2.27400746100374E-03 
2109	 2.07470714810063E-03 
2110	 1.88779244482317E-03 
2111	 1.45980542376399E-03 
2112	 1.07119985727903E-03 
2113	 1.31222334873711E-03 
2114	 2.39945865950182E-03 
2115	 2.44149000674575E-03 
2116	 2.57689049090511E-03 
2117	 2.59936332931736E-03 
2118	 1.13940050937059E-03 
2119	 5.80371399473101E-04 
2120	 6.18616108572702E-04 
2121	 1.31159161498921E-03 
2122	 1.04408218428193E-03 
2123	 1.87496687298632E-03 
2124	 2.9690441319658E-03 
2125	 2.44207452595106E-03 
2126	 1.42476227664034E-03 
2127	 9.32829893339354E-04 
2128	 4.07275955931227E-04 
2129	 4.53505764836162E-05 
2130	-1.03314390733666E-04 
2131	-2.28907552621361E-05 
2132	-2.21028524993923E-04 
2133	-3.52907322674279E-04 
2134	-4.64968047991468E-04 
2135	-6.5456142577248E-04 
2136	-5.19237989576353E-04 
2137	-2.90689499268734E-04 
2138	-8.18947630293117E-06 
2139	 9.9298947194728E-04 
2140	 1.28718053729364E-03 
2141	 9.22612849708921E-04 
2142	 1.01721480690733E-03 
2143	 1.05566820843861E-03 
2144	 1.19697688409266E-03 
2145	 1.30306740086755E-03 
2146	 2.05390087688446E-03 
2147	 2.08003006425406E-03 
2148	 7.85668573378927E-04 
2149	 4.92341200929408E-04 
2150	 1.23719793904067E-03 
2151	 1.64422337840631E-03 
2152	 2.68986459357482E-03 
2153	 3.11412995212258E-03 
2154	 1.79243804698761E-03 
2155	 9.16825797711626E-04 
2156	 5.28179839508083E-04 
2157	 5.17071437717366E-04 
2158	 1.31941394862356E-03 
2159	 1.5622431779731E-03 
2160	 1.94653478310547E-03 
2161	 1.9437509585248E-03 
2162	 1.42964850967226E-03 
2163	 1.5087127373087E-03 
2164	 1.59920148754179E-03 
2165	 1.81145094073295E-03 
2166	 2.39048525074863E-03 
2167	 2.62282943896519E-03 
2168	 2.96835124424927E-03 
2169	 3.30747286974627E-03 
2170	 3.65749308792347E-03 
2171	 3.45701901645715E-03 
2172	 4.10133417189473E-03 
2173	 5.10216898178261E-03 
2174	 4.52437738868803E-03 
2175	 3.33804760896623E-03 
2176	 3.52154250552415E-03 
2177	 2.00967710993529E-03 
2178	 8.665852436475E-04 
2179	 2.30809908846223E-03 
2180	 2.57538877457624E-03 
2181	 2.15863484016275E-03 
2182	 2.29685196893587E-03 
2183	 2.58458573056308E-03 
2184	 1.7654325299707E-03 
2185	-5.29065824671678E-04 
2186	-7.91450064874383E-04 
2187	-9.63494678645188E-05 
2188	 4.3482414597467E-04 
2189	 3.13723616210285E-03 
2190	 3.78104012996361E-03 
2191	 2.31493055330562E-03 
2192	 2.11275046883267E-03 
2193	 1.83151457693475E-03 
2194	 1.58106412594044E-03 
2195	 2.09132328301537E-03 
2196	 2.45404974233166E-03 
2197	 2.25736993916448E-03 
2198	 2.54366393269717E-03 
2199	 3.38985372146993E-03 
2200	 4.05447835149862E-03 
2201	 4.34617036715763E-03 
2202	 4.3167413171537E-03 
2203	 4.79167985014278E-03 
2204	 5.36552562911513E-03 
2205	 6.09423937581742E-03 
2206	 6.73731708430344E-03 
2207	 5.96987054495975E-03 
2208	 4.96566092641857E-03 
2209	 3.91956483485811E-03 
2210	 3.07317058603067E-03 
2211	 3.79153433376919E-03 
2212	 0.004539096820789 
2213	 5.34420192418398E-03 
2214	 6.45199157903878E-03 
2215	 7.14999888721203E-03 
2216	 8.71204675928434E-03 
2217	 8.14913530591458E-03 
2218	 6.17771799179558E-03 
2219	 4.72164002700769E-03 
2220	 1.26593050201478E-03 
2221	 1.10332808984206E-04 
2222	 1.10645151551869E-03 
2223	 1.18610162825778E-03 
2224	 1.7459867844006E-03 
2225	 1.44703892063074E-03 
2226	 3.72020064802138E-05 
2227	 1.02761463151513E-04 
2228	 4.50339801707074E-04 
2229	 7.66970809578905E-04 
2230	 2.34813717190595E-03 
2231	 2.86139387063092E-03 
2232	 2.38882218879735E-03 
2233	 2.86809424540891E-03 
2234	 3.71082595975746E-03 
2235	 4.01965573326668E-03 
2236	 5.22181541124127E-03 
2237	 6.41856956773129E-03 
2238	 3.61638833358233E-03 
2239	 3.84823173731797E-04 
2240	-5.02945586009239E-04 
2241	-7.71635357106946E-04 
2242	 2.03332752997752E-03 
2243	 4.89650838855941E-03 
2244	 3.3240057784208E-03 
2245	 4.88062068430418E-04 
2246	-8.19072412059745E-04 
2247	-4.87108992984252E-04 
2248	 2.97975018318309E-04 
2249	-2.76398754740857E-04 
2250	-2.65335244119048E-03 
2251	-3.58472462301783E-03 
2252	-2.73692612535301E-03 
2253	 2.41980511495657E-04 
2254	 4.78292151436943E-03 
2255	 5.79475755078693E-03 
2256	 3.81519330962563E-03 
2257	 1.24410140150725E-03 
2258	 6.37290414948992E-04 
2259	 1.59437265618822E-03 
2260	 1.88174391701367E-03 
2261	 5.0979753299186E-03 
2262	 6.27837099776222E-03 
2263	 5.04831097864177E-03 
2264	 5.01093697089163E-03 
2265	 6.0340603944917E-03 
2266	 6.73844934195004E-03 
2267	 0.007265325213029 
2268	 5.9335207796361E-03 
2269	 0.003340626608004 
2270	 2.5994785336761E-03 
2271	 1.55710165015268E-03 
2272	 4.67826391233621E-04 
2273	 4.30889875866679E-04 
2274	 6.46065351937591E-04 
2275	 3.25176291703973E-05 
2276	 3.62628111787172E-04 
2277	 3.05108748555709E-03 
2278	 4.24984384149641E-03 
2279	 3.87433865014417E-03 
2280	 4.1579526788941E-03 
2281	 3.89978606040187E-03 
2282	 5.59283514548798E-03 
2283	 9.19642983296707E-03 
2284	 9.42306559641428E-03 
2285	 7.71575747146904E-03 
2286	 7.56693180543588E-03 
2287	 4.7852078263247E-03 
2288	 1.52436359105357E-03 
2289	 3.61943462877901E-03 
2290	 4.11269123351162E-03 
2291	 1.03628042207643E-03 
2292	 1.88324613386072E-03 
2293	 3.48840087985932E-03 
2294	 2.17868200628984E-03 
2295	 1.87655864945479E-03 
2296	 2.08458272918216E-03 
2297	-1.38694528670869E-03 
2298	-2.76467819454793E-03 
2299	 1.23470036644613E-03 
2300	 4.22593590205216E-03 
2301	 6.53184450706943E-03 
2302	 7.92224122244114E-03 
2303	 6.29879960878918E-03 
2304	 5.89807021319241E-03 
2305	 1.01128789973003E-02 
2306	 0.01266162388606 
2307	 1.08220030579244E-02 
2308	 7.81951858510415E-03 
2309	 1.77405488969632E-03 
2310	-1.73453324852327E-03 
2311	-8.57408164247877E-04 
2312	-9.51418175725139E-04 
2313	 5.95788242546161E-04 
2314	 1.74298187512996E-03 
2315	-1.61016322811731E-03 
2316	 1.40005184186317E-03 
2317	 8.72203022223683E-03 
2318	 1.01947242226007E-02 
2319	 1.43501532191498E-02 
2320	 1.69213689831254E-02 
2321	 1.72809397520612E-02 
2322	 0.018562322174298 
2323	 1.47362905888843E-02 
2324	 0.010911807498714 
2325	 5.36639540585675E-03 
2326	 1.72471988983803E-03 
2327	 5.20490062550377E-03 
2328	 7.05661924681117E-03 
2329	 6.82344740588447E-03 
2330	 6.49426090407718E-03 
2331	 7.19725564679095E-03 
2332	 8.22965721651085E-03 
2333	 8.9403130065504E-03 
2334	 0.012614913673245 
2335	 9.04568943453103E-03 
2336	 4.41561067203169E-03 
2337	 3.93844386422496E-03 
2338	-2.34363791926768E-03 
2339	 1.32455166968763E-03 
2340	 1.13648962127489E-02 
2341	 1.42381196163586E-02 
2342	 1.51975339934288E-02 
2343	 1.24682987752996E-02 
2344	 7.39050436592154E-03 
2345	 2.31434586105817E-03 
2346	 7.87069008075402E-03 
2347	 0.017237770509098 
2348	 1.27475034610584E-02 
2349	 5.54388215541064E-03 
2350	 9.23499873808626E-04 
2351	 1.91458958504765E-03 
2352	 6.32704967776463E-03 
2353	 1.60896745057665E-02 
2354	 2.77016158808474E-02 
2355	 1.92348360888252E-02 
2356	 1.16664319787344E-02 
2357	 1.54337902939917E-02 
2358	 7.82408150282546E-03 
2359	 3.76000359434844E-03 
2360	 9.68008412025155E-03 
2361	 1.0647247492925E-03 
2362	-3.78735830855967E-03 
2363	 9.40934877813765E-03 
2364	 1.34277190931161E-02 
2365	 1.84792812718987E-02 
2366	 2.61090904479107E-02 
2367	 2.07219919634405E-02 
2368	 1.89290353628656E-02 
2369	 2.09467916488451E-02 
2370	 1.82990838721263E-02 
2371	 1.57472593977028E-02 
2372	 1.29282122829644E-02 
2373	 9.85359212876907E-03 
2374	 1.73128664293751E-02 
2375	 1.37553041985071E-02 
2376	 4.97110327393093E-03 
2377	 1.38048724094827E-02 
2378	 9.84731103838427E-03 
2379	 0.012139295211571 
2380	 2.64312887619358E-02 
2381	 1.98028968883818E-02 
2382	 1.83795870233753E-02 
2383	 2.00245029811869E-02 
2384	 5.68783908625849E-03 
2385	-0.007841725888846 
2386	-2.57115209341231E-02 
2387	-3.73108139744429E-02 
2388	-3.78856755384158E-02 
2389	-1.45547975249383E-02 
2390	 3.83002298269879E-02 
2391	 5.63800321836774E-02 
2392	 0.047491871136347 
2393	 3.23010723865842E-02 
2394	 1.25123597883695E-02 
2395	 1.33835726043783E-02 
2396	 1.39288843295386E-02 
2397	 1.50744092901737E-02 
2398	 9.62664992037495E-03 
2399	-1.42875401904891E-02 
2400	-3.32496844058678E-02 
2401	-3.00764574320483E-02 
2402	-1.54759077665571E-04 
2403	 1.10196588959887E-02 
2404	 3.06606657377785E-02 
2405	 0.045001995233341 
2406	 4.80282143064565E-03 
2407	-4.59301283905046E-03 
2408	 1.40015010726144E-02 
2409	 5.95429172856286E-02 
2410	 7.47625988395025E-02 
2411	 2.73060045187612E-02 
2412	-9.15910451335953E-03 
2413	-4.26710869954366E-02 
2414	-4.30314382958984E-02 
2415	-1.74730370299374E-03 
2416	 9.77550937475624E-02 
2417	 0.144438211626384 
2418	 0.083923062203622 
2419	 0.114812271947761 
2420	 9.68039120170281E-02 
2421	 2.92576405103035E-02 
2422	 0.13326814603773 
2423	 0.117493867548487 
2424	 3.46784801320242E-02 
2425	 8.85301870011345E-02 
2426	 4.35945533537176E-02 
2427	-3.18581470247933E-02 
2428	-5.25839233458065E-03 
2429	-4.82889356379423E-02 
2430	-5.28253160377349E-02 
2431	 4.17123069666075E-02 
2432	 6.94329783526567E-02 
2433	 5.64388950976913E-02 
2434	 8.64925255776411E-03 
2435	-9.09626952392295E-02 
2436	-0.155003272742633 
2437	-5.98328044905491E-02 
2438	 2.78140818855431E-02 
2439	 3.13835763267952E-02 
2440	 9.08788268870745E-02 
2441	 3.13514456024021E-02 
2442	-8.15932439259258E-02 
2443	 0.110596206052108 
2444	 0.274177700501613 
2445	 0.319328932979742 
2446	 0.401362706103761 
2447	 5.27138223264167E-02 
2448	-0.192963717637701 
2449	-0.500583739273868 
2450	-0.635161765367672 
2451	-0.523232284015776 
2452	 0.113458826454506 
2453	 0.965320514025395 
2454	 1.22245849042002 
2455	 0.788539999627297 
2456	 0.526905438585244 
2457	 0.56649232106215 
2458	 0.602061707757296 
2459	 0.219495750693572 
2460	 4.50438513299148E-02 
2461	 7.22182275260192E-03 
2462	-0.172884935999785 
2463	-0.123474552296646 
2464	-2.40251141508854E-02 
2465	-0.23240987245164 
2466	-0.100154417907144 
2467	 6.19863248755193E-02 
2468	 0.414486752572855 
2469	 6.47102488616857 
2470	 0.606121108764049 
2471	 0.898898734741726 
2472	 0.629051744255297 
2473	 0.175786972564655 
2474	 0.786297388301401 
2475	 1.31798567725643 
2476	 1.16730325927162 
2477	 2.57457400652508 
2478	-0.301173877329528 
2479	 1.90294477815206 
2480	 0.131336243218871 
2481	-0.132910531787669 
2482	 5.62417172140797E-02 
2483	 0.289050636659835 
2484	 0.76278255045035 
2485	 1.20982715301571 
2486	 0.775391225340952 
2487	 0.480213386862361 
2488	 0.320172959521602 
2489	-4.51965992562191E-02 
2490	-0.378076138689109 
2491	 8.17422120931924E-02 
2492	 5.21322613413644E-02 
2493	 0.473064265977063 
2494	 0.161509599708165 
2495	-0.036399093967697 
2496	-0.42887653396429 
2497	-9.39814286452277E-02 
2498	-0.214887286626447 
2499	-0.642208701237735 
2500	-0.408779792103161 
