Wavelength	rt0718far200000.asd
350	 1.72902598790507E-02 
351	 1.67247353312222E-02 
352	 1.73413801333013E-02 
353	 1.78297712359971E-02 
354	 1.74888974571713E-02 
355	 1.76025181734951E-02 
356	 1.78524976220458E-02 
357	 0.017905112397848 
358	 1.76300334382745E-02 
359	 1.78212905303673E-02 
360	 1.80063892292644E-02 
361	 0.017991419165198 
362	 1.78484514986564E-02 
363	 1.80021786086147E-02 
364	 1.79730633080632E-02 
365	 1.76666090825533E-02 
366	 0.017714877109083 
367	 1.79978649130491E-02 
368	 1.82428480898242E-02 
369	 1.82476805134669E-02 
370	 0.018237514378217 
371	 1.81225500605627E-02 
372	 0.018067953309953 
373	 1.83050157640401E-02 
374	 1.83205574481632E-02 
375	 1.82111121470335E-02 
376	 1.81895281235577E-02 
377	 1.85132360265886E-02 
378	 1.83733323960931E-02 
379	 1.83800925280013E-02 
380	 1.89815506382442E-02 
381	 1.91119705007487E-02 
382	 1.88051673835623E-02 
383	 1.85600477368417E-02 
384	 1.89461682204779E-02 
385	 1.92664713319109E-02 
386	 0.019434105850245 
387	 1.94307251771607E-02 
388	 1.92773262038021E-02 
389	 1.97024947116739E-02 
390	 1.98802192980821E-02 
391	 1.93618010168048E-02 
392	 1.92523755087176E-02 
393	 1.95751809126143E-02 
394	 2.00589658830916E-02 
395	 2.03201705965861E-02 
396	 2.01151903200003E-02 
397	 2.00718772675997E-02 
398	 2.02832673480449E-02 
399	 2.03640490633136E-02 
400	 2.05667041084816E-02 
401	 2.05801290368193E-02 
402	 2.03685869283803E-02 
403	 2.07204994017078E-02 
404	 2.07270693006411E-02 
405	 2.05510234651503E-02 
406	 2.06641753097789E-02 
407	 2.08495937174044E-02 
408	 0.020877190002853 
409	 2.08387246985439E-02 
410	 2.11058687790952E-02 
411	 2.12209059015051E-02 
412	 2.12696361727343E-02 
413	 2.13647646638496E-02 
414	 2.14202006390513E-02 
415	 2.16136722364581E-02 
416	 2.18341916224128E-02 
417	 2.18793305562809E-02 
418	 2.17338642265019E-02 
419	 2.18831571848724E-02 
420	 2.22898353862145E-02 
421	 2.23493785061998E-02 
422	 2.23769723807203E-02 
423	 2.25185449296887E-02 
424	 2.27616811259787E-02 
425	 2.27243433938923E-02 
426	 2.28963127940087E-02 
427	 2.32107313448671E-02 
428	 2.33636974959894E-02 
429	 2.34972290492502E-02 
430	 2.36398314415974E-02 
431	 2.38192279558862E-02 
432	 2.40698761314779E-02 
433	 2.42694354477622E-02 
434	 2.44312685160737E-02 
435	 2.45956188966166E-02 
436	 2.47795014358043E-02 
437	 2.49591821117065E-02 
438	 2.51769304436395E-02 
439	 2.54785659331926E-02 
440	 2.56162325355723E-02 
441	 2.58213760310883E-02 
442	 2.61351266824288E-02 
443	 2.62456196008005E-02 
444	 0.026369268377214 
445	 2.65886181185959E-02 
446	 2.68807177696736E-02 
447	 2.69584453027533E-02 
448	 0.027163388472844 
449	 2.74419743760548E-02 
450	 2.74749281343451E-02 
451	 2.75692058694178E-02 
452	 2.77519284951375E-02 
453	 2.79589000173828E-02 
454	 0.028022352045534 
455	 2.81229491529192E-02 
456	 2.82363571785989E-02 
457	 2.82993842197763E-02 
458	 2.84598073694569E-02 
459	 0.028590937301401 
460	 2.86799662759539E-02 
461	 2.88344053528811E-02 
462	 2.89253148031641E-02 
463	 2.90522211797655E-02 
464	 2.92476308570087E-02 
465	 2.92245062461179E-02 
466	 2.92632331208657E-02 
467	 2.94121698016202E-02 
468	 2.95886777400054E-02 
469	 2.96802924943339E-02 
470	 2.97677733181703E-02 
471	 2.98933344679099E-02 
472	 3.00207680181208E-02 
473	 3.02011057175615E-02 
474	 3.03114391461277E-02 
475	 3.02983823567327E-02 
476	 3.05145471054468E-02 
477	 3.06659453320024E-02 
478	 3.07796488585907E-02 
479	 3.10682407985947E-02 
480	 3.11486745622323E-02 
481	 3.12353106512097E-02 
482	 3.14611907481909E-02 
483	 3.16306716807127E-02 
484	 3.18431006664043E-02 
485	 3.20483294432327E-02 
486	 0.03218131872211 
487	 3.23824200119561E-02 
488	 3.25761542864734E-02 
489	 3.27521961306092E-02 
490	 3.29704818196041E-02 
491	 3.31398458122665E-02 
492	 3.33423498219591E-02 
493	 0.033620373877795 
494	 3.38156100533729E-02 
495	 3.40713014237488E-02 
496	 3.43158193606491E-02 
497	 3.44197796813004E-02 
498	 3.47400007967933E-02 
499	 3.50509933380618E-02 
500	 3.52506799824559E-02 
501	 3.55185795955736E-02 
502	 3.57624978103661E-02 
503	 3.60148351686874E-02 
504	 3.63107830055733E-02 
505	 3.65644902670321E-02 
506	 3.67690618646933E-02 
507	 0.037003417846018 
508	 3.73835601691279E-02 
509	 3.75205043403116E-02 
510	 3.76993459433995E-02 
511	 3.80991670717063E-02 
512	 3.84147438928513E-02 
513	 3.86124213155557E-02 
514	 3.88109099612442E-02 
515	 3.91759076271445E-02 
516	 3.95825227890395E-02 
517	 3.99916156164938E-02 
518	 4.03653446328477E-02 
519	 4.06648573967043E-02 
520	 4.09764611523908E-02 
521	 4.12819910206792E-02 
522	 4.15796958451709E-02 
523	 4.20159457831517E-02 
524	 4.24279686983189E-02 
525	 4.27727255504299E-02 
526	 4.31013343693101E-02 
527	 4.34518752600906E-02 
528	 4.37763097582135E-02 
529	 4.40732090262369E-02 
530	 4.44663383997423E-02 
531	 4.48253212513286E-02 
532	 4.51818018794792E-02 
533	 4.55956008092476E-02 
534	 4.59191241674812E-02 
535	 0.046291425439499 
536	 4.67270885218331E-02 
537	 4.70810659425293E-02 
538	 4.74209123709035E-02 
539	 4.78076133878496E-02 
540	 4.82567069468179E-02 
541	 4.86511662588441E-02 
542	 4.89816277756513E-02 
543	 4.92961894079625E-02 
544	 0.049668086938518 
545	 5.00039842409255E-02 
546	 5.03834842124818E-02 
547	 5.08038533132517E-02 
548	 5.10521654979366E-02 
549	 5.14063324834633E-02 
550	 5.18061221403675E-02 
551	 0.052121086666034 
552	 5.25646600375528E-02 
553	 5.29569025175737E-02 
554	 5.32585175208028E-02 
555	 5.36095429667627E-02 
556	 5.40050498116946E-02 
557	 5.43765944689575E-02 
558	 5.46824317747365E-02 
559	 5.50399740554902E-02 
560	 0.055414355952379 
561	 5.57311183213443E-02 
562	 5.59205206002017E-02 
563	 0.056213297995133 
564	 5.65174653335516E-02 
565	 5.67507334177807E-02 
566	 5.69323974698296E-02 
567	 5.71121289899867E-02 
568	 5.73337559024554E-02 
569	 5.76015475262387E-02 
570	 0.057743023249094 
571	 0.057855978337099 
572	 5.79856699541949E-02 
573	 5.81015227887662E-02 
574	 5.82131746096755E-02 
575	 0.058276967889669 
576	 5.82683393442077E-02 
577	 5.82607807883812E-02 
578	 5.82253787422351E-02 
579	 5.81667401374474E-02 
580	 5.80970966707821E-02 
581	 5.78858617308309E-02 
582	 0.057706724525258 
583	 5.76101825060117E-02 
584	 5.73518897406559E-02 
585	 5.71314574628789E-02 
586	 5.68727122034325E-02 
587	 5.64583297568604E-02 
588	 5.61472530829222E-02 
589	 5.58290746956171E-02 
590	 5.54377253425806E-02 
591	 5.49674874993325E-02 
592	 5.46787896092239E-02 
593	 5.43015793685363E-02 
594	 5.36400123504401E-02 
595	 5.30469901257397E-02 
596	 5.23213551031342E-02 
597	 5.15065459356632E-02 
598	 5.07638518473042E-02 
599	 4.98919719383017E-02 
600	 4.91065563369318E-02 
601	 4.85545228421751E-02 
602	 4.81808707232526E-02 
603	 4.78766320992225E-02 
604	 4.76098549225071E-02 
605	 4.74016058172629E-02 
606	 4.73671560763098E-02 
607	 4.73233336796888E-02 
608	 4.72431883410957E-02 
609	 4.72684147351336E-02 
610	 4.72120057972824E-02 
611	 4.71730016461495E-02 
612	 4.72131564011248E-02 
613	 0.047100188566648 
614	 4.69973568447366E-02 
615	 4.69496378561082E-02 
616	 4.69313943194447E-02 
617	 0.046926348484851 
618	 4.68569834366853E-02 
619	 4.67234663997074E-02 
620	 4.66557701377459E-02 
621	 4.66185371767215E-02 
622	 4.65949923151154E-02 
623	 4.65537995824558E-02 
624	 4.63873670998554E-02 
625	 4.62349905941714E-02 
626	 4.61546747140632E-02 
627	 4.61143921546632E-02 
628	 0.04606311552642 
629	 4.60456320259709E-02 
630	 4.60608913729407E-02 
631	 0.045929092967941 
632	 4.58476588972432E-02 
633	 4.57692826121346E-02 
634	 4.55767309804518E-02 
635	 0.045589111451587 
636	 4.55867085451443E-02 
637	 4.54768939314425E-02 
638	 4.54212192688041E-02 
639	 4.53173222118063E-02 
640	 4.51997242331807E-02 
641	 4.51190756827702E-02 
642	 4.50314261073964E-02 
643	 4.48892640615009E-02 
644	 4.47242682702567E-02 
645	 4.46217852838119E-02 
646	 4.43972751677075E-02 
647	 4.42189861655849E-02 
648	 4.41681391949948E-02 
649	 4.39737745402344E-02 
650	 4.37943045156005E-02 
651	 0.043579678468078 
652	 4.32353211672138E-02 
653	 4.28619721606354E-02 
654	 4.24660278994716E-02 
655	 4.20179419646596E-02 
656	 4.15123289982501E-02 
657	 4.10550901521072E-02 
658	 4.06507608484869E-02 
659	 4.02748667649412E-02 
660	 3.99384833478542E-02 
661	 0.039624872691363 
662	 3.93946344411661E-02 
663	 3.93249866890048E-02 
664	 3.90832169366013E-02 
665	 3.88787253117097E-02 
666	 3.88157201764362E-02 
667	 3.86903781453225E-02 
668	 3.85948630316957E-02 
669	 0.038474278180191 
670	 3.82803883683929E-02 
671	 3.82158481027644E-02 
672	 3.81975520280352E-02 
673	 3.81581791024591E-02 
674	 3.80687418322453E-02 
675	 3.81090420981637E-02 
676	 3.80894990774834E-02 
677	 3.79157318897054E-02 
678	 3.79122889582167E-02 
679	 3.78895637580284E-02 
680	 3.78532667986179E-02 
681	 3.78709571785745E-02 
682	 3.78225340069658E-02 
683	 3.76898243225874E-02 
684	 3.75516095544433E-02 
685	 3.76005860512243E-02 
686	 0.037574951770171 
687	 0.037440596307899 
688	 3.72561486997131E-02 
689	 3.70269557555916E-02 
690	 3.68074992821593E-02 
691	 3.65168930086442E-02 
692	 3.60243058172994E-02 
693	 3.57017691041967E-02 
694	 3.53419641976104E-02 
695	 3.48471847048747E-02 
696	 3.43837638479163E-02 
697	 3.38637352680494E-02 
698	 3.32943487820577E-02 
699	 0.032725372102167 
700	 3.21137714762264E-02 
701	 3.13978043521714E-02 
702	 3.06645658531678E-02 
703	 3.00720228609496E-02 
704	 0.029345507610349 
705	 2.85260111021279E-02 
706	 2.77219553015347E-02 
707	 2.70583768659732E-02 
708	 2.61025490392843E-02 
709	 2.50744874351435E-02 
710	 2.43237346855608E-02 
711	 2.34365008438613E-02 
712	 2.24100920591678E-02 
713	 2.13431511818039E-02 
714	 2.03829051609482E-02 
715	 1.93806595423395E-02 
716	 1.83910472681489E-02 
717	 0.017524608214097 
718	 1.65067374187227E-02 
719	 1.55383907165935E-02 
720	 1.47068542854857E-02 
721	 1.38821652548249E-02 
722	 1.31629324026764E-02 
723	 1.24640145189445E-02 
724	 1.17951170277279E-02 
725	 1.10768417452361E-02 
726	 1.03557796834354E-02 
727	 9.66422193891411E-03 
728	 9.01141383616373E-03 
729	 8.29887160101377E-03 
730	 7.61045951278746E-03 
731	 7.08954715523018E-03 
732	 6.79995129094581E-03 
733	 6.4435625282695E-03 
734	 6.18475607376715E-03 
735	 6.04403261652307E-03 
736	 5.80661961203108E-03 
737	 5.61973966319647E-03 
738	 5.51934384484598E-03 
739	 5.48478727546487E-03 
740	 5.39987719355317E-03 
741	 5.33980379121842E-03 
742	 5.32655757360631E-03 
743	 5.34366354561559E-03 
744	 5.32977422672211E-03 
745	 5.32021113369347E-03 
746	 5.31506790868311E-03 
747	 5.25369364628922E-03 
748	 5.24709570725024E-03 
749	 5.24688943842843E-03 
750	 5.19998057118185E-03 
751	 5.17940944462659E-03 
752	 5.14944638767006E-03 
753	 5.12570761092409E-03 
754	 0.005146324007408 
755	 5.19763782634166E-03 
756	 5.19163153429863E-03 
757	 5.14463991519736E-03 
758	 5.25866112556318E-03 
759	 5.2921321278531E-03 
760	 5.2548562805477E-03 
761	 5.31974044691202E-03 
762	 5.40069687771508E-03 
763	 5.22975488759322E-03 
764	 5.08402859909836E-03 
765	 5.22870599449974E-03 
766	 5.20590540933199E-03 
767	 5.23504848988762E-03 
768	 5.30980953074129E-03 
769	 5.20070522338342E-03 
770	 5.16790894177934E-03 
771	 5.20467674986743E-03 
772	 5.24627690752801E-03 
773	 5.22199194923239E-03 
774	 5.25568900715078E-03 
775	 5.30110189564043E-03 
776	 5.27368056991298E-03 
777	 5.35327801852706E-03 
778	 5.36830482800074E-03 
779	 5.32675356129614E-03 
780	 5.42529603996206E-03 
781	 5.44914903662743E-03 
782	 5.45215961991506E-03 
783	 5.51043096822368E-03 
784	 5.64876754361976E-03 
785	 5.69934682647363E-03 
786	 5.69689286017267E-03 
787	 5.74333970363001E-03 
788	 5.85876022952714E-03 
789	 5.8793066823442E-03 
790	 5.85220422888802E-03 
791	 5.97720684437714E-03 
792	 6.04745657820911E-03 
793	 6.21439772152055E-03 
794	 6.44711060143748E-03 
795	 6.33824372656626E-03 
796	 6.37537571698115E-03 
797	 6.44032488974955E-03 
798	 6.38563241943299E-03 
799	 6.58897651699767E-03 
800	 6.59760740847905E-03 
801	 6.53561317550728E-03 
802	 6.76759829726602E-03 
803	 6.81071303296739E-03 
804	 6.74284602529956E-03 
805	 6.69385556036633E-03 
806	 6.77876247011044E-03 
807	 6.8384909952202E-03 
808	 6.86038186920832E-03 
809	 6.85368732911425E-03 
810	 0.006805452192114 
811	 6.7177798283197E-03 
812	 6.62540710927678E-03 
813	 6.5843631437507E-03 
814	 6.67580977012462E-03 
815	 6.56108973890701E-03 
816	 6.2823116443256E-03 
817	 6.18891339049305E-03 
818	 6.20094948460563E-03 
819	 6.13764949342596E-03 
820	 5.91936824264492E-03 
821	 5.59360817424571E-03 
822	 5.53487072424198E-03 
823	 5.48261053468084E-03 
824	 5.21997491477704E-03 
825	 5.02440562816133E-03 
826	 4.96094643947309E-03 
827	 4.8284940577266E-03 
828	 4.43518875571163E-03 
829	 4.27381685824174E-03 
830	 4.26679949254643E-03 
831	 4.20781962655343E-03 
832	 3.90136830682024E-03 
833	 3.92599418193221E-03 
834	 3.9367115874385E-03 
835	 3.7955495982389E-03 
836	 3.7775459358748E-03 
837	 3.6947663630244E-03 
838	 3.65125424101237E-03 
839	 3.72852617273655E-03 
840	 3.80772046586341E-03 
841	 3.80228024187486E-03 
842	 3.73817251897514E-03 
843	 3.67506049882622E-03 
844	 3.56452950651692E-03 
845	 3.49938503688807E-03 
846	 3.5594804671421E-03 
847	 3.75175535710676E-03 
848	 3.60763658490597E-03 
849	 3.41890483655032E-03 
850	 3.38569025543404E-03 
851	 3.46154539958228E-03 
852	 3.62130089946271E-03 
853	 3.58883914278289E-03 
854	 3.35459287334575E-03 
855	 3.55387051729327E-03 
856	 3.57362177290729E-03 
857	 3.44865857985416E-03 
858	 3.36967324753312E-03 
859	 3.38189059031005E-03 
860	 3.46086027896227E-03 
861	 3.56650698316798E-03 
862	 3.62966936240116E-03 
863	 3.46506249454945E-03 
864	 3.26690283412319E-03 
865	 3.24777554761655E-03 
866	 3.5200759217419E-03 
867	 3.41085966224208E-03 
868	 3.3027853190767E-03 
869	 3.34317494933234E-03 
870	 3.19316649511999E-03 
871	 3.19701843754896E-03 
872	 3.37961093194142E-03 
873	 3.54277905531048E-03 
874	 3.13583616444863E-03 
875	 3.25830301246681E-03 
876	 3.39075922176825E-03 
877	 2.97538262876829E-03 
878	 3.26285069786351E-03 
879	 3.43965309825204E-03 
880	 3.30155539360215E-03 
881	 3.02225740033615E-03 
882	 2.94320892528845E-03 
883	 2.98671962279432E-03 
884	 3.05590023228074E-03 
885	 3.06921816264766E-03 
886	 3.02182651871836E-03 
887	 3.15123055980938E-03 
888	 3.33986304002118E-03 
889	 3.09954651221689E-03 
890	 2.93552136072365E-03 
891	 3.01493727513867E-03 
892	 3.22272460562117E-03 
893	 3.04428332109138E-03 
894	 3.01720316026453E-03 
895	 3.24940392412943E-03 
896	 3.50645945306573E-03 
897	 2.92836569202315E-03 
898	 3.29035160988594E-03 
899	 3.37198997484747E-03 
900	 2.14734489731853E-03 
901	 2.88883752708045E-03 
902	 3.37413731454759E-03 
903	 3.00632416669179E-03 
904	 2.17367382293729E-03 
905	 2.4533772441746E-03 
906	 2.91538413995861E-03 
907	 3.06781469089884E-03 
908	 2.91308872965321E-03 
909	 3.23786691394115E-03 
910	 3.02005740314608E-03 
911	 2.55326856221157E-03 
912	 3.19189746524606E-03 
913	 3.60625879881462E-03 
914	 3.15398383680818E-03 
915	 2.40140301561103E-03 
916	 2.86359516632209E-03 
917	 2.34761262120637E-03 
918	 2.10571705505428E-03 
919	 2.74684373736589E-03 
920	 3.35763737293872E-03 
921	 3.03808775448935E-03 
922	 2.65132486069265E-03 
923	 2.81136747474388E-03 
924	 2.84742461137132E-03 
925	 2.73643161770104E-03 
926	 3.05285561328685E-03 
927	 3.84418762242014E-03 
928	 2.41908559221913E-03 
929	 2.12284397563837E-03 
930	 2.19926207242626E-03 
931	 7.30471996765658E-04 
932	 4.26330809161757E-03 
933	 4.42187521888136E-03 
934	 1.48287784718189E-03 
935	 5.87943264594648E-04 
936	 2.45762022399869E-04 
937	 8.60633500434471E-04 
938	 2.72681392338623E-03 
939	 4.6981254194718E-03 
940	-3.92891103776052E-04 
941	 1.75785390972389E-04 
942	 3.38128960042536E-03 
943	 7.28376040809102E-04 
944	 3.90330705849324E-03 
945	 4.21823214116419E-03 
946	 1.25185064869587E-03 
947	 2.77970198817922E-04 
948	 2.44186101250985E-03 
949	 2.17157877003502E-03 
950	 7.53238462480581E-05 
951	 5.0563602543256E-04 
952	 3.43182877878867E-03 
953	 4.50767739772372E-03 
954	 3.49973700913976E-03 
955	 2.91624091682762E-03 
956	 6.98915683976427E-04 
957	-7.91689519406298E-04 
958	-2.54296739966057E-04 
959	 1.93926061290104E-03 
960	 2.62254136037199E-03 
961	 1.57877577132392E-03 
962	 6.07630643367879E-06 
963	-2.51969866081347E-04 
964	 1.98291140073235E-03 
965	 3.69672452649075E-03 
966	 3.6508513617231E-03 
967	 0.002535834694422 
968	 2.28539980232417E-03 
969	 2.59970103758845E-03 
970	 2.94284196899423E-03 
971	 2.87247632595092E-03 
972	 2.59262457771231E-03 
973	 2.0723993370887E-03 
974	 2.1837453275424E-03 
975	 3.93522666473652E-03 
976	 2.18016000241259E-03 
977	 1.72844487911933E-03 
978	 2.72934574316907E-03 
979	 1.16202389767714E-03 
980	 2.15910114047787E-03 
981	 3.02831845289534E-03 
982	 2.72724143564088E-03 
983	 2.33210972935904E-03 
984	 2.72775920700052E-03 
985	 2.60104606140524E-03 
986	 2.02180442067386E-03 
987	 2.14091184893274E-03 
988	 2.21052725197387E-03 
989	 2.01504442854384E-03 
990	 2.47504910202997E-03 
991	 4.35720518481081E-03 
992	 2.07124964238103E-03 
993	 8.86923273228833E-04 
994	 2.3377842719272E-03 
995	 4.06940595180964E-03 
996	 2.5239024159976E-03 
997	 2.06192295473937E-03 
998	 3.00972071810357E-03 
999	 3.05839242740006E-03 
1000	 2.95403207596571E-03 
1001	 2.20106674845009E-03 
1002	 2.70369546202972E-03 
1003	 2.77319100818686E-03 
1004	 2.39058813801465E-03 
1005	 0.002383124578548 
1006	 2.53278829735466E-03 
1007	 2.53637857302437E-03 
1008	 2.52401782097924E-03 
1009	 2.41131043794429E-03 
1010	 2.13891097331038E-03 
1011	 1.77978175803689E-03 
1012	 1.87654680794987E-03 
1013	 2.08646474597832E-03 
1014	 2.12192995836981E-03 
1015	 2.2007977096831E-03 
1016	 2.2803793686672E-03 
1017	 2.14845071703596E-03 
1018	 2.18617864140525E-03 
1019	 2.50940426900367E-03 
1020	 2.56703482862981E-03 
1021	 2.42438442732494E-03 
1022	 2.41519150318625E-03 
1023	 2.68796789341421E-03 
1024	 2.72637898111413E-03 
1025	 3.13827373132566E-03 
1026	 3.71178403927986E-03 
1027	 3.84048746014627E-03 
1028	 3.77251772177042E-03 
1029	 3.61561637185079E-03 
1030	 3.06988948402146E-03 
1031	 2.90656635661703E-03 
1032	 2.83560789581029E-03 
1033	 2.73112397533779E-03 
1034	 2.7831540553111E-03 
1035	 2.73731888976602E-03 
1036	 2.56024987115518E-03 
1037	 2.47544402981351E-03 
1038	 2.41781357596952E-03 
1039	 2.43490803720862E-03 
1040	 2.4138184586626E-03 
1041	 2.52835698742912E-03 
1042	 2.59295666948888E-03 
1043	 2.70369563364042E-03 
1044	 2.75858063299422E-03 
1045	 2.8195183053634E-03 
1046	 2.80775180799696E-03 
1047	 2.78149150064032E-03 
1048	 0.002702117168309 
1049	 2.40778295015972E-03 
1050	 2.37580102336593E-03 
1051	 2.45713575381483E-03 
1052	 2.51113525896408E-03 
1053	 2.88170388317303E-03 
1054	 2.95362282688057E-03 
1055	 2.71377052239944E-03 
1056	 2.6261498380398E-03 
1057	 2.53457917271804E-03 
1058	 2.32161351143959E-03 
1059	 2.26388659297619E-03 
1060	 2.34731494963238E-03 
1061	 2.39197904552363E-03 
1062	 2.46559548965207E-03 
1063	 2.4929233905628E-03 
1064	 2.62250799227293E-03 
1065	 2.56857280354006E-03 
1066	 2.26755501241014E-03 
1067	 2.18721399132716E-03 
1068	 2.04431405504909E-03 
1069	 2.06679929620639E-03 
1070	 2.42154534247877E-03 
1071	 2.57380439106199E-03 
1072	 2.89654299778892E-03 
1073	 2.83248750525937E-03 
1074	 2.73816985894362E-03 
1075	 2.40398641427007E-03 
1076	 2.36743573559482E-03 
1077	 2.20657364326834E-03 
1078	 2.34212184066943E-03 
1079	 3.02181480430793E-03 
1080	 3.0115395925306E-03 
1081	 2.74732097151666E-03 
1082	 2.62754208983168E-03 
1083	 1.97303775325605E-03 
1084	 1.84122469498834E-03 
1085	 2.21398397233852E-03 
1086	 2.39219175803367E-03 
1087	 2.80421693277682E-03 
1088	 2.97496952932972E-03 
1089	 3.0653213717549E-03 
1090	 2.83100594027922E-03 
1091	 2.8649572789877E-03 
1092	 2.95018388226433E-03 
1093	 2.84773257808183E-03 
1094	 2.74278895694206E-03 
1095	 2.70862168445918E-03 
1096	 2.33527822065706E-03 
1097	 2.32978003268529E-03 
1098	 2.75494225547062E-03 
1099	 2.90922307764212E-03 
1100	 3.28313208960864E-03 
1101	 3.3461868561129E-03 
1102	 2.95477145872113E-03 
1103	 2.80710680447173E-03 
1104	 2.61719366794316E-03 
1105	 2.2673842749858E-03 
1106	 2.32495847477739E-03 
1107	 2.87316819345855E-03 
1108	 3.04581142944659E-03 
1109	 2.57230977731726E-03 
1110	 2.63519701875178E-03 
1111	 2.60021697656615E-03 
1112	 2.68502927174969E-03 
1113	 3.54911440128594E-03 
1114	 3.86611305946623E-03 
1115	 3.17391101219509E-03 
1116	 3.57951268288743E-03 
1117	 5.27906337544957E-03 
1118	 5.4899256747638E-03 
1119	 5.67131103645098E-03 
1120	 5.67860374867806E-03 
1121	 2.44905017918317E-03 
1122	 1.46159957221673E-03 
1123	 4.34058159754185E-03 
1124	 2.90713029951598E-03 
1125	 3.20353207012358E-03 
1126	 5.61021259982886E-03 
1127	 4.40714274549649E-03 
1128	 6.59754097395275E-03 
1129	 7.36088340758153E-03 
1130	 7.17276299681564E-03 
1131	 6.13922836595648E-03 
1132	 5.05864185911086E-03 
1133	 4.28809672090875E-03 
1134	 3.00372401959378E-03 
1135	 3.06741682046079E-03 
1136	 3.71242564321589E-03 
1137	 3.99789877299954E-03 
1138	 5.15318545777326E-03 
1139	 4.53752841751713E-03 
1140	 3.39305873723505E-03 
1141	 3.39838514742725E-03 
1142	 2.28165296942421E-03 
1143	 1.84979292026063E-03 
1144	 3.15933442561468E-03 
1145	 3.89400797191874E-03 
1146	 3.85798371724882E-03 
1147	 3.70912943420868E-03 
1148	 3.17905940291939E-03 
1149	 3.17482396371924E-03 
1150	 3.0823221105922E-03 
1151	 3.5654100204849E-03 
1152	 3.33365686518195E-03 
1153	 2.33641752173311E-03 
1154	 2.21402647495427E-03 
1155	 2.2282518530279E-03 
1156	 2.62786278809533E-03 
1157	 2.7668980069424E-03 
1158	 0.002687312261776 
1159	 2.30756387370268E-03 
1160	 2.19487510809998E-03 
1161	 2.4584696971961E-03 
1162	 2.65596190663184E-03 
1163	 2.71278413404635E-03 
1164	 2.51354183667592E-03 
1165	 2.33003477793231E-03 
1166	 2.47751551313495E-03 
1167	 2.44703658121031E-03 
1168	 2.20538015370947E-03 
1169	 2.10010340427656E-03 
1170	 2.05387670038769E-03 
1171	 2.09047210617135E-03 
1172	 2.38653836232126E-03 
1173	 2.46512645163553E-03 
1174	 2.53366037298313E-03 
1175	 2.50931618781073E-03 
1176	 2.33734075144638E-03 
1177	 2.2915719535615E-03 
1178	 2.32061862803883E-03 
1179	 2.25197965750887E-03 
1180	 2.21784373967684E-03 
1181	 2.34433291854238E-03 
1182	 2.43503347471995E-03 
1183	 2.22133616401123E-03 
1184	 2.22898007339997E-03 
1185	 2.47979508052712E-03 
1186	 2.33380681967857E-03 
1187	 2.35126487757857E-03 
1188	 2.5632142713466E-03 
1189	 2.33970006878557E-03 
1190	 2.09541299721167E-03 
1191	 2.22750638504536E-03 
1192	 2.28669022017767E-03 
1193	 2.2466030279782E-03 
1194	 2.04592810603942E-03 
1195	 2.20313221174313E-03 
1196	 2.42534076840975E-03 
1197	 2.35602141504245E-03 
1198	 2.35415792655019E-03 
1199	 2.47755361817569E-03 
1200	 2.39521902000865E-03 
1201	 2.21148314058257E-03 
1202	 2.37439411582896E-03 
1203	 2.45931199785358E-03 
1204	 2.20343360902072E-03 
1205	 2.17261241417726E-03 
1206	 2.20113387267301E-03 
1207	 2.21894571826559E-03 
1208	 2.29113127127861E-03 
1209	 2.18922279054953E-03 
1210	 2.12382846873478E-03 
1211	 2.05571787030844E-03 
1212	 2.0491749608534E-03 
1213	 2.24714076332224E-03 
1214	 2.26454183605098E-03 
1215	 2.15189637368379E-03 
1216	 2.02960670296688E-03 
1217	 2.10175349671926E-03 
1218	 1.97871834906926E-03 
1219	 1.89691132014976E-03 
1220	 2.07727621228986E-03 
1221	 2.1943936314216E-03 
1222	 0.0022739259075 
1223	 2.3893009436239E-03 
1224	 2.20732656158302E-03 
1225	 1.94301149636647E-03 
1226	 2.10116932417691E-03 
1227	 2.28246050521624E-03 
1228	 2.27989777254687E-03 
1229	 2.44991690847386E-03 
1230	 2.41460314164648E-03 
1231	 2.10591211904925E-03 
1232	 2.09228614711173E-03 
1233	 2.31733648313083E-03 
1234	 2.27091357579682E-03 
1235	 2.17723654454417E-03 
1236	 2.18504416021777E-03 
1237	 2.27529734947287E-03 
1238	 2.29764537152611E-03 
1239	 2.06765201759416E-03 
1240	 2.07569171702124E-03 
1241	 2.0924250871812E-03 
1242	 2.01161114727918E-03 
1243	 1.98567399610114E-03 
1244	 2.16590323692805E-03 
1245	 2.29637575073466E-03 
1246	 2.18817002261434E-03 
1247	 2.21141633495417E-03 
1248	 2.2715683318655E-03 
1249	 2.1014136917784E-03 
1250	 2.00484600574292E-03 
1251	 2.19022004604254E-03 
1252	 2.23473451299978E-03 
1253	 2.12522105722767E-03 
1254	 2.07687982919746E-03 
1255	 1.95826188827634E-03 
1256	 1.8952209086736E-03 
1257	 1.96986782740986E-03 
1258	 2.01673312018994E-03 
1259	 2.05085444734344E-03 
1260	 2.03264772084175E-03 
1261	 2.0553367312567E-03 
1262	 2.09650108308338E-03 
1263	 0.002153095465905 
1264	 1.96675601211662E-03 
1265	 2.03865382280047E-03 
1266	 2.17773619107483E-03 
1267	 2.02470117071658E-03 
1268	 1.97494189447121E-03 
1269	 2.10065264315497E-03 
1270	 2.12800605919373E-03 
1271	 2.32407324410449E-03 
1272	 2.64313105752112E-03 
1273	 2.49003793630812E-03 
1274	 2.17058497651344E-03 
1275	 2.24542564970966E-03 
1276	 2.38352000176014E-03 
1277	 2.24081285708506E-03 
1278	 2.05807777658743E-03 
1279	 2.16428734259629E-03 
1280	 2.28298038480269E-03 
1281	 2.2140146151115E-03 
1282	 2.40346237126117E-03 
1283	 2.46605993618471E-03 
1284	 2.04788140018538E-03 
1285	 1.89315659160375E-03 
1286	 2.04574509294391E-03 
1287	 2.07730005712063E-03 
1288	 2.02330250119776E-03 
1289	 2.03998549583779E-03 
1290	 2.12454835964943E-03 
1291	 2.21916504579109E-03 
1292	 2.22363826857695E-03 
1293	 2.14436645586414E-03 
1294	 2.21729852147132E-03 
1295	 2.26300828636717E-03 
1296	 2.17761228842469E-03 
1297	 2.10397960865656E-03 
1298	 1.82561078091702E-03 
1299	 1.51364572305371E-03 
1300	 1.83625676660398E-03 
1301	 2.22483284324517E-03 
1302	 2.37172892229775E-03 
1303	 2.71829920581809E-03 
1304	 2.63964280341594E-03 
1305	 2.37848539261357E-03 
1306	 2.32997352601173E-03 
1307	 2.41316404985269E-03 
1308	 2.3751664708605E-03 
1309	 2.34070928693943E-03 
1310	 2.36106494129525E-03 
1311	 2.37434526384506E-03 
1312	 2.41709722899267E-03 
1313	 2.56430602971466E-03 
1314	 2.66858572189569E-03 
1315	 2.7429491274317E-03 
1316	 2.69406952173677E-03 
1317	 2.64973531555356E-03 
1318	 2.56690028881737E-03 
1319	 2.22193524652543E-03 
1320	 2.08521339327528E-03 
1321	 2.10571555316968E-03 
1322	 2.08365867752571E-03 
1323	 1.96139770442678E-03 
1324	 2.01781555778682E-03 
1325	 0.002247153709796 
1326	 2.17751148878508E-03 
1327	 2.14926323535957E-03 
1328	 2.36337028392679E-03 
1329	 2.36488200157783E-03 
1330	 2.08696152335898E-03 
1331	 1.96417899933994E-03 
1332	 2.34630672340753E-03 
1333	 2.66442935547469E-03 
1334	 2.27611424658188E-03 
1335	 2.23691433934336E-03 
1336	 2.01838246832572E-03 
1337	 2.07468276917002E-03 
1338	 2.52209390383526E-03 
1339	 2.64746530042113E-03 
1340	 2.58334223398134E-03 
1341	 2.59706434501141E-03 
1342	 2.67690968939861E-03 
1343	 2.51958326885115E-03 
1344	 1.75394645370252E-03 
1345	 1.79613954963415E-03 
1346	 2.8592902874563E-03 
1347	 2.63876944957787E-03 
1348	 1.26050562553311E-03 
1349	 2.11996949626089E-03 
1350	 2.82816176411638E-03 
1351	 4.14882393671902E-03 
1352	 2.03288984077871E-02 
1353	 3.09845066387479E-02 
1354	 2.56015385479942E-02 
1355	 1.15630027630168E-02 
1356	-7.44134614645552E-03 
1357	-4.09435998795542E-02 
1358	-1.11323752684824E-02 
1359	-2.89417671483878E-04 
1360	-4.85960368724324E-02 
1361	 1.24873535736788E-04 
1362	 7.51273999114769E-02 
1363	 0.131852024700335 
1364	 0.177471196329359 
1365	 0.134228019094927 
1366	 0.173156669482379 
1367	 0.343389202592307 
1368	 0.319891525665759 
1369	 0.324061264965649 
1370	 0.368237561516211 
1371	 0.170876950476987 
1372	 9.24423009858129E-02 
1373	 0.313798915017591 
1374	 0.332515887394404 
1375	-3.64573171785813E-02 
1376	-5.19582279498773E-02 
1377	 0.194723752177758 
1378	 0.229093929771697 
1379	 0.301022920582708 
1380	 0.313694656380267 
1381	 0.201811478573068 
1382	 0.165485536762216 
1383	 0.144312482007805 
1384	 0.195310728556056 
1385	 0.412640134466336 
1386	 0.477870672517119 
1387	 0.44601183868015 
1388	 0.496921823799898 
1389	 0.57712007374308 
1390	 0.445723160401866 
1391	 0.188077017293693 
1392	 0.158978240584073 
1393	 0.46386589617046 
1394	 0.343297250539889 
1395	-7.52263253230004E-02 
1396	 0.205538645955315 
1397	 0.603143283732158 
1398	 0.682552885569455 
1399	 0.56428476712838 
1400	 0.598158171275771 
1401	 0.675503389185814 
1402	 0.450698225256101 
1403	 0.288260797283885 
1404	 0.343722871767961 
1405	 0.38444733323066 
1406	 0.219515285343853 
1407	 0.124530445796377 
1408	 0.206994390144211 
1409	 0.186340072126262 
1410	 7.03341587909391E-02 
1411	 1.12169370611995E-02 
1412	-2.83793906171741E-02 
1413	-3.56141122374538E-03 
1414	 2.32371421753696E-02 
1415	 1.80293616046401E-02 
1416	 5.15971237230881E-02 
1417	 7.01739113609993E-02 
1418	 6.17758395223891E-02 
1419	 4.23542930149693E-02 
1420	 2.72681261805517E-02 
1421	 2.79536125323923E-02 
1422	 2.15125916850316E-02 
1423	 1.35811918926542E-02 
1424	 1.88154300496192E-02 
1425	 1.95931479823701E-02 
1426	 8.69565289630336E-03 
1427	 4.70500320880184E-03 
1428	 8.27546884334092E-03 
1429	 9.68160104465466E-03 
1430	 8.07127278649033E-03 
1431	 7.70370526633649E-03 
1432	 1.08066525288003E-02 
1433	 1.13663262127719E-02 
1434	 1.01133381418938E-02 
1435	 8.33280864042373E-03 
1436	 2.70284604304611E-03 
1437	 3.21036035305619E-03 
1438	 5.76133728184895E-03 
1439	 3.54258812031719E-03 
1440	 1.57731907421388E-03 
1441	 3.03743558940019E-03 
1442	 2.98866783397319E-04 
1443	-2.55675625848067E-04 
1444	 4.48081323496898E-03 
1445	 4.03634137709203E-03 
1446	 2.30390461627871E-03 
1447	 3.45682083187649E-03 
1448	 4.07567407062755E-03 
1449	 3.10694868606493E-03 
1450	 3.28683432890054E-03 
1451	 5.29748254947615E-03 
1452	 3.57910642041315E-03 
1453	 1.7670187920897E-03 
1454	 2.28560813278929E-03 
1455	 3.54774412840377E-03 
1456	 2.7448081634944E-03 
1457	 2.29841806072033E-03 
1458	 2.70323111420206E-03 
1459	 2.05447931741532E-03 
1460	 1.54404570257642E-03 
1461	 2.52787703570019E-03 
1462	 2.74085740858298E-03 
1463	 9.86884761310775E-04 
1464	 1.08424945292688E-03 
1465	 3.76984463864951E-03 
1466	 4.02621110708736E-03 
1467	 2.18627157038818E-03 
1468	 2.40232667589053E-03 
1469	 3.83282303996148E-03 
1470	 3.35443563882499E-03 
1471	 2.66864067850524E-03 
1472	 2.76987194411627E-03 
1473	 1.16595502152047E-03 
1474	 1.04638767683957E-03 
1475	 3.33493705659958E-03 
1476	 3.79213168944579E-03 
1477	 3.13913663044905E-03 
1478	 3.23858899404648E-03 
1479	 3.69248635151629E-03 
1480	 3.3629254775697E-03 
1481	 2.62274312294164E-03 
1482	 2.37123352321353E-03 
1483	 1.84396298744132E-03 
1484	 1.84165024942466E-03 
1485	 2.74605259032376E-03 
1486	 2.70611807778371E-03 
1487	 2.09315884433956E-03 
1488	 1.82937415432149E-03 
1489	 1.36007194699251E-03 
1490	 1.27801767707075E-03 
1491	 1.55504783277372E-03 
1492	 1.71527589461905E-03 
1493	 1.89888601994729E-03 
1494	 1.99382850662905E-03 
1495	 2.25122192351739E-03 
1496	 2.14969776380204E-03 
1497	 1.59290369006788E-03 
1498	 1.57668892862723E-03 
1499	 1.82623154575143E-03 
1500	 1.71903126697131E-03 
1501	 1.54266648637526E-03 
1502	 1.66720354083315E-03 
1503	 1.78159846813835E-03 
1504	 1.71859095819295E-03 
1505	 1.83586465939959E-03 
1506	 1.9153727196334E-03 
1507	 1.78867664877465E-03 
1508	 1.9737428388794E-03 
1509	 1.87194313659707E-03 
1510	 1.66571858692057E-03 
1511	 1.78551653022334E-03 
1512	 1.5605426784947E-03 
1513	 1.35474817492097E-03 
1514	 1.58236717239913E-03 
1515	 1.68645869598346E-03 
1516	 1.70660697996862E-03 
1517	 1.81388839150082E-03 
1518	 1.86584042939774E-03 
1519	 1.84427615295071E-03 
1520	 1.68400553145662E-03 
1521	 1.52660794081228E-03 
1522	 1.64442549265133E-03 
1523	 1.71101327512504E-03 
1524	 1.59162399765013E-03 
1525	 1.71927873376281E-03 
1526	 1.83301653504741E-03 
1527	 1.6915486723984E-03 
1528	 1.64565489367832E-03 
1529	 1.62459782398781E-03 
1530	 1.52301545178605E-03 
1531	 1.58036521910041E-03 
1532	 1.68034868128331E-03 
1533	 1.58268880897424E-03 
1534	 1.56525344017314E-03 
1535	 1.62001254805605E-03 
1536	 1.54549486152521E-03 
1537	 1.54593385933298E-03 
1538	 1.59877881962874E-03 
1539	 1.72884691493881E-03 
1540	 1.75980488215523E-03 
1541	 1.63769055034457E-03 
1542	 1.64113312084027E-03 
1543	 1.6115413779945E-03 
1544	 1.64384817451352E-03 
1545	 1.62327028569007E-03 
1546	 1.53912320327343E-03 
1547	 1.62407536737154E-03 
1548	 1.63215016940667E-03 
1549	 1.73817249646942E-03 
1550	 1.83464957506556E-03 
1551	 1.63865237440448E-03 
1552	 1.52199582897477E-03 
1553	 1.49606813093827E-03 
1554	 1.45782570174737E-03 
1555	 1.59466345906751E-03 
1556	 1.71882064248218E-03 
1557	 1.70134982514195E-03 
1558	 1.7018110867582E-03 
1559	 1.70191851849825E-03 
1560	 1.53867695436856E-03 
1561	 1.33682314492583E-03 
1562	 1.38491386972674E-03 
1563	 1.53071670329955E-03 
1564	 1.60576977302638E-03 
1565	 1.50352639893742E-03 
1566	 1.37128532560499E-03 
1567	 1.46234801449149E-03 
1568	 1.40191388344899E-03 
1569	 1.18373249978254E-03 
1570	 1.3340951315523E-03 
1571	 1.60147922922573E-03 
1572	 1.53566623043081E-03 
1573	 1.40701498937012E-03 
1574	 1.38015717374338E-03 
1575	 1.35737436505717E-03 
1576	 1.17744637456435E-03 
1577	 1.17110734027581E-03 
1578	 1.59654186049012E-03 
1579	 1.71338996841582E-03 
1580	 1.62366070554208E-03 
1581	 1.77847963886408E-03 
1582	 1.80100648190822E-03 
1583	 1.59267760695874E-03 
1584	 1.41485737674068E-03 
1585	 1.49228286389585E-03 
1586	 1.73566550662719E-03 
1587	 1.82059326251417E-03 
1588	 1.73321078772702E-03 
1589	 1.69796993060167E-03 
1590	 1.71584188372203E-03 
1591	 1.70535354458736E-03 
1592	 1.7315524236733E-03 
1593	 1.71118596682284E-03 
1594	 1.48659801987162E-03 
1595	 1.29911718218745E-03 
1596	 1.40458280245854E-03 
1597	 1.56533777149102E-03 
1598	 1.57679547675665E-03 
1599	 1.65821749097792E-03 
1600	 1.9049105503719E-03 
1601	 1.88865622210459E-03 
1602	 1.59072401227537E-03 
1603	 1.53826901817213E-03 
1604	 1.58302262074252E-03 
1605	 1.56888944267882E-03 
1606	 1.65384776244055E-03 
1607	 1.69970656561203E-03 
1608	 1.6338957237233E-03 
1609	 1.49430452789371E-03 
1610	 1.43437360132906E-03 
1611	 1.40667381679552E-03 
1612	 1.33965480074332E-03 
1613	 1.46757753499782E-03 
1614	 1.69699495579623E-03 
1615	 1.7418572068296E-03 
1616	 1.66025487258821E-03 
1617	 1.64936831727119E-03 
1618	 1.72842652351485E-03 
1619	 1.80325820383572E-03 
1620	 1.74277520451714E-03 
1621	 1.48197500150493E-03 
1622	 1.48685749922982E-03 
1623	 1.85264816884667E-03 
1624	 1.87058698872969E-03 
1625	 1.53688913064151E-03 
1626	 1.39877999009671E-03 
1627	 1.38471349652314E-03 
1628	 1.31296403551362E-03 
1629	 1.61894946964265E-03 
1630	 1.84239203661229E-03 
1631	 1.43293544831479E-03 
1632	 1.41011161642843E-03 
1633	 1.72136310611279E-03 
1634	 1.57789724014685E-03 
1635	 1.60416045150994E-03 
1636	 1.86125002929552E-03 
1637	 1.68042036974956E-03 
1638	 1.67243164598241E-03 
1639	 1.95736310916626E-03 
1640	 1.70580893502572E-03 
1641	 1.34467824571641E-03 
1642	 1.39605751515465E-03 
1643	 1.56062705528736E-03 
1644	 1.6108112190675E-03 
1645	 1.63348265309917E-03 
1646	 1.74798754496839E-03 
1647	 1.81102790571273E-03 
1648	 1.76851280979573E-03 
1649	 1.77588673342094E-03 
1650	 1.73672068202618E-03 
1651	 1.64252129344799E-03 
1652	 1.7366749559803E-03 
1653	 2.03529905861089E-03 
1654	 2.08248587241415E-03 
1655	 1.73371601636906E-03 
1656	 1.61877390466265E-03 
1657	 1.5996018107576E-03 
1658	 1.61326299745734E-03 
1659	 1.74534067935102E-03 
1660	 1.80636993713824E-03 
1661	 1.91202448498853E-03 
1662	 1.84854421498186E-03 
1663	 1.63296448288506E-03 
1664	 1.64313334514382E-03 
1665	 0.001620299238787 
1666	 1.66345656434599E-03 
1667	 2.01110454375591E-03 
1668	 1.77373140403328E-03 
1669	 1.64661490767599E-03 
1670	 1.58930101568756E-03 
1671	 1.56698115417473E-03 
1672	 1.47326109526088E-03 
1673	 1.19488802797015E-03 
1674	 1.20530533850077E-03 
1675	 1.44626740779942E-03 
1676	 1.55695478158309E-03 
1677	 1.80284559010757E-03 
1678	 1.92687077548436E-03 
1679	 1.70623312956685E-03 
1680	 1.74702669299846E-03 
1681	 1.77621627220449E-03 
1682	 1.34360372492242E-03 
1683	 1.12686655358519E-03 
1684	 1.29733661734721E-03 
1685	 0.001502211997959 
1686	 1.58565533846375E-03 
1687	 1.38378241920544E-03 
1688	 1.3814136421936E-03 
1689	 1.79347191989956E-03 
1690	 1.80178598803571E-03 
1691	 1.73570050517688E-03 
1692	 2.16084474501127E-03 
1693	 1.9885269329468E-03 
1694	 1.50899117034449E-03 
1695	 1.79519749345459E-03 
1696	 1.81630519598831E-03 
1697	 1.3073643935078E-03 
1698	 1.5160670347497E-03 
1699	 2.02497785200784E-03 
1700	 2.08649833373647E-03 
1701	 1.8567099984461E-03 
1702	 1.66040465514974E-03 
1703	 1.75068629079918E-03 
1704	 1.53325748794159E-03 
1705	 1.42894729874167E-03 
1706	 2.08683575044851E-03 
1707	 2.30950884739118E-03 
1708	 1.82892202261843E-03 
1709	 1.74929801776269E-03 
1710	 1.84175317011461E-03 
1711	 1.70553178733847E-03 
1712	 1.90485662420354E-03 
1713	 2.20390929452088E-03 
1714	 2.10842786598511E-03 
1715	 1.51673493602368E-03 
1716	 1.72719917168894E-03 
1717	 1.86150746631274E-03 
1718	 1.81805842377081E-03 
1719	 1.88710721242895E-03 
1720	 1.90167305849141E-03 
1721	 1.56995256434198E-03 
1722	 1.14149863632892E-03 
1723	 1.14818703859355E-03 
1724	 1.5456349319511E-03 
1725	 1.64135675691422E-03 
1726	 1.39083203321646E-03 
1727	 1.55264977545506E-03 
1728	 1.57356855471936E-03 
1729	 1.44762529507735E-03 
1730	 1.95351248414992E-03 
1731	 2.17851596087677E-03 
1732	 1.7367051993177E-03 
1733	 1.48784793763603E-03 
1734	 1.85455226601874E-03 
1735	 2.2798264706496E-03 
1736	 2.39596090883459E-03 
1737	 2.68188509745292E-03 
1738	 2.2792926370487E-03 
1739	 1.38815768750245E-03 
1740	 1.73119664037858E-03 
1741	 2.27236927170463E-03 
1742	 2.33816805203144E-03 
1743	 2.63697120995402E-03 
1744	 2.41803005566028E-03 
1745	 1.7520143248302E-03 
1746	 2.23522133710175E-03 
1747	 2.27673985130249E-03 
1748	 2.10379696980131E-03 
1749	 2.1227804751434E-03 
1750	 1.87771867874581E-03 
1751	 1.7508368612711E-03 
1752	 1.79294321760068E-03 
1753	 1.95336691505272E-03 
1754	 2.54750162955421E-03 
1755	 2.59385658525259E-03 
1756	 2.33076004388478E-03 
1757	 1.97993397506519E-03 
1758	 1.40169934428664E-03 
1759	 1.66321627218881E-03 
1760	 2.27997958302803E-03 
1761	 2.21985414337621E-03 
1762	 2.19693355600806E-03 
1763	 1.81612441019217E-03 
1764	 1.43099665276569E-03 
1765	 1.74175803044192E-03 
1766	 1.88671022895822E-03 
1767	 2.01123178197146E-03 
1768	 2.23490670747412E-03 
1769	 1.81401767912185E-03 
1770	 1.79296966055859E-03 
1771	 1.77549496641066E-03 
1772	 9.27550959404055E-04 
1773	 1.22331206418556E-03 
1774	 1.96778080939753E-03 
1775	 2.94164525447425E-03 
1776	 0.003225214113844 
1777	 2.27602211131761E-03 
1778	 1.98963726653374E-03 
1779	 1.37742164160149E-03 
1780	 1.47497811953086E-03 
1781	 3.28498103181523E-03 
1782	 3.24150168452329E-03 
1783	 2.14243872976148E-03 
1784	 2.04199577000759E-03 
1785	 9.97471955678457E-04 
1786	 7.36841628576437E-04 
1787	 0.002035582662442 
1788	 1.60385900285687E-03 
1789	 1.29867768870644E-04 
1790	 1.86908712640126E-03 
1791	 1.39725575724758E-03 
1792	 1.64645089598968E-03 
1793	 2.01024713298452E-03 
1794	 9.25052927737683E-04 
1795	 1.32219600270198E-03 
1796	 4.79151300916311E-03 
1797	 5.43479104920405E-03 
1798	 2.2666928941306E-03 
1799	 4.21602985838478E-03 
1800	-5.65098842313494E-04 
1801	-3.71937013640382E-04 
1802	 8.50587474889436E-03 
1803	 9.82031229638779E-03 
1804	 1.15760549187804E-02 
1805	 1.69062794430401E-02 
1806	 1.45534750579331E-02 
1807	 1.09626701374197E-02 
1808	 0.011268645085482 
1809	 1.00121260916393E-02 
1810	-1.83126881920539E-02 
1811	-5.71684437364342E-03 
1812	 7.66489344611246E-02 
1813	 0.118347589089805 
1814	 0.219229340907961 
1815	 0.2053374014808 
1816	-3.58250212071251E-02 
1817	-1.58967229998816E-02 
1818	-0.12247154766745 
1819	 0.133810474308402 
1820	 0.353099404843884 
1821	 0.429196114670628 
1822	 0.555884342087411 
1823	-0.021166758468113 
1824	-0.162376745032741 
1825	 2.28055660528142E-02 
1826	 3.82804412615986E-02 
1827	 0.081403385900797 
1828	 0.047336091045369 
1829	-0.220553177847956 
1830	-0.256847560662114 
1831	-0.783337098371885 
1832	-0.486016521340912 
1833	-9.01126216081371E-02 
1834	-5.82655969432604E-02 
1835	-8.87023472266166E-02 
1836	 3.68566229765309E-02 
1837	 5.01817274474074E-02 
1838	-6.56741123983841E-02 
1839	 8.70148305543358E-02 
1840	 1.92937093892678E-02 
1841	 2.44574014089555E-02 
1842	-9.84081537579171E-02 
1843	-7.33598820678947E-02 
1844	-4.74029957289954 
1845	-2.29713642288715 
1846	-0.214529898158072 
1847	-0.36215684823693 
1848	-0.232126138051971 
1849	-1.28317278856595 
1850	-0.584433413812453 
1851	 0.936448830569624 
1852	 1.10959998810548 
1853	 1.07690576294541 
1854	 0.773748279033819 
1855	-0.321924462484916 
1856	-0.773578723537925 
1857	-3.50824746552047 
1858	 6.49791271390967 
1859	 0.717862450800365 
1860	 0.521342560134555 
1861	 1.64195957798357 
1862	 1.98705906540683 
1863	 2.86006830777026 
1864	 2.80412078223066 
1865	 8.34947573494378 
1866	-2.9500536186273 
1867	-1.54632702908932 
1868	-0.448612708351325 
1869	-0.260522068907455 
1870	 0.171572010925139 
1871	 0.525802319547763 
1872	-2.58681817727141 
1873	 21.8191260394782 
1874	-8.23929309055712 
1875	-3.04182202579553 
1876	-2.78858673747051 
1877	-2.01716825090515 
1878	-0.941180511386905 
1879	 0.748255692258752 
1880	 1.99656843821197 
1881	 2.2834368793607 
1882	 4.51185693266428 
1883	-3.99594723752245 
1884	 2.84967241656645 
1885	-1.0681023592474 
1886	 7.81559482787707 
1887	-3.65299401805698 
1888	-1.6503278447269 
1889	-1.69136171780081 
1890	-1.72702927419962 
1891	-1.35468474635977 
1892	-1.6023903427382 
1893	-1.79941973957395 
1894	-1.00666523897605 
1895	-5.96113491156794E-02 
1896	 0.322806920454775 
1897	 0.226995195954306 
1898	 0.515845292522042 
1899	 1.77471224807692 
1900	 2.30739476858169 
1901	-0.44630097220056 
1902	-1.48609357974357 
1903	 1.88425558187394 
1904	 0.260494332287508 
1905	 0.514645518257857 
1906	 39.3335605632245 
1907	-1.20890733140622 
1908	 10.569959048456 
1909	 2.42035662404365 
1910	 3.3168416310891 
1911	 8.59540235699499 
1912	 6.88256068871651 
1913	 2.91180705829297 
1914	 0.49257363849808 
1915	-7.28415102153369E-02 
1916	-0.426879252589476 
1917	 0.100533256539628 
1918	 0.225855114956375 
1919	-0.137704184756004 
1920	 1.80086271353682 
1921	 0.875446691144162 
1922	 0.959618801388936 
1923	-2.76375470546084 
1924	-1.67291264882979 
1925	 2.52962025902789 
1926	 3.0861702273965 
1927	 2.87072664060312 
1928	 1.94737761857306 
1929	 0.727717706943345 
1930	 0.123004913640301 
1931	-5.42186269420895E-02 
1932	-0.065559974333268 
1933	 7.12186361065938E-02 
1934	 0.134102253621272 
1935	 4.10702504602983E-02 
1936	-3.73379674696588E-02 
1937	-2.96970023239143E-02 
1938	 0.022454974648739 
1939	 2.06356332673715E-02 
1940	 2.05707334980698E-02 
1941	 7.92447428827984E-03 
1942	 1.08861525316828E-02 
1943	-9.19606445221922E-03 
1944	-2.52289082391647E-02 
1945	 6.6563146273651E-03 
1946	 7.62778535175493E-03 
1947	-5.91702262571504E-03 
1948	-1.59379083736037E-03 
1949	-0.013741036387493 
1950	-2.25041466642678E-02 
1951	-1.82615004883427E-02 
1952	-1.58159755109183E-02 
1953	-0.010708023376932 
1954	-8.39440444288425E-03 
1955	-4.33362542511941E-03 
1956	 3.22461667235953E-04 
1957	-3.8313060914805E-03 
1958	-1.26409328515521E-02 
1959	-1.18306077727582E-02 
1960	-1.19778885561535E-02 
1961	-1.46937874204175E-02 
1962	-9.45961898436162E-03 
1963	-7.70283339174316E-03 
1964	-9.50968901886172E-03 
1965	-6.53593850139166E-03 
1966	-4.74525349193602E-03 
1967	-3.1942392379653E-03 
1968	-2.63532607778447E-03 
1969	-6.06698637462966E-04 
1970	 5.93803529322199E-04 
1971	 6.35490712511302E-04 
1972	 3.9949225118723E-05 
1973	 3.12482841677697E-04 
1974	 7.61419519530503E-04 
1975	 5.37575054108074E-04 
1976	 1.14750960467895E-03 
1977	 1.61010982903733E-03 
1978	 1.28256977801038E-03 
1979	 6.67675517212237E-04 
1980	-8.50263121982556E-06 
1981	-7.34934258034793E-04 
1982	-1.66213256638723E-03 
1983	-2.44332045715641E-03 
1984	-2.07065317782059E-03 
1985	-1.01938166105061E-03 
1986	-6.80948196556993E-04 
1987	-1.82796635623967E-04 
1988	 6.81794674970572E-04 
1989	 6.64828095969776E-04 
1990	 2.8574033584958E-05 
1991	-7.37317451204235E-04 
1992	-7.21512499044315E-04 
1993	-1.855438913315E-05 
1994	-1.26098839482836E-04 
1995	 6.00381964909146E-05 
1996	 8.97662925185347E-04 
1997	 6.06355911156919E-04 
1998	-4.01990741614536E-04 
1999	 1.05355320800188E-03 
2000	 1.5187959711411E-03 
2001	-6.31976060410455E-04 
2002	-2.52701851584521E-03 
2003	-2.85932342088401E-03 
2004	-4.4110938690486E-03 
2005	-2.9302738437501E-03 
2006	-1.68096359018069E-04 
2007	-3.19563406679396E-03 
2008	-2.61412358993894E-03 
2009	-2.87712372064459E-04 
2010	 5.0617190909444E-03 
2011	 4.5198120326326E-03 
2012	 2.83991917133423E-03 
2013	 3.06599747383521E-03 
2014	 2.48146716710821E-04 
2015	-3.8408521566494E-03 
2016	-3.8652631916152E-03 
2017	-0.002875933798814 
2018	-3.23143306283106E-03 
2019	-0.002708036468569 
2020	-1.14242383835216E-03 
2021	-4.37622917076637E-04 
2022	 4.14314341605733E-05 
2023	 4.14864443815584E-04 
2024	 6.75973089876776E-04 
2025	 1.04482515234407E-03 
2026	 1.01910905688204E-03 
2027	 5.76423767524951E-04 
2028	 9.01200748663078E-04 
2029	 8.67175869758829E-05 
2030	-5.84847489723819E-04 
2031	-4.02594388216445E-04 
2032	 2.77017976380865E-05 
2033	 6.40358289504131E-04 
2034	 7.991640426018E-04 
2035	 6.17484180755369E-04 
2036	 3.69027292680577E-04 
2037	 7.06529464036432E-04 
2038	 1.03854193911158E-03 
2039	 9.06473314451019E-04 
2040	 3.74048188729438E-04 
2041	 2.75040796136992E-05 
2042	-6.68460028772807E-04 
2043	-8.90169091836652E-04 
2044	-6.24483298209528E-04 
2045	-7.34319038649447E-04 
2046	-5.86342064730003E-04 
2047	 9.95372782109752E-06 
2048	 5.17454785458378E-04 
2049	 5.40945515766353E-04 
2050	 2.27964744857958E-04 
2051	-4.59588410184713E-04 
2052	-2.48505416579793E-04 
2053	 6.9325364862633E-04 
2054	 9.46576483215173E-04 
2055	 5.11013183976523E-04 
2056	 2.6620552934373E-04 
2057	-7.12380167823252E-04 
2058	-1.02309253388503E-03 
2059	-9.36638845532912E-04 
2060	-7.59910445387023E-04 
2061	-3.26549516289808E-04 
2062	-4.74711014150614E-04 
2063	 1.3325744508312E-04 
2064	 9.8014042192058E-04 
2065	 1.34898194632124E-03 
2066	 1.75696577310169E-03 
2067	 1.32820270146273E-03 
2068	 1.11688832966527E-03 
2069	 1.71848899047458E-03 
2070	 1.75877237486052E-03 
2071	 1.28648824754118E-03 
2072	 1.21350610665674E-03 
2073	 1.30800784954401E-03 
2074	 1.22954604090274E-03 
2075	 1.09040797793872E-03 
2076	 1.20047102769785E-03 
2077	 1.31363399715175E-03 
2078	 1.02184819300637E-03 
2079	 9.95869413863275E-04 
2080	 1.33748763850091E-03 
2081	 1.8852426756046E-03 
2082	 1.69728456194929E-03 
2083	 1.91517483442132E-03 
2084	 1.59599605104584E-03 
2085	 9.1658893635725E-04 
2086	 4.16008614571237E-04 
2087	-5.9355482343081E-04 
2088	-6.98641515062773E-04 
2089	 4.10509617383019E-04 
2090	 1.19207115630953E-03 
2091	 1.34402852139683E-03 
2092	 1.65356591249469E-03 
2093	 1.67573195314114E-03 
2094	 1.47118316937868E-03 
2095	 1.29744593688443E-03 
2096	 1.27547884085592E-03 
2097	 1.02725883818362E-03 
2098	 7.75678362279198E-04 
2099	 6.78955311063774E-04 
2100	 2.31365636685575E-04 
2101	 1.72827153260439E-04 
2102	 3.72652035461728E-04 
2103	 4.79049910610184E-04 
2104	 1.15114866255018E-03 
2105	 1.46863474021085E-03 
2106	 1.14984192301472E-03 
2107	 1.43820462497028E-03 
2108	 1.48488205665919E-03 
2109	 1.12317168444326E-03 
2110	 8.91814794934893E-04 
2111	 4.84333019231374E-04 
2112	 2.04526121726358E-04 
2113	 1.79078728018399E-04 
2114	 8.65568723335733E-04 
2115	 8.27107322839364E-04 
2116	 2.88721908599774E-04 
2117	 1.9620898950668E-04 
2118	-2.48180553198427E-04 
2119	-4.17003877682926E-05 
2120	 7.84450614794587E-04 
2121	 1.74128662578125E-03 
2122	 2.09405392254201E-03 
2123	 2.4885743844971E-03 
2124	 2.60371924353544E-03 
2125	 2.68174720404638E-03 
2126	 3.02301205143987E-03 
2127	 3.00511059714734E-03 
2128	 2.46038205122582E-03 
2129	 1.10800530706589E-03 
2130	 9.29439321952637E-05 
2131	 2.45297134779771E-04 
2132	 3.63276635501271E-04 
2133	 8.66315052301687E-04 
2134	 1.35070918064976E-03 
2135	 2.25856050433753E-03 
2136	 2.03434415729968E-03 
2137	 1.00924691270687E-03 
2138	 1.14074961681343E-03 
2139	 1.2109841666808E-03 
2140	 1.45205654485329E-03 
2141	 2.65915698609451E-03 
2142	 3.07188546505894E-03 
2143	 3.13930888701405E-03 
2144	 2.96421375940606E-03 
2145	 1.46733293255451E-03 
2146	 1.90539901350027E-03 
2147	 2.82585851879793E-03 
2148	 2.19864851271897E-03 
2149	 2.73249193427254E-03 
2150	 2.5269374092308E-03 
2151	 2.01549255695195E-03 
2152	 2.67473362833468E-03 
2153	 2.3882825298459E-03 
2154	 1.68864452903013E-03 
2155	 6.7508766410573E-04 
2156	 2.46043898944844E-05 
2157	-2.39294084198629E-04 
2158	 5.58104200144958E-04 
2159	 8.12494674411638E-04 
2160	 7.8929664076798E-04 
2161	 5.92395333150767E-04 
2162	 6.0803966168671E-04 
2163	 8.83679554152699E-04 
2164	 9.42049451412045E-04 
2165	 9.69143365006104E-04 
2166	 1.14496236741463E-03 
2167	 1.07740574684646E-03 
2168	 8.50364982166053E-04 
2169	 1.03316682170332E-03 
2170	 1.38303584533729E-03 
2171	 1.77402947577776E-03 
2172	 2.0479663744025E-03 
2173	 2.28554476782975E-03 
2174	 1.88159247324682E-03 
2175	 6.90957143898721E-04 
2176	 2.70693510449929E-04 
2177	-2.28475543737246E-04 
2178	 1.44037328255292E-04 
2179	 3.73163579255688E-04 
2180	 3.89643005106202E-04 
2181	 1.09016516853853E-03 
2182	 3.62726935431603E-04 
2183	 2.07706224448501E-04 
2184	 5.76134423030367E-04 
2185	-3.93348697768903E-04 
2186	-4.32629973157163E-04 
2187	 6.48787761099555E-04 
2188	 1.00277202656661E-03 
2189	 8.48026079971661E-04 
2190	 9.57214740868413E-04 
2191	 1.14717457323427E-03 
2192	 1.12951540961171E-03 
2193	 1.5259809713286E-03 
2194	 1.33347519603315E-03 
2195	-8.5015946035234E-05 
2196	-3.52963962415495E-04 
2197	-3.96954236401155E-05 
2198	-5.25136475286422E-06 
2199	 8.26718978421131E-04 
2200	 8.97915638993338E-04 
2201	 6.1537592265488E-04 
2202	 3.64022039746885E-04 
2203	 7.66990172352905E-04 
2204	 1.29892218368593E-03 
2205	 6.59113561134575E-04 
2206	 6.18530722974863E-04 
2207	 5.69317978393069E-04 
2208	 1.50080911474566E-04 
2209	 1.90628908390784E-03 
2210	 3.28521650359483E-03 
2211	 3.57033943878009E-03 
2212	 4.90659857590037E-03 
2213	 4.10063169366162E-03 
2214	 2.13564719720165E-03 
2215	 2.17677486573542E-03 
2216	 1.48319108072489E-03 
2217	 5.20522264437114E-04 
2218	-5.23638890837637E-04 
2219	-3.31374062848209E-04 
2220	 1.67630698906838E-04 
2221	 1.33486578428927E-04 
2222	 1.22513351454587E-03 
2223	 9.94139949124507E-04 
2224	-1.51598904561783E-03 
2225	-1.74505870577505E-03 
2226	 1.13936666562522E-04 
2227	-5.49179346501049E-05 
2228	-6.08342664358335E-04 
2229	-1.42783717816137E-03 
2230	-4.65750651163199E-03 
2231	-5.40617572039621E-03 
2232	-4.44799082144371E-03 
2233	-3.62965541506749E-03 
2234	-1.76610228596262E-03 
2235	-1.31688514857129E-04 
2236	 1.09154395825555E-03 
2237	 1.29502769905558E-03 
2238	 2.37796310139876E-04 
2239	 5.1927153429744E-04 
2240	 7.48839947683681E-04 
2241	 6.6722884500686E-04 
2242	 9.85739496494748E-04 
2243	 1.00102618574524E-03 
2244	 2.30257281770233E-04 
2245	 6.28097413092688E-04 
2246	 1.63458131417448E-03 
2247	 2.38231158841966E-03 
2248	 4.07433171240073E-03 
2249	 2.77954175064571E-03 
2250	-6.04701326769372E-05 
2251	-1.62467811580173E-03 
2252	-2.23158575264185E-03 
2253	-1.27147515822636E-03 
2254	 8.3347157906497E-04 
2255	 1.65779355961377E-03 
2256	 3.71876874546309E-04 
2257	-2.92719074633034E-04 
2258	-1.7917057150123E-03 
2259	-2.35841770409887E-03 
2260	-1.87337512613406E-03 
2261	-9.70814624672273E-04 
2262	-5.60590667576942E-04 
2263	 2.31771154722488E-03 
2264	 2.15244560332478E-03 
2265	-1.17780206955869E-03 
2266	-1.26153499677684E-03 
2267	-7.77783508076335E-05 
2268	-4.77437962898012E-04 
2269	-3.54779149209313E-04 
2270	-7.97484026057101E-04 
2271	-4.04295230576952E-03 
2272	-4.85054040143298E-03 
2273	-2.47344867001302E-03 
2274	-2.30744369694827E-03 
2275	-3.19776294177748E-03 
2276	-3.70073933723137E-03 
2277	-5.35945602664756E-03 
2278	-5.5185619004372E-03 
2279	-3.89502897863853E-03 
2280	-3.30337255425611E-03 
2281	-2.47940562105712E-03 
2282	-3.41256362099052E-03 
2283	-2.45319176129161E-03 
2284	-3.4534934026846E-04 
2285	 4.32383379859161E-04 
2286	 2.42802476410705E-03 
2287	 1.82992365116869E-03 
2288	 7.20571804264481E-04 
2289	 3.94263934598013E-03 
2290	 4.84085517325882E-03 
2291	 3.85969143793489E-03 
2292	 5.20106822496465E-03 
2293	 3.14821302592641E-03 
2294	 3.56588713920543E-04 
2295	 1.76098080921388E-04 
2296	-3.18749553125851E-03 
2297	-5.23569924061753E-03 
2298	-5.80122509224483E-03 
2299	-5.76480079521246E-03 
2300	-2.61772873840026E-03 
2301	-3.45773921549726E-03 
2302	-4.4638230220224E-03 
2303	-2.83811375501245E-03 
2304	-3.83747995953862E-03 
2305	-6.45025498862976E-03 
2306	-7.81507938895932E-03 
2307	-8.59881400789041E-03 
2308	-8.77221873219007E-03 
2309	-3.76693483497595E-03 
2310	 1.60278909478975E-03 
2311	 4.76372272020545E-03 
2312	 4.07526429582601E-03 
2313	 1.0576456571776E-03 
2314	 3.2761833396744E-03 
2315	 7.60162421807144E-04 
2316	-1.29742849899348E-03 
2317	 8.82369940812651E-05 
2318	-4.71034365316206E-03 
2319	-3.64729271368907E-03 
2320	-2.65691121946792E-04 
2321	 7.5611706730432E-04 
2322	 3.81746067485962E-03 
2323	 5.06290564249298E-03 
2324	 6.21194951973184E-03 
2325	 1.1896536186086E-03 
2326	-7.68446110896303E-03 
2327	-1.10287190096814E-02 
2328	-1.39848820780445E-02 
2329	-1.71589346181131E-02 
2330	-1.28346145023106E-02 
2331	-7.52801659039629E-03 
2332	-0.012570781519389 
2333	-1.62872537151681E-02 
2334	-1.28671989119467E-02 
2335	-1.05248048174187E-02 
2336	-7.94030305564544E-03 
2337	-4.62681237672445E-03 
2338	-5.92277721651113E-03 
2339	-9.78549308541358E-03 
2340	-1.18057281436709E-02 
2341	-1.39652307217618E-02 
2342	-1.27633805037895E-02 
2343	-8.80465350432206E-03 
2344	-7.19582996244419E-03 
2345	-6.05062867159219E-03 
2346	-7.58939288266247E-03 
2347	-0.014660794807248 
2348	-2.07299838927587E-02 
2349	-1.72787336448899E-02 
2350	-9.28683349302159E-03 
2351	-1.97346492576441E-03 
2352	 1.84674530364684E-03 
2353	-2.92746321496717E-03 
2354	-7.69128603629419E-03 
2355	-7.45228525241811E-03 
2356	-7.43443539774769E-03 
2357	-9.92147167666795E-03 
2358	-1.26141323633513E-02 
2359	-1.71110260759601E-02 
2360	-1.31335693513101E-02 
2361	 4.26390908515124E-03 
2362	 1.32699306159546E-02 
2363	 1.19645660671948E-02 
2364	 3.66085272694362E-03 
2365	-9.87354293975886E-03 
2366	-1.44427959440172E-02 
2367	-2.15657565715665E-02 
2368	-2.99820309877327E-02 
2369	-2.36138376340872E-02 
2370	-1.79640063318516E-02 
2371	-1.65950674168619E-02 
2372	-7.7292197088129E-03 
2373	-8.97736448386575E-03 
2374	-1.52883141295528E-02 
2375	-1.38506690886718E-02 
2376	-1.79133237408213E-02 
2377	-1.49001119590868E-02 
2378	-1.75780856313699E-02 
2379	-2.55053690449184E-02 
2380	-2.52368863288442E-02 
2381	-3.38449933723538E-02 
2382	-2.41963321886723E-02 
2383	-1.20714154918953E-02 
2384	-8.51225337086689E-03 
2385	-1.00361778941452E-03 
2386	-9.92395751881543E-03 
2387	-6.28998893678579E-03 
2388	 1.81081030889484E-02 
2389	 3.83820943696439E-02 
2390	 2.56250954824331E-02 
2391	-7.89333880740001E-03 
2392	-3.08671653428359E-02 
2393	-3.11150650915868E-02 
2394	-1.37651847413738E-02 
2395	-4.06531704177086E-03 
2396	-1.41023507118094E-02 
2397	-2.90625183085619E-02 
2398	-3.09302984950374E-02 
2399	-2.35356956776032E-02 
2400	-1.48124735481496E-02 
2401	-6.26034326539019E-03 
2402	-1.16111211827315E-02 
2403	-2.99957873919383E-02 
2404	-2.73897316368656E-02 
2405	-2.92678550774987E-02 
2406	-6.34833028004229E-02 
2407	-4.16624314694317E-02 
2408	-4.69008099746765E-03 
2409	-1.42163474008116E-02 
2410	 1.74903583887983E-02 
2411	 2.36099713923614E-02 
2412	-1.78453779639272E-02 
2413	-1.87176619678534E-02 
2414	-1.66694247233308E-02 
2415	-0.058294666113725 
2416	-4.30099827192986E-02 
2417	-9.35830961684611E-03 
2418	-0.040182128906235 
2419	-8.51509024284731E-03 
2420	-2.99157491175266E-02 
2421	-0.101196839286739 
2422	-0.110017062607898 
2423	-8.66479004108072E-02 
2424	-6.19131602017814E-02 
2425	-7.92849047679941E-02 
2426	-6.35563248327804E-02 
2427	-0.066356393767028 
2428	-0.113063803003137 
2429	-0.14228617604628 
2430	-0.195317517446365 
2431	-0.219747861034001 
2432	-0.225623435511435 
2433	-0.190049683625289 
2434	-6.90893718105257E-02 
2435	-4.59625518145148E-02 
2436	-9.45349634988664E-02 
2437	-0.066654226232057 
2438	-3.50574307917967E-02 
2439	 3.05584475197836E-02 
2440	 0.101077785939733 
2441	 0.109468822357477 
2442	 6.74113958791921E-02 
2443	-1.16801076378116E-02 
2444	-5.67461849091672E-02 
2445	-0.127454088212318 
2446	-0.187899745349747 
2447	-0.148833323958424 
2448	-0.201477490885078 
2449	-0.302259420578246 
2450	-0.311390468283497 
2451	-0.16980934293756 
2452	-2.52029379787218E-02 
2453	-0.090585008161495 
2454	 4.94111569088186E-02 
2455	-0.110331759702986 
2456	-0.400511101458886 
2457	-0.337574397325948 
2458	-0.622832150280161 
2459	-0.637441696878939 
2460	-0.293723036611888 
2461	-0.232250033559973 
2462	-0.190056471893067 
2463	-0.183517693752522 
2464	-0.784227967030893 
2465	-0.83583558407309 
2466	-0.377944788479296 
2467	-6.11740481644168E-02 
2468	-0.112882122332245 
2469	-8.42974322861742E-02 
2470	-0.122465851563351 
2471	-0.361665951883383 
2472	-0.151250395710961 
2473	-0.156325014484207 
2474	-0.571411017671118 
2475	-0.474179288287317 
2476	 3.10846215222806E-02 
2477	-4.49822949020513E-03 
2478	 7.68647514362596E-02 
2479	-0.17930491191809 
2480	-0.685582634451303 
2481	-0.832670251466797 
2482	-0.868677488988716 
2483	-0.514692091201385 
2484	-28.9662988224633 
2485	 2.70959759667456 
2486	 0.4053719479942 
2487	 1.07906687097387 
2488	 1.75854928182389 
2489	-2.88616134044105 
2490	-0.668296033516071 
2491	-0.840630394422291 
2492	 2.49598963084202 
2493	-2.82956146020249 
2494	-0.988754052263061 
2495	 15.7908243307553 
2496	 0.218142581576974 
2497	 2.48700394377254 
2498	 1.1242375219289 
2499	 1.4254817394489 
2500	 0.167411728434885 
