Wavelength	rt0718west_far00003.asd
350	 1.78322570239923E-02 
351	 1.70941564149418E-02 
352	 1.74771891003313E-02 
353	 1.77958698526216E-02 
354	 1.74740278312746E-02 
355	 0.018024598489958 
356	 1.84680642752579E-02 
357	 1.85996731022882E-02 
358	 1.84610841000034E-02 
359	 0.017933096828739 
360	 1.83022684078521E-02 
361	 1.90763614825207E-02 
362	 1.87378072473405E-02 
363	 1.85943180170187E-02 
364	 1.83240796090454E-02 
365	 1.80091694243619E-02 
366	 0.018625497713141 
367	 1.93813262883758E-02 
368	 0.019597716640681 
369	 1.91427104435498E-02 
370	 1.95702077359922E-02 
371	 2.00268014726158E-02 
372	 1.99787183735419E-02 
373	 1.93649066997064E-02 
374	 2.01871497417846E-02 
375	 2.09752878951914E-02 
376	 2.08409569715134E-02 
377	 2.02227806089383E-02 
378	 2.06577253060678E-02 
379	 2.13760221445258E-02 
380	 2.14302766684845E-02 
381	 2.11605257034857E-02 
382	 2.13888105563875E-02 
383	 2.19720842074397E-02 
384	 2.23262437305776E-02 
385	 0.022602079248353 
386	 2.28979014772959E-02 
387	 2.30520712077729E-02 
388	 2.26732355504762E-02 
389	 2.29899649618942E-02 
390	 2.35366007315847E-02 
391	 0.023775073463917 
392	 2.38180529956556E-02 
393	 2.40134890401869E-02 
394	 2.45607180241445E-02 
395	 2.53383434174215E-02 
396	 2.50644277187338E-02 
397	 2.49143484921872E-02 
398	 2.51768366392221E-02 
399	 2.52785478145326E-02 
400	 2.55515933578667E-02 
401	 2.57399538564312E-02 
402	 2.57461066833242E-02 
403	 2.60139616654595E-02 
404	 2.61407400134242E-02 
405	 2.62613159620728E-02 
406	 0.026590343980337 
407	 2.65824447080986E-02 
408	 2.67808063759258E-02 
409	 2.71446133254513E-02 
410	 0.027054814699694 
411	 2.73045729352058E-02 
412	 2.76607051976195E-02 
413	 2.78521138861997E-02 
414	 2.79569335863736E-02 
415	 2.81219438650483E-02 
416	 2.84234707264896E-02 
417	 2.88332964151913E-02 
418	 2.89496727399226E-02 
419	 2.90816852848075E-02 
420	 2.93478115753799E-02 
421	 2.96079057431471E-02 
422	 2.97910511693444E-02 
423	 3.00877554757886E-02 
424	 3.05538113540389E-02 
425	 3.07189615376538E-02 
426	 3.08881501394603E-02 
427	 3.11503943698476E-02 
428	 3.14893524862373E-02 
429	 3.19513520131324E-02 
430	 3.23384407377109E-02 
431	 3.26293631706465E-02 
432	 0.033030042613688 
433	 3.33163575438375E-02 
434	 3.36134392262065E-02 
435	 3.40327825618754E-02 
436	 3.44246264327483E-02 
437	 3.47977536654761E-02 
438	 3.51563800115201E-02 
439	 0.03550432582034 
440	 3.58526650778381E-02 
441	 3.62289309668079E-02 
442	 3.66337848165827E-02 
443	 3.70315395472358E-02 
444	 3.73323671468413E-02 
445	 3.76683793407042E-02 
446	 3.81352892234936E-02 
447	 3.84528126036058E-02 
448	 3.87054914567534E-02 
449	 3.89683008937304E-02 
450	 3.92952631052452E-02 
451	 3.96315588142823E-02 
452	 0.039851362051818 
453	 3.99760968845237E-02 
454	 4.03515875463821E-02 
455	 4.06042816377756E-02 
456	 4.07811615681031E-02 
457	 0.04102770345732 
458	 4.11440915749296E-02 
459	 0.041296981231282 
460	 4.15031706065813E-02 
461	 4.16204283081888E-02 
462	 4.18183693212709E-02 
463	 4.20741003585138E-02 
464	 4.23155188076863E-02 
465	 4.24358937534017E-02 
466	 4.26210035813809E-02 
467	 4.28663737390798E-02 
468	 4.30743458101235E-02 
469	 4.32289608674815E-02 
470	 4.34045779453045E-02 
471	 4.36251020180585E-02 
472	 4.38340385356448E-02 
473	 4.41672766034948E-02 
474	 4.44896423968951E-02 
475	 4.46777165061263E-02 
476	 4.48958652024828E-02 
477	 4.51698103698909E-02 
478	 4.54796503901371E-02 
479	 4.57758147904113E-02 
480	 4.60716438707606E-02 
481	 4.63035543004769E-02 
482	 4.64841592872468E-02 
483	 4.67983598953686E-02 
484	 0.047092283820123 
485	 4.73851684462056E-02 
486	 4.77571166743104E-02 
487	 4.82696785953213E-02 
488	 4.86746179239202E-02 
489	 4.89544013459353E-02 
490	 4.93256214363947E-02 
491	 4.98131700757799E-02 
492	 5.02486616420377E-02 
493	 5.05577748025584E-02 
494	 5.10368975454205E-02 
495	 5.15083711038985E-02 
496	 5.19698597817955E-02 
497	 5.24893551434983E-02 
498	 5.29387930784427E-02 
499	 5.34099187532833E-02 
500	 5.39390143088601E-02 
501	 5.44420260504065E-02 
502	 5.50316569355424E-02 
503	 5.56270197300299E-02 
504	 5.61287734650239E-02 
505	 5.65780650345312E-02 
506	 5.70872866819839E-02 
507	 5.76396782618762E-02 
508	 5.81260470475596E-02 
509	 0.058706163485815 
510	 5.93116899751793E-02 
511	 0.059883862146133 
512	 6.04808378915454E-02 
513	 6.10667615844294E-02 
514	 6.16651143074916E-02 
515	 6.23191375981271E-02 
516	 6.30492170945557E-02 
517	 6.37586145146932E-02 
518	 6.44723408219933E-02 
519	 6.53746044089805E-02 
520	 6.60418724508408E-02 
521	 6.66231084743445E-02 
522	 6.73327665509527E-02 
523	 6.81136921194244E-02 
524	 6.88558892895973E-02 
525	 6.95613884766717E-02 
526	 7.03185251280793E-02 
527	 7.11555583088365E-02 
528	 7.19727334444629E-02 
529	 7.27115397800512E-02 
530	 7.34169718797803E-02 
531	 7.42668098301686E-02 
532	 7.51483978868401E-02 
533	 7.58950377572947E-02 
534	 7.67812300158297E-02 
535	 7.76483499157452E-02 
536	 7.84493262209182E-02 
537	 7.92860418861175E-02 
538	 8.00979344086233E-02 
539	 8.09462560358707E-02 
540	 8.18704500477648E-02 
541	 8.27576568785962E-02 
542	 8.36274697297202E-02 
543	 8.44919340593724E-02 
544	 8.53590494162866E-02 
545	 8.62041722743076E-02 
546	 8.70436343728239E-02 
547	 8.78990500516668E-02 
548	 8.88003314603007E-02 
549	 8.96479401098992E-02 
550	 9.04496561440227E-02 
551	 9.12628419651399E-02 
552	 9.21656146473012E-02 
553	 9.30201806214248E-02 
554	 9.38099042361881E-02 
555	 9.46612431443888E-02 
556	 9.55169112952084E-02 
557	 9.63488342806582E-02 
558	 9.71573549279568E-02 
559	 9.80645429530385E-02 
560	 0.098834916068178 
561	 9.94791444955693E-02 
562	 0.10016325597762 
563	 0.100855442800653 
564	 0.101528982439142 
565	 0.102166631154197 
566	 0.102774719378766 
567	 0.103352349427255 
568	 0.103894857029429 
569	 0.104405568523305 
570	 0.104945471392988 
571	 0.105446391377709 
572	 0.105892169743045 
573	 0.106328217218297 
574	 0.1066506508188 
575	 0.106930632114755 
576	 0.107223791016914 
577	 0.107409543983887 
578	 0.107527909405929 
579	 0.107607944695757 
580	 0.107666245101512 
581	 0.107660716141503 
582	 0.107574310883193 
583	 0.107432618470374 
584	 0.107339388184571 
585	 0.107149275691863 
586	 0.10684484317898 
587	 0.106463922850455 
588	 0.106078735565071 
589	 0.105743837395585 
590	 0.105446117124951 
591	 0.105083389281091 
592	 0.10458915846259 
593	 0.103973715284525 
594	 0.10327906099375 
595	 0.102557569608335 
596	 0.101632807879694 
597	 0.100521955003807 
598	 9.93730320054183E-02 
599	 9.82936594057418E-02 
600	 9.74036455436782E-02 
601	 9.67200308099342E-02 
602	 0.096082612559154 
603	 0.095681252314075 
604	 9.54460533024334E-02 
605	 9.52586605090818E-02 
606	 9.52081037794468E-02 
607	 9.51919070874819E-02 
608	 9.51957868561278E-02 
609	 9.52974352444543E-02 
610	 9.53138217858444E-02 
611	 9.53204326662355E-02 
612	 9.53683370260964E-02 
613	 9.52492735643905E-02 
614	 9.52301855613953E-02 
615	 9.52925427894483E-02 
616	 9.52604341610153E-02 
617	 9.51461252916361E-02 
618	 0.095055572912137 
619	 9.50257030102863E-02 
620	 0.094968493433804 
621	 9.49397636128776E-02 
622	 9.49058257957156E-02 
623	 9.48406011064697E-02 
624	 9.48978887452789E-02 
625	 9.49102457416754E-02 
626	 9.48202451541141E-02 
627	 9.46935154835498E-02 
628	 9.46711415597423E-02 
629	 9.46632741126433E-02 
630	 9.45923672438583E-02 
631	 9.45471970237435E-02 
632	 9.44679849028929E-02 
633	 0.094382668987151 
634	 9.43492601057849E-02 
635	 9.43219999857435E-02 
636	 9.42501516916668E-02 
637	 9.41375836188457E-02 
638	 9.40644072615117E-02 
639	 9.39169333189032E-02 
640	 9.38362702382877E-02 
641	 9.39086396396431E-02 
642	 9.36814891687139E-02 
643	 9.35836489239905E-02 
644	 0.09358095729361 
645	 9.32818947337013E-02 
646	 9.31022332765013E-02 
647	 9.30550138553534E-02 
648	 9.30268699017579E-02 
649	 9.27972230543847E-02 
650	 9.24438112389809E-02 
651	 9.20819019046443E-02 
652	 9.17883769997222E-02 
653	 9.12038324358232E-02 
654	 9.05142205035634E-02 
655	 8.98006407148346E-02 
656	 8.90459624982123E-02 
657	 8.83527298025026E-02 
658	 8.77131913514436E-02 
659	 8.71030834227256E-02 
660	 0.08659082857973 
661	 8.62252866235989E-02 
662	 8.59132310497069E-02 
663	 8.55039145177734E-02 
664	 8.52048270595466E-02 
665	 8.49416070610137E-02 
666	 8.46565038189652E-02 
667	 8.43893242452593E-02 
668	 8.41854673079728E-02 
669	 8.40145342138425E-02 
670	 8.38380443621341E-02 
671	 8.37166985677513E-02 
672	 8.36402090103758E-02 
673	 8.35803423309475E-02 
674	 8.35037115781561E-02 
675	 8.35545419107421E-02 
676	 8.35917374910917E-02 
677	 8.35383761766948E-02 
678	 0.083616104789271 
679	 8.37215986399292E-02 
680	 8.38184866710957E-02 
681	 8.39056959828521E-02 
682	 8.40243836690026E-02 
683	 8.41750325674596E-02 
684	 8.42983740071146E-02 
685	 8.42625634594867E-02 
686	 8.42899144275243E-02 
687	 8.42949510632768E-02 
688	 8.41543431169804E-02 
689	 8.39519402487429E-02 
690	 8.37629301189696E-02 
691	 8.34983992084581E-02 
692	 8.29849565724953E-02 
693	 8.24059962945358E-02 
694	 8.18185530428034E-02 
695	 8.12321572895353E-02 
696	 8.05522919623907E-02 
697	 7.97809651669531E-02 
698	 7.88506065035509E-02 
699	 7.77599535292192E-02 
700	 7.66412047817313E-02 
701	 7.55672207018091E-02 
702	 7.44715058739889E-02 
703	 7.31786157251514E-02 
704	 7.20156639284814E-02 
705	 7.07638851465595E-02 
706	 6.92946976151898E-02 
707	 6.77646745128691E-02 
708	 6.62630731486456E-02 
709	 6.46679542983929E-02 
710	 6.28146424528843E-02 
711	 6.08492574722965E-02 
712	 5.88017880184682E-02 
713	 5.67238921119745E-02 
714	 5.46446013246254E-02 
715	 5.26572041923337E-02 
716	 5.05588977591403E-02 
717	 4.82633163699395E-02 
718	 4.58013468803286E-02 
719	 4.35104768885261E-02 
720	 4.16394300013906E-02 
721	 3.98996347325209E-02 
722	 0.038096560763388 
723	 3.60123822251006E-02 
724	 3.39255778642618E-02 
725	 3.21607935805201E-02 
726	 0.030071255679541 
727	 2.78632158728579E-02 
728	 2.58272479543071E-02 
729	 2.37975389165191E-02 
730	 2.15910638134141E-02 
731	 1.95770824134449E-02 
732	 1.81423391879159E-02 
733	 1.68756402566905E-02 
734	 1.58060725554004E-02 
735	 1.49504114640166E-02 
736	 1.42367772610967E-02 
737	 0.013679333892501 
738	 1.32653130844374E-02 
739	 1.29860360759551E-02 
740	 1.28515983679233E-02 
741	 1.26800684095227E-02 
742	 1.25073544848834E-02 
743	 1.24685870453526E-02 
744	 1.24799240617414E-02 
745	 1.24433996207099E-02 
746	 1.23649562991709E-02 
747	 1.23888509144977E-02 
748	 0.012328525821738 
749	 1.22351640075686E-02 
750	 1.21976642890196E-02 
751	 1.22141231617649E-02 
752	 1.22604159114703E-02 
753	 1.22594798629484E-02 
754	 1.21430841533119E-02 
755	 1.21339488568141E-02 
756	 0.012145898709423 
757	 1.21686721984525E-02 
758	 1.23996262686095E-02 
759	 1.24938383205762E-02 
760	 1.23937260357473E-02 
761	 1.23661021083116E-02 
762	 1.23561247155139E-02 
763	 1.25192304588793E-02 
764	 1.25789505407846E-02 
765	 1.23618620640876E-02 
766	 1.25819819287191E-02 
767	 1.27872412173792E-02 
768	 1.28455152160727E-02 
769	 1.29196638855592E-02 
770	 1.29696524139062E-02 
771	 1.30117597819475E-02 
772	 1.30765683979518E-02 
773	 1.31970797698796E-02 
774	 1.34610134319585E-02 
775	 0.013719034156351 
776	 1.37855839218596E-02 
777	 0.013923452862212 
778	 1.40901266767066E-02 
779	 1.42706974602515E-02 
780	 1.44976725184678E-02 
781	 1.47650350303276E-02 
782	 0.015036685211433 
783	 1.52711190282175E-02 
784	 0.015419669512826 
785	 1.55994773704268E-02 
786	 1.58951994980715E-02 
787	 1.63101931306898E-02 
788	 1.65416705590151E-02 
789	 1.67953337163786E-02 
790	 1.71743211154745E-02 
791	 1.76412244405229E-02 
792	 1.78132884137141E-02 
793	 1.79722158659301E-02 
794	 1.83320918679385E-02 
795	 1.88384162239326E-02 
796	 1.91768569173017E-02 
797	 1.93546788879467E-02 
798	 1.95153280785135E-02 
799	 0.019860216962016 
800	 2.02086461405953E-02 
801	 2.04498885608185E-02 
802	 2.05693474808767E-02 
803	 2.08431464492969E-02 
804	 2.10805512419427E-02 
805	 2.11438157298857E-02 
806	 2.10194684972541E-02 
807	 2.10493843320802E-02 
808	 0.021142359561922 
809	 2.11306276915231E-02 
810	 2.08783834699715E-02 
811	 2.07353075075506E-02 
812	 2.06177543243777E-02 
813	 2.02867900045414E-02 
814	 0.019787492594099 
815	 1.95726853968148E-02 
816	 1.94578018765481E-02 
817	 1.88443555762771E-02 
818	 1.84543946699189E-02 
819	 1.81393410343668E-02 
820	 0.017673809712957 
821	 1.68690337006681E-02 
822	 0.016152953954254 
823	 1.53584865435832E-02 
824	 1.43646920727295E-02 
825	 1.34350113879701E-02 
826	 1.24886120045112E-02 
827	 1.15022773088999E-02 
828	 1.05232555401153E-02 
829	 9.50373313500094E-03 
830	 8.79217247535934E-03 
831	 8.31182562188912E-03 
832	 7.73928001948619E-03 
833	 0.007599687512382 
834	 7.42286661734278E-03 
835	 7.05727114669126E-03 
836	 6.91150271297305E-03 
837	 6.7712595742875E-03 
838	 6.66369536523962E-03 
839	 6.59235681570264E-03 
840	 6.35923454997474E-03 
841	 6.22473952842814E-03 
842	 6.21307907183879E-03 
843	 6.23253934553351E-03 
844	 6.14035551459047E-03 
845	 5.97141547438615E-03 
846	 5.84232655084007E-03 
847	 5.87658773954081E-03 
848	 5.80798723366118E-03 
849	 5.5976084324327E-03 
850	 5.36909651717641E-03 
851	 5.38538292237669E-03 
852	 5.31010464266778E-03 
853	 5.2708406840985E-03 
854	 5.33122651840709E-03 
855	 5.21085832074398E-03 
856	 5.23661816712243E-03 
857	 5.27435368788659E-03 
858	 5.14269733232225E-03 
859	 4.94137637276256E-03 
860	 4.99632279728729E-03 
861	 5.03532177140447E-03 
862	 4.66092293400243E-03 
863	 4.73873544020505E-03 
864	 4.8241842146979E-03 
865	 4.73054018174649E-03 
866	 4.6155665797489E-03 
867	 4.75892821661212E-03 
868	 4.63617515136792E-03 
869	 4.3194123048482E-03 
870	 4.72653857940995E-03 
871	 4.44681162446259E-03 
872	 4.28669355252293E-03 
873	 4.70215769583198E-03 
874	 4.28707822479768E-03 
875	 3.95816688697199E-03 
876	 4.00612595199593E-03 
877	 4.34201224414598E-03 
878	 4.3193280040132E-03 
879	 4.1977210599675E-03 
880	 3.94679521971626E-03 
881	 3.54473391518461E-03 
882	 3.75847671879151E-03 
883	 3.79837915216843E-03 
884	 3.5926087377083E-03 
885	 3.65035271155403E-03 
886	 3.99372019414394E-03 
887	 3.81604815143695E-03 
888	 3.30930088219022E-03 
889	 3.73282021763898E-03 
890	 3.28529629793913E-03 
891	 3.1675075020652E-03 
892	 3.82764550400955E-03 
893	 3.35001507249595E-03 
894	 3.64394397723892E-03 
895	 3.85782582295305E-03 
896	 3.14649905555457E-03 
897	 3.22072450778336E-03 
898	 3.41006993266217E-03 
899	 3.7158847277941E-03 
900	 4.09820498741385E-03 
901	 3.71764003874151E-03 
902	 3.34143031185355E-03 
903	 2.89353257975307E-03 
904	 2.27262410846251E-03 
905	 3.05094645616747E-03 
906	 3.53773132281311E-03 
907	 3.16714155220654E-03 
908	 2.51643152376227E-03 
909	 3.25729811831428E-03 
910	 3.34871764090602E-03 
911	 2.61103340565787E-03 
912	 2.71065424320751E-03 
913	 2.92411867483121E-03 
914	 3.23917832196603E-03 
915	 3.28489519206772E-03 
916	 2.4548517662283E-03 
917	 2.75782346094733E-03 
918	 2.85243989674354E-03 
919	 2.38456355243805E-03 
920	 2.88888649371149E-03 
921	 3.13180337128779E-03 
922	 2.96231310665718E-03 
923	 2.68274779338982E-03 
924	 3.08449640487301E-03 
925	 2.9738813877925E-03 
926	 2.97821823316403E-03 
927	 3.54635963563766E-03 
928	 2.2742297543973E-03 
929	 0.001647307783978 
930	 2.37423750229428E-03 
931	 3.75976552319584E-03 
932	 3.42382270528989E-03 
933	 6.02358456106552E-04 
934	-5.75316819673939E-04 
935	 3.02596733531194E-03 
936	 2.93397983100205E-03 
937	 0.002215108755402 
938	 2.7482408244931E-03 
939	 4.53772020108904E-03 
940	 3.0068642905207E-03 
941	 1.29853849551326E-03 
942	 9.38062373166376E-04 
943	 2.1312678923521E-03 
944	 2.87992718850741E-03 
945	 1.55865364469135E-03 
946	-7.16873635840708E-04 
947	-1.17966435699055E-03 
948	 1.39509036453882E-03 
949	 4.66555365637735E-03 
950	 5.17586245959852E-03 
951	 1.03104250780742E-03 
952	 1.20696344731092E-03 
953	 6.00653866253256E-04 
954	 2.86037147137828E-04 
955	 4.36200767863564E-03 
956	 3.13846923927844E-03 
957	 1.58984645242534E-03 
958	 2.07537610812278E-03 
959	 3.43489876754082E-03 
960	 1.36348046959489E-03 
961	 1.15169191030738E-03 
962	 2.40070799995457E-03 
963	 1.0142952817778E-03 
964	 1.26239710470197E-03 
965	 2.97376195186498E-03 
966	 4.42442393228342E-03 
967	 3.69712538364931E-03 
968	 3.49834378065056E-03 
969	 2.32929079350655E-03 
970	 1.39978806973929E-03 
971	 3.63270768871325E-03 
972	 3.5474601838004E-03 
973	 2.82107763600466E-03 
974	 2.35561219396353E-03 
975	 1.73994022526612E-03 
976	 3.19871337357822E-03 
977	 3.77586750564227E-03 
978	 2.86314973975949E-03 
979	 2.42953847056768E-03 
980	 3.02119338971208E-03 
981	 2.89363072419977E-03 
982	 2.41370771878605E-03 
983	 3.29770005173079E-03 
984	 2.28217806159537E-03 
985	 1.73895141868381E-03 
986	 2.60988592062472E-03 
987	 3.90853094453839E-03 
988	 3.41807692324722E-03 
989	 2.35385014277829E-03 
990	 1.56819261718413E-03 
991	 1.3493099212861E-03 
992	 2.47286458491379E-03 
993	 2.48410373414449E-03 
994	 1.91658607368929E-03 
995	 2.73379908723768E-03 
996	 6.879952627132E-04 
997	 1.19670018535778E-03 
998	 3.06690344275319E-03 
999	 1.86107056804725E-03 
1000	 2.03033356588515E-03 
1001	 1.75332014619256E-03 
1002	 1.76079792981409E-03 
1003	 1.70662418839575E-03 
1004	 1.36934424814207E-03 
1005	 1.38030626800967E-03 
1006	 1.56509596678135E-03 
1007	 1.86514073651879E-03 
1008	 2.22605265154186E-03 
1009	 2.39502261267903E-03 
1010	 2.05930094395618E-03 
1011	 1.86332090136148E-03 
1012	 1.60248803621329E-03 
1013	 1.03189882341741E-03 
1014	 8.58786215262575E-04 
1015	 8.21592720444006E-04 
1016	 8.99170885671715E-04 
1017	 1.27790629562239E-03 
1018	 1.50908284546113E-03 
1019	 1.86754176417245E-03 
1020	 2.02180776714092E-03 
1021	 1.94356770687154E-03 
1022	 2.12944696904285E-03 
1023	 2.08770932424501E-03 
1024	 1.79868847318991E-03 
1025	 1.66773618442926E-03 
1026	 1.47699580580264E-03 
1027	 1.33855796461906E-03 
1028	 1.16410704780083E-03 
1029	 1.28460185277009E-03 
1030	 1.59834770930305E-03 
1031	 1.71507439751426E-03 
1032	 2.07532655012795E-03 
1033	 2.12640159012131E-03 
1034	 1.84894936088896E-03 
1035	 1.71245319982918E-03 
1036	 1.27308589082838E-03 
1037	 1.30495306133258E-03 
1038	 1.75552520638409E-03 
1039	 1.96638705078617E-03 
1040	 2.26437351388933E-03 
1041	 2.70894500382695E-03 
1042	 2.60010766924599E-03 
1043	 1.92822540204836E-03 
1044	 1.70913725637395E-03 
1045	 1.3382092591943E-03 
1046	 1.24227940492733E-03 
1047	 1.37266473681235E-03 
1048	 1.51925235890084E-03 
1049	 1.89621716331302E-03 
1050	 2.05094075789645E-03 
1051	 2.22933279304204E-03 
1052	 2.31151892143095E-03 
1053	 2.07361148130298E-03 
1054	 2.10031406746313E-03 
1055	 2.33320659453731E-03 
1056	 2.44145945938056E-03 
1057	 2.54693821985375E-03 
1058	 2.82654131384031E-03 
1059	 2.73212770535627E-03 
1060	 2.38094207232939E-03 
1061	 2.1417579305492E-03 
1062	 1.70405848814082E-03 
1063	 1.48032872699047E-03 
1064	 1.2703243543032E-03 
1065	 1.25419614223123E-03 
1066	 1.45112625445928E-03 
1067	 1.56273658579881E-03 
1068	 1.89162053491352E-03 
1069	 2.01634108839154E-03 
1070	 1.99744471142992E-03 
1071	 1.9753432001585E-03 
1072	 1.88412813580228E-03 
1073	 1.64443660970103E-03 
1074	 1.7748816055353E-03 
1075	 2.16455555891738E-03 
1076	 2.15336311398679E-03 
1077	 2.24692550763888E-03 
1078	 2.15889053128285E-03 
1079	 1.42344521013808E-03 
1080	 1.43585361747884E-03 
1081	 1.93889351675115E-03 
1082	 2.13937908538518E-03 
1083	 2.85072956285989E-03 
1084	 2.83995416772728E-03 
1085	 1.98577601204648E-03 
1086	 1.72438248237781E-03 
1087	 1.17636901933307E-03 
1088	 1.08426817628961E-03 
1089	 1.90327072036049E-03 
1090	 2.34315845013026E-03 
1091	 2.25121755541158E-03 
1092	 1.77033017156324E-03 
1093	 1.70456715652037E-03 
1094	 1.12812522883392E-03 
1095	 1.26897535578982E-03 
1096	 2.52661781711861E-03 
1097	 2.66981762966001E-03 
1098	 2.25145181575902E-03 
1099	 2.12232925907572E-03 
1100	 1.4315325697809E-03 
1101	 1.33204448796032E-03 
1102	 2.10007331221626E-03 
1103	 2.25741074733244E-03 
1104	 2.23984018090133E-03 
1105	 2.09516045950262E-03 
1106	 2.1276736477531E-03 
1107	 2.06679099961742E-03 
1108	 2.30359097961888E-03 
1109	 2.25952264054689E-03 
1110	 2.16619208618083E-03 
1111	 1.65774225244386E-03 
1112	 1.50070925205114E-03 
1113	 1.60173097002278E-03 
1114	 1.46180569903876E-03 
1115	 9.02966086065586E-04 
1116	 6.59028937230181E-04 
1117	 3.21492011855358E-04 
1118	 4.65808968996001E-04 
1119	 2.94794375491049E-03 
1120	 3.38565454448545E-03 
1121	 1.35095076550508E-03 
1122	 3.50319999525242E-04 
1123	 3.6466035786337E-03 
1124	 4.65028250164585E-03 
1125	 6.54577796772805E-03 
1126	 9.38868659158179E-03 
1127	 5.57284674773027E-03 
1128	 1.19177169951381E-03 
1129	 6.79309469394002E-04 
1130	 3.78273095082581E-03 
1131	 3.21030706345456E-03 
1132	 2.27970622257757E-03 
1133	 1.36174051123827E-03 
1134	-1.54244652329316E-03 
1135	-1.77531965714775E-03 
1136	 5.03921831947786E-05 
1137	 7.60762828341152E-04 
1138	 1.84067774313839E-03 
1139	 2.36394898297796E-03 
1140	 2.03087943462702E-03 
1141	 8.32358990597477E-04 
1142	 4.43265484613467E-04 
1143	-2.87386097642118E-04 
1144	-1.32174027693764E-03 
1145	 1.45598602894955E-04 
1146	 1.11245276850496E-03 
1147	 3.87665297127249E-04 
1148	 1.49326277242145E-03 
1149	 1.3957109624512E-03 
1150	 8.84161131271988E-04 
1151	-7.46098879131995E-05 
1152	 4.62595871373087E-04 
1153	 1.03734055028273E-03 
1154	 1.08587658496897E-03 
1155	 1.78321613923813E-03 
1156	 1.69801991068088E-03 
1157	 7.96588491453077E-04 
1158	 9.33876613106256E-04 
1159	 1.39318027356401E-03 
1160	 1.57439918590829E-03 
1161	 1.73471491981755E-03 
1162	 1.57422147822929E-03 
1163	 1.46168208700336E-03 
1164	 1.48911025105779E-03 
1165	 1.39898271142176E-03 
1166	 1.32840208554267E-03 
1167	 1.53112488811924E-03 
1168	 1.74411181239666E-03 
1169	 1.73272440314162E-03 
1170	 1.8447827104511E-03 
1171	 1.74473484273634E-03 
1172	 9.62410107441921E-04 
1173	 9.00695986977626E-04 
1174	 1.17138891761095E-03 
1175	 1.49669073129138E-03 
1176	 1.55847080909437E-03 
1177	 1.72238041560101E-03 
1178	 1.79869309111738E-03 
1179	 1.73645258528537E-03 
1180	 1.82444061985605E-03 
1181	 1.75080824860495E-03 
1182	 1.60883603858532E-03 
1183	 1.73081691699571E-03 
1184	 1.77245035267401E-03 
1185	 1.68068265750081E-03 
1186	 1.56887615458027E-03 
1187	 1.38650780565946E-03 
1188	 1.29867128419618E-03 
1189	 1.64569713412399E-03 
1190	 2.03416094140741E-03 
1191	 1.75506017009637E-03 
1192	 1.72241596262417E-03 
1193	 1.57417259176489E-03 
1194	 0.001869013051217 
1195	 1.77290305407839E-03 
1196	 1.59223754035288E-03 
1197	 1.63027948966641E-03 
1198	 1.24650652048022E-03 
1199	 9.93472808015219E-04 
1200	 1.46354456772715E-03 
1201	 1.68313748268755E-03 
1202	 1.4471653542888E-03 
1203	 1.55901073058473E-03 
1204	 1.70359580218338E-03 
1205	 1.48544121282874E-03 
1206	 1.25917515653382E-03 
1207	 1.25129587760457E-03 
1208	 1.45674106299899E-03 
1209	 1.56204379517941E-03 
1210	 1.69737385416802E-03 
1211	 1.84908659444514E-03 
1212	 1.55450853262319E-03 
1213	 1.37601481936361E-03 
1214	 1.3452645136811E-03 
1215	 1.56672760389568E-03 
1216	 1.48146901210417E-03 
1217	 1.39928446331468E-03 
1218	 1.56402846060446E-03 
1219	 1.56343553612372E-03 
1220	 1.37469504333579E-03 
1221	 1.51420449636779E-03 
1222	 1.60757215739834E-03 
1223	 1.43675495485756E-03 
1224	 1.56166329835984E-03 
1225	 1.6603697158734E-03 
1226	 1.48692336426194E-03 
1227	 1.5347420089605E-03 
1228	 1.64048099558481E-03 
1229	 1.48939263850849E-03 
1230	 1.5000822013555E-03 
1231	 1.63150265754927E-03 
1232	 1.60134475611093E-03 
1233	 1.66482255651725E-03 
1234	 1.75557701740976E-03 
1235	 1.75826793844032E-03 
1236	 1.59075602365972E-03 
1237	 1.53881345646332E-03 
1238	 1.52091866234699E-03 
1239	 1.54347038362485E-03 
1240	 1.55282680742414E-03 
1241	 1.56488280196185E-03 
1242	 1.69909562511749E-03 
1243	 1.61370811653823E-03 
1244	 1.52808345264465E-03 
1245	 1.67698484873181E-03 
1246	 1.54413519035706E-03 
1247	 1.42344620356537E-03 
1248	 1.55249630833233E-03 
1249	 1.5667866030686E-03 
1250	 1.51071818105334E-03 
1251	 1.62529763726172E-03 
1252	 1.80320858778247E-03 
1253	 1.67299086163696E-03 
1254	 1.44990597284499E-03 
1255	 1.5212559288242E-03 
1256	 1.61089780087229E-03 
1257	 1.66110537720175E-03 
1258	 1.60682492227117E-03 
1259	 1.57840756808177E-03 
1260	 1.63716056109606E-03 
1261	 1.64404725476353E-03 
1262	 1.61588319264988E-03 
1263	 1.79145978826356E-03 
1264	 1.80683500466989E-03 
1265	 1.62076800157003E-03 
1266	 1.39935046731609E-03 
1267	 1.19429508780552E-03 
1268	 1.23093142388416E-03 
1269	 1.38640721098832E-03 
1270	 1.46859229894518E-03 
1271	 1.62561200521829E-03 
1272	 1.71937910227825E-03 
1273	 1.62805073112335E-03 
1274	 1.38483937296616E-03 
1275	 1.25716353399019E-03 
1276	 1.41625032887867E-03 
1277	 1.52505684961399E-03 
1278	 1.46697430204423E-03 
1279	 1.58949193516567E-03 
1280	 1.83336912049407E-03 
1281	 1.8440569339317E-03 
1282	 1.8442238395305E-03 
1283	 1.82097538381246E-03 
1284	 1.4344573708955E-03 
1285	 1.34520506110997E-03 
1286	 1.59598240659817E-03 
1287	 1.63307643759209E-03 
1288	 1.56283524585331E-03 
1289	 1.61466961910477E-03 
1290	 1.7025926043593E-03 
1291	 1.71776525683039E-03 
1292	 1.62189053160274E-03 
1293	 1.65879868057868E-03 
1294	 1.79113897401502E-03 
1295	 1.54793162683151E-03 
1296	 1.34179412067076E-03 
1297	 1.74701438412004E-03 
1298	 1.8679697282775E-03 
1299	 1.47807213874651E-03 
1300	 1.34818444928483E-03 
1301	 1.40360983364921E-03 
1302	 1.40496036442378E-03 
1303	 1.31410662793758E-03 
1304	 1.40592866643463E-03 
1305	 1.58817741837178E-03 
1306	 1.53370053807747E-03 
1307	 1.13887790221269E-03 
1308	 1.26853138661282E-03 
1309	 1.78135271474123E-03 
1310	 1.71672322845692E-03 
1311	 1.41999076804629E-03 
1312	 1.57902233826893E-03 
1313	 1.75531022055952E-03 
1314	 1.56025420127871E-03 
1315	 1.58458831108864E-03 
1316	 1.70316257416051E-03 
1317	 1.28731695948243E-03 
1318	 1.03670958587679E-03 
1319	 1.19825883818157E-03 
1320	 1.32129937680793E-03 
1321	 1.29056512455402E-03 
1322	 1.33161094325266E-03 
1323	 1.43641239203342E-03 
1324	 1.5997970527288E-03 
1325	 1.77887112739343E-03 
1326	 1.61774115922027E-03 
1327	 1.35984807321922E-03 
1328	 1.47514260203919E-03 
1329	 1.54035874434984E-03 
1330	 1.06603763894805E-03 
1331	 1.05780588208216E-03 
1332	 1.75996198949922E-03 
1333	 1.51925128632951E-03 
1334	 1.00949783111842E-03 
1335	 1.14323345213248E-03 
1336	 1.55305492582843E-03 
1337	 1.49985427971998E-03 
1338	 2.02248558601745E-03 
1339	 2.03981489442337E-03 
1340	 8.68472267467124E-04 
1341	 2.77069274790373E-04 
1342	-2.89685558823735E-04 
1343	-4.22623183573368E-05 
1344	 1.5850440111212E-03 
1345	 1.80175324645383E-03 
1346	 1.67829644311951E-03 
1347	 2.26286991286939E-03 
1348	 2.20511941379543E-03 
1349	 1.04003334562695E-03 
1350	-4.10291555592999E-04 
1351	-1.2303633781208E-03 
1352	-7.25620750601868E-03 
1353	-1.41527013688151E-02 
1354	-8.90189497428222E-03 
1355	-1.33482551193196E-02 
1356	-3.73531593717363E-02 
1357	-3.78169343549469E-02 
1358	-3.90065292285477E-02 
1359	-6.16010770425091E-02 
1360	-2.44913319051984E-02 
1361	-4.93711221288295E-02 
1362	-0.114882240858819 
1363	-2.34645220752518E-02 
1364	 6.59384070311404E-02 
1365	 0.106524877185811 
1366	 0.109721721009002 
1367	 0.126544572703301 
1368	 0.15122871515102 
1369	 8.65658089731378E-02 
1370	-2.41404828922496E-02 
1371	-0.128899362198392 
1372	-0.111011001697645 
1373	-0.220929828893558 
1374	-0.329233791457184 
1375	-4.04372088243678E-02 
1376	 0.151949224420122 
1377	 0.399881839708782 
1378	 0.257060383398411 
1379	 9.10448190697438E-02 
1380	 0.187371873757061 
1381	 0.181103601091558 
1382	 4.81116503115904E-02 
1383	 0.232154842639082 
1384	 0.418259469137428 
1385	 0.146665243573484 
1386	 3.00481829701307E-02 
1387	 0.253994151383793 
1388	 0.312312363431655 
1389	-7.17341181004003E-02 
1390	-0.227988704305898 
1391	-0.263184816942662 
1392	-0.258334982003222 
1393	-0.152507777912178 
1394	-0.176934655140954 
1395	-0.101114396330257 
1396	 2.53236133883641E-02 
1397	-3.59546113799016E-02 
1398	 5.20880298627743E-02 
1399	 0.141922363022615 
1400	 1.67091996724623E-02 
1401	-0.172223835521946 
1402	-0.204006010516966 
1403	-0.159709350043957 
1404	-0.299442384523788 
1405	-0.222722667092301 
1406	-3.65636505117979E-02 
1407	-2.76930957836577E-02 
1408	-6.61420502015645E-02 
1409	-2.96753851546117E-02 
1410	 3.44371562902361E-02 
1411	 3.38505558106691E-04 
1412	-6.83063704878933E-02 
1413	-0.053463310632982 
1414	-4.35713322364103E-02 
1415	-5.41341345837928E-02 
1416	-3.56224654589165E-02 
1417	-2.48953949146717E-02 
1418	-4.95073045441291E-02 
1419	-4.44991685905385E-02 
1420	-1.16404234790374E-02 
1421	-1.72680424502834E-03 
1422	 5.42100330537234E-04 
1423	 1.63035310555049E-04 
1424	-4.86954836227408E-03 
1425	-5.59518965338716E-03 
1426	-7.57293752940938E-03 
1427	-6.36008875866844E-03 
1428	-6.75108531688315E-04 
1429	 0.001556373661567 
1430	 4.63655892595676E-03 
1431	 4.32520553953922E-03 
1432	-2.76166775352419E-04 
1433	-2.19618025944065E-03 
1434	-6.94023676050856E-03 
1435	-6.97052272693157E-03 
1436	-4.59867915557086E-03 
1437	 0.002838288010674 
1438	-1.94862460010345E-03 
1439	-0.004310527310261 
1440	 1.18062345343941E-03 
1441	 2.12297886539705E-03 
1442	 1.27109167797634E-03 
1443	 7.54751707083935E-04 
1444	-1.19018184490381E-03 
1445	-4.07217627730408E-03 
1446	-8.72609260932976E-04 
1447	 4.17541827597551E-03 
1448	 3.52971912724353E-03 
1449	 1.34789360233636E-03 
1450	-7.14546929302538E-04 
1451	-1.03586192735788E-03 
1452	 1.43001896360025E-04 
1453	-3.37530862364127E-04 
1454	-2.47236845872762E-04 
1455	 1.42560334722354E-04 
1456	 3.90773062016731E-04 
1457	 6.67807950448505E-04 
1458	 5.90588574353343E-04 
1459	 3.24065946476947E-04 
1460	 4.04025564987869E-04 
1461	 5.09154453622401E-04 
1462	 8.86696837638673E-05 
1463	-4.69419428108263E-04 
1464	-5.84464614416732E-04 
1465	-1.33490559976184E-03 
1466	-1.41591042477821E-03 
1467	 2.42815631428934E-05 
1468	 2.41106495353373E-04 
1469	-6.49828647958025E-04 
1470	-7.24978780760845E-04 
1471	-6.27755575783157E-04 
1472	-3.07565192551466E-04 
1473	 7.04275141702398E-04 
1474	 9.2731533877467E-04 
1475	 1.59153189392335E-04 
1476	 6.58077361073368E-04 
1477	 2.45021156048248E-03 
1478	 2.23369683952669E-03 
1479	 9.79164702379355E-04 
1480	 1.20163778799516E-03 
1481	 1.20648877013643E-03 
1482	 9.35035319841928E-04 
1483	 1.70916180173912E-03 
1484	 1.94146588379586E-03 
1485	 1.07094493371527E-03 
1486	 8.63939407688736E-04 
1487	 1.50757581305296E-03 
1488	 1.3961971410158E-03 
1489	 6.08636585739142E-04 
1490	 5.18394332381821E-04 
1491	 6.60709418135349E-04 
1492	 7.4111929012451E-04 
1493	 1.17436996647989E-03 
1494	 1.20535696478051E-03 
1495	 7.5705601145555E-04 
1496	 7.25514076605894E-04 
1497	 9.42555254466853E-04 
1498	 9.27988612670319E-04 
1499	 9.11924083805026E-04 
1500	 9.92127450827918E-04 
1501	 9.75722198395017E-04 
1502	 9.48576724977874E-04 
1503	 1.04230462285123E-03 
1504	 1.11251447839269E-03 
1505	 1.08889458453481E-03 
1506	 1.13053866656038E-03 
1507	 1.16253439659855E-03 
1508	 9.47157631925471E-04 
1509	 5.88044999176581E-04 
1510	 5.66030241531081E-04 
1511	 1.00714174774939E-03 
1512	 1.11881273520793E-03 
1513	 8.24816660061662E-04 
1514	 9.11562637174623E-04 
1515	 1.1280299059487E-03 
1516	 1.11049694834927E-03 
1517	 1.34676369719915E-03 
1518	 1.56619408327984E-03 
1519	 1.15180105949652E-03 
1520	 8.65727123299446E-04 
1521	 1.20293292674886E-03 
1522	 1.25080409048975E-03 
1523	 1.02646912655866E-03 
1524	 1.15153785946421E-03 
1525	 0.001214197944097 
1526	 1.03994323055136E-03 
1527	 1.07266917231343E-03 
1528	 1.27371147518929E-03 
1529	 1.13290830706677E-03 
1530	 8.93070977006184E-04 
1531	 9.6566544694863E-04 
1532	 1.03773242099051E-03 
1533	 9.64149544904367E-04 
1534	 9.55527096815419E-04 
1535	 1.03093123922386E-03 
1536	 1.07501139122698E-03 
1537	 1.1702864354417E-03 
1538	 1.32421341433385E-03 
1539	 1.39405859679827E-03 
1540	 1.23959852401722E-03 
1541	 9.83244334300288E-04 
1542	 9.31049359111133E-04 
1543	 1.04398803622673E-03 
1544	 9.85001225636892E-04 
1545	 9.7122328474016E-04 
1546	 1.16614358037956E-03 
1547	 1.04667798090857E-03 
1548	 9.25689511362801E-04 
1549	 1.17626667756245E-03 
1550	 1.27942198228948E-03 
1551	 1.22182876705566E-03 
1552	 1.22574201246253E-03 
1553	 1.12332380091114E-03 
1554	 1.06443117717209E-03 
1555	 1.12165455131822E-03 
1556	 1.02238987205356E-03 
1557	 9.94810098911321E-04 
1558	 1.03085042752069E-03 
1559	 9.01326255858342E-04 
1560	 1.02764407505206E-03 
1561	 1.14946591124829E-03 
1562	 8.85709834327507E-04 
1563	 8.67032779875157E-04 
1564	 1.11056737413187E-03 
1565	 1.17583270522949E-03 
1566	 1.1738986486169E-03 
1567	 1.18447574304629E-03 
1568	 1.13549237492319E-03 
1569	 1.13571702796376E-03 
1570	 1.2872070453799E-03 
1571	 1.39807349993953E-03 
1572	 1.31122029054847E-03 
1573	 1.10712465018515E-03 
1574	 1.03200852168888E-03 
1575	 1.18881833840371E-03 
1576	 1.12566598270857E-03 
1577	 9.45574027625879E-04 
1578	 1.14614590462609E-03 
1579	 1.23571690765998E-03 
1580	 1.15103888132659E-03 
1581	 1.17691684478151E-03 
1582	 1.04546517566846E-03 
1583	 9.78243651764603E-04 
1584	 1.1102165210404E-03 
1585	 1.16546785137304E-03 
1586	 1.16264698212723E-03 
1587	 1.15608877007436E-03 
1588	 1.09511589304837E-03 
1589	 1.25322483513062E-03 
1590	 1.49850351467598E-03 
1591	 1.27378872154528E-03 
1592	 1.01414569210947E-03 
1593	 1.22532334390707E-03 
1594	 1.50370110702005E-03 
1595	 1.55902331410291E-03 
1596	 1.52208187726705E-03 
1597	 1.29107972409683E-03 
1598	 8.7261218982825E-04 
1599	 6.77353475106621E-04 
1600	 9.20037141616586E-04 
1601	 1.22833786189104E-03 
1602	 1.16058076308592E-03 
1603	 1.15544030374687E-03 
1604	 1.17295735492151E-03 
1605	 1.0126501511288E-03 
1606	 1.05379798947019E-03 
1607	 9.47194153258936E-04 
1608	 8.99629507471587E-04 
1609	 1.19233694789246E-03 
1610	 1.22688482938931E-03 
1611	 1.06336608329898E-03 
1612	 1.08040352670715E-03 
1613	 1.03285784313988E-03 
1614	 9.20258137587052E-04 
1615	 1.18600947847116E-03 
1616	 1.38501098217257E-03 
1617	 1.10348592242359E-03 
1618	 9.27421653574648E-04 
1619	 1.08541972723964E-03 
1620	 1.16404211673095E-03 
1621	 1.08932064301055E-03 
1622	 1.16334439976065E-03 
1623	 1.14738264857424E-03 
1624	 9.98608333650113E-04 
1625	 1.1647800303693E-03 
1626	 1.16377930743198E-03 
1627	 7.69868055338031E-04 
1628	 8.02781496526194E-04 
1629	 1.11705200714095E-03 
1630	 1.16754244491162E-03 
1631	 1.0873890933699E-03 
1632	 9.75053745200828E-04 
1633	 9.88193067608366E-04 
1634	 9.0673843088262E-04 
1635	 9.33056193548227E-04 
1636	 1.27330675815207E-03 
1637	 1.10562295213104E-03 
1638	 1.05279472169305E-03 
1639	 1.47629450320859E-03 
1640	 1.2680168754245E-03 
1641	 8.94744313157317E-04 
1642	 9.45679233063808E-04 
1643	 1.06541279152348E-03 
1644	 1.19838284437584E-03 
1645	 1.32577809533888E-03 
1646	 1.43437404325085E-03 
1647	 1.3806721797165E-03 
1648	 1.19556235861288E-03 
1649	 1.24999398705746E-03 
1650	 1.32114766021047E-03 
1651	 1.03962794595697E-03 
1652	 9.83293064261006E-04 
1653	 1.29588142856848E-03 
1654	 1.15593280895282E-03 
1655	 6.54977350944604E-04 
1656	 7.59906037151066E-04 
1657	 1.14702438856913E-03 
1658	 1.02164377212635E-03 
1659	 9.12284622104635E-04 
1660	 1.07881881759154E-03 
1661	 9.87329213498716E-04 
1662	 8.91562827927388E-04 
1663	 1.25069405693036E-03 
1664	 1.45049181995287E-03 
1665	 1.18274939450306E-03 
1666	 1.11671967361903E-03 
1667	 1.50356632008792E-03 
1668	 1.20617518294976E-03 
1669	 8.27894358717028E-04 
1670	 1.11109715149855E-03 
1671	 1.49529346099862E-03 
1672	 1.31420553002455E-03 
1673	 1.14720477852867E-03 
1674	 1.28810312403409E-03 
1675	 1.20563306330772E-03 
1676	 1.15307493233999E-03 
1677	 1.3934193650591E-03 
1678	 1.44907316724645E-03 
1679	 1.51927253742927E-03 
1680	 1.52419408951941E-03 
1681	 1.18538625764314E-03 
1682	 8.73953905914059E-04 
1683	 7.71797422320758E-04 
1684	 8.63896150194988E-04 
1685	 1.07239951703334E-03 
1686	 1.3474626377043E-03 
1687	 1.45706995717664E-03 
1688	 1.23148805297781E-03 
1689	 1.11615663051428E-03 
1690	 1.2054416813233E-03 
1691	 1.2359240994163E-03 
1692	 0.001338227148243 
1693	 1.54969222649948E-03 
1694	 1.58290618838514E-03 
1695	 1.34343377401668E-03 
1696	 1.22834504699821E-03 
1697	 1.57389005316786E-03 
1698	 1.87113289302747E-03 
1699	 1.54147475928047E-03 
1700	 1.26141758742154E-03 
1701	 1.2963435198611E-03 
1702	 9.05612751087205E-04 
1703	 6.67400193212985E-04 
1704	 1.20670020651988E-03 
1705	 1.26165616536548E-03 
1706	 7.39324015963131E-04 
1707	 1.04950806266496E-03 
1708	 1.32979728334157E-03 
1709	 9.61797829670337E-04 
1710	 1.35736734000102E-03 
1711	 1.57344746804633E-03 
1712	 7.51686079236365E-04 
1713	 1.16668608020336E-03 
1714	 1.2337348457322E-03 
1715	 1.57149058351252E-03 
1716	 1.72623355802755E-03 
1717	 9.28577174792658E-04 
1718	 6.29586904850496E-04 
1719	 6.96745264612937E-04 
1720	 7.9272564447192E-04 
1721	 1.54555241707783E-03 
1722	 1.95288608714909E-03 
1723	 1.57658517673244E-03 
1724	 9.52510333660764E-04 
1725	 6.04008871227106E-04 
1726	 9.16874205730483E-04 
1727	 1.18389594923357E-03 
1728	 1.05939228376766E-03 
1729	 1.01264053991873E-03 
1730	 1.08729144361889E-03 
1731	 1.18353735970064E-03 
1732	 1.31393424847059E-03 
1733	 1.47092277125188E-03 
1734	 1.36964285291215E-03 
1735	 1.17621887967138E-03 
1736	 1.48490782356046E-03 
1737	 1.37770455292664E-03 
1738	 6.64577074216053E-04 
1739	 8.22545957835121E-04 
1740	 1.24240448179906E-03 
1741	 1.37756300530791E-03 
1742	 1.45555985725891E-03 
1743	 6.04114855559112E-04 
1744	-4.32960143558335E-05 
1745	 2.94500646060665E-04 
1746	 1.38110074917612E-03 
1747	 1.66369563960154E-03 
1748	 1.11003361968859E-03 
1749	 9.28802835955183E-04 
1750	 8.07424723599516E-04 
1751	 7.70658802654199E-04 
1752	 1.15856161624825E-03 
1753	 1.29825484257118E-03 
1754	 8.07863496280226E-04 
1755	 7.87362062844098E-04 
1756	 1.29061540113943E-03 
1757	 1.76063115271203E-03 
1758	 1.97507811172938E-03 
1759	 1.34990362433609E-03 
1760	 7.54283685988713E-04 
1761	 1.05529920377873E-03 
1762	 9.47040599234223E-04 
1763	 4.78023435291921E-04 
1764	-4.75495602727041E-05 
1765	-4.42741073038207E-04 
1766	 2.46069760144676E-04 
1767	 1.32188968769712E-03 
1768	 2.12823606867435E-03 
1769	 1.86446892021479E-03 
1770	 5.75050023074955E-04 
1771	 1.58180732882511E-05 
1772	 4.09331755283126E-05 
1773	 7.74984851280404E-04 
1774	 1.2977328720461E-03 
1775	 1.2580476158046E-03 
1776	 1.49286770345179E-03 
1777	 1.16413595767073E-03 
1778	 1.20342637868949E-03 
1779	 1.7841550441525E-03 
1780	 1.69313363178977E-03 
1781	 1.8027626467101E-03 
1782	 1.55549892019014E-03 
1783	 1.30785085598753E-04 
1784	-1.39663434419317E-04 
1785	-7.37767076774021E-05 
1786	-3.70241530739519E-04 
1787	-4.40898090052315E-05 
1788	 5.17106879191136E-04 
1789	 1.24520703603741E-03 
1790	 1.34417516288446E-03 
1791	 1.3267823667404E-03 
1792	-1.65661324102283E-03 
1793	-5.28970467883756E-03 
1794	-5.32408610446793E-03 
1795	-0.00551963089224 
1796	-1.28218653122444E-03 
1797	 4.50287072667846E-03 
1798	 1.68776261686562E-03 
1799	-1.50624997221658E-03 
1800	-1.9119714586929E-03 
1801	-3.28890745759814E-03 
1802	 3.11019253874584E-03 
1803	 6.27980185119501E-03 
1804	-8.27356009034106E-05 
1805	-6.7021633962895E-03 
1806	-1.84185602039624E-02 
1807	-1.61706887559454E-02 
1808	 0.013149910080569 
1809	 2.18468034483308E-03 
1810	-4.42016603106832E-02 
1811	-5.90675761787098E-02 
1812	-0.138646666430814 
1813	-0.127102129642823 
1814	 0.138729478330287 
1815	 0.188260792942178 
1816	 8.79329403262154E-02 
1817	 1.54531295655599E-02 
1818	-0.154664158754072 
1819	-0.193267225934146 
1820	-0.316240229665865 
1821	-2.82331284771465E-02 
1822	 8.79696434940195E-02 
1823	 0.340080519003341 
1824	 0.53805797177664 
1825	 0.569043799719965 
1826	 0.457784692802195 
1827	 0.336116510584285 
1828	 6.12023703353504E-02 
1829	-0.642496537276557 
1830	-0.921945802963646 
1831	-0.232105037503865 
1832	 0.736374553638608 
1833	 0.822959230321609 
1834	 0.718625438938712 
1835	 0.515996974682755 
1836	 0.320622867108355 
1837	 6.90405946088429E-02 
1838	-0.501769530642542 
1839	 3.30593568756239 
1840	 1.88790204841039 
1841	 0.618761875946015 
1842	 0.115132376931431 
1843	-3.97057738130436E-02 
1844	-1.04033175298354 
1845	-1.44400860754337 
1846	 0.145002035958536 
1847	 0.355133556457194 
1848	 0.160249522722682 
1849	-0.149015350857938 
1850	-0.2297048053083 
1851	-0.78730407391005 
1852	-2.33037117835174 
1853	 6.68396874018314 
1854	 0.481003479713871 
1855	-0.486264435055759 
1856	-0.800053364737362 
1857	-1.31143738793902 
1858	-1.50496108123919 
1859	 13.1700799910791 
1860	 14.7309328458143 
1861	-0.149742087520377 
1862	-7.65091718273499E-02 
1863	 0.739910954639734 
1864	 65.790286158176 
1865	 5.11113787853541 
1866	 1.07096026760915 
1867	 1.07385861204789 
1868	-0.192992555502227 
1869	-0.19255996921367 
1870	 0.558480246728383 
1871	 1.65548534127517 
1872	 1.28493754207339 
1873	 0.799978542283434 
1874	-9.63031897428992E-02 
1875	-1.2629984402895 
1876	-1.77256027656919 
1877	-1.75769636970813 
1878	-1.51267670589004 
1879	-3.62106587536764E-02 
1880	 9.10458342067319E-02 
1881	-0.271458038960143 
1882	-0.669107795954561 
1883	-1.00781798468744 
1884	-2.00822451147259 
1885	 2.60875166047338 
1886	-7.35002745420413 
1887	-0.452595057701946 
1888	-0.496666103718012 
1889	-0.4114663981165 
1890	 0.222714480420297 
1891	 0.234335178429845 
1892	-0.101366482949553 
1893	-6.46555631736057 
1894	-4.07020602796856 
1895	-2.24756533264048 
1896	-0.960533060212524 
1897	-0.667404956431145 
1898	-0.520622063681283 
1899	-0.997576254122909 
1900	-0.857299481935838 
1901	-0.37847215917517 
1902	-0.332489532888185 
1903	-0.221939360875242 
1904	 20.7418222906167 
1905	 0.23412925181392 
1906	 1.87692161142998 
1907	 1.32079181885431 
1908	 2.39032382287694 
1909	-0.637632599751646 
1910	 13.1468425296841 
1911	-0.506415076430853 
1912	-0.164597322252181 
1913	-8.01195651280433E-03 
1914	 4.80365163468674 
1915	 12.7364137743042 
1916	-0.88390897598807 
1917	 0.168514775618466 
1918	-1.40261791305848 
1919	-2.86259903777543 
1920	-1.10832657467527 
1921	-0.73329400680353 
1922	-0.528956341946666 
1923	-70.9606010773458 
1924	 4.38576824960691 
1925	 1.37716352667925 
1926	 1.34554884902919 
1927	 1.53837622032957 
1928	 1.03307008862126 
1929	 0.977809598318531 
1930	 0.961939664372522 
1931	 0.191989251728073 
1932	-0.224323521519876 
1933	-1.41504442603405E-02 
1934	-0.083408093991152 
1935	-0.118088243786844 
1936	 2.67695672844518E-04 
1937	-0.04104929441245 
1938	-2.73518833657994E-03 
1939	 1.65695006721701E-02 
1940	 7.83172008513157E-02 
1941	 4.56069566140051E-02 
1942	 9.39493080006291E-03 
1943	-1.43845913702283E-02 
1944	-1.35279526146352E-02 
1945	 2.90596160633512E-04 
1946	 8.51573276935983E-03 
1947	-1.12830229828683E-02 
1948	-4.55171706228644E-02 
1949	-3.45284433184327E-02 
1950	-9.04334935619707E-03 
1951	 3.8941523442051E-04 
1952	 9.4968378122613E-03 
1953	 2.43737591103851E-02 
1954	 1.69355015566088E-02 
1955	 1.10362851706671E-02 
1956	 1.15774200576736E-02 
1957	 3.65299913939483E-03 
1958	 2.91660341271229E-03 
1959	-3.6637521532731E-03 
1960	-8.54814101472513E-03 
1961	-1.84835138340299E-03 
1962	 1.21887269752742E-03 
1963	-3.67322092529534E-03 
1964	-5.38771993675522E-03 
1965	-2.45629238440945E-03 
1966	-1.2641816172595E-03 
1967	-1.2903992645079E-03 
1968	 8.48405154960978E-04 
1969	 3.7020602772103E-03 
1970	 2.09108085416586E-03 
1971	 4.62217680954085E-04 
1972	 1.04257263995647E-03 
1973	 1.4154306859725E-03 
1974	 2.38611922426204E-03 
1975	 2.16721688961796E-03 
1976	 1.64438810235506E-03 
1977	 7.8100156398888E-04 
1978	-1.938084159098E-05 
1979	 2.74713344951166E-04 
1980	 1.72930726908798E-03 
1981	 2.09352062709452E-03 
1982	 2.14862548478966E-03 
1983	 2.14286848639809E-03 
1984	 1.29075846668376E-03 
1985	 5.39951492033854E-04 
1986	-6.63920767459608E-06 
1987	 1.27098136555804E-04 
1988	 1.86110662092304E-04 
1989	 5.97011171169192E-04 
1990	 1.52954059147097E-03 
1991	 1.94462389612829E-03 
1992	 1.25692944411609E-03 
1993	-1.32445566546238E-04 
1994	 5.33928938160989E-05 
1995	 1.15105297281515E-03 
1996	 2.61907165730011E-03 
1997	 4.10360521132454E-03 
1998	 5.11462785858518E-03 
1999	 4.69988106338564E-03 
2000	 5.02676391318035E-03 
2001	 3.68274409419217E-03 
2002	 3.23123758060646E-03 
2003	 2.99460907055229E-03 
2004	-2.2633065994843E-03 
2005	-5.53487584670766E-03 
2006	-2.47002209905285E-03 
2007	 1.37907278978779E-03 
2008	 4.09212702610459E-03 
2009	 5.52241839926181E-03 
2010	 6.19373879771286E-03 
2011	 6.17357113557819E-03 
2012	 4.68348392775681E-03 
2013	 3.00367941381599E-03 
2014	 2.78692445930236E-03 
2015	 3.35294317012676E-03 
2016	 1.1681966170849E-03 
2017	-4.91732035332983E-04 
2018	-1.0161151952441E-03 
2019	-1.4698038772783E-03 
2020	-1.92943661935286E-03 
2021	-2.25308888351218E-03 
2022	-1.77765921721505E-03 
2023	 3.8711653172321E-04 
2024	 1.02748907267684E-03 
2025	 1.42723507431784E-03 
2026	 1.53807426740994E-03 
2027	 1.36305052866754E-03 
2028	 9.52038698006367E-04 
2029	-2.83418119558987E-04 
2030	 4.93826701644121E-04 
2031	 1.53584864016231E-03 
2032	 2.16666903833346E-04 
2033	-8.27158226083003E-04 
2034	-2.32896130818507E-04 
2035	 9.21687697471705E-05 
2036	 4.38936487364111E-06 
2037	 5.88541589543422E-04 
2038	 1.14765897569269E-03 
2039	 1.43591947261688E-03 
2040	 1.50521249060878E-03 
2041	 1.55231242312209E-03 
2042	 1.16788904958185E-03 
2043	 1.26058586977734E-03 
2044	 1.47662328364734E-03 
2045	 1.64715710331428E-03 
2046	 1.90746557459282E-03 
2047	 2.2202295662173E-03 
2048	 1.54252416032409E-03 
2049	 9.38684662632323E-04 
2050	 2.2588471178665E-03 
2051	 3.24974650098136E-03 
2052	 3.26317728575262E-03 
2053	 3.50162361587381E-03 
2054	 2.34068093461708E-03 
2055	 1.12941328855015E-03 
2056	 6.40588834714271E-04 
2057	 1.08255336617605E-03 
2058	 1.24003275596234E-03 
2059	 1.73191900776037E-03 
2060	 2.04241548460939E-03 
2061	 2.57097851436084E-03 
2062	 2.71294217544237E-03 
2063	 2.41312775228273E-03 
2064	 2.00080352472403E-03 
2065	 2.4346765268325E-03 
2066	 2.63966141484649E-03 
2067	 3.18371183613397E-03 
2068	 3.19502669480649E-03 
2069	 1.56125460065991E-03 
2070	 1.32304306181011E-03 
2071	 1.64297531595576E-03 
2072	 1.30289056944498E-03 
2073	 1.17393745972063E-03 
2074	 1.41249670664138E-03 
2075	 1.44592582722344E-03 
2076	 1.20322132961003E-03 
2077	 1.29647237760103E-03 
2078	 1.6250787416133E-03 
2079	 1.57011397167498E-03 
2080	 1.20889862288144E-03 
2081	 1.57424196315985E-03 
2082	 1.1557067719303E-03 
2083	 1.13788771859094E-03 
2084	 9.85038483298058E-04 
2085	 3.27838023702482E-05 
2086	 5.11659199073408E-04 
2087	 1.61105935467984E-03 
2088	 2.02925680912779E-03 
2089	 2.3636745543062E-03 
2090	 2.13450286576317E-03 
2091	 1.55192536343871E-03 
2092	 1.55532790471009E-03 
2093	 2.4041896066923E-03 
2094	 2.45392166107169E-03 
2095	 2.05274030474015E-03 
2096	 2.07030250153074E-03 
2097	 2.33695879235148E-03 
2098	 2.29288400861485E-03 
2099	 2.19077740009393E-03 
2100	 2.32403259820024E-03 
2101	 2.16354055831536E-03 
2102	 1.42143642757446E-03 
2103	 1.33816473552122E-03 
2104	 1.5672124367073E-03 
2105	 1.08528295328998E-03 
2106	-1.58136687461521E-05 
2107	-1.31807468458591E-04 
2108	 2.01597407356006E-04 
2109	 5.80923537291366E-04 
2110	 1.40646204615823E-03 
2111	 2.53227919504405E-03 
2112	 2.67107436313699E-03 
2113	 2.21074286134569E-03 
2114	 1.08084689785158E-03 
2115	 7.80643146549047E-04 
2116	-3.83181341340432E-04 
2117	-7.26346900725265E-04 
2118	 4.47516179651157E-04 
2119	 5.39766938657137E-04 
2120	 1.7830030107614E-04 
2121	-2.20839338906785E-04 
2122	-5.30069868634607E-04 
2123	-1.1923888068524E-03 
2124	-7.71612798405567E-04 
2125	 2.175210090313E-04 
2126	 6.9744154560169E-05 
2127	 8.54564866708937E-04 
2128	 1.46631120188778E-03 
2129	 6.84040298386559E-04 
2130	 1.24286182472033E-03 
2131	 1.6364175714875E-03 
2132	 1.52624946673537E-03 
2133	 2.33317098207854E-03 
2134	 2.41963597440578E-03 
2135	 2.14990585587159E-03 
2136	 2.16323472078107E-03 
2137	 2.06162128144829E-03 
2138	 1.65888903601116E-03 
2139	 1.26916650264666E-03 
2140	 1.15874295681226E-03 
2141	 6.76683238412772E-04 
2142	 4.62803960858641E-04 
2143	 4.57513794393564E-04 
2144	 1.14761142758831E-03 
2145	 1.83110448842188E-03 
2146	 2.10199968406207E-03 
2147	 1.67041887559914E-03 
2148	 5.72868780699864E-04 
2149	 3.3713410223605E-04 
2150	 3.97049000952058E-04 
2151	 4.07021359189124E-04 
2152	 8.86136176088572E-04 
2153	 7.56606042473464E-04 
2154	-5.52213324316748E-04 
2155	-6.64510776764504E-04 
2156	 1.01268804792429E-03 
2157	 1.58144423951159E-03 
2158	 1.91122985500725E-03 
2159	 1.85498181041958E-03 
2160	 1.33008066362609E-03 
2161	 1.00277021325188E-03 
2162	-1.34502389752498E-05 
2163	-4.26614036699732E-05 
2164	 9.91594709290706E-04 
2165	 1.01359919091139E-03 
2166	 8.17916701703587E-04 
2167	 1.01136972201368E-03 
2168	 1.16656697310096E-03 
2169	 9.99314227026849E-04 
2170	 8.75510877688935E-04 
2171	 6.71069717491259E-04 
2172	 2.62576829182755E-04 
2173	 3.59086564380082E-04 
2174	 1.17740546659044E-03 
2175	 1.16268238480088E-03 
2176	 1.5570973636608E-04 
2177	-7.15278121717161E-04 
2178	-4.64444609151904E-04 
2179	-6.91295587884971E-05 
2180	 2.11096627170836E-04 
2181	 1.17259886232099E-03 
2182	 1.40913455403375E-03 
2183	 1.01020701304022E-03 
2184	 1.18123204446466E-03 
2185	 1.20011329139369E-03 
2186	 1.52757396314521E-03 
2187	 2.03452098042318E-03 
2188	 1.63422778146832E-03 
2189	 1.50778956900738E-03 
2190	 6.91042313706747E-04 
2191	-2.50330102197286E-03 
2192	-3.01775362709998E-03 
2193	-1.6008308388391E-03 
2194	-1.79252379695613E-03 
2195	-2.54571952805862E-03 
2196	-1.66003920999402E-03 
2197	 4.38131290760505E-04 
2198	 9.30117588411832E-04 
2199	 1.92617530548654E-03 
2200	 2.86185161384654E-03 
2201	 1.65161012184004E-03 
2202	 2.34082382823595E-04 
2203	 1.76946955434142E-03 
2204	 3.05299459864133E-03 
2205	 2.90504202804134E-03 
2206	 2.91347305762484E-03 
2207	 2.15778739292826E-03 
2208	 5.69236190872962E-04 
2209	-1.60548580414236E-04 
2210	 7.31065449273594E-04 
2211	 1.7659504754689E-03 
2212	 1.96785354362677E-03 
2213	 2.68537148566805E-03 
2214	 1.8446907437683E-03 
2215	-2.8189180570414E-04 
2216	-4.905596033541E-05 
2217	-2.18223990180921E-04 
2218	-1.09796917235898E-04 
2219	-5.37075286069759E-04 
2220	-1.32234564209903E-03 
2221	-1.39792275034625E-03 
2222	-7.73927621822319E-04 
2223	-1.67598252754888E-03 
2224	-3.17510341078673E-03 
2225	-3.23660779929452E-03 
2226	-4.64813276624898E-03 
2227	-4.18832578243976E-03 
2228	-4.62107725332054E-04 
2229	 8.58581373883115E-04 
2230	 1.59268109582281E-03 
2231	 2.25285181492516E-03 
2232	 1.9079841029738E-03 
2233	 2.08048715997989E-03 
2234	 2.74962085072308E-03 
2235	 2.64371111009327E-03 
2236	 8.87632506139236E-04 
2237	-1.00720705530412E-03 
2238	-1.0756667157036E-03 
2239	 3.46120319578248E-04 
2240	 2.45370361981858E-03 
2241	 4.28400814826573E-03 
2242	 3.65745679912348E-03 
2243	 9.7961244623454E-04 
2244	-0.000113988874474 
2245	 5.46473722570314E-04 
2246	 1.98684822413402E-03 
2247	 4.07680696774913E-03 
2248	 2.88392605831213E-03 
2249	 7.28427338673597E-04 
2250	 1.57895550162354E-03 
2251	 4.7933655834162E-04 
2252	-2.12258756293753E-04 
2253	 3.0210303407828E-03 
2254	 2.73286696039824E-03 
2255	-1.62244045283644E-03 
2256	-1.85598247190235E-03 
2257	-1.30854889934349E-03 
2258	-3.47270194981801E-03 
2259	-1.34727144757839E-03 
2260	-3.47844646533804E-04 
2261	-1.0395387223016E-03 
2262	-1.08528129070156E-03 
2263	 1.22285486163554E-03 
2264	 1.72823841827852E-03 
2265	 9.00016381140349E-04 
2266	 1.44194016575071E-03 
2267	 2.15715014934963E-03 
2268	 1.82308287901536E-03 
2269	 1.72349329219087E-03 
2270	 1.38796188854696E-03 
2271	-1.39907164600559E-03 
2272	-7.84223907998722E-04 
2273	 3.40958130638177E-03 
2274	 4.03426209931809E-03 
2275	 3.66946513823497E-03 
2276	 5.24510826713332E-03 
2277	 7.1375203219945E-03 
2278	 6.53912705068859E-03 
2279	 5.90080899263016E-03 
2280	 5.66857001318937E-03 
2281	 2.84541693234495E-03 
2282	 2.93566190080958E-04 
2283	 8.65233618194311E-04 
2284	 2.61158064475332E-03 
2285	 3.78059817618875E-03 
2286	 7.53129959158192E-04 
2287	-3.27942221824301E-03 
2288	-2.57468995252102E-03 
2289	-1.52518519407842E-03 
2290	-9.06237553612789E-05 
2291	 2.40551704891623E-03 
2292	 2.96756557375198E-03 
2293	 1.75401173970388E-03 
2294	-2.52150863760319E-04 
2295	-4.99171434103758E-04 
2296	 1.11143142464438E-03 
2297	 7.26299079056816E-04 
2298	-1.41839515820485E-03 
2299	-2.22124314817007E-03 
2300	-1.8492301531683E-03 
2301	-7.77407675423315E-04 
2302	 2.72924859448399E-03 
2303	 4.41127567381183E-03 
2304	 9.41156988975658E-04 
2305	 2.06741869738908E-04 
2306	 4.41007779475679E-04 
2307	-1.08460144147907E-03 
2308	 8.27346936393516E-04 
2309	 8.67202171301599E-04 
2310	-2.30284625210735E-03 
2311	-4.5751662508019E-03 
2312	-3.57005896344779E-03 
2313	-1.47436169752394E-03 
2314	-3.09236831940837E-03 
2315	-1.50292315250141E-03 
2316	 1.2636801943684E-04 
2317	-4.33337915158865E-03 
2318	-3.26666325574411E-03 
2319	-1.95760244079323E-03 
2320	-9.01714036694991E-03 
2321	-7.35736276539196E-03 
2322	-1.61219192340651E-03 
2323	-4.41568810815961E-03 
2324	-1.47860808711294E-03 
2325	-2.49411781304021E-03 
2326	-1.24898598592733E-02 
2327	-1.22819159138637E-02 
2328	-1.33015440740169E-02 
2329	-1.68693294318284E-02 
2330	-1.33158590559649E-02 
2331	-0.012437373462577 
2332	-8.95855425281604E-03 
2333	-8.58964788145014E-03 
2334	-1.21807133115323E-02 
2335	-1.09181779317334E-02 
2336	-1.48752344074215E-02 
2337	-1.46243265441334E-02 
2338	-7.19242460811909E-03 
2339	-4.91562520113024E-03 
2340	-3.88141536119004E-03 
2341	-3.96826817550556E-03 
2342	-6.45350816060373E-03 
2343	-5.83185090030161E-03 
2344	-4.62751747594096E-03 
2345	-2.36089882074053E-03 
2346	 1.92457295214218E-05 
2347	-3.50549958494231E-03 
2348	-9.10343616701039E-03 
2349	-1.47930194798799E-02 
2350	-1.61219973328969E-02 
2351	-1.14869454930431E-02 
2352	-8.31442415183805E-03 
2353	-8.37884673225517E-03 
2354	-8.41732457665874E-03 
2355	-8.07347001855117E-03 
2356	-9.68532217919962E-03 
2357	-6.98665167381073E-03 
2358	 4.16532185264119E-03 
2359	 5.08449055745476E-03 
2360	 2.61748793327416E-03 
2361	 4.98740787724503E-03 
2362	-7.12050849243737E-03 
2363	-0.012537947066257 
2364	-7.88860476882497E-03 
2365	-1.29025697308691E-02 
2366	-1.08464327774764E-02 
2367	-5.80041428913052E-03 
2368	-1.07686906710802E-02 
2369	-1.53855633342413E-02 
2370	-1.54944929606928E-02 
2371	-1.99780035993163E-02 
2372	-2.68859073176551E-02 
2373	-2.08177485911028E-02 
2374	-6.80306544543582E-03 
2375	 6.15546948942513E-03 
2376	 1.14336297200632E-02 
2377	 5.17055735061966E-03 
2378	 2.67568391468275E-03 
2379	 1.32947951429731E-02 
2380	 1.57974503843945E-02 
2381	-3.77811744467153E-04 
2382	 1.49802668438443E-03 
2383	-1.55935560047618E-02 
2384	-4.95816322401039E-02 
2385	-3.02233940324542E-02 
2386	-2.14890946978104E-02 
2387	-4.61887919194558E-02 
2388	-4.50150212761516E-02 
2389	-2.56096159332195E-02 
2390	-2.34179758139561E-02 
2391	-1.73644641183967E-02 
2392	-9.98725844047231E-04 
2393	-6.72119114555897E-03 
2394	-3.38703732075795E-02 
2395	-5.89618311009016E-02 
2396	-3.91194466175204E-02 
2397	-0.016622788498927 
2398	-2.62477534317795E-02 
2399	 1.90471967247119E-03 
2400	 8.54382908491824E-03 
2401	-1.17623049575067E-02 
2402	 2.39879098838462E-02 
2403	 0.0318714515719 
2404	-3.63812066286963E-03 
2405	-7.01315755139538E-03 
2406	-1.26814583220123E-02 
2407	-4.13202912047264E-02 
2408	-4.12267154182087E-02 
2409	-3.70403683301148E-02 
2410	-5.52761722032758E-02 
2411	-7.07903148600146E-02 
2412	-8.44142725985843E-02 
2413	-0.124730918794033 
2414	-0.182089436411197 
2415	-0.18784704236045 
2416	-0.150942889602532 
2417	-0.137550747304708 
2418	-0.167663392801245 
2419	-0.18505191087418 
2420	-0.180842735924533 
2421	-0.17157343582663 
2422	-0.116929393649523 
2423	-0.063089666564882 
2424	-7.74597931676164E-03 
2425	 2.75483923594858E-02 
2426	 1.79465271771028E-02 
2427	 1.87039747137158E-03 
2428	-6.12073078020806E-02 
2429	-0.146668861848957 
2430	-0.180276157817131 
2431	-0.12057189357663 
2432	-4.44808681362897E-02 
2433	 1.31638600662049E-02 
2434	 0.104067201437917 
2435	 2.93214735848857E-02 
2436	-9.06853558444504E-02 
2437	-0.114267450277862 
2438	-0.205870937815308 
2439	-0.199907870965368 
2440	-0.204509102608566 
2441	-0.155960607117367 
2442	-0.06847334199347 
2443	-0.164362488492266 
2444	-1.80667404684959E-02 
2445	 4.76571779103537E-02 
2446	-0.237345435461907 
2447	 0.140665231560731 
2448	 8.33787830356096E-02 
2449	-0.548117054623287 
2450	-0.672507097796342 
2451	-1.06914537466792 
2452	-0.812773783230782 
2453	-1.05043466697623 
2454	-1.3389910672886 
2455	-0.96968039223908 
2456	-0.610819404991064 
2457	-0.611940132485033 
2458	-0.490096226882541 
2459	-0.141218086484406 
2460	-5.75035843748595E-02 
2461	 5.59832877191002E-03 
2462	 9.16794952303907E-02 
2463	-0.047097377749614 
2464	-0.205194539960448 
2465	-0.21775656278654 
2466	-0.386420661047304 
2467	-0.77174971928042 
2468	-5.24389373450807 
2469	-17.2233614893147 
2470	-1.76410928865737 
2471	-2.13512983635269 
2472	-0.94701454179079 
2473	-0.59166261361016 
2474	-0.834774635246206 
2475	-0.73358936552584 
2476	-1.39833632975647 
2477	-5.78615574587637 
2478	-6.19716302783586 
2479	 11.0577168399871 
2480	 1.9030475142874 
2481	 0.988220546780563 
2482	 0.520239725078666 
2483	 0.282250116532151 
2484	 0.318748497865215 
2485	 0.416312488465533 
2486	 0.680266353875121 
2487	 0.915854916761494 
2488	 0.256387173565317 
2489	 0.086271960342619 
2490	-0.111616591108696 
2491	-0.20773286378197 
2492	 0.315724514161773 
2493	 1.24459555629567 
2494	 0.330914640336374 
2495	 0.236790862995872 
2496	 0.425581518722144 
2497	 0.232222863500863 
2498	 0.726554726837127 
2499	 0.813354928135928 
2500	 0.740404432383245 
