Wavelength	rt0718west_algea00004.asd
350	 3.09431670941284E-02 
351	 3.16876658568242E-02 
352	 3.19667225980256E-02 
353	 3.20322872847393E-02 
354	 0.032166876400091 
355	 3.22271731373532E-02 
356	 3.23338471258355E-02 
357	 3.26031902196331E-02 
358	 3.30611166907476E-02 
359	 3.34754732331791E-02 
360	 3.33697006865095E-02 
361	 3.31170851170079E-02 
362	 3.35524805629669E-02 
363	 0.034078989582904 
364	 3.42917565425031E-02 
365	 3.40894379086863E-02 
366	 3.37388898304423E-02 
367	 3.41254558717078E-02 
368	 3.47208619139275E-02 
369	 3.48958670136876E-02 
370	 3.51615085226594E-02 
371	 3.52272853629284E-02 
372	 3.52634416161313E-02 
373	 3.56450819507199E-02 
374	 3.60545137149023E-02 
375	 3.61178385823319E-02 
376	 3.59248175071231E-02 
377	 3.61698119330598E-02 
378	 3.63973396821226E-02 
379	 3.65968554350412E-02 
380	 3.68700845416002E-02 
381	 3.73967733171858E-02 
382	 0.03748825090674 
383	 3.73748658114374E-02 
384	 3.76868683801631E-02 
385	 0.038407714268898 
386	 3.85527543349912E-02 
387	 3.81588802354636E-02 
388	 3.84212041803065E-02 
389	 3.88594748154502E-02 
390	 3.91333377000321E-02 
391	 3.91982017396931E-02 
392	 3.97072369644354E-02 
393	 3.96184019077161E-02 
394	 3.94294052302853E-02 
395	 3.98942413199409E-02 
396	 3.99003751566738E-02 
397	 0.039957069712785 
398	 4.01752275566231E-02 
399	 4.02562785117783E-02 
400	 0.040244661345464 
401	 4.03075100040842E-02 
402	 4.04668673211147E-02 
403	 0.040353790256748 
404	 0.04051779092986 
405	 4.07461035667374E-02 
406	 4.06720819706528E-02 
407	 4.07876501186758E-02 
408	 4.10144343593337E-02 
409	 0.041208942128355 
410	 4.12176732219293E-02 
411	 4.11718659286075E-02 
412	 0.041289223963284 
413	 4.15967813550734E-02 
414	 4.16410028755256E-02 
415	 4.18208037910643E-02 
416	 4.19772043461159E-02 
417	 4.18457411355746E-02 
418	 4.19531484595159E-02 
419	 4.21176763519322E-02 
420	 4.22700223667336E-02 
421	 4.25112358799743E-02 
422	 4.26416562769977E-02 
423	 4.27582930030854E-02 
424	 4.29828833312609E-02 
425	 4.33539186797808E-02 
426	 4.35489636820201E-02 
427	 4.36944325939132E-02 
428	 4.40743115356279E-02 
429	 4.43586395502109E-02 
430	 4.47117362871175E-02 
431	 4.51336565280319E-02 
432	 4.53894735622088E-02 
433	 4.55380086915116E-02 
434	 4.57846312100251E-02 
435	 4.62112520883634E-02 
436	 4.64499636168733E-02 
437	 4.67198992735135E-02 
438	 4.70356378251503E-02 
439	 4.73010625001263E-02 
440	 4.75130017396728E-02 
441	 4.77293062247025E-02 
442	 4.79849738771891E-02 
443	 4.82711664019073E-02 
444	 4.85906388643663E-02 
445	 4.88687660362672E-02 
446	 4.90449708733956E-02 
447	 4.91852109347677E-02 
448	 4.93191791842787E-02 
449	 4.94787879044005E-02 
450	 4.96870263490799E-02 
451	 4.98515888929957E-02 
452	 4.99621376462688E-02 
453	 5.00507867320601E-02 
454	 5.02084906138904E-02 
455	 5.03447725197062E-02 
456	 5.04605641820644E-02 
457	 5.05757624647442E-02 
458	 5.06219873204581E-02 
459	 5.07055490692602E-02 
460	 5.08191807296501E-02 
461	 5.08439149836744E-02 
462	 5.10027862175375E-02 
463	 5.11464323906153E-02 
464	 5.11538790004693E-02 
465	 5.11738690945333E-02 
466	 0.051282231374833 
467	 5.14047684853114E-02 
468	 0.05143033121073 
469	 5.16283891395623E-02 
470	 5.17656167722352E-02 
471	 5.17870351829188E-02 
472	 5.19314826105397E-02 
473	 5.20904225855314E-02 
474	 5.21980209237552E-02 
475	 5.22480910528536E-02 
476	 5.24108210711878E-02 
477	 5.25480047878394E-02 
478	 5.26569834449626E-02 
479	 0.052829312064058 
480	 0.053086223176484 
481	 5.32678651433364E-02 
482	 5.33573478033994E-02 
483	 5.36817049890583E-02 
484	 5.39228799101792E-02 
485	 5.40936593838955E-02 
486	 5.43172737454585E-02 
487	 5.46008666688434E-02 
488	 0.054849012017818 
489	 5.50796781625065E-02 
490	 5.54205816809621E-02 
491	 5.58491156791868E-02 
492	 0.056200475503882 
493	 5.64258869323569E-02 
494	 5.68784496313084E-02 
495	 5.72664193018022E-02 
496	 5.75693584516856E-02 
497	 5.79079405149275E-02 
498	 5.83310510584019E-02 
499	 5.87411466098803E-02 
500	 5.91162225121735E-02 
501	 0.059576625670422 
502	 0.05994399344931 
503	 6.03208348919508E-02 
504	 6.08129999954047E-02 
505	 6.12005709147255E-02 
506	 6.15701361540982E-02 
507	 6.19648662368349E-02 
508	 6.23836797261318E-02 
509	 6.27998905382966E-02 
510	 6.32159452805967E-02 
511	 6.36412266390777E-02 
512	 0.064085538186425 
513	 6.46079414743263E-02 
514	 6.51685599937136E-02 
515	 6.56952212936534E-02 
516	 6.62809189723948E-02 
517	 6.68539192345483E-02 
518	 6.74105552759855E-02 
519	 6.80473888908146E-02 
520	 6.86096738689894E-02 
521	 6.91884255658031E-02 
522	 6.98781372626615E-02 
523	 7.05787087866626E-02 
524	 7.12626977308318E-02 
525	 7.19258135456045E-02 
526	 7.25979299143404E-02 
527	 7.34693986606519E-02 
528	 7.42353537456401E-02 
529	 7.48094605913889E-02 
530	 7.56763553545477E-02 
531	 0.076529664716825 
532	 7.73576279351085E-02 
533	 7.82303038156532E-02 
534	 0.079075839546237 
535	 7.99653077023768E-02 
536	 0.080893607840943 
537	 8.17570978737038E-02 
538	 8.26631680553361E-02 
539	 8.36344113640514E-02 
540	 8.46252066151563E-02 
541	 8.54413155789125E-02 
542	 8.63053249632732E-02 
543	 8.72240221442638E-02 
544	 8.80787753413928E-02 
545	 8.89313182036286E-02 
546	 8.97931341418855E-02 
547	 9.06467977741356E-02 
548	 9.14307746145933E-02 
549	 9.21948562170345E-02 
550	 0.09299912080347 
551	 9.38705031508027E-02 
552	 9.46196199237352E-02 
553	 9.53812405310049E-02 
554	 9.61871275291951E-02 
555	 9.69299773747013E-02 
556	 9.77494918955036E-02 
557	 9.85436723256944E-02 
558	 9.92284773171859E-02 
559	 0.100004107020017 
560	 0.100710265697953 
561	 0.10134663954701 
562	 0.102012454644773 
563	 0.102681123321245 
564	 0.103328880110876 
565	 0.10392657065401 
566	 0.10442717483779 
567	 0.105027056629441 
568	 0.105592414177893 
569	 0.105944264932713 
570	 0.106411613287691 
571	 0.10687310708743 
572	 0.107262720939284 
573	 0.107603810450389 
574	 0.107939579834432 
575	 0.108202416045864 
576	 0.108363279742708 
577	 0.108613491043708 
578	 0.10878644419365 
579	 0.108874482767997 
580	 0.108969473347063 
581	 0.109097101639232 
582	 0.109113259779113 
583	 0.108986712120949 
584	 0.108930389494542 
585	 0.108788635528694 
586	 0.108636102737193 
587	 0.108566584896231 
588	 0.108306817507248 
589	 0.108050760448827 
590	 0.107844442313027 
591	 0.107531533767503 
592	 0.107158838501874 
593	 0.106681274924558 
594	 0.106093557446671 
595	 0.105551190886033 
596	 0.104751403150988 
597	 0.103775702052719 
598	 0.102918811595845 
599	 0.102133991842263 
600	 0.101351323902769 
601	 0.100628753125633 
602	 0.100256330231621 
603	 9.99680999528242E-02 
604	 9.97481620019328E-02 
605	 9.96457766265419E-02 
606	 9.95964705513086E-02 
607	 9.96384534377924E-02 
608	 9.97106238133138E-02 
609	 9.96536314033367E-02 
610	 9.95885920969147E-02 
611	 9.96048823421766E-02 
612	 9.96864390063367E-02 
613	 9.95113914747511E-02 
614	 9.94964578357736E-02 
615	 9.96054744412301E-02 
616	 9.95637821081722E-02 
617	 9.94935570086641E-02 
618	 9.94059039881734E-02 
619	 9.93246439624473E-02 
620	 9.93132670126892E-02 
621	 9.93467933156076E-02 
622	 0.099305649776726 
623	 9.91316335914705E-02 
624	 9.92240681314171E-02 
625	 9.91797130480425E-02 
626	 9.89853424129484E-02 
627	 9.90066576046287E-02 
628	 9.89753303565845E-02 
629	 9.89335212482239E-02 
630	 9.89225946599324E-02 
631	 9.88235188842139E-02 
632	 9.87404536704047E-02 
633	 9.87122572499452E-02 
634	 9.87168908970302E-02 
635	 9.85278701452606E-02 
636	 9.84123807141382E-02 
637	 9.84428394697503E-02 
638	 9.83502725849733E-02 
639	 9.82254441727796E-02 
640	 9.81449639064675E-02 
641	 9.81398699509371E-02 
642	 9.80624498469787E-02 
643	 9.79340631164756E-02 
644	 9.77831055552127E-02 
645	 9.76478344427139E-02 
646	 9.76401552108144E-02 
647	 0.097579573552917 
648	 9.73624994263264E-02 
649	 9.71801429458674E-02 
650	 9.70360577624869E-02 
651	 9.67969382669206E-02 
652	 0.09634259729897 
653	 9.60145512820408E-02 
654	 9.54942392493385E-02 
655	 9.47296886722454E-02 
656	 9.41959545920705E-02 
657	 9.35374720693263E-02 
658	 9.29529898126199E-02 
659	 9.25785152793608E-02 
660	 9.20764011324075E-02 
661	 9.17376707435169E-02 
662	 9.14872544296967E-02 
663	 9.10642098319834E-02 
664	 9.07783775853566E-02 
665	 9.05220310249878E-02 
666	 9.02396080515518E-02 
667	 9.00766631683248E-02 
668	 8.98604053280262E-02 
669	 8.96866581560615E-02 
670	 8.96698269886528E-02 
671	 8.95567742650931E-02 
672	 8.93890982403094E-02 
673	 8.92759636537923E-02 
674	 8.93577744132222E-02 
675	 0.089390749458333 
676	 8.93124586306423E-02 
677	 8.91850860802154E-02 
678	 0.089279703006354 
679	 8.94629771012874E-02 
680	 8.95974195735855E-02 
681	 8.95811739086988E-02 
682	 8.95767167772568E-02 
683	 8.97753816412013E-02 
684	 9.00727973504783E-02 
685	 8.99780303684656E-02 
686	 8.99876995136014E-02 
687	 9.00384729054366E-02 
688	 8.99614557395361E-02 
689	 0.089882290364987 
690	 0.089823992498104 
691	 8.96638055459938E-02 
692	 8.92293449983521E-02 
693	 8.89621909112826E-02 
694	 8.85556931963503E-02 
695	 8.78773281098302E-02 
696	 8.71562179342499E-02 
697	 8.66127267705304E-02 
698	 8.60661231651225E-02 
699	 8.52887058324416E-02 
700	 8.43725025176803E-02 
701	 8.34726527223176E-02 
702	 8.25981320092428E-02 
703	 8.16134579686277E-02 
704	 8.05613434506211E-02 
705	 7.94659131366057E-02 
706	 0.078361861004061 
707	 7.72556385052631E-02 
708	 7.60057486107217E-02 
709	 7.46292485782837E-02 
710	 7.31860068125462E-02 
711	 7.15999682664554E-02 
712	 6.99825960804213E-02 
713	 6.83828150846718E-02 
714	 6.67370379936292E-02 
715	 6.52118712504881E-02 
716	 6.36092820987723E-02 
717	 6.18139774922403E-02 
718	 5.99596699300135E-02 
719	 5.79188542468099E-02 
720	 5.61143137696515E-02 
721	 5.46257816359605E-02 
722	 5.31067199557308E-02 
723	 5.15819360157747E-02 
724	 5.00865546334504E-02 
725	 4.81541156103499E-02 
726	 4.64507247242215E-02 
727	 4.47027774028525E-02 
728	 4.27014423800059E-02 
729	 4.09735497075815E-02 
730	 3.90539210816392E-02 
731	 3.72014360104438E-02 
732	 0.035796444010407 
733	 3.43983605717252E-02 
734	 3.33530654667354E-02 
735	 0.032699355682477 
736	 3.19788271968622E-02 
737	 3.13891072709401E-02 
738	 3.10048253627088E-02 
739	 0.030807576798525 
740	 0.030560066381806 
741	 0.030292679621289 
742	 3.01287655916797E-02 
743	 3.01834520624704E-02 
744	 3.01202306256435E-02 
745	 3.00571994322145E-02 
746	 3.00283059450803E-02 
747	 2.98911403550897E-02 
748	 2.98566185431657E-02 
749	 2.98704136012444E-02 
750	 2.98421226168966E-02 
751	 2.98038285192244E-02 
752	 2.97472765092552E-02 
753	 0.029747964048357 
754	 2.98713591819922E-02 
755	 0.029716507091711 
756	 2.96823859747754E-02 
757	 2.98809443587868E-02 
758	 2.99156895277352E-02 
759	 2.98244515218521E-02 
760	 2.97789122082759E-02 
761	 2.99738099425659E-02 
762	 3.00517811939194E-02 
763	 2.99597955532854E-02 
764	 2.98718833769467E-02 
765	 2.99410926339298E-02 
766	 2.99777200387607E-02 
767	 3.00774306774695E-02 
768	 3.02286324372544E-02 
769	 3.03067791203285E-02 
770	 3.02578561624643E-02 
771	 3.03005548972537E-02 
772	 3.05478604285238E-02 
773	 3.06867409485575E-02 
774	 0.030790422923803 
775	 3.09015088227036E-02 
776	 3.10518628834794E-02 
777	 3.12371068388269E-02 
778	 3.14180153359698E-02 
779	 3.15810826573706E-02 
780	 3.17441602837396E-02 
781	 3.19161356768872E-02 
782	 3.21740412434322E-02 
783	 3.24897742823693E-02 
784	 3.25594369342133E-02 
785	 3.28180617563547E-02 
786	 3.31245043027717E-02 
787	 3.32488320119225E-02 
788	 3.36751187271358E-02 
789	 0.03394660587451 
790	 3.41021535322982E-02 
791	 3.45481143104688E-02 
792	 3.46532348803871E-02 
793	 0.034848107310105 
794	 3.52948028774691E-02 
795	 3.54778498995743E-02 
796	 3.57865024978912E-02 
797	 3.60863934873706E-02 
798	 3.62379880105313E-02 
799	 3.65487307381071E-02 
800	 3.68392792805646E-02 
801	 3.70010796891181E-02 
802	 3.70407060412516E-02 
803	 3.74025845271315E-02 
804	 3.76358805633339E-02 
805	 3.75738058193609E-02 
806	 3.74583268416816E-02 
807	 3.75899712748249E-02 
808	 3.76377443565037E-02 
809	 3.73825200724387E-02 
810	 3.72144437793921E-02 
811	 3.72429033543475E-02 
812	 3.72638328327629E-02 
813	 3.69964112803375E-02 
814	 3.67594371655692E-02 
815	 3.65723232421776E-02 
816	 3.62902318154033E-02 
817	 3.57231959490405E-02 
818	 3.52883961398441E-02 
819	 3.48257329331894E-02 
820	 0.034235243260035 
821	 3.35968498545035E-02 
822	 3.30165592244214E-02 
823	 3.21210707325662E-02 
824	 3.08999865332992E-02 
825	 3.03115002130444E-02 
826	 2.95374446526174E-02 
827	 0.028416155830379 
828	 2.72056738967715E-02 
829	 2.65641743530002E-02 
830	 2.58155730478514E-02 
831	 0.02495963888391 
832	 2.45248350614901E-02 
833	 2.43188740103861E-02 
834	 2.39387274592678E-02 
835	 2.34260797686394E-02 
836	 2.34024861080028E-02 
837	 2.32213632348389E-02 
838	 2.29739470303492E-02 
839	 2.28086331018721E-02 
840	 2.25666975332719E-02 
841	 2.25630666705681E-02 
842	 2.25465188859988E-02 
843	 2.22347040055984E-02 
844	 2.22822039942272E-02 
845	 2.20238544127844E-02 
846	 2.17199681745434E-02 
847	 2.21078290985428E-02 
848	 0.02186165005372 
849	 0.021623060179997 
850	 2.16417222050393E-02 
851	 2.14069805901237E-02 
852	 2.14392910801798E-02 
853	 2.13961736681425E-02 
854	 2.10938461588199E-02 
855	 2.10416971714649E-02 
856	 2.12017892914976E-02 
857	 2.11784390896404E-02 
858	 2.07549022039655E-02 
859	 2.06828294501275E-02 
860	 2.06810404290638E-02 
861	 2.07642356103903E-02 
862	 2.09714318854485E-02 
863	 0.020551915214166 
864	 2.03308389944545E-02 
865	 2.03371256214126E-02 
866	 1.98990226147747E-02 
867	 0.020083659048478 
868	 2.01822110415737E-02 
869	 1.99790948295736E-02 
870	 2.01755458237679E-02 
871	 1.99239333421989E-02 
872	 1.96489396190623E-02 
873	 1.96939852865938E-02 
874	 1.96074131621836E-02 
875	 1.93943440551731E-02 
876	 1.93165571521112E-02 
877	 1.94935216194738E-02 
878	 1.92204831827736E-02 
879	 0.019051284999403 
880	 1.90821220827316E-02 
881	 1.91328788833849E-02 
882	 0.018910593245714 
883	 1.88461415538263E-02 
884	 1.89081485404038E-02 
885	 1.87571215224738E-02 
886	 1.88705894469047E-02 
887	 1.87399384463669E-02 
888	 0.018379762113193 
889	 1.84624006198871E-02 
890	 1.86769593442729E-02 
891	 1.84704312461603E-02 
892	 1.79051398845568E-02 
893	 1.82582398814102E-02 
894	 1.84269766649789E-02 
895	 1.81293472223899E-02 
896	 1.77339621777393E-02 
897	 0.018846458051337 
898	 0.018147570107635 
899	 1.74083325265007E-02 
900	 1.86334381556554E-02 
901	 1.80384846510441E-02 
902	 0.018411910936922 
903	 1.86980346901597E-02 
904	 1.73089421434788E-02 
905	 1.77533915550871E-02 
906	 1.82090737474765E-02 
907	 1.78451201331906E-02 
908	 1.69496195864952E-02 
909	 1.72777132361685E-02 
910	 1.80424120032116E-02 
911	 1.81364979125837E-02 
912	 1.68661061428876E-02 
913	 1.70575562722355E-02 
914	 1.77750470054472E-02 
915	 1.80129202509878E-02 
916	 1.74532491588937E-02 
917	 1.68586525999255E-02 
918	 1.69072392345146E-02 
919	 1.72488561015158E-02 
920	 1.63904374297358E-02 
921	 1.66662106490784E-02 
922	 1.70507260067524E-02 
923	 1.67206204665397E-02 
924	 1.66415251119086E-02 
925	 1.68126682394497E-02 
926	 1.67560674481204E-02 
927	 1.63828616946475E-02 
928	 1.77954221383823E-02 
929	 1.74820757037484E-02 
930	 1.65374355190129E-02 
931	 0.017887925151295 
932	 1.64343419814843E-02 
933	 1.78411127052917E-02 
934	 1.94679358585267E-02 
935	 1.65802550137192E-02 
936	 1.54166545280504E-02 
937	 1.64246244346832E-02 
938	 0.017435253586691 
939	 1.67235760604294E-02 
940	 1.69124107549428E-02 
941	 1.63371664576324E-02 
942	 0.016927676555367 
943	 2.03391821203748E-02 
944	 1.53186240935687E-02 
945	 1.51741275053866E-02 
946	 1.80770498065353E-02 
947	 1.46097451833862E-02 
948	 0.014932637382856 
949	 1.67832875002446E-02 
950	 1.74863711990401E-02 
951	 1.55862416047276E-02 
952	 1.45675755295441E-02 
953	 1.38834186294402E-02 
954	 1.42102911580582E-02 
955	 1.62708132100714E-02 
956	 1.49991259522298E-02 
957	 1.34557133361794E-02 
958	 1.29373885052916E-02 
959	 1.30370708931828E-02 
960	 1.54743391185976E-02 
961	 1.52265226478491E-02 
962	 1.34713950770885E-02 
963	 1.48967526792639E-02 
964	 1.38315540347658E-02 
965	 1.42855365388685E-02 
966	 1.61752422904694E-02 
967	 1.61789976947039E-02 
968	 1.43272639134215E-02 
969	 1.38313666030519E-02 
970	 1.45395464027162E-02 
971	 1.37237570741327E-02 
972	 1.47348750411877E-02 
973	 1.56027510123954E-02 
974	 1.56004258782531E-02 
975	 1.56188833265936E-02 
976	 1.40199646461453E-02 
977	 1.35844253106695E-02 
978	 0.01416839660901 
979	 1.32726710905418E-02 
980	 1.42931741442192E-02 
981	 1.52954118474899E-02 
982	 0.015189450092539 
983	 1.43888299862592E-02 
984	 1.49820126868024E-02 
985	 0.015934379340003 
986	 1.61667513968292E-02 
987	 1.51622142961414E-02 
988	 1.38781230866861E-02 
989	 1.50913448577738E-02 
990	 1.66210831620911E-02 
991	 1.39644106175496E-02 
992	 1.33581659220257E-02 
993	 1.39964114799417E-02 
994	 1.53318220731405E-02 
995	 1.69451356992676E-02 
996	 1.58951009810893E-02 
997	 0.01481704656842 
998	 1.45932556643353E-02 
999	 1.45797322838361E-02 
1000	 1.40800379581535E-02 
1001	 1.23355169168209E-02 
1002	 1.25545542552369E-02 
1003	 1.27343610000124E-02 
1004	 1.26453227416903E-02 
1005	 1.27159485764314E-02 
1006	 1.31014713858018E-02 
1007	 1.30899599446108E-02 
1008	 1.31800169620626E-02 
1009	 1.32400923645648E-02 
1010	 0.012759053141522 
1011	 1.24357440652892E-02 
1012	 1.21648932871793E-02 
1013	 1.20955796861502E-02 
1014	 1.21988787148957E-02 
1015	 1.30199614951387E-02 
1016	 1.31182734435199E-02 
1017	 0.012787150895607 
1018	 1.26915303464242E-02 
1019	 1.23922466684378E-02 
1020	 1.23228920917751E-02 
1021	 1.24132179135094E-02 
1022	 1.27446660777869E-02 
1023	 1.27494198097177E-02 
1024	 1.27638088207484E-02 
1025	 1.27116157275393E-02 
1026	 0.012561934349162 
1027	 1.25648034144322E-02 
1028	 1.25910580051527E-02 
1029	 1.26971543741897E-02 
1030	 1.30328916280341E-02 
1031	 1.30320952795291E-02 
1032	 1.28433621871636E-02 
1033	 1.28698932809901E-02 
1034	 1.28080692384237E-02 
1035	 1.27884091439902E-02 
1036	 1.30843315404583E-02 
1037	 1.30908753756772E-02 
1038	 1.26721166661428E-02 
1039	 1.26569949211061E-02 
1040	 1.27061267290611E-02 
1041	 1.25831632322857E-02 
1042	 1.27450953230165E-02 
1043	 0.013244666232124 
1044	 1.33316773425926E-02 
1045	 1.33328457410602E-02 
1046	 1.34034730784308E-02 
1047	 1.32532860270466E-02 
1048	 1.33112453512524E-02 
1049	 1.36782372419258E-02 
1050	 1.37263699189819E-02 
1051	 1.36296591438333E-02 
1052	 1.35751069485793E-02 
1053	 1.33917236393881E-02 
1054	 1.32259439119396E-02 
1055	 1.30606169313965E-02 
1056	 1.29456197459709E-02 
1057	 1.28415718380773E-02 
1058	 1.26750785155119E-02 
1059	 0.012639958949747 
1060	 1.26867849887729E-02 
1061	 1.27738345600732E-02 
1062	 1.30573255163236E-02 
1063	 1.30369618131028E-02 
1064	 1.28978208976222E-02 
1065	 1.28209586775955E-02 
1066	 1.24336837152213E-02 
1067	 1.23853164972041E-02 
1068	 1.27431586901861E-02 
1069	 1.28149606560346E-02 
1070	 1.27211181283991E-02 
1071	 1.28336323457146E-02 
1072	 1.30667645396524E-02 
1073	 1.30642486504611E-02 
1074	 1.31699851586863E-02 
1075	 0.013650166550286 
1076	 1.34924777627376E-02 
1077	 1.27802446677166E-02 
1078	 1.26013090336707E-02 
1079	 1.22325594166472E-02 
1080	 1.22458309246405E-02 
1081	 1.29085055320151E-02 
1082	 1.30772878787144E-02 
1083	 1.32130502617625E-02 
1084	 1.32219319388148E-02 
1085	 1.28037319695937E-02 
1086	 1.27235226291441E-02 
1087	 1.27657869681118E-02 
1088	 0.012784323578668 
1089	 1.30302344778084E-02 
1090	 1.32303860433627E-02 
1091	 0.013147628964209 
1092	 1.28191946081526E-02 
1093	 1.27587115918153E-02 
1094	 1.26294591563971E-02 
1095	 1.25336551621014E-02 
1096	 1.24572829525028E-02 
1097	 1.25484331114842E-02 
1098	 1.29059283961751E-02 
1099	 1.28543875589871E-02 
1100	 1.26561739687518E-02 
1101	 1.27375698085679E-02 
1102	 0.012456537387463 
1103	 1.24179185516031E-02 
1104	 0.012974849636874 
1105	 1.35927090182297E-02 
1106	 0.012795519447103 
1107	 1.20759788606331E-02 
1108	 1.18910364571654E-02 
1109	 1.17798810691613E-02 
1110	 1.19223666085019E-02 
1111	 1.35469766144383E-02 
1112	 0.01390753096226 
1113	 0.013218392564599 
1114	 0.012941992539431 
1115	 1.23543138920025E-02 
1116	 1.19091704931998E-02 
1117	 1.13879560943773E-02 
1118	 1.12395676151427E-02 
1119	 1.17307506336801E-02 
1120	 1.19637490823479E-02 
1121	 1.29355084154957E-02 
1122	 1.31632326773393E-02 
1123	 1.18086423029016E-02 
1124	 9.7955540737667E-03 
1125	 9.43873964921592E-03 
1126	 1.09447158732704E-02 
1127	 1.21346954426603E-02 
1128	 1.42522929558909E-02 
1129	 1.42014796125362E-02 
1130	 1.06302403294571E-02 
1131	 1.09013351730925E-02 
1132	 1.42306880796669E-02 
1133	 1.30684324125331E-02 
1134	 9.43468865395788E-03 
1135	 9.72275431096833E-03 
1136	 0.010321205624958 
1137	 1.03556887936186E-02 
1138	 1.25900539597244E-02 
1139	 1.37128666408656E-02 
1140	 1.21291201211204E-02 
1141	 9.83621056722263E-03 
1142	 9.83640010853703E-03 
1143	 1.16850628569962E-02 
1144	 1.30767895593827E-02 
1145	 1.20369449829825E-02 
1146	 9.56246710501627E-03 
1147	 9.67711212439092E-03 
1148	 1.14585899090048E-02 
1149	 0.012186788952555 
1150	 1.23004881854591E-02 
1151	 1.24239647076252E-02 
1152	 1.17423780364505E-02 
1153	 9.72367399933843E-03 
1154	 9.48952742209034E-03 
1155	 9.79275138235799E-03 
1156	 1.01587693031223E-02 
1157	 1.05216109562052E-02 
1158	 1.07102001580018E-02 
1159	 0.010864668445493 
1160	 1.07925508812344E-02 
1161	 1.07918780897506E-02 
1162	 1.09256841299886E-02 
1163	 1.06477917377355E-02 
1164	 1.02604364614742E-02 
1165	 0.010106207513518 
1166	 1.02204523234143E-02 
1167	 1.06311050508499E-02 
1168	 0.010716449841958 
1169	 1.04743918127593E-02 
1170	 1.05072589134194E-02 
1171	 1.05814437116656E-02 
1172	 1.07063488627633E-02 
1173	 1.06671105682391E-02 
1174	 1.08035192279861E-02 
1175	 1.05776353044995E-02 
1176	 0.010096408867131 
1177	 1.01320474338107E-02 
1178	 1.05366670855282E-02 
1179	 1.06307041352544E-02 
1180	 1.03490875149074E-02 
1181	 1.01155051075418E-02 
1182	 1.00450854166114E-02 
1183	 1.01422074795057E-02 
1184	 1.03572659086312E-02 
1185	 1.04695704295866E-02 
1186	 1.05215935772023E-02 
1187	 1.03735136698762E-02 
1188	 1.02495171056311E-02 
1189	 1.04710709226171E-02 
1190	 1.05397415499647E-02 
1191	 1.03252607713877E-02 
1192	 1.02459698053089E-02 
1193	 1.02763310779229E-02 
1194	 1.02815247999365E-02 
1195	 1.01558232735674E-02 
1196	 1.02349005277299E-02 
1197	 1.04186082122432E-02 
1198	 1.04135994339883E-02 
1199	 1.04920293140905E-02 
1200	 1.04696512966467E-02 
1201	 1.03868321498191E-02 
1202	 1.05891067059305E-02 
1203	 1.03609135508026E-02 
1204	 1.00252089534691E-02 
1205	 1.01576095021203E-02 
1206	 1.01164390809147E-02 
1207	 1.00955909325418E-02 
1208	 0.010279227898495 
1209	 1.02909378420329E-02 
1210	 0.010265348921598 
1211	 1.02976800061726E-02 
1212	 1.03669335014011E-02 
1213	 1.03029277760912E-02 
1214	 1.02306059576032E-02 
1215	 9.97451252960108E-03 
1216	 9.92782311805185E-03 
1217	 1.01036450674631E-02 
1218	 1.03029070744255E-02 
1219	 1.03770308247644E-02 
1220	 1.04300681781957E-02 
1221	 1.04139461598122E-02 
1222	 1.02929174379135E-02 
1223	 1.04192514685253E-02 
1224	 1.05578274290598E-02 
1225	 1.04080513239993E-02 
1226	 1.03118417073701E-02 
1227	 0.010388650589257 
1228	 1.03159313962973E-02 
1229	 1.01635798851664E-02 
1230	 1.02181741976568E-02 
1231	 1.03049619398243E-02 
1232	 1.02783794198126E-02 
1233	 1.02601605062558E-02 
1234	 1.03117069834772E-02 
1235	 1.03699939824961E-02 
1236	 1.03158759009739E-02 
1237	 1.03823894614525E-02 
1238	 1.06721556300833E-02 
1239	 0.010660108553191 
1240	 1.03897720844242E-02 
1241	 1.03798759206683E-02 
1242	 1.03414799015364E-02 
1243	 1.02664333653984E-02 
1244	 1.04238709952679E-02 
1245	 1.04356515804123E-02 
1246	 1.02156487524383E-02 
1247	 0.01017672308304 
1248	 1.04183912236757E-02 
1249	 1.06142447007605E-02 
1250	 1.06488819590271E-02 
1251	 1.06825838985539E-02 
1252	 1.06298111268888E-02 
1253	 1.04300739170958E-02 
1254	 1.03176970245874E-02 
1255	 1.04155062674111E-02 
1256	 1.04446446641975E-02 
1257	 0.010432044811256 
1258	 1.04226904247366E-02 
1259	 1.04555831194029E-02 
1260	 1.04335738159443E-02 
1261	 1.03454083523634E-02 
1262	 1.02768127757791E-02 
1263	 1.01634909718038E-02 
1264	 1.02562025047801E-02 
1265	 1.01251575647118E-02 
1266	 1.00500236833619E-02 
1267	 1.04401310875018E-02 
1268	 0.01057209384295 
1269	 1.05975683812577E-02 
1270	 1.08493678051707E-02 
1271	 1.06591836794482E-02 
1272	 1.01136787775627E-02 
1273	 1.00852762588861E-02 
1274	 1.04657303392101E-02 
1275	 1.04656262002221E-02 
1276	 1.02408256338009E-02 
1277	 1.04281264701682E-02 
1278	 1.04656614444809E-02 
1279	 1.00358952898647E-02 
1280	 1.00957010513741E-02 
1281	 1.02424292308225E-02 
1282	 1.02344462703523E-02 
1283	 1.01101869986887E-02 
1284	 1.02404255710474E-02 
1285	 1.03687573382748E-02 
1286	 0.010232661478507 
1287	 1.01677665983261E-02 
1288	 1.05492103327958E-02 
1289	 1.06225766354164E-02 
1290	 1.04161052571348E-02 
1291	 9.97050130276403E-03 
1292	 1.00830256441404E-02 
1293	 1.01938237740876E-02 
1294	 0.010113017887134 
1295	 0.01014872992691 
1296	 1.03027307123891E-02 
1297	 1.01981774180178E-02 
1298	 9.82014388219495E-03 
1299	 9.84905834918091E-03 
1300	 1.00269216099451E-02 
1301	 9.92685550882077E-03 
1302	 1.01472835139445E-02 
1303	 1.03725567587881E-02 
1304	 9.93294177952522E-03 
1305	 9.71300331418337E-03 
1306	 9.68778907902506E-03 
1307	 9.92999569297673E-03 
1308	 9.91133403206647E-03 
1309	 9.94438459478563E-03 
1310	 9.95332655324494E-03 
1311	 9.82614950969636E-03 
1312	 9.72055619645401E-03 
1313	 9.79124366371366E-03 
1314	 9.62586137358476E-03 
1315	 8.96108288879418E-03 
1316	 8.90078447659675E-03 
1317	 9.29628967121618E-03 
1318	 9.3058990490912E-03 
1319	 9.33055949281318E-03 
1320	 9.52189152740246E-03 
1321	 9.76573641773997E-03 
1322	 9.6606096570978E-03 
1323	 9.33529509614442E-03 
1324	 9.17224954428464E-03 
1325	 9.38862037791408E-03 
1326	 9.56848835043499E-03 
1327	 9.55782646640932E-03 
1328	 9.73350469754888E-03 
1329	 9.57515329981383E-03 
1330	 9.03619082365802E-03 
1331	 9.0778941196474E-03 
1332	 9.58873966893984E-03 
1333	 9.57070768751841E-03 
1334	 8.89401903088489E-03 
1335	 8.71643783476813E-03 
1336	 9.08816992703618E-03 
1337	 9.01437047005934E-03 
1338	 8.71515246456585E-03 
1339	 8.55952121448409E-03 
1340	 7.96444927120102E-03 
1341	 8.01021719230862E-03 
1342	 9.05318386802605E-03 
1343	 9.14972917560316E-03 
1344	 8.87354357929428E-03 
1345	 9.03558651782381E-03 
1346	 8.68804630360577E-03 
1347	 8.4589769344057E-03 
1348	 9.00008705856077E-03 
1349	 9.22583061807441E-03 
1350	 8.6465287461907E-03 
1351	 8.17317463353982E-03 
1352	 9.66761629723472E-03 
1353	 8.86660711497271E-03 
1354	 3.41689706792865E-03 
1355	-9.04228185601185E-03 
1356	-0.017477648939361 
1357	-6.58515791466223E-03 
1358	-0.025201850045386 
1359	-7.75009854376768E-02 
1360	-0.051575122456983 
1361	-2.42410437421439E-02 
1362	-0.065223038009382 
1363	-1.57126078025277E-02 
1364	 5.06727588573353E-03 
1365	-6.92284845415503E-02 
1366	 6.81604468291931E-02 
1367	 0.211174325867603 
1368	 0.247543428499553 
1369	 4.05060903095615E-02 
1370	-1.6537311745486E-03 
1371	 4.50969611756309E-02 
1372	 0.082799888541021 
1373	 0.143619892104975 
1374	 9.41781211651275E-02 
1375	-5.98394908434153E-02 
1376	-8.47931093779154E-02 
1377	-0.136859281572647 
1378	-0.200023129450661 
1379	-0.11938338710184 
1380	-0.042308966250728 
1381	 1.84067455696335E-02 
1382	 1.66651181111479E-02 
1383	 0.094676204978425 
1384	 0.169666623120366 
1385	 0.107884955413767 
1386	-1.47744365183894E-02 
1387	-0.118733494778822 
1388	-5.09628036778824E-02 
1389	 6.08953016283767E-02 
1390	 6.61862018639527E-02 
1391	 0.262177289155545 
1392	 0.324810873213123 
1393	 0.153057940888604 
1394	 5.17502363335216E-02 
1395	-0.197050388693772 
1396	-0.181649732415456 
1397	-4.32025397062138E-02 
1398	-0.113438482400666 
1399	-5.18118435544539E-02 
1400	 0.201106573158003 
1401	 0.309997898414655 
1402	 0.146556322082884 
1403	 0.146721141471406 
1404	 0.195839751148562 
1405	 0.135333827687331 
1406	-3.87720268039677E-02 
1407	-2.63498687402975E-02 
1408	 5.81763258480642E-02 
1409	 4.42170320473594E-02 
1410	 3.86760687199694E-02 
1411	 3.71601137658056E-02 
1412	 3.44584418146966E-03 
1413	-1.26667601834818E-02 
1414	-1.05899958695784E-02 
1415	-1.09729242421677E-02 
1416	-3.31425529540444E-02 
1417	-1.47138867096036E-02 
1418	 3.70787085611216E-02 
1419	 4.11540679527327E-02 
1420	 3.82239916333433E-02 
1421	 3.41996271698559E-02 
1422	 1.83264830874543E-02 
1423	 9.63130434316595E-03 
1424	 2.2930318740589E-03 
1425	 9.97965059069396E-04 
1426	 5.04002672011419E-03 
1427	-4.00538856094201E-04 
1428	-9.73139055655976E-03 
1429	-9.27086534241374E-03 
1430	-1.16001520925448E-02 
1431	-0.01263250760501 
1432	-3.70165790301875E-03 
1433	 5.21627545772814E-04 
1434	-7.23297784383065E-05 
1435	-6.35146067611347E-04 
1436	-2.32007899081394E-03 
1437	 9.26148917306585E-04 
1438	 1.06094142981842E-04 
1439	-2.15071577615986E-03 
1440	-4.34615061007771E-04 
1441	-2.08232082487032E-03 
1442	 8.46366008683447E-04 
1443	 8.17647574764758E-03 
1444	 1.05754126511517E-02 
1445	 9.05194969932212E-03 
1446	 3.55207379881429E-03 
1447	 5.87220281436096E-04 
1448	 3.87970335729855E-03 
1449	 5.66451379208412E-03 
1450	 2.57227713619751E-03 
1451	 3.57743318426866E-04 
1452	 1.11256374364756E-03 
1453	 1.69639048421398E-03 
1454	 1.69403912981453E-03 
1455	 4.10546483303533E-03 
1456	 4.98438851063142E-03 
1457	 3.64761518515333E-03 
1458	 3.51972271019132E-03 
1459	 5.32534753598849E-03 
1460	 5.02383406052489E-03 
1461	 2.64186972307948E-03 
1462	 2.22495826739295E-03 
1463	 2.15624016540792E-03 
1464	 2.30792598272057E-03 
1465	 3.73151705313645E-03 
1466	 4.20417581378091E-03 
1467	 4.69524402411269E-03 
1468	 4.2504692841527E-03 
1469	 1.90616819533111E-03 
1470	 1.57549178395042E-03 
1471	 2.33332227638315E-03 
1472	 2.1869896341263E-03 
1473	 2.71733349766641E-03 
1474	 3.00725650457853E-03 
1475	 2.31215765298431E-03 
1476	 1.87538566745486E-03 
1477	 1.80459364699079E-03 
1478	 1.88927771848808E-03 
1479	 1.64135120522618E-03 
1480	 1.92321799274828E-03 
1481	 2.66207695081563E-03 
1482	 3.32275432066104E-03 
1483	 4.73434881582957E-03 
1484	 4.58373456671545E-03 
1485	 3.13022864913916E-03 
1486	 0.003456917205858 
1487	 4.22472040832494E-03 
1488	 3.97754059874353E-03 
1489	 4.23820647677052E-03 
1490	 4.26724605588408E-03 
1491	 3.17359887215366E-03 
1492	 2.96045429551183E-03 
1493	 3.56771940913941E-03 
1494	 3.64372200630526E-03 
1495	 3.58480834144004E-03 
1496	 3.57272134797405E-03 
1497	 3.37441310136429E-03 
1498	 3.36790100928834E-03 
1499	 3.55079875021824E-03 
1500	 3.51329473263007E-03 
1501	 3.39242675291096E-03 
1502	 3.39028908121559E-03 
1503	 3.39877519056208E-03 
1504	 3.34780502132662E-03 
1505	 3.27896866532165E-03 
1506	 3.27374015243177E-03 
1507	 3.44537285374648E-03 
1508	 3.5044547517911E-03 
1509	 3.67926284518254E-03 
1510	 3.8834878707543E-03 
1511	 3.7425687400504E-03 
1512	 3.73832261065935E-03 
1513	 3.99753309406793E-03 
1514	 4.02282492889099E-03 
1515	 4.0124977857363E-03 
1516	 4.05341943477244E-03 
1517	 3.74078943496504E-03 
1518	 3.52218685825703E-03 
1519	 3.78341785438729E-03 
1520	 3.94363416620486E-03 
1521	 4.08536999278903E-03 
1522	 4.36109697788114E-03 
1523	 4.29853336667758E-03 
1524	 4.01376316674568E-03 
1525	 3.97729991036547E-03 
1526	 4.0517905538284E-03 
1527	 0.003939927526734 
1528	 3.98365471281483E-03 
1529	 4.09611807604998E-03 
1530	 4.10272814343517E-03 
1531	 4.18818965101731E-03 
1532	 4.16609873273252E-03 
1533	 4.16217528129274E-03 
1534	 4.27983114728322E-03 
1535	 4.35010076364521E-03 
1536	 4.44516557066588E-03 
1537	 4.53163761284471E-03 
1538	 4.43647702340445E-03 
1539	 4.31756781270092E-03 
1540	 4.43759900520571E-03 
1541	 4.63184082472915E-03 
1542	 4.66931183378988E-03 
1543	 4.65316079836537E-03 
1544	 4.70924377313268E-03 
1545	 4.71583690279089E-03 
1546	 4.55170093511285E-03 
1547	 4.45892998730231E-03 
1548	 4.58558881273519E-03 
1549	 4.56439839964859E-03 
1550	 4.57629125371149E-03 
1551	 4.87406368095789E-03 
1552	 4.83887305552146E-03 
1553	 4.53936223916103E-03 
1554	 4.52343188789862E-03 
1555	 4.59282070088282E-03 
1556	 4.5607772518752E-03 
1557	 4.70669860548535E-03 
1558	 4.85482601518927E-03 
1559	 4.7840013837043E-03 
1560	 4.89728888207124E-03 
1561	 5.00701379838849E-03 
1562	 4.90421302721934E-03 
1563	 4.8458466261364E-03 
1564	 4.7122233671519E-03 
1565	 4.63713975183341E-03 
1566	 4.74483781081677E-03 
1567	 4.8764413726861E-03 
1568	 5.08493176594441E-03 
1569	 5.21982356815527E-03 
1570	 5.15738830700631E-03 
1571	 5.02772617770256E-03 
1572	 5.0906195785482E-03 
1573	 5.1821276173668E-03 
1574	 5.01804385683201E-03 
1575	 5.10838718600105E-03 
1576	 5.31387244999933E-03 
1577	 5.20032963904392E-03 
1578	 5.30377944248342E-03 
1579	 5.50512582334685E-03 
1580	 5.2823727885159E-03 
1581	 5.02638325178735E-03 
1582	 5.28926362087766E-03 
1583	 5.67482546070803E-03 
1584	 5.44522295639755E-03 
1585	 5.29629486228696E-03 
1586	 5.56015026275999E-03 
1587	 5.48255869639229E-03 
1588	 5.38711890776747E-03 
1589	 5.55898935309763E-03 
1590	 5.38844671544444E-03 
1591	 4.75655125438807E-03 
1592	 4.73020100803619E-03 
1593	 5.39100546841187E-03 
1594	 5.45809095497787E-03 
1595	 5.2261132675766E-03 
1596	 5.30123499942306E-03 
1597	 5.19001406910657E-03 
1598	 5.16580003329949E-03 
1599	 5.57862161805205E-03 
1600	 5.66423544762397E-03 
1601	 5.2820718810391E-03 
1602	 5.29949855763245E-03 
1603	 5.59855656434496E-03 
1604	 5.64906609082934E-03 
1605	 5.74751696266138E-03 
1606	 5.70084837244093E-03 
1607	 5.47873068552848E-03 
1608	 5.59189689920613E-03 
1609	 5.67492374979488E-03 
1610	 5.5080652479366E-03 
1611	 5.51289572966991E-03 
1612	 5.61051601419234E-03 
1613	 5.49463757745227E-03 
1614	 5.4013670447727E-03 
1615	 5.49015658885704E-03 
1616	 5.67737673253435E-03 
1617	 5.86518274897233E-03 
1618	 5.92700301736633E-03 
1619	 5.71122365091689E-03 
1620	 5.47828660210164E-03 
1621	 5.64296189976932E-03 
1622	 5.69194793894151E-03 
1623	 5.70572442432346E-03 
1624	 5.98547306036121E-03 
1625	 6.06907117374088E-03 
1626	 6.09919305017569E-03 
1627	 6.10713210053277E-03 
1628	 6.05427480066512E-03 
1629	 6.0807178594718E-03 
1630	 5.99513677261252E-03 
1631	 5.99764200725893E-03 
1632	 0.006053460628052 
1633	 5.93770714018537E-03 
1634	 6.08331799380481E-03 
1635	 6.21745656181561E-03 
1636	 5.85657621833089E-03 
1637	 5.40988164045386E-03 
1638	 5.41967187547621E-03 
1639	 5.98120301280124E-03 
1640	 6.21608268586751E-03 
1641	 5.94315088695995E-03 
1642	 5.83320662890707E-03 
1643	 5.82888943422656E-03 
1644	 5.90246603329119E-03 
1645	 6.25759413258437E-03 
1646	 6.44854201533495E-03 
1647	 5.93494044059525E-03 
1648	 5.76894011900906E-03 
1649	 6.15169917744081E-03 
1650	 5.96400946481008E-03 
1651	 5.80329339702876E-03 
1652	 6.05380239845963E-03 
1653	 6.21474107843614E-03 
1654	 6.15659330768465E-03 
1655	 6.0376105605934E-03 
1656	 6.0063203857246E-03 
1657	 5.67652292747781E-03 
1658	 5.72239034152695E-03 
1659	 6.4194248775102E-03 
1660	 6.33528009550072E-03 
1661	 5.65187367684762E-03 
1662	 5.79068045638521E-03 
1663	 6.09079459460225E-03 
1664	 6.05054869219459E-03 
1665	 6.39589547293427E-03 
1666	 6.44333395935251E-03 
1667	 5.94138678510842E-03 
1668	 6.34911435361913E-03 
1669	 6.35900587466138E-03 
1670	 6.1924931720273E-03 
1671	 6.07997786451731E-03 
1672	 5.95100389294374E-03 
1673	 6.03067855922335E-03 
1674	 6.3370770535906E-03 
1675	 6.32925598380201E-03 
1676	 5.83912521393615E-03 
1677	 5.80213080755856E-03 
1678	 6.16666631971499E-03 
1679	 6.05041416255063E-03 
1680	 5.78953854579863E-03 
1681	 5.7170229328785E-03 
1682	 5.48980341211233E-03 
1683	 5.50727358927532E-03 
1684	 5.95676877223786E-03 
1685	 6.08171865003864E-03 
1686	 5.97027100073151E-03 
1687	 5.94943736252573E-03 
1688	 5.88759575456534E-03 
1689	 5.98679971671135E-03 
1690	 6.14676546685968E-03 
1691	 6.12942531267166E-03 
1692	 6.16335927761976E-03 
1693	 6.02495959647688E-03 
1694	 5.73617592848047E-03 
1695	 5.84638911049209E-03 
1696	 5.9400879106656E-03 
1697	 6.1168509700373E-03 
1698	 6.38096167500158E-03 
1699	 5.83381855656074E-03 
1700	 5.43634918713891E-03 
1701	 5.64034109807164E-03 
1702	 5.55034495826453E-03 
1703	 5.98017055745316E-03 
1704	 6.61363548215147E-03 
1705	 6.22210181278259E-03 
1706	 5.87226728132391E-03 
1707	 5.97453070907268E-03 
1708	 5.80520036569383E-03 
1709	 5.65174008516401E-03 
1710	 5.71614964680383E-03 
1711	 5.75390932481513E-03 
1712	 5.77004125373861E-03 
1713	 6.14192075007993E-03 
1714	 6.20596691770789E-03 
1715	 5.71652003022409E-03 
1716	 5.81136784926712E-03 
1717	 6.20616378299223E-03 
1718	 6.05110685756827E-03 
1719	 5.70285166423986E-03 
1720	 5.67299311763632E-03 
1721	 5.5413761153909E-03 
1722	 5.66414095788088E-03 
1723	 6.14339488126418E-03 
1724	 5.75980382112237E-03 
1725	 5.2443297230796E-03 
1726	 5.71231919181285E-03 
1727	 5.72267601178993E-03 
1728	 5.49755757010767E-03 
1729	 6.2031849563594E-03 
1730	 6.17303399131774E-03 
1731	 5.42292240994421E-03 
1732	 5.5168863091916E-03 
1733	 5.4456470538332E-03 
1734	 5.15210549028144E-03 
1735	 5.65285666719896E-03 
1736	 6.22161994067724E-03 
1737	 6.06693331350847E-03 
1738	 5.70349357759218E-03 
1739	 5.73105242600971E-03 
1740	 5.77605948560795E-03 
1741	 5.64485882307578E-03 
1742	 5.33594219946381E-03 
1743	 5.2089010952126E-03 
1744	 5.2533341187828E-03 
1745	 4.87682315477706E-03 
1746	 4.98964467189577E-03 
1747	 4.90634501838487E-03 
1748	 4.45674303447837E-03 
1749	 4.64915969172635E-03 
1750	 5.37407284372017E-03 
1751	 5.38296509623482E-03 
1752	 5.09838384435672E-03 
1753	 5.19359447255121E-03 
1754	 4.97439846669859E-03 
1755	 5.24808214312452E-03 
1756	 6.65335759109566E-03 
1757	 6.17494975209884E-03 
1758	 5.58363258497932E-03 
1759	 5.05259872028535E-03 
1760	 4.08611753316291E-03 
1761	 4.66232217351232E-03 
1762	 5.51921849133044E-03 
1763	 5.27872240439776E-03 
1764	 5.49600892307034E-03 
1765	 4.91634563230792E-03 
1766	 4.51820547772594E-03 
1767	 5.75394043529355E-03 
1768	 5.78393479878646E-03 
1769	 5.27279903249176E-03 
1770	 0.005649710167749 
1771	 4.93172531027943E-03 
1772	 4.46313132029578E-03 
1773	 5.67439772966407E-03 
1774	 5.14459622062811E-03 
1775	 4.5166701126356E-03 
1776	 4.86960408062139E-03 
1777	 5.63111017450032E-03 
1778	 5.61931511909187E-03 
1779	 5.59193262414088E-03 
1780	 5.22921203742431E-03 
1781	 3.47281725439859E-03 
1782	 3.61879447536354E-03 
1783	 5.63700645228397E-03 
1784	 6.05143639764124E-03 
1785	 6.67001031523312E-03 
1786	 6.11443760743619E-03 
1787	 2.97853878296754E-03 
1788	 3.3400842520831E-03 
1789	 5.95648365758451E-03 
1790	 6.18944906423194E-03 
1791	 6.76794526333998E-03 
1792	 4.24169326869869E-03 
1793	 3.01311322582734E-04 
1794	 2.86072279253875E-03 
1795	 5.62744897968067E-03 
1796	 6.79646887664672E-03 
1797	 1.04888312053924E-02 
1798	 7.40204531602774E-03 
1799	 4.41588023261854E-03 
1800	-1.2446693187387E-04 
1801	-3.09739547828835E-03 
1802	-4.15758241622072E-03 
1803	-2.73317494543354E-03 
1804	 0.011952584283093 
1805	 1.66683815450476E-02 
1806	 1.40468219634705E-02 
1807	 7.14909408244371E-03 
1808	-3.51118581403457E-02 
1809	-4.41306609892138E-02 
1810	-1.15608341290139E-02 
1811	-4.92280302097814E-03 
1812	 2.86397145950169E-02 
1813	 3.38184107982964E-02 
1814	-4.31692909895581E-02 
1815	-2.83084646402104E-02 
1816	 9.06997150337256E-02 
1817	 0.115287771684629 
1818	 0.035879108019442 
1819	-0.367625803203512 
1820	-0.496998221620655 
1821	 3.03009882984685E-03 
1822	 0.203664727391489 
1823	 0.863930037642882 
1824	 1.04710379859547 
1825	-0.522839320789579 
1826	-0.838593044830483 
1827	-0.651633799246012 
1828	-0.599969682975527 
1829	 0.481328965267237 
1830	 0.760155107989677 
1831	 1.30059765450051 
1832	 2.05085093238578 
1833	-2.89256920440666E-02 
1834	 0.322679140521327 
1835	 0.466965424716267 
1836	 0.432927558526898 
1837	-8.90088501027976E-02 
1838	-0.843246818179135 
1839	 0.588886072665656 
1840	-5.00073434930751 
1841	-2.72173147610308 
1842	-0.418844493638576 
1843	-0.645031759644572 
1844	 0.130244288227003 
1845	-0.03831680217861 
1846	 0.578955203095042 
1847	 0.764295335851632 
1848	-8.72851458956733 
1849	 0.105915406177332 
1850	 0.372892463502175 
1851	 0.668882165949266 
1852	 2.40620894191195E-02 
1853	-0.488569518532591 
1854	-0.33079998147536 
1855	-9.46677602137345E-02 
1856	-0.209908102647212 
1857	-11.5844540236439 
1858	 43.7281050762054 
1859	-5.32313801439604 
1860	-1.88361899621138 
1861	-2.05768992178083 
1862	 0.253484456461717 
1863	 10.3752396940404 
1864	 1.49051043079627 
1865	 1.55749118362332 
1866	-2.99888755896072 
1867	-2.25456409343362 
1868	 0.813722845418749 
1869	 9.48967560997573E-02 
1870	-0.12478049366378 
1871	-5.75131722668412E-02 
1872	 0.192687618850321 
1873	-0.308933341942085 
1874	-1.47631227292977 
1875	-4.64110418860221 
1876	-20.3707872197055 
1877	-0.661127577451381 
1878	-0.952585538617168 
1879	 2.96616067843433 
1880	 2.07997035316605 
1881	 2.51667121483851 
1882	 3.66109355951524 
1883	-0.283440886292667 
1884	 0.458098420862155 
1885	 5.08558762103202 
1886	 4.04359524967966 
1887	 1.72171900656905 
1888	 2.20854503527273 
1889	 1.22127358753998 
1890	 0.138737049767545 
1891	 2.37258849081898E-02 
1892	 5.82330435947489E-02 
1893	 0.328793421802688 
1894	 0.237260872437935 
1895	-4.42018606079186 
1896	 12.8446235765537 
1897	-5.12806821457571 
1898	-1.9955745102544 
1899	-0.785728499175378 
1900	 1.43655804571045 
1901	 2.59834634571683 
1902	 4.8276216581582 
1903	-11.4716087332582 
1904	-4.91243167865499 
1905	 12.6067454470605 
1906	-5.62049454424077 
1907	 1.49517025734403 
1908	-0.406427681340567 
1909	 0.095380470484337 
1910	 0.330813178107931 
1911	-0.314080656647479 
1912	-0.17695118921128 
1913	-0.135363411377884 
1914	-0.535620082455672 
1915	-0.647769847057908 
1916	-0.494350605105639 
1917	 1.97630956679371 
1918	 0.825741218513107 
1919	 0.818850278011728 
1920	 0.20719499263653 
1921	-0.308982789920991 
1922	-1.00739492299312 
1923	-1.47797594680646 
1924	-2.09979545334891 
1925	-0.232379656533586 
1926	-2.11785326535413 
1927	-12.8872274625656 
1928	 6.20946864910651 
1929	 0.664169472516512 
1930	 0.275561108369602 
1931	 1.92503063631567E-02 
1932	-8.55871608404405E-02 
1933	 0.108151823339947 
1934	 0.123222539920234 
1935	 6.67013533770415E-02 
1936	 5.07575653644767E-02 
1937	 3.91251228503249E-02 
1938	-1.67513610098198E-03 
1939	-4.81551870635345E-03 
1940	 0.010322217227811 
1941	 2.98911541571916E-02 
1942	 1.32819459267902E-02 
1943	 1.45323068138751E-02 
1944	 6.22025633426138E-03 
1945	 1.41607282767754E-02 
1946	 4.31470730465234E-02 
1947	 3.41691248434578E-02 
1948	 2.63940676288657E-02 
1949	 2.25460654208224E-02 
1950	 6.48858708376423E-03 
1951	-3.34027345990405E-04 
1952	-1.50344568021356E-04 
1953	 1.01269960062844E-02 
1954	 6.57329834752096E-03 
1955	-2.45050767365491E-03 
1956	 2.44627665944494E-03 
1957	 9.89809156505465E-04 
1958	-2.63279876319529E-03 
1959	-3.16717886958473E-04 
1960	 3.59957329316219E-03 
1961	 2.04196134856777E-03 
1962	-2.6038359375936E-03 
1963	 1.29118431122848E-03 
1964	 1.10063070142427E-03 
1965	-8.66876857848463E-05 
1966	 4.26243799857523E-04 
1967	 3.19939405373428E-03 
1968	 1.49134051025008E-03 
1969	 8.8936452856787E-04 
1970	 1.84629148587354E-03 
1971	 2.53300792869302E-03 
1972	 1.13471898875507E-03 
1973	-2.54474210029169E-04 
1974	 1.50623288751419E-03 
1975	 2.01943315365136E-03 
1976	 2.37586849580985E-03 
1977	 4.39493921826862E-03 
1978	 3.42477333523033E-03 
1979	 2.74065543898177E-03 
1980	 8.69038236664454E-04 
1981	 2.27562585810781E-03 
1982	 2.77158955415086E-03 
1983	 2.28849911885356E-03 
1984	 2.55191361870693E-03 
1985	 1.3319010818108E-03 
1986	-2.24957948109336E-04 
1987	 1.57391455112449E-04 
1988	 1.17308566011124E-03 
1989	 0.001875218562974 
1990	 2.95827327998205E-03 
1991	 3.87429613181232E-03 
1992	 4.03316303984351E-03 
1993	 3.35270009661079E-03 
1994	 3.08781222142016E-03 
1995	 2.41862314889731E-03 
1996	 2.33450247441166E-03 
1997	 1.93761572572913E-03 
1998	 2.72980629502136E-03 
1999	 3.93015675555213E-03 
2000	 1.77506157362569E-03 
2001	 8.54260087040049E-04 
2002	 2.67960523203842E-03 
2003	 4.99349871426134E-04 
2004	-1.42331674074413E-03 
2005	 2.62785136366785E-03 
2006	 5.29563091993123E-03 
2007	 3.99880075006179E-03 
2008	 3.90637701926689E-03 
2009	 4.11900352187889E-03 
2010	-1.05118249487286E-03 
2011	-2.45216961844271E-03 
2012	-8.89480685332084E-04 
2013	 3.15552070590539E-03 
2014	 4.68110280806077E-03 
2015	 2.74530462030499E-03 
2016	 3.36366523725376E-03 
2017	 3.94704828989758E-03 
2018	 1.96297201849527E-03 
2019	 2.10561657271653E-03 
2020	 2.6466780770999E-03 
2021	 2.15181767093184E-03 
2022	 1.47752445239607E-03 
2023	 1.18688626830485E-03 
2024	 1.38743696146753E-03 
2025	 1.49570793018628E-03 
2026	 1.73827630636554E-03 
2027	 2.55109463406347E-03 
2028	 3.01834287030979E-03 
2029	 3.26297568309392E-03 
2030	 3.45991261762838E-03 
2031	 3.81354948899126E-03 
2032	 4.3416026634591E-03 
2033	 4.16667534544793E-03 
2034	 3.5404975247219E-03 
2035	 3.00867120799067E-03 
2036	 2.3532743251218E-03 
2037	 1.86056627997168E-03 
2038	 1.94055824905547E-03 
2039	 2.12630785169659E-03 
2040	 2.93224863086418E-03 
2041	 2.91582082535928E-03 
2042	 2.46374752657517E-03 
2043	 2.45280864727222E-03 
2044	 2.28550976136132E-03 
2045	 1.65798403814348E-03 
2046	 2.40661461436877E-03 
2047	 3.56025559593623E-03 
2048	 3.08603166499355E-03 
2049	 3.36893392349158E-03 
2050	 3.56956029954212E-03 
2051	 2.57508794712191E-03 
2052	 3.03537443515513E-03 
2053	 3.90362765118578E-03 
2054	 3.96558919701204E-03 
2055	 3.76231994385409E-03 
2056	 3.48581277848359E-03 
2057	 2.64955339365421E-03 
2058	 2.21862327553343E-03 
2059	 2.13047504483111E-03 
2060	 1.67541584838041E-03 
2061	 1.18972844825261E-03 
2062	-6.0771142578984E-05 
2063	-1.48050978584886E-04 
2064	 7.10478786924796E-04 
2065	 2.36475599550074E-03 
2066	 3.41233679321979E-03 
2067	 2.89675861652037E-03 
2068	 2.64170914233667E-03 
2069	 2.09058374673082E-03 
2070	 1.31041642508189E-03 
2071	 2.05570328690528E-03 
2072	 2.17955333148627E-03 
2073	 1.8892203139433E-03 
2074	 1.53631466682548E-03 
2075	 1.32602989240689E-03 
2076	 4.76963133631666E-04 
2077	 2.15839130631492E-04 
2078	 2.62961982979254E-04 
2079	 4.52583071800159E-04 
2080	 8.70061229714956E-04 
2081	 1.11541330804775E-03 
2082	 1.75941522790292E-03 
2083	 2.26198161632053E-03 
2084	 2.34253203907857E-03 
2085	 2.22664121483561E-03 
2086	 2.04163594171965E-03 
2087	 2.13972547761977E-03 
2088	 2.37912021598689E-03 
2089	 2.42515501523045E-03 
2090	 2.17134779187837E-03 
2091	 2.30984600143203E-03 
2092	 2.41980930894041E-03 
2093	 2.32241631413628E-03 
2094	 2.70362717504521E-03 
2095	 3.55479798909836E-03 
2096	 3.67803767864999E-03 
2097	 3.96162038799174E-03 
2098	 3.91419772587971E-03 
2099	 3.1599846760619E-03 
2100	 2.99005337300213E-03 
2101	 3.12659729000139E-03 
2102	 2.84148852989877E-03 
2103	 2.47336913847035E-03 
2104	 2.0553749912124E-03 
2105	 1.94186000009539E-03 
2106	 1.88491583469538E-03 
2107	 2.34507784357899E-03 
2108	 2.93094397647135E-03 
2109	 3.06686501909614E-03 
2110	 3.23858933439981E-03 
2111	 2.7725489480583E-03 
2112	 2.50338783072079E-03 
2113	 2.62261248328913E-03 
2114	 2.92237997152454E-03 
2115	 2.97779545371102E-03 
2116	 3.39677690097728E-03 
2117	 3.63814913616567E-03 
2118	 3.72920434592298E-03 
2119	 3.43137872836936E-03 
2120	 2.95941991426858E-03 
2121	 2.61136229498749E-03 
2122	 1.78976653845127E-03 
2123	 1.40633110993591E-03 
2124	 0.00178560530617 
2125	 2.01916059011765E-03 
2126	 2.17071412801657E-03 
2127	 2.66622530121246E-03 
2128	 2.55564725026608E-03 
2129	 2.37713756259441E-03 
2130	 2.57154569032755E-03 
2131	 2.22095951210475E-03 
2132	 2.11979803420953E-03 
2133	 1.8919597457705E-03 
2134	 1.8705883403094E-03 
2135	 1.72909643536808E-03 
2136	 2.14833001014476E-03 
2137	 3.33916773981574E-03 
2138	 3.73235100451733E-03 
2139	 4.25903411481703E-03 
2140	 4.2165609851776E-03 
2141	 0.002759901442467 
2142	 2.6972845426886E-03 
2143	 3.79395319509447E-03 
2144	 3.45450369590734E-03 
2145	 2.49480524307164E-03 
2146	 2.13741814511674E-03 
2147	 1.35896171269437E-03 
2148	 8.99135483331339E-04 
2149	 1.7233311806542E-03 
2150	 3.24842302134223E-03 
2151	 4.04051293868971E-03 
2152	 4.14116178020978E-03 
2153	 3.92191447065948E-03 
2154	 3.53419604365926E-03 
2155	 3.06595802575488E-03 
2156	 3.11532171259766E-03 
2157	 3.04116788280153E-03 
2158	 3.57283275809087E-03 
2159	 3.22725907271283E-03 
2160	 1.69128457713073E-03 
2161	 1.74854085656274E-03 
2162	 2.82079169796113E-03 
2163	 3.37920318294236E-03 
2164	 4.57222335306761E-03 
2165	 5.13016768684281E-03 
2166	 5.51661140771255E-03 
2167	 4.63000382955535E-03 
2168	 2.31759945289467E-03 
2169	 1.71138838790458E-03 
2170	 7.89664865360391E-04 
2171	 1.40794247341324E-04 
2172	 1.65256737207418E-03 
2173	 2.67192471357391E-03 
2174	 3.13162353078888E-03 
2175	 4.48466192690585E-03 
2176	 5.10665076984083E-03 
2177	 5.13324133733814E-03 
2178	 5.00444778345181E-03 
2179	 3.53499773571046E-03 
2180	 2.66826975275591E-03 
2181	 2.77216755374786E-03 
2182	 2.03239107288867E-03 
2183	 2.34218974512777E-03 
2184	 3.07805108983965E-03 
2185	 2.21206723480987E-03 
2186	 2.28749655912672E-03 
2187	 3.13058232911545E-03 
2188	 3.59272906388225E-03 
2189	 3.95456855923235E-03 
2190	 4.48921482136343E-03 
2191	 5.2560630091762E-03 
2192	 5.48498006660471E-03 
2193	 5.68696799268255E-03 
2194	 5.55036911608901E-03 
2195	 4.54483647518722E-03 
2196	 4.22538198885175E-03 
2197	 4.52654265565427E-03 
2198	 3.83813154936179E-03 
2199	 2.82795678700806E-03 
2200	 1.80249831635487E-03 
2201	 1.3898710880546E-03 
2202	 1.16302892078223E-03 
2203	 2.13003201231859E-03 
2204	 3.73992158823522E-03 
2205	 4.31985590784276E-03 
2206	 3.68019034831574E-03 
2207	 3.48245774561201E-03 
2208	 3.34248469313268E-03 
2209	 1.92230689026204E-03 
2210	 1.10471900785484E-03 
2211	 1.33068738943852E-03 
2212	 1.62078757779955E-03 
2213	 1.1677031601065E-03 
2214	 1.38725256977366E-03 
2215	 1.92775275576582E-03 
2216	 9.83715162693671E-04 
2217	 1.18096890458206E-03 
2218	 2.86181758405203E-03 
2219	 3.33584181937322E-03 
2220	 3.45925559016619E-03 
2221	 3.61673768354268E-03 
2222	 3.58270939207251E-03 
2223	 3.89559587573287E-03 
2224	 3.86275439831957E-03 
2225	 3.62747432647456E-03 
2226	 3.70516884566604E-03 
2227	 3.76291207753479E-03 
2228	 3.59393219239619E-03 
2229	 3.48353417695839E-03 
2230	 3.44894744681669E-03 
2231	 3.39489255343588E-03 
2232	 3.34862335899185E-03 
2233	 3.20058325652225E-03 
2234	 3.83822350417522E-03 
2235	 3.02266854404682E-03 
2236	 4.09632125545559E-04 
2237	-1.31485118239103E-04 
2238	 1.05541756232542E-03 
2239	 1.18308102474022E-03 
2240	 2.15450434822488E-03 
2241	 3.02046111840645E-03 
2242	 2.24667120682106E-03 
2243	 1.75771871683992E-03 
2244	 2.21058487134527E-03 
2245	 1.99424067945373E-03 
2246	 1.0492575219712E-03 
2247	 1.15197911067174E-03 
2248	 1.05280019398172E-03 
2249	-4.81490616342574E-04 
2250	-1.13916660689758E-03 
2251	 5.91938359039636E-05 
2252	 1.72856894407515E-03 
2253	 3.7810011431949E-03 
2254	 5.05838470927661E-03 
2255	 4.03053515398281E-03 
2256	 3.07301482520564E-03 
2257	 4.1517039870139E-03 
2258	 5.64290668755975E-03 
2259	 5.60882933476522E-03 
2260	 5.63452835166726E-03 
2261	 4.70221667638237E-03 
2262	 4.53831157081416E-03 
2263	 5.3764027806263E-03 
2264	 4.76581881759346E-03 
2265	 3.11083567588795E-03 
2266	 1.99963196294956E-03 
2267	-2.14139978973788E-04 
2268	-1.26724444153982E-03 
2269	-1.5354170028679E-03 
2270	-1.05536189065101E-03 
2271	 1.99665864268869E-04 
2272	 9.96517339069255E-04 
2273	 4.10009536761222E-03 
2274	 4.11572862320061E-03 
2275	-1.48672477423411E-05 
2276	-3.61321717516772E-04 
2277	-1.76942440565992E-04 
2278	-1.55501219671402E-04 
2279	 3.37852781583164E-03 
2280	 5.43971758611042E-03 
2281	 6.47684543342831E-03 
2282	 5.73090130229689E-03 
2283	 6.62534682214203E-03 
2284	 6.13496671240284E-03 
2285	 3.05715154158026E-03 
2286	 1.3028567916726E-03 
2287	 1.35343265594875E-04 
2288	-3.01948674654596E-03 
2289	-5.83356881351843E-03 
2290	-6.60995332454745E-03 
2291	-3.66312833877443E-03 
2292	-1.61767317548479E-03 
2293	-9.67604592882408E-05 
2294	 3.13744142656291E-03 
2295	 4.37296031978166E-03 
2296	 3.6053767260631E-03 
2297	 2.26685276919653E-03 
2298	 2.6571519253427E-03 
2299	 1.11049047442772E-03 
2300	-1.17648073818076E-03 
2301	-1.43776732480068E-04 
2302	-2.64596286407677E-04 
2303	-1.20481029262657E-03 
2304	-0.002154202941518 
2305	-5.05480388163948E-03 
2306	-4.91566878050274E-03 
2307	-2.42366040606234E-03 
2308	-1.71429769167634E-03 
2309	 2.99785571764545E-03 
2310	 5.14804609328346E-03 
2311	 1.6749077310677E-03 
2312	 2.54691291441537E-03 
2313	 2.58716226187398E-03 
2314	 2.85939564649843E-03 
2315	 6.73874865306022E-03 
2316	 8.42877522098891E-03 
2317	 9.06551358408417E-03 
2318	 6.75233434642682E-03 
2319	 4.94849289762789E-03 
2320	 9.97066935173282E-03 
2321	 1.27955678899086E-02 
2322	 9.31599729729415E-03 
2323	 8.68154536483292E-03 
2324	 5.28599346956256E-03 
2325	-3.029179740795E-04 
2326	 2.43861183361883E-03 
2327	 5.9404150946528E-04 
2328	-5.43465678693649E-03 
2329	-5.89676311338489E-03 
2330	-5.18192795414074E-03 
2331	-4.44946722688176E-03 
2332	-4.36848235826372E-03 
2333	-6.5847944384908E-03 
2334	-1.06553104277268E-02 
2335	-0.011475163759431 
2336	-7.4955594940485E-03 
2337	-6.58602053750568E-03 
2338	-7.27396191555923E-03 
2339	-2.36901307096107E-03 
2340	-5.38384489868344E-04 
2341	-1.3344008921866E-03 
2342	 1.05534214005301E-03 
2343	-6.56208391319033E-05 
2344	-3.21782983260444E-03 
2345	-4.69969149720514E-03 
2346	-5.69844794857831E-03 
2347	-9.58437231415334E-03 
2348	-5.63840226499639E-03 
2349	 1.93937140546374E-03 
2350	 1.19784984691341E-03 
2351	 2.00118363846932E-03 
2352	-3.2989499879109E-03 
2353	-1.22558521053833E-02 
2354	-8.95017845065575E-03 
2355	-4.0142797371813E-03 
2356	-2.69078690184906E-03 
2357	 6.59345106666422E-03 
2358	 7.04139603709654E-03 
2359	 5.18950222625182E-04 
2360	 8.55346703413652E-03 
2361	 1.19329740521397E-02 
2362	 9.36653148601333E-03 
2363	 5.05916694759522E-03 
2364	-0.009611948307361 
2365	-2.25425119127542E-02 
2366	-3.03337882786172E-02 
2367	-2.22801185986986E-02 
2368	-5.10279936730159E-04 
2369	 6.19673820014594E-03 
2370	 1.61677877395409E-03 
2371	-9.79368548043069E-03 
2372	-3.48119465380013E-02 
2373	-4.33910233557882E-02 
2374	-3.38607989468784E-02 
2375	-2.88336837806219E-02 
2376	-1.86302502737709E-02 
2377	-1.67425237994172E-02 
2378	-0.027787008899646 
2379	-2.99862529997776E-02 
2380	-2.43481629413061E-02 
2381	-1.54961551674668E-02 
2382	-2.48926252797306E-03 
2383	 2.63381924177534E-03 
2384	-1.17425216916646E-02 
2385	-1.36619411753153E-02 
2386	-1.12519934968318E-02 
2387	-1.18605568382583E-02 
2388	 1.32615524586171E-02 
2389	 1.15234660874336E-02 
2390	-4.57447782846328E-03 
2391	-1.24955570643683E-02 
2392	-0.046064954171631 
2393	-5.05911875883592E-02 
2394	-3.61660319011273E-02 
2395	-4.19510604804714E-02 
2396	-3.00011295816707E-02 
2397	 1.05685986543165E-03 
2398	-4.19796447239252E-03 
2399	-1.55776427529218E-02 
2400	-1.17526079294191E-02 
2401	-0.052008874381984 
2402	-7.67950867456304E-02 
2403	-5.08991346859561E-02 
2404	-4.82731599149701E-02 
2405	-5.97502838478123E-02 
2406	-7.79412578974636E-02 
2407	-8.65738752211933E-02 
2408	-5.69709551680947E-02 
2409	-4.26025109684488E-02 
2410	-4.70620326720696E-02 
2411	-3.23394009776533E-02 
2412	-3.46608040013796E-02 
2413	-0.021594400035961 
2414	 7.32295758398547E-03 
2415	-1.40040886442841E-02 
2416	-1.34542818073459E-02 
2417	-5.71913172190236E-03 
2418	-2.17877408637183E-02 
2419	-3.09352521554488E-02 
2420	-7.09347292527195E-02 
2421	-8.12002485741125E-02 
2422	-5.74171685803636E-02 
2423	-3.86654413698095E-02 
2424	-0.059984955418339 
2425	-0.154972085973417 
2426	-0.191695473682143 
2427	-0.154273324380958 
2428	-8.64198079342354E-02 
2429	-3.23420032485278E-02 
2430	-1.48065860017074E-02 
2431	 8.05459278330349E-03 
2432	-5.28989957491177E-02 
2433	-0.157007353630882 
2434	-0.152751906168932 
2435	-0.156551242188031 
2436	-0.177473910911613 
2437	-3.75286183983017E-02 
2438	-3.70981803118207E-03 
2439	-8.97594181672874E-02 
2440	-0.142372066875006 
2441	-0.284286906977252 
2442	-0.357006342416224 
2443	-0.321832307064309 
2444	-0.289262926532511 
2445	-0.161533432955962 
2446	-0.132481669772282 
2447	-0.199963527082985 
2448	-0.224596215803682 
2449	-0.192969644039373 
2450	-0.141668720505272 
2451	-0.192649666183109 
2452	-0.248617209612077 
2453	-0.246951728854109 
2454	-0.21798403246397 
2455	-0.107688256887305 
2456	-0.129433660105543 
2457	-0.147063067197064 
2458	-0.219566551072391 
2459	-0.236515179673986 
2460	-0.18707591548667 
2461	-0.189681442503045 
2462	-0.104539021029284 
2463	 1.70451417643063E-02 
2464	 3.61944431997487E-02 
2465	 0.254375061205652 
2466	-0.230961252102771 
2467	-0.72398821477209 
2468	-0.403430452311188 
2469	-0.193343733949327 
2470	-9.49794761772273E-02 
2471	 0.78929752674958 
2472	-8.79847279641487 
2473	 12.5413234668203 
2474	 1.70873985695433 
2475	-14.7859340737153 
2476	-3.32428555162865 
2477	 16.5295040924257 
2478	 0.267176998085889 
2479	-0.518015656786501 
2480	 0.850087092702677 
2481	 1.43953743479312 
2482	-0.647615650504506 
2483	 1.27763749179245 
2484	 0.544728016484107 
2485	 0.362251066242478 
2486	 0.137767983891006 
2487	-9.37663842737755E-02 
2488	-0.203745463760135 
2489	 0.183138839007062 
2490	 0.444438344284001 
2491	-0.689132858831967 
2492	-4.09493025192546 
2493	-3.5184806508153 
2494	-0.226762741238063 
2495	 7.23491628817838 
2496	 4.98166978835604 
2497	 7.73431801796626 
2498	 30.4072337504289 
2499	-449.699095513156 
2500	 4.33705797298278 
