Wavelength	rt0718west_far00007.asd
350	 2.06372249615278E-02 
351	 2.01580647027175E-02 
352	 2.06147614248193E-02 
353	 2.09062243734547E-02 
354	 2.05943146209371E-02 
355	 2.12646699033467E-02 
356	 2.11726132536064E-02 
357	 0.021009723743029 
358	 2.16001892750998E-02 
359	 2.09325937716528E-02 
360	 2.09244691999645E-02 
361	 2.15789846767098E-02 
362	 0.021599677853662 
363	 2.13640757019303E-02 
364	 2.13416273051257E-02 
365	 2.15544503043382E-02 
366	 2.13262788142733E-02 
367	 2.16658311721501E-02 
368	 2.20867106862915E-02 
369	 2.20179561471386E-02 
370	 2.19949248932136E-02 
371	 2.22673962499582E-02 
372	 2.24760433704708E-02 
373	 2.20919566306165E-02 
374	 2.23824886744093E-02 
375	 2.30604572186689E-02 
376	 2.34663411730192E-02 
377	 2.27336626466086E-02 
378	 2.31707469861576E-02 
379	 2.37485879145432E-02 
380	 2.33955780256145E-02 
381	 2.34845555434368E-02 
382	 2.36764727292093E-02 
383	 2.37888635540232E-02 
384	 2.38179817982227E-02 
385	 2.45270914102374E-02 
386	 2.51451139464702E-02 
387	 2.52522150419927E-02 
388	 2.49982040864067E-02 
389	 0.025008382328129 
390	 2.52230253103182E-02 
391	 2.54296607794239E-02 
392	 2.54031549722696E-02 
393	 2.57369109664223E-02 
394	 2.63202520012967E-02 
395	 2.67398725041807E-02 
396	 0.026556800491417 
397	 2.64230926159184E-02 
398	 2.66146127913187E-02 
399	 2.70053609518825E-02 
400	 0.027244555305573 
401	 2.74703267712134E-02 
402	 2.76993803314131E-02 
403	 2.74239823936089E-02 
404	 2.74800454748379E-02 
405	 2.77928531789414E-02 
406	 2.79745490297027E-02 
407	 2.80077399323825E-02 
408	 2.80701145076024E-02 
409	 2.82387859031211E-02 
410	 0.028473881147408 
411	 2.87063271279326E-02 
412	 2.89594333235957E-02 
413	 2.92073596942151E-02 
414	 2.92444057743601E-02 
415	 2.93101559250154E-02 
416	 2.95571573700376E-02 
417	 3.00081214070585E-02 
418	 3.02060877108661E-02 
419	 3.02789101840269E-02 
420	 3.04165057915413E-02 
421	 3.08075456517868E-02 
422	 3.09937417174555E-02 
423	 3.11556696376748E-02 
424	 0.031483467329663 
425	 0.031823687399884 
426	 3.20721500924913E-02 
427	 3.22605410021724E-02 
428	 3.24989812660297E-02 
429	 0.032885772238257 
430	 3.32564562760884E-02 
431	 3.35799741161772E-02 
432	 0.034009419410798 
433	 3.42541854063197E-02 
434	 3.45339997615645E-02 
435	 0.035012172430994 
436	 3.53623153405985E-02 
437	 0.035626642906771 
438	 3.58794596461405E-02 
439	 3.62061316777237E-02 
440	 0.036600775777505 
441	 3.69949502738891E-02 
442	 3.73583011275958E-02 
443	 3.77265673279304E-02 
444	 3.80978114750112E-02 
445	 3.84329898093519E-02 
446	 3.87099505851446E-02 
447	 3.90114523790376E-02 
448	 3.92969557564606E-02 
449	 3.95912642093598E-02 
450	 0.039953712430203 
451	 4.02290480714227E-02 
452	 4.04013667459479E-02 
453	 4.05436078736002E-02 
454	 4.08703519110418E-02 
455	 0.041103041594494 
456	 4.12693461197996E-02 
457	 4.14803560017007E-02 
458	 4.16473351996417E-02 
459	 4.18287645157026E-02 
460	 4.20214465944663E-02 
461	 4.21568641772557E-02 
462	 4.22798471253759E-02 
463	 4.24752905888111E-02 
464	 4.27422003363571E-02 
465	 4.28169693383431E-02 
466	 4.29659414044819E-02 
467	 4.32225794957087E-02 
468	 4.34926782887755E-02 
469	 0.043669575272219 
470	 4.38843093983111E-02 
471	 4.41444113458569E-02 
472	 4.42633516049783E-02 
473	 4.44835469940558E-02 
474	 4.47727032795204E-02 
475	 4.50302341846631E-02 
476	 4.51744235365976E-02 
477	 4.54091922681251E-02 
478	 0.045741364648522 
479	 4.60393432847009E-02 
480	 0.046283529465116 
481	 4.65114947481158E-02 
482	 4.67755440001304E-02 
483	 4.71473380441893E-02 
484	 4.74316809523156E-02 
485	 4.76379898698999E-02 
486	 4.78986868287212E-02 
487	 4.85389705261716E-02 
488	 4.89474043150293E-02 
489	 4.90666327956958E-02 
490	 4.94064623921249E-02 
491	 4.98930279366651E-02 
492	 5.03212763634054E-02 
493	 5.05990386525529E-02 
494	 5.10184948718124E-02 
495	 5.15398443778537E-02 
496	 5.20482492672051E-02 
497	 5.24286031320758E-02 
498	 5.29636734740071E-02 
499	 5.34426413975541E-02 
500	 5.38328605778056E-02 
501	 5.44516420634795E-02 
502	 5.49622652906368E-02 
503	 5.54661649492281E-02 
504	 5.60849382107294E-02 
505	 0.056484057515127 
506	 5.69112929909406E-02 
507	 5.74591951490737E-02 
508	 5.80737997296481E-02 
509	 5.86229828664538E-02 
510	 5.91770680159141E-02 
511	 5.97719398193416E-02 
512	 6.02744351557484E-02 
513	 6.08309477630607E-02 
514	 6.14515315901305E-02 
515	 6.20875664418101E-02 
516	 6.27654166929538E-02 
517	 6.34653838198215E-02 
518	 6.42002161789767E-02 
519	 6.50274136378422E-02 
520	 6.56910568455911E-02 
521	 6.62850995905442E-02 
522	 6.69526144052535E-02 
523	 6.76900573153814E-02 
524	 0.068410553146354 
525	 6.91145494723451E-02 
526	 6.98644316534699E-02 
527	 0.070592916645131 
528	 7.13834279286656E-02 
529	 7.22395079352485E-02 
530	 7.29683900813578E-02 
531	 7.37596258357279E-02 
532	 7.45701293886263E-02 
533	 7.53128296225949E-02 
534	 7.61982521454633E-02 
535	 7.70560728975094E-02 
536	 7.78156519796979E-02 
537	 7.85405503971687E-02 
538	 7.94099041536417E-02 
539	 8.03102158369482E-02 
540	 8.11268855188201E-02 
541	 8.20061335043379E-02 
542	 8.28561384531605E-02 
543	 8.36757374170409E-02 
544	 8.45202138742875E-02 
545	 8.53688832362819E-02 
546	 8.61807551807971E-02 
547	 8.69605970397325E-02 
548	 8.78074262866862E-02 
549	 8.86522298301666E-02 
550	 8.94831282937311E-02 
551	 9.03093519402048E-02 
552	 9.11334656875238E-02 
553	 9.19622152176136E-02 
554	 9.27761245982445E-02 
555	 9.35245643003377E-02 
556	 9.43911654357013E-02 
557	 9.52581724070323E-02 
558	 9.60060083568935E-02 
559	 9.68003398055932E-02 
560	 9.75153991266465E-02 
561	 9.81743635919492E-02 
562	 9.88875790965225E-02 
563	 9.95889970889279E-02 
564	 0.100236840520546 
565	 0.100813105807013 
566	 0.101333949712986 
567	 0.101896176393188 
568	 0.102446196939527 
569	 0.10290626937472 
570	 0.103433005198058 
571	 0.103899644911603 
572	 0.104279636105718 
573	 0.104668094395407 
574	 0.1049530799127 
575	 0.105179600349982 
576	 0.105417883977531 
577	 0.105724612628551 
578	 0.105852156264296 
579	 0.105832321775928 
580	 0.105864348554066 
581	 0.105895740115214 
582	 0.105837318357934 
583	 0.105669112812049 
584	 0.105507007945904 
585	 0.105291058350818 
586	 0.10501319190169 
587	 0.104676127095356 
588	 0.104261581457917 
589	 0.103861046201542 
590	 0.103513560702778 
591	 0.103162046986215 
592	 0.102630190661561 
593	 0.101995732943625 
594	 0.101339518355198 
595	 0.100545862079147 
596	 9.95648038290173E-02 
597	 0.098463795881388 
598	 9.73801366831377E-02 
599	 9.62915800297558E-02 
600	 9.53289797985964E-02 
601	 9.45767225597811E-02 
602	 9.40112013539829E-02 
603	 9.35853443223144E-02 
604	 9.33208349399003E-02 
605	 9.32277281079206E-02 
606	 9.31262801114465E-02 
607	 0.093053224031867 
608	 0.093056182068952 
609	 9.31726282626823E-02 
610	 0.093153424761149 
611	 9.31232391853193E-02 
612	 9.31767311582586E-02 
613	 9.30592588868695E-02 
614	 9.30065475217161E-02 
615	 9.30266985928029E-02 
616	 9.29942583682608E-02 
617	 9.28330643696982E-02 
618	 9.27716188913387E-02 
619	 9.28489631745228E-02 
620	 9.27497048230538E-02 
621	 9.27195097972583E-02 
622	 9.27201915381538E-02 
623	 9.26662542257475E-02 
624	 9.27050665094407E-02 
625	 9.26790392484137E-02 
626	 9.25595932277068E-02 
627	 9.24528568633737E-02 
628	 9.24361212726108E-02 
629	 0.092372109437937 
630	 9.21991450149893E-02 
631	 9.21724167957822E-02 
632	 9.21151741223702E-02 
633	 9.20258937764744E-02 
634	 9.19770846714869E-02 
635	 9.19424873166836E-02 
636	 9.18404673191346E-02 
637	 9.16895817764325E-02 
638	 0.091656285805367 
639	 0.091542510840771 
640	 9.14574047461147E-02 
641	 9.14960281151231E-02 
642	 0.091311159593581 
643	 0.091228437177396 
644	 9.11970507634912E-02 
645	 9.08831455869076E-02 
646	 9.07248385819798E-02 
647	 9.06480017064284E-02 
648	 9.05186354218911E-02 
649	 9.02897658033017E-02 
650	 8.99938921413731E-02 
651	 8.96410901436971E-02 
652	 0.089232333988116 
653	 8.86929800339639E-02 
654	 8.81383426417299E-02 
655	 8.75133635954059E-02 
656	 8.66122851664176E-02 
657	 8.58572227766176E-02 
658	 8.52233810250311E-02 
659	 8.46129824329617E-02 
660	 0.084097087158987 
661	 8.36878390670068E-02 
662	 8.33282795023167E-02 
663	 0.082934264539044 
664	 8.25632608349254E-02 
665	 8.22644456503125E-02 
666	 8.20239567499009E-02 
667	 8.17200433608931E-02 
668	 8.15368212852862E-02 
669	 8.14108212969662E-02 
670	 8.12347164392559E-02 
671	 8.11194463892399E-02 
672	 8.10437312603105E-02 
673	 8.09783112552463E-02 
674	 8.08995739977155E-02 
675	 8.09497406172494E-02 
676	 0.080961243503797 
677	 8.08539035482031E-02 
678	 8.09083144215364E-02 
679	 0.081051925329743 
680	 8.12001167662258E-02 
681	 8.12758373559052E-02 
682	 8.13468851029174E-02 
683	 8.14802317560908E-02 
684	 8.16135099686652E-02 
685	 8.15115314535529E-02 
686	 8.15402186464685E-02 
687	 8.15764394210109E-02 
688	 8.14253983422492E-02 
689	 8.12271296598372E-02 
690	 0.081030219011107 
691	 8.07673722413736E-02 
692	 8.03102182339769E-02 
693	 7.98143934166092E-02 
694	 7.92006594588987E-02 
695	 7.84832729158973E-02 
696	 7.77955839046616E-02 
697	 7.70664303268284E-02 
698	 7.61601078343963E-02 
699	 7.50408222949818E-02 
700	 7.40141578097966E-02 
701	 7.29616864998721E-02 
702	 7.18038667780777E-02 
703	 7.05031238590022E-02 
704	 6.93338851449435E-02 
705	 6.81186839379531E-02 
706	 6.67341231547047E-02 
707	 6.52475711386784E-02 
708	 6.37048019102579E-02 
709	 6.20697858913001E-02 
710	 6.02833398420006E-02 
711	 5.83938527717022E-02 
712	 5.63680838687479E-02 
713	 5.43100929205279E-02 
714	 5.24110158195819E-02 
715	 5.04489666343742E-02 
716	 4.82806634557529E-02 
717	 4.59862941459964E-02 
718	 4.37575818761795E-02 
719	 4.16176912679787E-02 
720	 3.97660679073498E-02 
721	 3.80227956751826E-02 
722	 3.62582113004062E-02 
723	 3.42458738470936E-02 
724	 0.032245868904128 
725	 3.05719308997744E-02 
726	 2.86329919688352E-02 
727	 2.65493278497719E-02 
728	 2.45469776149125E-02 
729	 2.25384916133123E-02 
730	 2.04779064872329E-02 
731	 1.86637517909177E-02 
732	 1.73466445321558E-02 
733	 1.62058925945722E-02 
734	 1.52177736064622E-02 
735	 1.44001759173136E-02 
736	 1.37668425627449E-02 
737	 1.32332415694298E-02 
738	 1.27944298209056E-02 
739	 1.24985379402445E-02 
740	 1.24947128737307E-02 
741	 1.23332721803688E-02 
742	 1.21238938457372E-02 
743	 1.22045683066085E-02 
744	 1.21252180249226E-02 
745	 1.19870102537709E-02 
746	 1.19111418082363E-02 
747	 1.19659158715294E-02 
748	 1.19995924339706E-02 
749	 1.19835779522267E-02 
750	 1.19289009118935E-02 
751	 1.18460069309935E-02 
752	 1.18212228058782E-02 
753	 1.18505826982041E-02 
754	 1.18719018682793E-02 
755	 0.011819801091388 
756	 1.17918758684241E-02 
757	 1.18550365991228E-02 
758	 1.20618028199046E-02 
759	 1.20950870761603E-02 
760	 1.19714686890176E-02 
761	 1.20210262862589E-02 
762	 1.20593731301662E-02 
763	 1.20404831887474E-02 
764	 1.19966888551964E-02 
765	 1.19990108641191E-02 
766	 0.012201620843063 
767	 1.22839045185044E-02 
768	 1.22591316512494E-02 
769	 0.012439021365672 
770	 1.26038157596689E-02 
771	 0.012670941455085 
772	 1.26471784593899E-02 
773	 1.26719209029672E-02 
774	 1.29379755648246E-02 
775	 0.013203738767316 
776	 1.31591179075246E-02 
777	 1.33467261181778E-02 
778	 1.35843653982513E-02 
779	 1.37601531337861E-02 
780	 1.38925221010029E-02 
781	 1.40682457032585E-02 
782	 0.014254717435764 
783	 1.44503713966875E-02 
784	 1.47899522740446E-02 
785	 1.50373460933221E-02 
786	 1.52345685783272E-02 
787	 1.55018287417695E-02 
788	 1.57896196208075E-02 
789	 1.60642178710513E-02 
790	 0.016344142004569 
791	 1.66758609351237E-02 
792	 1.68877049280782E-02 
793	 1.70912224413318E-02 
794	 1.74044931324856E-02 
795	 1.78894487094295E-02 
796	 1.81973700871303E-02 
797	 0.018384335272376 
798	 1.85893055483301E-02 
799	 0.018746250168869 
800	 1.90102252740635E-02 
801	 1.93217970455921E-02 
802	 1.95300683061008E-02 
803	 1.97965480677632E-02 
804	 1.99967787326038E-02 
805	 2.00723136735126E-02 
806	 2.00667102061309E-02 
807	 2.00385306558062E-02 
808	 1.99525684764884E-02 
809	 1.98177253826052E-02 
810	 1.98160085765698E-02 
811	 0.019724958054908 
812	 1.94862867858347E-02 
813	 1.91508837770424E-02 
814	 1.89631078466684E-02 
815	 1.87279537715101E-02 
816	 1.83813765506448E-02 
817	 1.79925974543986E-02 
818	 1.75164430879956E-02 
819	 1.71730859144507E-02 
820	 1.68594177232046E-02 
821	 1.60681166413412E-02 
822	 1.53322639088744E-02 
823	 1.44810995406838E-02 
824	 1.34553470769702E-02 
825	 1.27924152745493E-02 
826	 1.20229775944852E-02 
827	 1.11024803480506E-02 
828	 1.01959332654777E-02 
829	 9.30091238143064E-03 
830	 8.66974751278641E-03 
831	 8.26392130579786E-03 
832	 7.86949785504642E-03 
833	 7.78218119124077E-03 
834	 7.52906589568914E-03 
835	 7.03934623232045E-03 
836	 6.85966182405639E-03 
837	 6.76556720541469E-03 
838	 6.78208734545121E-03 
839	 6.85317521785731E-03 
840	 6.58739805165876E-03 
841	 6.32753604169944E-03 
842	 6.22959601005182E-03 
843	 6.29391514320046E-03 
844	 6.18832731530799E-03 
845	 5.96675263997842E-03 
846	 5.85814821963947E-03 
847	 6.09261907288223E-03 
848	 5.90422035784654E-03 
849	 5.67013952530971E-03 
850	 5.61524579647332E-03 
851	 5.59084920639173E-03 
852	 5.57155298957756E-03 
853	 5.56059150117826E-03 
854	 5.54063409035986E-03 
855	 5.42099912977621E-03 
856	 5.54197597469615E-03 
857	 5.63452324548906E-03 
858	 5.45106893934133E-03 
859	 5.45453255751794E-03 
860	 5.35939299632931E-03 
861	 5.2269612771492E-03 
862	 5.24151010688034E-03 
863	 5.16774966832836E-03 
864	 5.1436891591128E-03 
865	 5.16844455373807E-03 
866	 5.10681424194294E-03 
867	 5.04732467932718E-03 
868	 4.94289567555888E-03 
869	 4.84569449491288E-03 
870	 4.93932246469174E-03 
871	 4.6909987080732E-03 
872	 4.59995243623086E-03 
873	 4.89137528222027E-03 
874	 4.67827069445356E-03 
875	 4.57492770856406E-03 
876	 4.5754555138829E-03 
877	 4.54726445870467E-03 
878	 4.63783421187885E-03 
879	 4.60914784314498E-03 
880	 4.45819361606772E-03 
881	 4.31110269382721E-03 
882	 4.26660548187982E-03 
883	 4.15205481214073E-03 
884	 3.99726842475122E-03 
885	 3.98571989418629E-03 
886	 4.15910486463053E-03 
887	 4.06721645678629E-03 
888	 3.81853113294664E-03 
889	 4.11660528242016E-03 
890	 3.88014806375579E-03 
891	 3.76644914872325E-03 
892	 4.11445607214323E-03 
893	 4.10073480762087E-03 
894	 4.08672351779828E-03 
895	 3.96653973778314E-03 
896	 3.73516511522706E-03 
897	 4.04878966862701E-03 
898	 4.14003624068479E-03 
899	 3.82899596088075E-03 
900	 3.50326393807555E-03 
901	 4.58344297417162E-03 
902	 4.12414538152221E-03 
903	 3.39498162050574E-03 
904	 4.4010837247473E-03 
905	 4.03957494145625E-03 
906	 3.9730032597498E-03 
907	 4.12855408919907E-03 
908	 3.40242266170245E-03 
909	 3.57270827654151E-03 
910	 3.74689582278558E-03 
911	 3.57934042799873E-03 
912	 0.003461569823938 
913	 3.57505601039934E-03 
914	 3.38515273571042E-03 
915	 3.0509895212518E-03 
916	 3.45584416290267E-03 
917	 3.53951941738572E-03 
918	 3.41778424763151E-03 
919	 3.42494842959772E-03 
920	 3.88484054462836E-03 
921	 3.89653868402736E-03 
922	 3.46949620677306E-03 
923	 3.01092875212885E-03 
924	 3.33450599482548E-03 
925	 4.06286523735897E-03 
926	 4.29936587214038E-03 
927	 3.53748912723716E-03 
928	 3.44773010783368E-03 
929	 2.54954718339222E-03 
930	 2.17525390232503E-03 
931	 4.26282847416383E-03 
932	 3.34068408695977E-03 
933	 2.6841697730756E-03 
934	 3.33335105807899E-03 
935	 4.49954291677135E-03 
936	 5.93009712307732E-03 
937	 4.30980745910068E-03 
938	 3.38924659414354E-03 
939	 6.24895674246239E-03 
940	 5.64963891731251E-03 
941	 1.61218872480821E-03 
942	-6.78239222849529E-05 
943	 0.005877027491018 
944	 2.70370086238278E-03 
945	 2.24679571025164E-03 
946	 4.49357807234912E-03 
947	 2.60603442214366E-03 
948	 2.71217336609721E-03 
949	 3.49112200135072E-03 
950	 3.1438402727598E-03 
951	 1.00297325304161E-03 
952	 3.03117658425262E-03 
953	 3.42891391001318E-03 
954	 2.13754681185953E-03 
955	 3.04177583489663E-03 
956	 3.73855135004648E-03 
957	 4.49531445732079E-03 
958	 4.88531302476293E-03 
959	 4.15085159844971E-03 
960	 3.25179490669312E-03 
961	 3.35505811052215E-03 
962	 3.62812976163008E-03 
963	 2.41462891376185E-03 
964	 2.08974289398492E-03 
965	 3.26094997860606E-03 
966	 4.72798329166756E-03 
967	 4.54105817314396E-03 
968	 4.12282541090214E-03 
969	 2.74733537319589E-03 
970	 1.84193317096239E-03 
971	 3.87827167381992E-03 
972	 2.87635661745876E-03 
973	 2.43655065542358E-03 
974	 3.20352167990209E-03 
975	 2.38342193167561E-03 
976	 2.80910978231678E-03 
977	 3.77608495610732E-03 
978	 4.04838417882964E-03 
979	 2.91331294230575E-03 
980	 3.64925859930072E-03 
981	 3.88715998763719E-03 
982	 3.33560930554773E-03 
983	 3.62677122443797E-03 
984	 3.60540821363253E-03 
985	 3.43316183531993E-03 
986	 3.46165869336823E-03 
987	 3.84872276450703E-03 
988	 3.07106009836096E-03 
989	 2.69093485745129E-03 
990	 2.70929354634868E-03 
991	 2.09806877960579E-03 
992	 2.94699566614604E-03 
993	 3.61333336920479E-03 
994	 3.48578153444427E-03 
995	 2.95855071804938E-03 
996	 2.00760553025617E-03 
997	 2.3039159005266E-03 
998	 3.46765725061883E-03 
999	 4.05459065283378E-03 
1000	 5.0140750448329E-03 
1001	 3.56202894778525E-03 
1002	 3.00566695067727E-03 
1003	 2.84225622386082E-03 
1004	 2.97810760550529E-03 
1005	 3.01840876469532E-03 
1006	 3.17534009072811E-03 
1007	 3.39739067094215E-03 
1008	 3.45885712304392E-03 
1009	 3.42101069018513E-03 
1010	 3.2301052653618E-03 
1011	 2.99767442075701E-03 
1012	 2.87694187674458E-03 
1013	 2.76495838529311E-03 
1014	 2.67712819139185E-03 
1015	 2.78810280370805E-03 
1016	 2.72458219970837E-03 
1017	 2.43730021924032E-03 
1018	 2.40532658527974E-03 
1019	 2.43641712049291E-03 
1020	 2.52687541590392E-03 
1021	 2.82752689606155E-03 
1022	 2.99069412344683E-03 
1023	 3.11519911214783E-03 
1024	 3.37274864803405E-03 
1025	 3.45303037754646E-03 
1026	 3.57001882294317E-03 
1027	 3.4629459745107E-03 
1028	 3.15652732887588E-03 
1029	 2.93361715727891E-03 
1030	 2.47024179053439E-03 
1031	 2.3310430382371E-03 
1032	 2.36841773414453E-03 
1033	 2.40380519885383E-03 
1034	 2.6943504782005E-03 
1035	 2.77571588241273E-03 
1036	 2.6964425781852E-03 
1037	 2.72549838986899E-03 
1038	 2.70818520545915E-03 
1039	 2.73029499722045E-03 
1040	 2.93902752782021E-03 
1041	 3.19920377759514E-03 
1042	 3.28864478877958E-03 
1043	 3.39268373905859E-03 
1044	 3.36755288317702E-03 
1045	 3.16452672286037E-03 
1046	 3.00337031539125E-03 
1047	 2.71320146261255E-03 
1048	 2.63137104930723E-03 
1049	 2.65081915088384E-03 
1050	 2.6283178183792E-03 
1051	 2.71234019390983E-03 
1052	 2.74699942107473E-03 
1053	 2.63940143441799E-03 
1054	 2.6683288616292E-03 
1055	 2.81961182976064E-03 
1056	 2.96140460690138E-03 
1057	 3.12937428737607E-03 
1058	 3.48701595530577E-03 
1059	 3.39909832158932E-03 
1060	 3.08503128936441E-03 
1061	 2.9078375955526E-03 
1062	 2.38041416257748E-03 
1063	 2.27573953166493E-03 
1064	 2.38388942434633E-03 
1065	 2.61293887132291E-03 
1066	 3.42130356715902E-03 
1067	 3.50570269918617E-03 
1068	 3.19834813441995E-03 
1069	 3.16431849816388E-03 
1070	 2.6707840266958E-03 
1071	 2.48313077797692E-03 
1072	 2.48453180743318E-03 
1073	 3.06367137290485E-03 
1074	 3.16309656390843E-03 
1075	 3.17970446936992E-03 
1076	 3.0682365912618E-03 
1077	 2.78914148250804E-03 
1078	 2.65433182282771E-03 
1079	 2.31243562536751E-03 
1080	 2.40822415683758E-03 
1081	 2.90258180699972E-03 
1082	 3.05581990888524E-03 
1083	 3.51151531635703E-03 
1084	 3.48089638960374E-03 
1085	 2.66838573013365E-03 
1086	 2.54620807694498E-03 
1087	 2.49945922134568E-03 
1088	 2.53856476083935E-03 
1089	 3.14553737590927E-03 
1090	 3.72574638173625E-03 
1091	 3.67631463025922E-03 
1092	 3.15215238652208E-03 
1093	 3.04540103553075E-03 
1094	 2.61397067562501E-03 
1095	 2.49201421445028E-03 
1096	 3.02673065620309E-03 
1097	 2.90757665271783E-03 
1098	 2.07894259438947E-03 
1099	 2.00618214625945E-03 
1100	 2.21267950397391E-03 
1101	 2.18267730026275E-03 
1102	 2.61290944125075E-03 
1103	 2.87028074289198E-03 
1104	 3.07258770989015E-03 
1105	 2.55280452806658E-03 
1106	 2.42825313446023E-03 
1107	 2.59745506621417E-03 
1108	 2.27150624283387E-03 
1109	 2.66277385028843E-03 
1110	 2.73146051450091E-03 
1111	 2.8151308270676E-03 
1112	 2.6747301969378E-03 
1113	 2.17715757466407E-03 
1114	 2.15517737111521E-03 
1115	 2.6053844953083E-03 
1116	 2.72964305876074E-03 
1117	 2.98681961624462E-03 
1118	 3.10308797323437E-03 
1119	 2.29161730343606E-03 
1120	 2.21629449734334E-03 
1121	 3.59936628231948E-03 
1122	 3.62657944886754E-03 
1123	 2.83857846667089E-03 
1124	 3.58649016556208E-03 
1125	 2.64043495795272E-03 
1126	 1.24158173587857E-03 
1127	 7.63017227963336E-04 
1128	 4.21173263139175E-04 
1129	 4.12189012166646E-04 
1130	 5.67750019335158E-04 
1131	 1.38656279803548E-03 
1132	 3.07618550254738E-03 
1133	 3.36141261440189E-03 
1134	 4.1125622591464E-03 
1135	 3.59767618658532E-03 
1136	 6.79817852303027E-04 
1137	 5.58851117428664E-04 
1138	 1.58317837546866E-03 
1139	 1.69304142118264E-03 
1140	 2.89752208920253E-03 
1141	 4.02359685729361E-03 
1142	 2.98757539176118E-03 
1143	 2.16460333451854E-03 
1144	 1.67222576352742E-03 
1145	 1.07504258969916E-03 
1146	 5.60178851132239E-04 
1147	 1.13614046715783E-03 
1148	 1.94756183046699E-03 
1149	 1.98486036166043E-03 
1150	 2.25116692968721E-03 
1151	 2.84832041014502E-03 
1152	 2.61199004367385E-03 
1153	 1.53675974415286E-03 
1154	 1.70577481081594E-03 
1155	 2.30225040288102E-03 
1156	 2.31492228354507E-03 
1157	 1.93911496532939E-03 
1158	 2.3486275914757E-03 
1159	 2.41692413879861E-03 
1160	 2.05587742560383E-03 
1161	 2.36328934319277E-03 
1162	 2.54236010545266E-03 
1163	 2.08162988480196E-03 
1164	 2.00779786992892E-03 
1165	 2.45155338361759E-03 
1166	 2.41668631122546E-03 
1167	 2.14770409500331E-03 
1168	 2.21356749818942E-03 
1169	 2.12575914458297E-03 
1170	 2.05965405997011E-03 
1171	 2.12199664982647E-03 
1172	 2.48255374613466E-03 
1173	 2.51645205423775E-03 
1174	 2.37313298055009E-03 
1175	 2.43566509130655E-03 
1176	 2.45183109900087E-03 
1177	 2.4883681858476E-03 
1178	 2.43042812178358E-03 
1179	 2.25108150485141E-03 
1180	 2.28957219887247E-03 
1181	 2.33627374554149E-03 
1182	 2.42049443850838E-03 
1183	 2.55690933676141E-03 
1184	 2.36516097595115E-03 
1185	 2.13576588353573E-03 
1186	 2.05494981803673E-03 
1187	 2.0676470872401E-03 
1188	 2.13604042342018E-03 
1189	 2.16096599826173E-03 
1190	 2.33660043507333E-03 
1191	 2.38655768232353E-03 
1192	 2.40940575424121E-03 
1193	 2.44804158398973E-03 
1194	 2.55260328508553E-03 
1195	 2.29880130388287E-03 
1196	 2.08444360556434E-03 
1197	 2.12535499989207E-03 
1198	 2.2156423640146E-03 
1199	 2.22221780365982E-03 
1200	 2.03914826205849E-03 
1201	 1.97323776957711E-03 
1202	 2.05600289824976E-03 
1203	 2.01279747738361E-03 
1204	 2.09654327238108E-03 
1205	 2.12374704619311E-03 
1206	 1.92990718770692E-03 
1207	 1.98078352787814E-03 
1208	 2.13551308612401E-03 
1209	 2.25086432352291E-03 
1210	 2.31814373208082E-03 
1211	 2.25651844951148E-03 
1212	 2.31157132723748E-03 
1213	 2.38852754642271E-03 
1214	 2.36035881817298E-03 
1215	 2.1714558165735E-03 
1216	 2.10639389393868E-03 
1217	 2.27961854691136E-03 
1218	 2.30612477086679E-03 
1219	 2.25592110968831E-03 
1220	 2.18369383157056E-03 
1221	 2.05481002058572E-03 
1222	 2.18601597715155E-03 
1223	 2.38265515213908E-03 
1224	 2.36928179094065E-03 
1225	 2.21028720536331E-03 
1226	 2.15763435893669E-03 
1227	 2.36107989335354E-03 
1228	 2.50219921591077E-03 
1229	 2.51320833151959E-03 
1230	 2.47004195590316E-03 
1231	 2.30435898970819E-03 
1232	 2.30502514904115E-03 
1233	 2.35442852066291E-03 
1234	 2.18197016583452E-03 
1235	 2.12469478398729E-03 
1236	 2.0416861482386E-03 
1237	 1.98102582696076E-03 
1238	 1.9971073459155E-03 
1239	 1.96463634704739E-03 
1240	 1.95744773751413E-03 
1241	 1.91948895548761E-03 
1242	 1.93326105460332E-03 
1243	 2.27252500193747E-03 
1244	 2.46433040297083E-03 
1245	 2.24726927358985E-03 
1246	 2.16083887388947E-03 
1247	 2.16456299212217E-03 
1248	 2.17294320598257E-03 
1249	 2.23414278573528E-03 
1250	 2.11081207868803E-03 
1251	 2.08600210994319E-03 
1252	 2.19895877378082E-03 
1253	 2.29971880758352E-03 
1254	 2.40435603710416E-03 
1255	 2.34481917378966E-03 
1256	 2.34783675482231E-03 
1257	 2.14253649284454E-03 
1258	 2.10381698554723E-03 
1259	 2.32774631668672E-03 
1260	 2.36020478851162E-03 
1261	 2.28529939412892E-03 
1262	 2.25973483721474E-03 
1263	 2.25564350382618E-03 
1264	 2.0645637045133E-03 
1265	 2.1151005440933E-03 
1266	 2.13869405324922E-03 
1267	 2.06169605497363E-03 
1268	 2.14700084568781E-03 
1269	 2.2021242512664E-03 
1270	 0.002004309272925 
1271	 1.77582022082834E-03 
1272	 1.83691438765218E-03 
1273	 2.08339309919681E-03 
1274	 2.07635173657665E-03 
1275	 1.98689697388317E-03 
1276	 2.16579214376429E-03 
1277	 2.21880907408253E-03 
1278	 2.1874293787304E-03 
1279	 2.1623989413403E-03 
1280	 1.89801600864219E-03 
1281	 1.89877091127035E-03 
1282	 1.88894250078728E-03 
1283	 1.88332841137382E-03 
1284	 2.13990245461208E-03 
1285	 2.25714250950857E-03 
1286	 2.16622579830024E-03 
1287	 2.04011018251409E-03 
1288	 1.87238386755636E-03 
1289	 1.95261670291399E-03 
1290	 2.15282006135303E-03 
1291	 2.12097433178485E-03 
1292	 1.95464186485619E-03 
1293	 1.83045932448285E-03 
1294	 1.72848422744291E-03 
1295	 1.78824133268256E-03 
1296	 2.2251126360233E-03 
1297	 2.45955155749158E-03 
1298	 2.17639775680081E-03 
1299	 1.93010611613986E-03 
1300	 1.83615619376221E-03 
1301	 1.73242842553205E-03 
1302	 1.71316793034688E-03 
1303	 1.98610544023219E-03 
1304	 2.13153494572291E-03 
1305	 1.97494348721666E-03 
1306	 2.01260438938207E-03 
1307	 2.10804180645846E-03 
1308	 1.97110665570066E-03 
1309	 1.66291443168625E-03 
1310	 1.78559885467173E-03 
1311	 1.95787351570638E-03 
1312	 2.06373584375719E-03 
1313	 2.76551664598893E-03 
1314	 2.8355197385992E-03 
1315	 2.08617195045912E-03 
1316	 1.95057784684284E-03 
1317	 2.04384320018956E-03 
1318	 1.88903979211226E-03 
1319	 1.74413230398589E-03 
1320	 1.87898062316275E-03 
1321	 2.06090361781331E-03 
1322	 2.10966149890264E-03 
1323	 1.84957459761628E-03 
1324	 1.81852427515109E-03 
1325	 1.95988962672278E-03 
1326	 1.75038573506026E-03 
1327	 1.66119558922145E-03 
1328	 2.18630436648794E-03 
1329	 2.24405778047576E-03 
1330	 1.6073513372203E-03 
1331	 1.50240405023225E-03 
1332	 1.79784683392684E-03 
1333	 1.98555762845808E-03 
1334	 1.91917171387377E-03 
1335	 1.75047648471641E-03 
1336	 1.67156051577106E-03 
1337	 1.71701662114084E-03 
1338	 1.52184648442166E-03 
1339	 1.40861194554961E-03 
1340	 1.70143558211749E-03 
1341	 1.73408392378857E-03 
1342	 1.32095407274808E-03 
1343	 8.34203736858662E-04 
1344	 2.46602745328021E-04 
1345	 2.19112383025814E-04 
1346	 4.17758839846981E-05 
1347	 2.48438577839478E-04 
1348	 2.64059880006009E-03 
1349	 3.6528480183352E-03 
1350	 1.95391568484292E-03 
1351	 3.60745167709419E-03 
1352	 1.13161800556311E-02 
1353	 1.46139570224833E-02 
1354	 1.63413869013151E-02 
1355	 1.73369946272293E-02 
1356	-1.67149379536389E-03 
1357	-4.09786964752358E-03 
1358	-3.46381564766819E-06 
1359	-3.46596689966134E-02 
1360	-4.78214271933736E-02 
1361	-9.39702483532594E-02 
1362	-0.128976795115209 
1363	-0.116683149483168 
1364	-0.168194155218271 
1365	-0.232521753128328 
1366	-0.200874339487903 
1367	-3.40808119160199E-02 
1368	-5.77724906814526E-02 
1369	-0.225206738055054 
1370	-0.252483717781752 
1371	-0.338677884503074 
1372	-0.38145869324822 
1373	-0.13067136903381 
1374	-4.58936540119883E-02 
1375	-0.252877430717244 
1376	-0.272472077235806 
1377	-0.353202477414006 
1378	-0.299221698384871 
1379	-0.123106873626994 
1380	-5.11504147650068E-02 
1381	 0.108462034875831 
1382	 0.051279053923396 
1383	-0.197843769511094 
1384	-0.299221414548461 
1385	-0.426963485245013 
1386	-0.392376360497916 
1387	-0.138695865572841 
1388	-3.55556870914347E-02 
1389	-2.59713501227016E-02 
1390	 6.46039830171829E-02 
1391	 0.209593924797721 
1392	 0.224929303990838 
1393	-3.16728030485318E-02 
1394	-1.71051913864298E-02 
1395	-0.202148553795643 
1396	-0.303542810225462 
1397	 2.99661220705146E-02 
1398	 0.117498404381109 
1399	-0.199301259784122 
1400	-0.245092947010202 
1401	-4.64663047047489E-02 
1402	 0.043529760938006 
1403	-2.47218958758972E-02 
1404	 3.55874298311317E-02 
1405	 0.150554884315269 
1406	 3.15549444797466E-02 
1407	-0.020973504646767 
1408	 8.60955600990434E-02 
1409	 0.104195439666242 
1410	 1.09532788028228E-02 
1411	-2.39893503536715E-02 
1412	-0.007911272976845 
1413	 3.78623566249827E-03 
1414	-1.74097070419462E-02 
1415	-8.04015084602751E-03 
1416	 5.99325841846971E-02 
1417	 5.17954675512493E-02 
1418	-2.30153895101486E-03 
1419	-6.61282741697823E-03 
1420	 2.68514396288027E-03 
1421	-3.75130521686625E-03 
1422	-1.39517404898861E-02 
1423	-5.6771216746897E-03 
1424	 1.19701731031688E-02 
1425	 6.85496940357048E-03 
1426	-1.03462613265001E-03 
1427	 3.90112556781381E-04 
1428	-7.91402086610789E-03 
1429	-1.11881948814044E-02 
1430	 4.26518001252837E-04 
1431	 3.58388409608949E-03 
1432	-7.11134751898459E-03 
1433	-7.13963210745837E-03 
1434	 3.32105592894939E-03 
1435	 5.91554695511462E-03 
1436	 6.11599156895116E-03 
1437	 9.84043727022432E-03 
1438	 1.01178290492366E-02 
1439	 9.84363127009525E-03 
1440	 7.93328254483459E-03 
1441	-4.26039802047135E-05 
1442	-5.59472900907654E-03 
1443	-4.43890691857173E-03 
1444	-2.17119864660237E-03 
1445	-1.37695966584669E-04 
1446	 1.0631184031055E-03 
1447	-2.93270512958354E-04 
1448	-5.33418471504375E-04 
1449	 2.12983327849907E-03 
1450	 3.1807975739766E-03 
1451	 1.86431738282619E-03 
1452	 6.79984640277106E-04 
1453	 3.26736269220735E-04 
1454	 6.10210385776938E-04 
1455	 1.62110162668084E-03 
1456	 6.01383868936258E-04 
1457	-1.56709684858583E-03 
1458	-7.93708293962543E-04 
1459	 5.91276184974025E-04 
1460	 3.0261786938712E-04 
1461	 1.41720720527665E-03 
1462	 1.96312508711402E-03 
1463	 3.09566588359283E-04 
1464	-9.98496043022098E-04 
1465	-1.46350235447872E-03 
1466	-1.14452331078654E-03 
1467	-2.17756114235793E-03 
1468	-1.92113373494008E-03 
1469	 2.46690070523085E-03 
1470	 2.81920601559681E-03 
1471	-7.67759283446999E-04 
1472	-9.081198379467E-04 
1473	-2.05472233867769E-05 
1474	-1.71497916655083E-04 
1475	-1.47921341564923E-06 
1476	 1.01885172621999E-03 
1477	 2.13382173666841E-03 
1478	 2.11648732919026E-03 
1479	 2.51384387375067E-03 
1480	 2.97087723988094E-03 
1481	 2.68108838570196E-03 
1482	 2.1027180106161E-03 
1483	 1.5420643002916E-03 
1484	 1.67144146697677E-03 
1485	 1.28874658387345E-03 
1486	 1.36416707394976E-03 
1487	 2.89181411410036E-03 
1488	 3.10711558073215E-03 
1489	 2.38681436881902E-03 
1490	 2.04827255394481E-03 
1491	 1.34029606414857E-03 
1492	 1.37001300616754E-03 
1493	 2.11012714720147E-03 
1494	 2.1386287097852E-03 
1495	 2.07149439324294E-03 
1496	 2.05718033897094E-03 
1497	 1.63967485374781E-03 
1498	 1.49700228494722E-03 
1499	 1.69256420714876E-03 
1500	 1.71204041265814E-03 
1501	 1.60089488839686E-03 
1502	 1.59507916722756E-03 
1503	 1.66704819764961E-03 
1504	 1.61961120332601E-03 
1505	 1.38974439126106E-03 
1506	 1.50143227599723E-03 
1507	 1.66778408594018E-03 
1508	 1.66888037167791E-03 
1509	 1.60258328293734E-03 
1510	 1.47619248657216E-03 
1511	 1.35988354163921E-03 
1512	 1.47328928789599E-03 
1513	 1.54065858753637E-03 
1514	 1.47126512020282E-03 
1515	 1.50901555125661E-03 
1516	 1.3417461814822E-03 
1517	 1.3367568274625E-03 
1518	 1.64694961468282E-03 
1519	 1.50492169666981E-03 
1520	 1.29691788444011E-03 
1521	 1.44790095398276E-03 
1522	 1.5861010523909E-03 
1523	 1.5905963742491E-03 
1524	 1.56276092836119E-03 
1525	 1.57967215930202E-03 
1526	 1.46504627970662E-03 
1527	 1.35294442851045E-03 
1528	 1.55362558689423E-03 
1529	 1.62551046098593E-03 
1530	 1.58045968566036E-03 
1531	 1.65766052300239E-03 
1532	 1.63968616168052E-03 
1533	 1.82579541725965E-03 
1534	 1.90071997638818E-03 
1535	 1.63375521776405E-03 
1536	 1.62571933786696E-03 
1537	 1.41392644815139E-03 
1538	 1.04783654504373E-03 
1539	 1.22304374609691E-03 
1540	 1.27385650524104E-03 
1541	 1.28673049494133E-03 
1542	 1.58875486218964E-03 
1543	 1.59007723777788E-03 
1544	 1.47237767062373E-03 
1545	 1.51707569133487E-03 
1546	 1.62354898541636E-03 
1547	 1.61716220859032E-03 
1548	 1.66979135018852E-03 
1549	 1.82298477585198E-03 
1550	 1.75677893580355E-03 
1551	 1.76896307843586E-03 
1552	 1.79194859478555E-03 
1553	 1.54095353307888E-03 
1554	 1.45001121942259E-03 
1555	 1.56096774605937E-03 
1556	 1.54912351606988E-03 
1557	 1.56592568942184E-03 
1558	 1.63909800425162E-03 
1559	 1.61902262988341E-03 
1560	 1.71081225299787E-03 
1561	 1.92198049970281E-03 
1562	 2.04923696311692E-03 
1563	 1.99306703260481E-03 
1564	 1.78735246518056E-03 
1565	 1.75120499676823E-03 
1566	 1.69676315864033E-03 
1567	 1.42029769899608E-03 
1568	 1.36659012109295E-03 
1569	 1.42045488093328E-03 
1570	 1.36445749611722E-03 
1571	 1.47141841195506E-03 
1572	 1.65556711933179E-03 
1573	 1.86724178652134E-03 
1574	 1.94707598501426E-03 
1575	 1.71868926423536E-03 
1576	 1.6117560461644E-03 
1577	 1.46942925896305E-03 
1578	 1.35459059157176E-03 
1579	 1.69303164121036E-03 
1580	 1.79830850745292E-03 
1581	 1.61298477734174E-03 
1582	 0.001700167367018 
1583	 1.72829517862227E-03 
1584	 1.68585671608009E-03 
1585	 1.77997193777344E-03 
1586	 1.80204664785375E-03 
1587	 1.84092046223171E-03 
1588	 1.86792578281932E-03 
1589	 1.64309109038601E-03 
1590	 1.31959865608531E-03 
1591	 1.24850095943379E-03 
1592	 1.46952110484979E-03 
1593	 1.7703952481426E-03 
1594	 1.9016956618215E-03 
1595	 1.85156677108838E-03 
1596	 1.88954011344998E-03 
1597	 1.82707707063979E-03 
1598	 1.61779508764095E-03 
1599	 1.6428982708011E-03 
1600	 1.73000483208479E-03 
1601	 1.47833483170912E-03 
1602	 1.34460508950049E-03 
1603	 1.68378533224147E-03 
1604	 1.58093544649188E-03 
1605	 1.2708940943409E-03 
1606	 1.60128240439541E-03 
1607	 1.74051051654501E-03 
1608	 1.52201255703283E-03 
1609	 1.6962095982882E-03 
1610	 1.97928402187101E-03 
1611	 1.92510995783909E-03 
1612	 1.74056840454938E-03 
1613	 1.5973092396103E-03 
1614	 1.55130836683324E-03 
1615	 0.001609274686053 
1616	 1.64819074723519E-03 
1617	 1.76857539980937E-03 
1618	 1.76492181681019E-03 
1619	 1.50776073122489E-03 
1620	 1.48575782040659E-03 
1621	 1.57684543920188E-03 
1622	 1.57115280323703E-03 
1623	 1.57875931214021E-03 
1624	 1.48173985354438E-03 
1625	 1.51664397905839E-03 
1626	 1.70111168916399E-03 
1627	 1.80553972220942E-03 
1628	 1.70918039352611E-03 
1629	 1.47749206138966E-03 
1630	 1.52145248788536E-03 
1631	 1.76852096124934E-03 
1632	 1.87942062140648E-03 
1633	 1.93071364144913E-03 
1634	 1.97796011917662E-03 
1635	 1.72392051054051E-03 
1636	 1.59835592829726E-03 
1637	 1.73832232643768E-03 
1638	 1.53476526379147E-03 
1639	 1.37443229612097E-03 
1640	 1.52654690049911E-03 
1641	 1.75366522279464E-03 
1642	 1.82798557172825E-03 
1643	 1.6324604984489E-03 
1644	 1.62783415275865E-03 
1645	 1.69225377930863E-03 
1646	 1.56900891581886E-03 
1647	 1.62412538202742E-03 
1648	 1.61728845178086E-03 
1649	 1.42946063451777E-03 
1650	 1.48375178838104E-03 
1651	 1.82251415191189E-03 
1652	 2.04136629327118E-03 
1653	 1.79611065137467E-03 
1654	 1.6813732151179E-03 
1655	 1.40651901756174E-03 
1656	 1.43138245971243E-03 
1657	 1.77322346910899E-03 
1658	 1.80956327479969E-03 
1659	 1.77641856437242E-03 
1660	 1.91635449667996E-03 
1661	 2.15976210017835E-03 
1662	 2.10925603493688E-03 
1663	 1.80708858233855E-03 
1664	 1.67641562869968E-03 
1665	 1.51475448697228E-03 
1666	 1.52742412321831E-03 
1667	 1.7988478008088E-03 
1668	 2.03033290026698E-03 
1669	 1.9350655180579E-03 
1670	 1.30621457183469E-03 
1671	 1.21046654102026E-03 
1672	 1.37042600275405E-03 
1673	 1.20638169770447E-03 
1674	 1.33076112787171E-03 
1675	 1.44514190401412E-03 
1676	 1.42944154497024E-03 
1677	 1.61606206881996E-03 
1678	 1.8924964033389E-03 
1679	 2.1129500421319E-03 
1680	 1.82546506944481E-03 
1681	 1.2773269353986E-03 
1682	 1.25157244039657E-03 
1683	 1.58168377198088E-03 
1684	 1.93855855486786E-03 
1685	 2.23482323884275E-03 
1686	 2.11192672436632E-03 
1687	 1.70967661977413E-03 
1688	 1.44631562601903E-03 
1689	 1.36309709162825E-03 
1690	 1.39630854049042E-03 
1691	 1.58563450453699E-03 
1692	 1.67312383148259E-03 
1693	 1.44831479913963E-03 
1694	 1.46011258285537E-03 
1695	 1.45757364549446E-03 
1696	 1.36835857374152E-03 
1697	 1.92837132757005E-03 
1698	 2.46947368238336E-03 
1699	 2.28852261631436E-03 
1700	 1.93968980060923E-03 
1701	 1.84821196147219E-03 
1702	 1.47721683064646E-03 
1703	 1.02465340280194E-03 
1704	 1.48407029483665E-03 
1705	 1.87770077555802E-03 
1706	 1.52187020917885E-03 
1707	 1.68471066607199E-03 
1708	 1.80574092953787E-03 
1709	 1.39603196169191E-03 
1710	 1.52379726104788E-03 
1711	 1.72154792806417E-03 
1712	 1.43145834509682E-03 
1713	 1.64852960407447E-03 
1714	 1.80794780517151E-03 
1715	 1.81267107827321E-03 
1716	 1.74073604976303E-03 
1717	 1.30388900353443E-03 
1718	 9.92583660746282E-04 
1719	 1.24923471436773E-03 
1720	 1.80881062408317E-03 
1721	 2.13926382623799E-03 
1722	 2.15310712274062E-03 
1723	 2.05764980353186E-03 
1724	 1.42947995910715E-03 
1725	 1.30614979812682E-03 
1726	 1.92495646514829E-03 
1727	 1.84067494947405E-03 
1728	 1.55008186447092E-03 
1729	 1.5859271196139E-03 
1730	 1.40455944699271E-03 
1731	 1.63553899025064E-03 
1732	 2.19621428911462E-03 
1733	 1.91935375315711E-03 
1734	 1.38872150985381E-03 
1735	 1.14603577328923E-03 
1736	 1.11869684235476E-03 
1737	 1.80793115157355E-03 
1738	 2.52767731714341E-03 
1739	 2.49537042167809E-03 
1740	 2.01661078497605E-03 
1741	 1.55795576618127E-03 
1742	 1.22022928020147E-03 
1743	 9.60138805779523E-04 
1744	 1.13338210022015E-03 
1745	 1.24038084212454E-03 
1746	 1.01366177703834E-03 
1747	 1.20673671941162E-03 
1748	 1.85264456413431E-03 
1749	 2.03622598673169E-03 
1750	 2.19329582696493E-03 
1751	 1.92812990995217E-03 
1752	 7.5940914900976E-04 
1753	 8.68396618599895E-04 
1754	 1.81947408992731E-03 
1755	 2.04312909273695E-03 
1756	 2.64872443943796E-03 
1757	 2.1642275556814E-03 
1758	 1.39557226549429E-03 
1759	 1.70807644427066E-03 
1760	 2.17323615022762E-03 
1761	 1.9708985293386E-03 
1762	 1.94615514664369E-03 
1763	 1.63934870635367E-03 
1764	 1.40800528116194E-03 
1765	 1.7696074092517E-03 
1766	 1.62835303290373E-03 
1767	 1.01299011017514E-03 
1768	 6.20572876949525E-04 
1769	 6.29854027423289E-04 
1770	 1.09620559732414E-03 
1771	 1.34327150922593E-03 
1772	 1.08651393885374E-03 
1773	 6.36859776074119E-04 
1774	 1.5270417115377E-04 
1775	 1.67669639290825E-03 
1776	 2.09372912343813E-03 
1777	 1.82252544425393E-03 
1778	 1.69381678111403E-03 
1779	 3.35574893700684E-04 
1780	 2.37769486331376E-05 
1781	 1.0233148114963E-03 
1782	 1.45497272269188E-03 
1783	 2.26767478169486E-03 
1784	 2.65772674576719E-03 
1785	 2.91899507128293E-03 
1786	 2.50543183151458E-03 
1787	 5.12344451454824E-04 
1788	 8.32589185987217E-05 
1789	-3.67755070734171E-04 
1790	-7.68243725027129E-04 
1791	 2.84522744351819E-03 
1792	 4.6268282978454E-03 
1793	 4.3853105317479E-03 
1794	 4.71429754503984E-03 
1795	 2.72056394537753E-03 
1796	-1.15242643440752E-04 
1797	-1.81023997395723E-03 
1798	 8.10640677993319E-04 
1799	 5.45964737295924E-03 
1800	 9.68884415594386E-03 
1801	 1.01326129008005E-02 
1802	-5.85288176635282E-03 
1803	-1.37596445583552E-02 
1804	-1.91512923649564E-02 
1805	-2.03036169174881E-02 
1806	 2.64196320880553E-03 
1807	 1.53452711850765E-02 
1808	 3.35985685674033E-02 
1809	 3.42583248077663E-02 
1810	-0.018669309376223 
1811	-0.03526734957403 
1812	-6.34614738306839E-02 
1813	-0.029668065516587 
1814	 0.162748348228347 
1815	 0.225526335580631 
1816	 0.236938182122848 
1817	 4.24128003989264E-02 
1818	-4.68298544373244E-02 
1819	-7.17775823703741E-02 
1820	-0.103442212949834 
1821	 0.191763505624167 
1822	 0.28934022170222 
1823	 0.203691970307288 
1824	 0.104411336671616 
1825	-0.420295132274171 
1826	-0.410703363607753 
1827	 0.213458493405376 
1828	 0.278648304843687 
1829	 0.434651821797038 
1830	 0.398736112058543 
1831	 1.45470851102589 
1832	-0.313313661264281 
1833	-3.41400519570621E-02 
1834	 0.172198185219179 
1835	 0.686617038507741 
1836	 0.629798197487317 
1837	 0.118126734858724 
1838	 0.283488551612386 
1839	-0.307284161722516 
1840	 0.155455171346532 
1841	-0.739522483951481 
1842	-0.884870177192962 
1843	-0.812747877341699 
1844	-0.745501546832629 
1845	-0.836643836018509 
1846	-0.853221953483417 
1847	-0.737951110512046 
1848	-1.04360155829627 
1849	-0.536991315621591 
1850	-0.409509715043254 
1851	-0.324656974535575 
1852	-0.828118826197165 
1853	 11.1986180426062 
1854	 1.75280153761034 
1855	 0.656084700051589 
1856	 0.512317252482387 
1857	-0.140173840828145 
1858	-0.453354078301697 
1859	-1.96080013277076 
1860	-12.4885861412818 
1861	 0.13028947538399 
1862	 0.226901994393085 
1863	 1.73444459967661 
1864	 42.7049682822242 
1865	 3.45635424726923 
1866	 2.45798914859323 
1867	 2.13488763638295 
1868	 2.99669560794112E-03 
1869	-0.214488827278217 
1870	-0.491271619961038 
1871	-1.80834902996385 
1872	-1.11083024185317 
1873	-0.290986597976901 
1874	-0.146113437547803 
1875	-1.40186540386546E-03 
1876	-0.022245346378371 
1877	-0.803427514836769 
1878	-0.556851946454672 
1879	 0.244106848629944 
1880	 0.322127394025463 
1881	 0.412633532278269 
1882	 0.331574600047633 
1883	 0.321123226157566 
1884	 0.428719877342888 
1885	 0.127724426063739 
1886	 2.30362789219196 
1887	-1.23083151623389E-02 
1888	 0.255243958150147 
1889	 0.585483889368253 
1890	 1.03371004678798 
1891	 1.07654624306114 
1892	 1.05694169485258 
1893	-14.3666593169579 
1894	-7.04372528387332 
1895	-4.79969017162744 
1896	-0.66035133507121 
1897	-0.734886460359852 
1898	-0.399089099876072 
1899	-0.30298802764887 
1900	-0.275515024674757 
1901	-0.11785682743715 
1902	-7.01021235831253E-02 
1903	-0.116473391783711 
1904	-12.3631853949027 
1905	 0.541942364084434 
1906	 1.22281831120278 
1907	 1.00116764116378 
1908	 1.3930497093215 
1909	-0.644538603373179 
1910	 2.67777290928708 
1911	-0.753938398047162 
1912	-1.31560813096462 
1913	-3.80676186994475 
1914	-1.05925513578952 
1915	 0.839299537349062 
1916	-0.70840207974247 
1917	 1.08686754239565E-03 
1918	 1.10167000912102 
1919	 0.963396508958972 
1920	 2.33881901914609 
1921	-0.567852275345792 
1922	-2.03183300646805 
1923	 20.3057646778997 
1924	 0.297239978963313 
1925	-3.82374684399618E-02 
1926	-0.105689435501847 
1927	-0.458396056691084 
1928	-0.546302936022351 
1929	-0.40556280273484 
1930	-0.207336564438782 
1931	 5.50322976436694E-02 
1932	 0.111238633963971 
1933	-9.68296039545223E-02 
1934	-0.123468118003122 
1935	-0.110689536373043 
1936	-8.77954544561465E-02 
1937	-2.51049597391749E-02 
1938	 5.74732108993683E-02 
1939	 0.070430293045218 
1940	 6.74354280506937E-02 
1941	 3.10448666655849E-02 
1942	 2.37264325647785E-02 
1943	 6.10572377546345E-03 
1944	 4.65508500328601E-04 
1945	 1.40329557807118E-02 
1946	 1.01302326197559E-02 
1947	-6.63061866375828E-03 
1948	-1.43747321698433E-02 
1949	-1.16204142767606E-02 
1950	-8.14451091052661E-03 
1951	 2.82893208999151E-03 
1952	 1.02944967372476E-02 
1953	 2.21474404331328E-02 
1954	 2.06910105790038E-02 
1955	 1.05217505414261E-02 
1956	 7.61301302275993E-04 
1957	 1.78968710591516E-03 
1958	 2.99438359742758E-03 
1959	 1.0255371427785E-03 
1960	 6.95200692051294E-03 
1961	 4.05625112300153E-03 
1962	-8.75613339825442E-04 
1963	 1.41963647218256E-03 
1964	-1.16417492709065E-04 
1965	-4.60978041841574E-04 
1966	-4.35571767630115E-04 
1967	-2.36613939717266E-04 
1968	-3.50714681697739E-04 
1969	 1.7179185218368E-03 
1970	 3.50959523496224E-03 
1971	 4.94853953687302E-03 
1972	 5.42620688406639E-03 
1973	 5.71930043328739E-03 
1974	 5.21024265090939E-03 
1975	 3.38414220621016E-03 
1976	 1.70448772507049E-03 
1977	 7.73228553464937E-04 
1978	 5.11660273613406E-04 
1979	 2.34581103980974E-04 
1980	 7.53247525591385E-04 
1981	 1.19948205829684E-03 
1982	 8.54845440211855E-04 
1983	 5.62791633907688E-04 
1984	 6.13866206566793E-04 
1985	 1.83224952222116E-03 
1986	 2.61852602446973E-03 
1987	 2.16111908304229E-03 
1988	 2.41380251428993E-03 
1989	 2.57107125008033E-03 
1990	 2.34080510854829E-03 
1991	 2.99900327067272E-03 
1992	 3.2444102963552E-03 
1993	 1.86510970362924E-03 
1994	 1.48229620428196E-03 
1995	 1.61294383784708E-03 
1996	 1.8755526686117E-03 
1997	 1.50704317558141E-03 
1998	 2.23055150039175E-03 
1999	 2.57989456256416E-03 
2000	 2.81519207258637E-03 
2001	 2.57395201727086E-03 
2002	 3.05680817489638E-03 
2003	 3.64956177915405E-03 
2004	 1.37205448408733E-03 
2005	 1.3198413975596E-03 
2006	 1.83385435533162E-03 
2007	-1.97300906449584E-03 
2008	-5.26935744846046E-03 
2009	-5.61470846750337E-03 
2010	-5.05282936175726E-03 
2011	-5.15855336562464E-03 
2012	-2.88103650922974E-03 
2013	-6.00173763918668E-04 
2014	-2.32068414864287E-03 
2015	-3.50398373452184E-03 
2016	-4.78351866774422E-03 
2017	-4.66106638183684E-03 
2018	-3.00677958558487E-03 
2019	-2.16686076224547E-03 
2020	 8.42433622812024E-04 
2021	 2.52345972958114E-03 
2022	 1.84084336379574E-03 
2023	 1.70966961514995E-03 
2024	 1.46079630096517E-03 
2025	-1.18925516860586E-04 
2026	-4.24744224544905E-05 
2027	 1.33438401493145E-03 
2028	 1.64567305892904E-03 
2029	 5.20410033296496E-04 
2030	 2.3951029481552E-04 
2031	 5.29230727946082E-04 
2032	 6.00398289878015E-04 
2033	 8.36825477512158E-04 
2034	 9.17196413914848E-04 
2035	 4.012048558441E-04 
2036	-5.58571375597603E-04 
2037	-5.65364443449561E-04 
2038	 4.91024192597478E-04 
2039	 8.20904560132758E-04 
2040	 8.87635121427979E-04 
2041	 7.73116749508817E-04 
2042	 8.48105188865747E-05 
2043	 1.12011371392044E-04 
2044	 3.07236234075324E-04 
2045	 6.1778538963507E-04 
2046	 1.20504294395601E-03 
2047	 1.78439993948553E-03 
2048	 1.59446548578044E-03 
2049	 1.42181658274826E-03 
2050	 1.45043934886272E-03 
2051	 1.04486354048573E-03 
2052	 8.73587187382091E-04 
2053	 6.34144902617241E-04 
2054	 1.97982784639368E-06 
2055	 3.47723184075606E-04 
2056	 1.06993560790074E-03 
2057	 2.52397611931597E-03 
2058	 2.99525433507055E-03 
2059	 3.74687349090947E-03 
2060	 3.49736239152007E-03 
2061	 1.53911355981062E-03 
2062	 1.37819494880375E-03 
2063	 1.15735811912046E-03 
2064	 1.50650454032889E-03 
2065	 1.99278417276036E-03 
2066	 8.26279139512861E-04 
2067	 1.01190218457613E-03 
2068	 1.68547466581768E-03 
2069	 1.70056434938061E-03 
2070	 2.32127200235315E-03 
2071	 1.70270829016493E-03 
2072	 8.71786548933945E-04 
2073	 9.61083032837458E-04 
2074	 2.23963272426367E-03 
2075	 2.21837465729061E-03 
2076	 2.05668866938913E-03 
2077	 1.67209664659978E-03 
2078	 2.95081142925407E-05 
2079	-6.89046915962821E-04 
2080	-1.25292014552499E-03 
2081	-9.50859847383433E-04 
2082	-6.95274903874837E-05 
2083	 1.23410680705186E-03 
2084	 1.5489743457886E-03 
2085	 1.62842119185383E-03 
2086	 7.69886512017918E-04 
2087	-1.61639845756676E-04 
2088	 2.60330443655923E-04 
2089	 2.96315570057444E-04 
2090	-6.52449922127535E-05 
2091	 1.28927872035619E-04 
2092	 3.49740706325503E-04 
2093	 4.56517969545655E-04 
2094	 6.43889987099266E-04 
2095	 1.49989949453954E-03 
2096	 1.51946135520125E-03 
2097	 6.99758120326205E-04 
2098	 2.89943011517213E-04 
2099	-2.26161530313312E-04 
2100	-5.25804257814004E-04 
2101	-6.97686233055228E-04 
2102	-4.78235401485563E-04 
2103	-1.56861031200848E-04 
2104	 5.39938457784295E-04 
2105	 8.65374599425161E-04 
2106	 9.3201903623858E-04 
2107	 1.1643271270499E-03 
2108	 4.20643182557477E-04 
2109	-2.43122514834866E-04 
2110	-2.98581195905434E-04 
2111	-5.59764322583869E-04 
2112	-5.79927009452709E-04 
2113	-2.14251461240941E-04 
2114	 8.92134612112132E-04 
2115	 1.08055766256377E-03 
2116	 1.06883848090226E-03 
2117	 1.32886703930772E-03 
2118	 1.4077560597821E-03 
2119	 1.27760667127208E-03 
2120	 1.34379936057263E-03 
2121	 1.00401021025441E-03 
2122	 1.30014956638569E-03 
2123	 1.02460673503481E-03 
2124	 9.94378271604177E-04 
2125	 1.16147778816522E-03 
2126	 2.64679736018582E-04 
2127	-1.64135296033217E-04 
2128	 7.66185967817182E-04 
2129	 1.53114227331442E-03 
2130	 1.42738996964443E-03 
2131	 1.46218496663999E-03 
2132	 9.95118377884077E-04 
2133	 5.05675275995711E-04 
2134	 5.08144005301512E-04 
2135	 1.40322105760442E-03 
2136	 1.59025178287953E-03 
2137	 1.19574507631536E-03 
2138	 1.43747261157959E-03 
2139	 2.41372749914828E-03 
2140	 2.44126418831818E-03 
2141	 2.38424798407649E-03 
2142	 2.40154042897854E-03 
2143	 1.95542187035375E-03 
2144	 9.91220832244531E-04 
2145	 1.42801197218081E-03 
2146	 1.07324072410439E-03 
2147	 2.78512670560049E-04 
2148	-2.92718286778619E-04 
2149	-8.36370614782191E-04 
2150	-1.74706274616092E-04 
2151	 1.38621073815343E-03 
2152	 2.67361300273884E-03 
2153	 2.49945247060207E-03 
2154	 1.77733108048058E-03 
2155	 1.30669224101824E-03 
2156	 4.27594092195977E-04 
2157	-1.88102335454328E-04 
2158	-3.35557609979085E-04 
2159	-6.0831236487145E-04 
2160	-1.18140859625706E-03 
2161	-1.24886926836721E-03 
2162	-4.77001789324045E-04 
2163	-3.35494293308192E-04 
2164	-2.52561544889027E-04 
2165	-7.11727831049936E-04 
2166	-2.69291672061964E-03 
2167	-2.64167758943651E-03 
2168	-1.35176803635133E-03 
2169	-8.78660102369527E-04 
2170	 3.9973985374403E-04 
2171	 1.68399466519668E-03 
2172	 1.46519990326121E-03 
2173	 5.34639930716206E-04 
2174	 1.16952678687815E-03 
2175	 2.47093754622108E-03 
2176	 2.44691813710918E-03 
2177	 2.92223771948267E-03 
2178	 3.34186233129088E-03 
2179	 2.44274973841285E-03 
2180	 1.13377131978683E-03 
2181	 6.22279000225333E-04 
2182	 5.46810834451561E-04 
2183	-5.65733630831386E-04 
2184	-2.89445842635618E-04 
2185	-1.58804362787442E-04 
2186	 1.13691020378391E-04 
2187	 4.90933581382352E-04 
2188	 9.94659326510643E-04 
2189	 1.90853999812447E-03 
2190	 2.30549857350974E-03 
2191	 2.43070435768485E-03 
2192	 1.51179222626962E-03 
2193	-1.14239941507344E-03 
2194	-1.08000311597109E-03 
2195	 4.59282560823224E-05 
2196	 6.15340168652927E-04 
2197	 3.54838231678085E-03 
2198	 4.44824982451924E-03 
2199	 3.42470047536649E-03 
2200	 2.19349727856838E-03 
2201	 2.47978186302249E-03 
2202	 2.60931179148319E-03 
2203	 2.76440169086275E-03 
2204	 3.72552514940852E-03 
2205	 2.76100977365055E-03 
2206	 1.42199678920012E-03 
2207	 1.61335255824635E-03 
2208	 1.01494383279086E-03 
2209	 9.94876453215821E-04 
2210	 2.25646934843902E-03 
2211	 1.93074960097942E-03 
2212	 2.37719525583748E-03 
2213	 3.2150701496417E-03 
2214	 1.91079661126125E-03 
2215	 2.00120229790928E-03 
2216	 2.13005280647439E-03 
2217	 1.68867843287383E-03 
2218	 8.32673522199651E-04 
2219	 1.26089941871065E-03 
2220	 1.85639534288354E-03 
2221	 1.65222037221484E-03 
2222	 2.20258439718069E-03 
2223	 1.7358669158008E-03 
2224	-1.38820554246554E-04 
2225	-5.43483794104331E-04 
2226	-6.80104552210353E-04 
2227	-7.73666441404771E-04 
2228	-8.40423064459105E-05 
2229	 1.87387614691632E-04 
2230	 1.78563644327399E-04 
2231	 4.87531356667991E-04 
2232	 9.0188222923894E-04 
2233	 1.00858476934711E-03 
2234	 9.85618456586163E-04 
2235	 1.25238098883923E-03 
2236	 1.86959437941236E-03 
2237	 8.02275482607227E-04 
2238	-1.22139638762325E-03 
2239	-1.8114913041946E-03 
2240	-2.35837768166128E-03 
2241	-9.03853771296307E-04 
2242	 1.04008300507982E-03 
2243	 1.83466781447844E-03 
2244	 6.87348736011309E-04 
2245	-2.57415950240734E-03 
2246	-2.78344331524474E-03 
2247	-1.49164567990213E-03 
2248	-2.26106768364531E-03 
2249	-2.65775686650025E-03 
2250	-1.47443632716777E-03 
2251	-2.47615510859745E-03 
2252	-2.34140836026063E-03 
2253	 1.8591553799791E-03 
2254	 3.18605624991584E-03 
2255	 1.33858220746697E-03 
2256	 8.1062411977202E-04 
2257	-4.85049837420856E-04 
2258	-3.47472689363237E-03 
2259	-3.94581761675151E-03 
2260	-3.65247485372393E-03 
2261	-1.00624724069353E-03 
2262	-8.22359390480393E-04 
2263	-1.64061091665964E-03 
2264	-1.00584517112015E-03 
2265	-1.19163117586343E-03 
2266	-1.55874026822365E-03 
2267	 8.06329564109839E-04 
2268	 1.52686796964164E-03 
2269	 2.83588531418498E-04 
2270	-6.33713444535157E-04 
2271	-3.16329367843407E-03 
2272	-3.05716115588309E-03 
2273	-9.18239381685714E-04 
2274	-7.74836610218646E-04 
2275	-3.11807938245454E-04 
2276	 8.15301879587318E-04 
2277	 1.65890622024018E-03 
2278	 1.54979258545255E-03 
2279	 2.03527015107587E-03 
2280	 3.10588011401692E-03 
2281	 3.46369770561755E-03 
2282	 1.46796671152338E-03 
2283	 1.99039788535568E-03 
2284	 3.33900111361297E-03 
2285	 2.18026889282902E-03 
2286	-4.83339805333921E-04 
2287	-2.23562757465661E-03 
2288	-3.16338517946341E-03 
2289	-4.9247470996294E-03 
2290	-5.32239483399246E-03 
2291	-4.45055531891323E-03 
2292	-4.93511662433176E-03 
2293	-2.8303141133263E-03 
2294	-1.41688320699897E-03 
2295	-2.21243849864303E-03 
2296	-7.26943183362297E-04 
2297	 1.56148130808009E-04 
2298	-7.95907693235905E-04 
2299	-1.10512047217603E-03 
2300	-2.17176519657443E-05 
2301	 3.83175452249388E-04 
2302	 1.22806500176509E-03 
2303	 2.64660594052718E-03 
2304	 2.05471876946983E-03 
2305	 4.5084298609424E-05 
2306	-1.34306009435176E-03 
2307	-2.8619040050474E-03 
2308	-4.37863020273987E-03 
2309	-3.32941478306966E-03 
2310	-3.13987327841613E-03 
2311	-4.37719471121355E-03 
2312	-2.10409021070376E-03 
2313	-3.01662803889358E-04 
2314	-1.12314965871775E-04 
2315	 1.0342204374836E-03 
2316	 1.2207139602692E-05 
2317	-2.7178449595155E-03 
2318	-1.90473389414817E-03 
2319	 1.29623416754175E-03 
2320	 5.98149148318917E-04 
2321	 7.98346431702312E-04 
2322	-7.94106989997787E-04 
2323	-3.45037886911806E-03 
2324	 8.13860513469274E-04 
2325	 4.4370259963343E-03 
2326	 5.65549915586451E-03 
2327	 4.21616216772511E-03 
2328	-7.78230862002569E-05 
2329	-4.66446816336196E-03 
2330	-6.62627387329422E-03 
2331	-2.06028521487319E-03 
2332	 1.93914351566133E-03 
2333	 1.26971988629729E-03 
2334	-1.60268199529005E-03 
2335	-8.16677333099048E-03 
2336	-1.36483918385141E-02 
2337	-1.53205825885625E-02 
2338	-1.35469140392179E-02 
2339	-7.22295628703813E-03 
2340	-2.18569847921465E-03 
2341	-3.43131001461949E-03 
2342	-7.03030956252024E-03 
2343	-1.40450113800608E-02 
2344	-2.33992165061619E-02 
2345	-2.01173914795295E-02 
2346	-2.12559123862219E-02 
2347	-2.82967922985221E-02 
2348	-1.99292624578595E-02 
2349	-1.73913501387419E-02 
2350	-1.36487179527954E-02 
2351	-0.001960393232139 
2352	-1.08716988616871E-04 
2353	 1.85804486288735E-03 
2354	 3.90822128397726E-03 
2355	 1.52622385690442E-03 
2356	 3.42608269630517E-03 
2357	 9.55876181279129E-03 
2358	 1.56384118287369E-02 
2359	 2.14355252294396E-02 
2360	 1.75650284797325E-02 
2361	 7.81983408210292E-03 
2362	 2.62538795099953E-03 
2363	-6.62174864630165E-03 
2364	-7.94806828640303E-03 
2365	-9.83651130593902E-04 
2366	 2.35776987849023E-03 
2367	 1.23262840632574E-02 
2368	 1.30379853790257E-02 
2369	-4.49658085131362E-03 
2370	-0.013551442731785 
2371	-1.27189597935914E-02 
2372	-1.25789315777964E-02 
2373	-1.37810462613159E-02 
2374	-2.21240500054767E-02 
2375	-3.76739391177648E-02 
2376	-0.051063435122114 
2377	-3.43489712455486E-02 
2378	-1.15084780869659E-02 
2379	-0.016093653204836 
2380	-1.27719143508608E-02 
2381	-4.28591621053547E-03 
2382	 9.94106378011115E-03 
2383	 2.28223328590927E-02 
2384	 2.40657443420303E-02 
2385	 3.11833668562331E-02 
2386	 1.59154532569593E-03 
2387	-2.51036591643998E-02 
2388	-0.010811991358931 
2389	-2.68799620956713E-03 
2390	-1.05951771640789E-02 
2391	-2.63690421384276E-02 
2392	-0.027486286660795 
2393	-3.47423622994809E-02 
2394	-5.73281382569241E-02 
2395	-3.88278543881787E-02 
2396	-0.026206849036702 
2397	-0.065323514722365 
2398	-8.00935591484802E-02 
2399	-0.084775477864473 
2400	-0.115875441859756 
2401	-0.10700245234699 
2402	-6.57980794105085E-02 
2403	-3.87111586434438E-02 
2404	-1.09466935390701E-02 
2405	 2.39131280598941E-02 
2406	 3.69832865377703E-02 
2407	 1.14156232231728E-02 
2408	-1.11409277961528E-03 
2409	-1.80922095749751E-02 
2410	-7.86891543003172E-02 
2411	-8.91417030827156E-02 
2412	-8.64172737388551E-02 
2413	-0.119323418055181 
2414	-0.086492800960269 
2415	-0.103473140267775 
2416	-0.211751416650391 
2417	-0.224748288002924 
2418	-0.205391215494883 
2419	-0.17449235445323 
2420	-6.87157733104667E-02 
2421	 7.40269238535155E-03 
2422	-7.77493126187591E-04 
2423	-3.62912332581428E-02 
2424	-6.64736254935907E-02 
2425	-8.09590343692116E-02 
2426	-0.106483887102436 
2427	-0.126111498323938 
2428	-0.149559036628993 
2429	-0.168721968504837 
2430	-0.146627277425377 
2431	-0.139650096192199 
2432	-0.15870128724158 
2433	-0.114507641204747 
2434	-0.107309454976976 
2435	-0.165308498573962 
2436	-0.143922882298628 
2437	-0.118655647878298 
2438	-0.112517409679862 
2439	 1.01630743301389E-02 
2440	 0.109169748569609 
2441	 0.104431712558158 
2442	 4.74748431082878E-02 
2443	-0.143429198342593 
2444	-0.155703632860494 
2445	-7.81684598635007E-03 
2446	 3.82812809622294E-02 
2447	 9.58078537385125E-02 
2448	 4.6871375222169E-03 
2449	-0.531533200542448 
2450	-0.792783709603046 
2451	-0.864030773944914 
2452	 0.155356062292325 
2453	 0.188286450786304 
2454	 0.21263500205853 
2455	 0.369421925460133 
2456	 0.263335464851498 
2457	 0.365188252108997 
2458	 0.416659505902065 
2459	 0.308003839415767 
2460	 7.77569894419265E-02 
2461	-0.150876752150861 
2462	-0.279381589628679 
2463	-0.528154026387796 
2464	-0.619051219249117 
2465	-0.60103229197445 
2466	-0.732699324891851 
2467	-0.682032582374572 
2468	-2.22627857344821 
2469	-5.9116518935068 
2470	-0.315973875955491 
2471	-0.159872695938086 
2472	-0.589131681111971 
2473	-0.443469011624612 
2474	-1.09876829836068 
2475	-1.99217255723198 
2476	-1.81382320179183 
2477	-4.57008777882234 
2478	-3.89501500201885 
2479	 1.216557500694 
2480	-0.239568693328825 
2481	 0.673225128278237 
2482	 0.771049490936531 
2483	 0.745261556717318 
2484	 1.30015817271521 
2485	 1.63358914806129 
2486	 1.33676571163759 
2487	 0.856766863895114 
2488	 0.316808769539198 
2489	 0.215507458646657 
2490	 0.446331056261335 
2491	 1.35669213609871 
2492	 1.10370247862668 
2493	 0.979636286535385 
2494	 0.33711583942317 
2495	 0.71588704207554 
2496	 1.60577124610594 
2497	 1.28074947053454 
2498	 1.4012937263073 
2499	 0.364514499441919 
2500	-0.425890118268471 
