Wavelength	rt0718close00006.asd
350	 1.24457122968045E-02 
351	 0.011994024295229 
352	 1.20798944906131E-02 
353	 1.25644876140475E-02 
354	 1.30096497040245E-02 
355	 1.27619902761808E-02 
356	 0.012626433589771 
357	 1.25814062888987E-02 
358	 1.25277209704867E-02 
359	 1.33076904047293E-02 
360	 1.33325055156455E-02 
361	 0.012824595799374 
362	 1.31156952175965E-02 
363	 1.29981202969422E-02 
364	 1.30464108050275E-02 
365	 0.013412482533113 
366	 1.33023119980106E-02 
367	 1.34501633040268E-02 
368	 1.37140600742836E-02 
369	 1.38319966008205E-02 
370	 1.39761868455607E-02 
371	 1.40313655477574E-02 
372	 1.39312858586344E-02 
373	 1.37071202507415E-02 
374	 1.38564496137031E-02 
375	 1.41646201060965E-02 
376	 1.44755857485895E-02 
377	 1.48272865483356E-02 
378	 1.47276989539815E-02 
379	 1.46552338884967E-02 
380	 1.50296755650321E-02 
381	 1.54287194647635E-02 
382	 1.51148749426043E-02 
383	 1.47115095230762E-02 
384	 1.52675888495469E-02 
385	 1.56926232667043E-02 
386	 1.60465915707333E-02 
387	 1.61812877020247E-02 
388	 1.56804764568879E-02 
389	 1.59407404099508E-02 
390	 1.61494347958277E-02 
391	 0.015765622107514 
392	 0.015935525361271 
393	 1.64228647227455E-02 
394	 1.69300922985756E-02 
395	 0.017169278144987 
396	 1.70287604256285E-02 
397	 1.71285237808863E-02 
398	 1.75058539112995E-02 
399	 1.76903067032498E-02 
400	 1.77436706313912E-02 
401	 1.77286992424241E-02 
402	 1.77437120220615E-02 
403	 1.79814516759593E-02 
404	 1.81174530879186E-02 
405	 0.018125693067604 
406	 1.81331161240712E-02 
407	 0.018422026292487 
408	 1.86104326915071E-02 
409	 1.86330538459595E-02 
410	 1.87662719990669E-02 
411	 1.90416989422565E-02 
412	 1.92593150994015E-02 
413	 1.92871337050959E-02 
414	 0.019209428847719 
415	 1.93867707779334E-02 
416	 1.96865276022513E-02 
417	 1.98087370595091E-02 
418	 1.98187882069365E-02 
419	 2.00286739084944E-02 
420	 2.04200052464176E-02 
421	 0.020617161508218 
422	 2.06624286531254E-02 
423	 0.020779110000578 
424	 2.10613596136444E-02 
425	 2.11105470399664E-02 
426	 2.13649101947926E-02 
427	 2.17091727515296E-02 
428	 2.18332237956888E-02 
429	 2.21288616332829E-02 
430	 0.022403362748027 
431	 2.26065070502421E-02 
432	 2.29139660303707E-02 
433	 2.31401826269403E-02 
434	 2.33177741884071E-02 
435	 2.35204317420604E-02 
436	 2.37966378358856E-02 
437	 2.40505540206946E-02 
438	 2.43127885560291E-02 
439	 2.46537533490634E-02 
440	 2.48489608896855E-02 
441	 2.50601837411576E-02 
442	 2.53483283925895E-02 
443	 2.55655666294825E-02 
444	 2.57989830609936E-02 
445	 2.60692110723864E-02 
446	 2.63454687034986E-02 
447	 2.64626898998216E-02 
448	 2.66613090117866E-02 
449	 2.69193605682529E-02 
450	 2.70374890140428E-02 
451	 2.72296925982572E-02 
452	 2.74461932958846E-02 
453	 2.76241721502014E-02 
454	 2.77508405519069E-02 
455	 2.78605054190878E-02 
456	 0.027968415060634 
457	 2.80901691929825E-02 
458	 2.82951935739824E-02 
459	 2.83953517660669E-02 
460	 2.84380927019208E-02 
461	 2.86972610671877E-02 
462	 2.88036576330832E-02 
463	 2.88626046294422E-02 
464	 2.89895213799054E-02 
465	 0.029047268146984 
466	 2.91954089644914E-02 
467	 0.029335554997466 
468	 2.93147007075083E-02 
469	 2.95866069178168E-02 
470	 2.98104325906015E-02 
471	 2.98444138707269E-02 
472	 2.99055075824705E-02 
473	 3.00942990273859E-02 
474	 3.03022281157302E-02 
475	 3.04204657586705E-02 
476	 3.05760299807421E-02 
477	 3.06622565633411E-02 
478	 3.07752646112403E-02 
479	 3.11079010288278E-02 
480	 3.12924449980307E-02 
481	 3.14264601836112E-02 
482	 3.15951138104311E-02 
483	 3.17128264397847E-02 
484	 3.19876058398029E-02 
485	 3.22916566641274E-02 
486	 3.24467643656259E-02 
487	 3.27435110904331E-02 
488	 3.30177807139444E-02 
489	 3.32127809875532E-02 
490	 0.033400545943615 
491	 0.03362388739891 
492	 3.38621626997861E-02 
493	 3.41180473958909E-02 
494	 3.45208664741919E-02 
495	 3.48455675005846E-02 
496	 3.50416110430915E-02 
497	 3.51881977010968E-02 
498	 3.55861748809276E-02 
499	 3.59746553027611E-02 
500	 3.62436032233254E-02 
501	 3.66072545975856E-02 
502	 3.69133930585768E-02 
503	 3.71822216983465E-02 
504	 3.74874195894501E-02 
505	 3.79297428448311E-02 
506	 3.82101754128616E-02 
507	 3.84118201163116E-02 
508	 3.88917073425367E-02 
509	 3.92225382277953E-02 
510	 3.95092346077881E-02 
511	 0.039877065908907 
512	 4.03116054977601E-02 
513	 0.040649206260316 
514	 4.09787075782702E-02 
515	 4.14572823009878E-02 
516	 4.18373850319469E-02 
517	 4.23112930181143E-02 
518	 0.04286106270814 
519	 4.31764675926367E-02 
520	 4.35069618922874E-02 
521	 4.38885224135082E-02 
522	 4.43169327960272E-02 
523	 4.48390061588965E-02 
524	 4.52929052333874E-02 
525	 4.56945415206769E-02 
526	 4.61798253460635E-02 
527	 4.66672403786181E-02 
528	 0.047083311437542 
529	 4.74516838144786E-02 
530	 0.047996332866836 
531	 4.84509769491573E-02 
532	 4.89154394078543E-02 
533	 4.95389015099132E-02 
534	 4.99106803976158E-02 
535	 5.03548716764253E-02 
536	 5.09384639617492E-02 
537	 5.13883965563983E-02 
538	 5.18996460864601E-02 
539	 5.23947771670063E-02 
540	 5.28252436610656E-02 
541	 5.34601161732959E-02 
542	 5.39817301052372E-02 
543	 5.44240579522204E-02 
544	 5.50142319109162E-02 
545	 5.54764910258583E-02 
546	 5.59659876656316E-02 
547	 5.65353625537575E-02 
548	 0.056924256772443 
549	 5.74409812169847E-02 
550	 5.80048921721612E-02 
551	 5.84528504663702E-02 
552	 5.89972736529012E-02 
553	 5.95083563221695E-02 
554	 5.99716095066199E-02 
555	 6.05174083469765E-02 
556	 6.10254800397753E-02 
557	 6.14952382970894E-02 
558	 6.19539532059449E-02 
559	 6.24348110409219E-02 
560	 6.29426364450469E-02 
561	 6.34155038300662E-02 
562	 6.37747453307566E-02 
563	 6.41952282341016E-02 
564	 6.46403830050299E-02 
565	 6.50491705879786E-02 
566	 6.53691720529596E-02 
567	 6.56681850729513E-02 
568	 6.60294281320703E-02 
569	 6.64804376361955E-02 
570	 6.67248205977755E-02 
571	 6.69635313384166E-02 
572	 6.72594441901745E-02 
573	 6.74952483082879E-02 
574	 6.77268386869356E-02 
575	 6.79264190058271E-02 
576	 0.068075585879961 
577	 6.82428128209493E-02 
578	 6.84313320736736E-02 
579	 0.068604373924626 
580	 6.87033723806376E-02 
581	 6.87149158772506E-02 
582	 6.87853432342415E-02 
583	 6.89289227884395E-02 
584	 6.88805967396734E-02 
585	 6.88528963144081E-02 
586	 6.87970262210523E-02 
587	 6.86165932066718E-02 
588	 6.84932926783654E-02 
589	 6.84340211668962E-02 
590	 6.83577116313358E-02 
591	 6.81177645650909E-02 
592	 6.80076845369752E-02 
593	 6.78738494978129E-02 
594	 6.75601402925639E-02 
595	 6.71884289458186E-02 
596	 6.67095436976957E-02 
597	 6.61910893610433E-02 
598	 6.57446173942608E-02 
599	 6.51836886161375E-02 
600	 6.46716981034465E-02 
601	 6.43277198778051E-02 
602	 6.41245518614067E-02 
603	 0.063931712289569 
604	 6.38122257726048E-02 
605	 6.38417052421901E-02 
606	 6.37941727461104E-02 
607	 6.37617156418427E-02 
608	 6.38076902474498E-02 
609	 6.39409604962881E-02 
610	 6.39480668930295E-02 
611	 6.39337336624937E-02 
612	 6.39952545753117E-02 
613	 6.39913120339388E-02 
614	 6.39998265407176E-02 
615	 6.40025179609373E-02 
616	 6.39543801863068E-02 
617	 6.40749815489882E-02 
618	 6.41499953436371E-02 
619	 6.40832704023253E-02 
620	 6.40342218153538E-02 
621	 6.40279762124082E-02 
622	 6.40576389346315E-02 
623	 0.064087037146625 
624	 0.06403798130405 
625	 6.39723827191197E-02 
626	 6.39357870575615E-02 
627	 6.39470381979864E-02 
628	 6.39269775214821E-02 
629	 6.39093215872208E-02 
630	 6.39333354074231E-02 
631	 6.40060849817268E-02 
632	 6.39910549285148E-02 
633	 6.39150935786799E-02 
634	 6.38816543438456E-02 
635	 0.063885487693904 
636	 6.38914691109262E-02 
637	 6.38687389977189E-02 
638	 6.37954168731777E-02 
639	 6.37973754343986E-02 
640	 0.06379302746141 
641	 6.37022385920037E-02 
642	 6.37347836634875E-02 
643	 6.36206791957395E-02 
644	 6.34146823599464E-02 
645	 6.34225538193007E-02 
646	 6.33733533197252E-02 
647	 6.33185263287827E-02 
648	 6.32936369225166E-02 
649	 6.31598706165138E-02 
650	 6.30650420239535E-02 
651	 0.06293729819334 
652	 6.26608682825952E-02 
653	 6.23967973401447E-02 
654	 0.062118794255937 
655	 6.17846012386269E-02 
656	 6.13971050764097E-02 
657	 6.10369083965296E-02 
658	 6.07210590438299E-02 
659	 6.04418540226192E-02 
660	 6.02098241747421E-02 
661	 5.99864751469626E-02 
662	 5.97999196411844E-02 
663	 5.97106786071626E-02 
664	 5.96117441057274E-02 
665	 5.95051377718124E-02 
666	 5.94218088697097E-02 
667	 5.94270016196009E-02 
668	 5.93570644576127E-02 
669	 5.92236860891453E-02 
670	 5.91087966808481E-02 
671	 5.91089658183392E-02 
672	 5.90893956838296E-02 
673	 0.059048981179816 
674	 5.91143813861247E-02 
675	 5.91904494200254E-02 
676	 5.92320969223812E-02 
677	 5.92274468094136E-02 
678	 5.92145060369507E-02 
679	 5.92187233171899E-02 
680	 5.92687211959298E-02 
681	 5.93683781678309E-02 
682	 5.93805573091766E-02 
683	 5.93181758932454E-02 
684	 0.059240048114235 
685	 5.92443863532949E-02 
686	 0.059179399815095 
687	 5.90917058681632E-02 
688	 5.90530177560721E-02 
689	 5.89606428862565E-02 
690	 5.88708790424321E-02 
691	 5.87094372644532E-02 
692	 5.83447994702705E-02 
693	 5.79938431272446E-02 
694	 5.76805766249032E-02 
695	 5.73883580132642E-02 
696	 5.70629276310635E-02 
697	 5.65935546563434E-02 
698	 5.60222221189096E-02 
699	 5.54529555745635E-02 
700	 5.48534354730414E-02 
701	 5.42037430638874E-02 
702	 5.35445413451494E-02 
703	 5.29348963718124E-02 
704	 5.22583634080932E-02 
705	 5.15152102394813E-02 
706	 5.07213970536978E-02 
707	 4.98355484184465E-02 
708	 4.88941158864927E-02 
709	 4.79269370975801E-02 
710	 4.69422668367547E-02 
711	 4.58695943984331E-02 
712	 4.46681968655907E-02 
713	 4.33820522856428E-02 
714	 4.21061096385373E-02 
715	 4.08396729127687E-02 
716	 3.94488142157159E-02 
717	 3.79336644741017E-02 
718	 3.65525756597172E-02 
719	 3.51628900209424E-02 
720	 3.39037402708654E-02 
721	 3.27297258446294E-02 
722	 3.15568639886919E-02 
723	 3.02490512271467E-02 
724	 2.89121463614029E-02 
725	 2.75980527162713E-02 
726	 2.61818824302603E-02 
727	 0.024730322922986 
728	 2.32766380143077E-02 
729	 2.15112548750204E-02 
730	 1.99297026367657E-02 
731	 1.86366947789459E-02 
732	 1.74612806861556E-02 
733	 1.63573641115702E-02 
734	 1.54520681461081E-02 
735	 1.47725227324109E-02 
736	 1.41796377495051E-02 
737	 1.37729036800026E-02 
738	 1.34633790391003E-02 
739	 1.31831898857202E-02 
740	 0.013052258304738 
741	 0.012899487929638 
742	 1.27929889090984E-02 
743	 0.012871100085298 
744	 1.27457837192359E-02 
745	 1.26992101738336E-02 
746	 1.27948908295522E-02 
747	 1.27156539883071E-02 
748	 1.26669012925108E-02 
749	 1.26395659444309E-02 
750	 0.0126080504042 
751	 1.26809436328419E-02 
752	 1.26450066238756E-02 
753	 1.25703377565079E-02 
754	 1.26492635665119E-02 
755	 1.26675693281568E-02 
756	 0.012694057734616 
757	 0.012737977652025 
758	 1.26644314353652E-02 
759	 1.25583741162922E-02 
760	 1.24412005779871E-02 
761	 1.24274145083297E-02 
762	 1.27339751117867E-02 
763	 1.27334658392854E-02 
764	 0.01269367182872 
765	 1.29808640969568E-02 
766	 1.30670878903372E-02 
767	 1.31515705302975E-02 
768	 1.32594930802526E-02 
769	 1.32373842049065E-02 
770	 1.33420633160721E-02 
771	 1.35198619975633E-02 
772	 0.013662001035432 
773	 0.0136767704549 
774	 1.38388686607233E-02 
775	 1.40595053918637E-02 
776	 1.41368930398751E-02 
777	 1.42510544109267E-02 
778	 1.43886143800624E-02 
779	 1.45342397555509E-02 
780	 1.46900508151828E-02 
781	 1.50113466830409E-02 
782	 1.52124261420022E-02 
783	 1.52083889828919E-02 
784	 1.55504226789224E-02 
785	 1.58158000583286E-02 
786	 1.60146308822022E-02 
787	 1.62683447058185E-02 
788	 1.64432565423533E-02 
789	 1.66765079714095E-02 
790	 1.69479083668794E-02 
791	 1.71251037179762E-02 
792	 1.73768612880792E-02 
793	 1.77391678618893E-02 
794	 1.81267646262282E-02 
795	 1.82866412143167E-02 
796	 1.85259730967837E-02 
797	 1.87440651041304E-02 
798	 1.88481449169785E-02 
799	 1.91567305403159E-02 
800	 1.94068031162533E-02 
801	 1.95811590926293E-02 
802	 1.97886930827578E-02 
803	 1.99110667681888E-02 
804	 1.99652707858547E-02 
805	 1.99868636195175E-02 
806	 2.00168269889965E-02 
807	 2.01129044713509E-02 
808	 2.02274310310784E-02 
809	 2.02557668513774E-02 
810	 2.00020516669559E-02 
811	 1.97029742198852E-02 
812	 1.95122085238352E-02 
813	 1.94880280345586E-02 
814	 1.93111024145283E-02 
815	 1.90025660880888E-02 
816	 1.86349975709168E-02 
817	 1.83043086551576E-02 
818	 1.81075705810232E-02 
819	 1.78297065147468E-02 
820	 1.73531618273241E-02 
821	 1.67212177559174E-02 
822	 1.60458481664819E-02 
823	 1.53484268446856E-02 
824	 1.46344126281811E-02 
825	 1.38858303114207E-02 
826	 1.30456808696668E-02 
827	 1.21306202417197E-02 
828	 1.12285371595157E-02 
829	 1.02674539455312E-02 
830	 9.53014444597998E-03 
831	 9.05491116798228E-03 
832	 8.69237225409463E-03 
833	 8.35556554335144E-03 
834	 8.00000012267894E-03 
835	 7.71831080920209E-03 
836	 7.75363212695173E-03 
837	 7.41350427457492E-03 
838	 7.13781262013159E-03 
839	 7.2452089466551E-03 
840	 7.08755897915536E-03 
841	 6.94177399221033E-03 
842	 6.86192092443509E-03 
843	 6.7936320050336E-03 
844	 6.5154627998235E-03 
845	 6.49497808320559E-03 
846	 6.67810389126941E-03 
847	 6.64888913751225E-03 
848	 6.41651883295752E-03 
849	 6.16029191634481E-03 
850	 6.00953432873977E-03 
851	 5.97875409449569E-03 
852	 5.8968538085625E-03 
853	 5.81939956607628E-03 
854	 5.8094332485459E-03 
855	 5.83797459550684E-03 
856	 5.7827746614987E-03 
857	 5.58495880146373E-03 
858	 5.3141335022414E-03 
859	 5.39436575458301E-03 
860	 5.52095609545272E-03 
861	 5.51741739912708E-03 
862	 5.34810780776957E-03 
863	 5.34183202668569E-03 
864	 5.20310073122662E-03 
865	 4.96402384428987E-03 
866	 4.96626033177744E-03 
867	 5.14106054030794E-03 
868	 5.00130767878183E-03 
869	 4.56328513904937E-03 
870	 4.5268059296146E-03 
871	 4.68967505447193E-03 
872	 4.81939208690792E-03 
873	 4.75157912474743E-03 
874	 4.5008085504929E-03 
875	 0.004383180643014 
876	 4.37054766733347E-03 
877	 4.3602671726679E-03 
878	 4.44783352897134E-03 
879	 4.58411821849108E-03 
880	 4.46600357503599E-03 
881	 3.89594659015037E-03 
882	 3.80169513944563E-03 
883	 3.94365398406098E-03 
884	 4.00893980289397E-03 
885	 3.76282216023915E-03 
886	 3.63034723516287E-03 
887	 3.64688063563531E-03 
888	 3.68107096427283E-03 
889	 3.50574682941427E-03 
890	 3.56733768555725E-03 
891	 3.57052981461137E-03 
892	 3.3564048977429E-03 
893	 3.2652703370969E-03 
894	 3.22513140274136E-03 
895	 3.15995504048696E-03 
896	 3.07588344112595E-03 
897	 3.27218947252429E-03 
898	 3.08935819505881E-03 
899	 2.84394421958827E-03 
900	 3.01969334124323E-03 
901	 3.43726837896557E-03 
902	 3.15864850327599E-03 
903	 2.73606889120051E-03 
904	 2.97181700315753E-03 
905	 2.83037097971828E-03 
906	 2.55513809001068E-03 
907	 2.42280298411496E-03 
908	 2.62620621465873E-03 
909	 0.002728090674095 
910	 2.49643734698445E-03 
911	 2.4538929185416E-03 
912	 3.43368558039703E-03 
913	 3.16253644792265E-03 
914	 2.77461870924855E-03 
915	 2.77318482141771E-03 
916	 2.4625721859121E-03 
917	 1.88867050015044E-03 
918	 1.84671234683365E-03 
919	 2.29436640009039E-03 
920	 2.03757897022553E-03 
921	 1.9672461186397E-03 
922	 2.05644814078211E-03 
923	 2.08672422705849E-03 
924	 1.80576768277502E-03 
925	 1.9236458304694E-03 
926	 2.39074340787017E-03 
927	 2.52115510499944E-03 
928	 1.83712200595859E-04 
929	 1.66308427711833E-04 
930	 1.35543838786762E-03 
931	 1.55494877948874E-04 
932	 2.0914669627931E-03 
933	 1.51497484846138E-03 
934	-1.16231122130767E-04 
935	 7.91335956393959E-04 
936	-1.88728093241035E-03 
937	 1.6705545354236E-04 
938	 2.70344882781668E-03 
939	 3.90341655237483E-04 
940	-1.15796549147646E-03 
941	-4.46608659768118E-04 
942	 9.99600286500931E-04 
943	 7.41252199837467E-04 
944	 1.24907959961296E-03 
945	 1.24241156398755E-03 
946	 7.25064327608286E-04 
947	 6.73072091154186E-04 
948	 2.03146631538591E-03 
949	 2.11837757448069E-03 
950	 3.48038873306734E-04 
951	-1.66421801865148E-03 
952	 1.22143035486993E-03 
953	 1.17843928995716E-03 
954	-8.80592751107046E-04 
955	 1.22922292494927E-03 
956	 1.6312122852361E-03 
957	-1.13944775588004E-03 
958	-2.69377151554433E-03 
959	 2.46522802142816E-03 
960	 2.05988120001791E-03 
961	-7.86702265506371E-05 
962	-6.22497041190436E-04 
963	 1.16055054397214E-03 
964	 6.94465856380577E-04 
965	 9.10201199279579E-04 
966	 2.02711733913529E-03 
967	 2.08049667265718E-03 
968	 2.21804839072296E-03 
969	 2.35330722782314E-03 
970	 2.17318294530356E-03 
971	 1.37771378531053E-03 
972	 4.4082428961636E-04 
973	 8.52128617712644E-04 
974	 2.1688643155373E-03 
975	 2.10415644201194E-03 
976	 6.00539559634224E-05 
977	 4.06075160147035E-05 
978	 1.79043980878281E-03 
979	 1.47300302513565E-03 
980	 1.52151603436236E-03 
981	 2.11601005773883E-03 
982	 2.13346942180744E-03 
983	 3.01635580479048E-04 
984	 5.92703646039872E-04 
985	 2.05095367814742E-03 
986	 2.87944034598284E-03 
987	 1.71650655290255E-03 
988	 1.55065082279585E-03 
989	 1.57220017468124E-03 
990	 1.65675533834699E-03 
991	 2.17702797864496E-03 
992	 1.40925465259107E-03 
993	 9.62195181755764E-04 
994	 1.2337859427076E-03 
995	 1.49773316542457E-03 
996	 1.31894100902162E-03 
997	 1.10072609895939E-03 
998	 1.2440153746806E-03 
999	 1.82181411156563E-03 
1000	 1.66279746943516E-03 
1001	 2.93167910776747E-03 
1002	 2.8113946872079E-03 
1003	 2.7688726112543E-03 
1004	 2.72846752868854E-03 
1005	 2.6056045388743E-03 
1006	 2.26413289546343E-03 
1007	 2.36518421465025E-03 
1008	 2.53098243335096E-03 
1009	 2.32826936318899E-03 
1010	 2.56763557443755E-03 
1011	 2.70359790775748E-03 
1012	 2.64552693996078E-03 
1013	 2.51892015117885E-03 
1014	 2.47598469061002E-03 
1015	 2.37260373257083E-03 
1016	 2.37719970569894E-03 
1017	 2.56191928235657E-03 
1018	 2.58021199811784E-03 
1019	 2.39698809092428E-03 
1020	 2.43185790102427E-03 
1021	 2.42575281430289E-03 
1022	 2.70132109976665E-03 
1023	 2.97791777395732E-03 
1024	 3.01591536309379E-03 
1025	 2.96070336486914E-03 
1026	 2.8030962013609E-03 
1027	 2.63610683777892E-03 
1028	 2.39201206312762E-03 
1029	 2.36973350395561E-03 
1030	 2.28426675877696E-03 
1031	 2.35695777688576E-03 
1032	 2.69835532237754E-03 
1033	 2.87324311560335E-03 
1034	 3.25784253626607E-03 
1035	 3.27081678040823E-03 
1036	 2.91045727838982E-03 
1037	 2.80473254813265E-03 
1038	 2.70589492656103E-03 
1039	 2.32109239202206E-03 
1040	 2.42224156833284E-03 
1041	 2.69192546221131E-03 
1042	 2.71775792713492E-03 
1043	 2.65588731307589E-03 
1044	 2.69243676385337E-03 
1045	 2.58225004937436E-03 
1046	 2.75764429174402E-03 
1047	 3.42236258910979E-03 
1048	 3.41475972666601E-03 
1049	 0.003064575022222 
1050	 2.96829750903782E-03 
1051	 2.52272107330342E-03 
1052	 2.33628375980123E-03 
1053	 2.51192337132014E-03 
1054	 2.64084924740702E-03 
1055	 2.89117295313316E-03 
1056	 2.90108185710584E-03 
1057	 2.83772143217273E-03 
1058	 2.85965112063473E-03 
1059	 2.61964380868598E-03 
1060	 1.75775690017179E-03 
1061	 1.82188530412027E-03 
1062	 2.36998633290016E-03 
1063	 2.56228066918744E-03 
1064	 3.30879740741419E-03 
1065	 3.39947664813376E-03 
1066	 2.60079425236539E-03 
1067	 2.49961688211572E-03 
1068	 2.59955655730558E-03 
1069	 2.65097906216603E-03 
1070	 3.14114705787455E-03 
1071	 3.32221856812919E-03 
1072	 3.36233331363711E-03 
1073	 3.12880016647232E-03 
1074	 3.09262323540399E-03 
1075	 3.01191666172231E-03 
1076	 2.94121979997831E-03 
1077	 2.93813527744068E-03 
1078	 0.002875073427547 
1079	 2.74067230722176E-03 
1080	 2.6442144245429E-03 
1081	 2.47231689571539E-03 
1082	 2.48818521936494E-03 
1083	 2.7012610046278E-03 
1084	 2.71856037394435E-03 
1085	 2.62164289575324E-03 
1086	 2.73294904999216E-03 
1087	 3.11025873415388E-03 
1088	 3.09242940200004E-03 
1089	 2.9845656109606E-03 
1090	 0.002878244055171 
1091	 2.76775735472591E-03 
1092	 2.08416076490115E-03 
1093	 2.06446107508072E-03 
1094	 2.76406184513516E-03 
1095	 2.83754981465272E-03 
1096	 2.6638228027632E-03 
1097	 2.75881774577782E-03 
1098	 2.75993036587479E-03 
1099	 2.72005850268964E-03 
1100	 2.97475955321745E-03 
1101	 3.0236829415444E-03 
1102	 2.81375725443977E-03 
1103	 2.65709233491476E-03 
1104	 2.54325085013835E-03 
1105	 2.14250711405314E-03 
1106	 2.36041548012846E-03 
1107	 2.39331033611647E-03 
1108	 2.15228596776526E-03 
1109	 2.59900635977085E-03 
1110	 2.6476870614973E-03 
1111	 2.11539459974075E-03 
1112	 1.94272073670335E-03 
1113	 1.9123360484258E-03 
1114	 2.2494570701474E-03 
1115	 3.42820758082935E-03 
1116	 3.67979401384928E-03 
1117	 3.75711758217567E-03 
1118	 3.84589791811622E-03 
1119	 1.73968234397629E-03 
1120	 1.24088890200849E-03 
1121	 3.49240007554866E-03 
1122	 4.48740860185479E-03 
1123	 2.20139932137664E-03 
1124	 1.62982334569854E-03 
1125	 4.5886847255198E-04 
1126	 6.60793304334193E-04 
1127	 5.30378386586375E-03 
1128	 6.53262308382417E-03 
1129	 6.19235475639046E-03 
1130	 4.02496484649894E-03 
1131	 2.86561611591345E-03 
1132	 3.19992656327684E-04 
1133	 6.23331072864234E-04 
1134	 2.01749492970254E-03 
1135	 2.30158089857837E-03 
1136	 3.57948533267148E-03 
1137	 3.83464362260088E-03 
1138	 2.91035655097806E-03 
1139	 3.07850690528113E-03 
1140	 3.76465710656119E-03 
1141	 3.2769118834948E-03 
1142	 2.78477796131935E-03 
1143	 3.07745877656662E-03 
1144	 2.89306568215608E-03 
1145	 2.41072076026033E-03 
1146	 2.39003819242283E-03 
1147	 2.53903633172443E-03 
1148	 0.002726928402967 
1149	 2.79736076461189E-03 
1150	 0.003024535374486 
1151	 3.85880396095507E-03 
1152	 3.46815110507739E-03 
1153	 2.2891653721751E-03 
1154	 2.03124534372539E-03 
1155	 1.6734322295462E-03 
1156	 1.44537952847025E-03 
1157	 1.74841278067681E-03 
1158	 2.38851895687731E-03 
1159	 3.01806703766027E-03 
1160	 2.72367713978127E-03 
1161	 2.0003206293832E-03 
1162	 1.62983664861816E-03 
1163	 1.64912458118405E-03 
1164	 1.9569456424776E-03 
1165	 2.11657851802727E-03 
1166	 2.19943684491301E-03 
1167	 1.99481558990723E-03 
1168	 1.62953911018282E-03 
1169	 1.87309871279318E-03 
1170	 2.3080387302312E-03 
1171	 2.38396139683473E-03 
1172	 2.10995409798498E-03 
1173	 2.18783115473549E-03 
1174	 2.29085868812885E-03 
1175	 2.37634192250035E-03 
1176	 2.53294440422868E-03 
1177	 2.62037184621665E-03 
1178	 2.40731472882892E-03 
1179	 2.17639024054208E-03 
1180	 2.1308867366164E-03 
1181	 2.11222263735283E-03 
1182	 2.16075766531065E-03 
1183	 2.15147864599749E-03 
1184	 1.93888112172056E-03 
1185	 1.85919014094064E-03 
1186	 1.84323591316346E-03 
1187	 1.87139440062517E-03 
1188	 2.21293934076131E-03 
1189	 2.2980841355057E-03 
1190	 1.93016637671815E-03 
1191	 1.81382775940309E-03 
1192	 1.88653438094139E-03 
1193	 0.001942126281531 
1194	 2.1339838608133E-03 
1195	 2.56984710424885E-03 
1196	 2.52703419449865E-03 
1197	 2.08562817797287E-03 
1198	 2.0250546139113E-03 
1199	 2.1288837071515E-03 
1200	 2.17640617078955E-03 
1201	 2.2483520371166E-03 
1202	 2.10645271220703E-03 
1203	 2.10725760803409E-03 
1204	 2.27277033374291E-03 
1205	 2.29601737373669E-03 
1206	 2.50254362577891E-03 
1207	 2.45313168679006E-03 
1208	 2.08284156945702E-03 
1209	 2.11275765731016E-03 
1210	 2.1595034405701E-03 
1211	 1.99145037084646E-03 
1212	 0.002052333292631 
1213	 2.2065721980679E-03 
1214	 2.22959271846419E-03 
1215	 2.07675696086286E-03 
1216	 2.1584294465383E-03 
1217	 2.4318823240723E-03 
1218	 2.28982582208831E-03 
1219	 2.24978931863139E-03 
1220	 2.49311844576152E-03 
1221	 2.4706971808057E-03 
1222	 2.48902717544124E-03 
1223	 2.40398120346353E-03 
1224	 2.04939849587943E-03 
1225	 1.98176267944651E-03 
1226	 2.0808295811397E-03 
1227	 2.09973502062983E-03 
1228	 2.11101769926289E-03 
1229	 2.08809008212711E-03 
1230	 1.95558420154059E-03 
1231	 1.91723095172471E-03 
1232	 2.1848540995666E-03 
1233	 2.34516989718529E-03 
1234	 2.12177015323529E-03 
1235	 2.05835081275005E-03 
1236	 2.11880303960916E-03 
1237	 2.19001330109198E-03 
1238	 2.20926166122399E-03 
1239	 2.31265749126418E-03 
1240	 2.45472140863925E-03 
1241	 2.30983155849223E-03 
1242	 2.07115705573998E-03 
1243	 2.07723371044234E-03 
1244	 2.34971992138856E-03 
1245	 2.42945825326762E-03 
1246	 2.30956932172273E-03 
1247	 2.44501448708955E-03 
1248	 2.53974042409203E-03 
1249	 2.27325935689172E-03 
1250	 2.24411719392413E-03 
1251	 2.4857551516628E-03 
1252	 2.44926086105454E-03 
1253	 2.40707580008478E-03 
1254	 2.48821262247349E-03 
1255	 2.43772288337608E-03 
1256	 2.38296855028918E-03 
1257	 2.24947308576279E-03 
1258	 2.28394900400087E-03 
1259	 2.43687642217515E-03 
1260	 2.42941395970083E-03 
1261	 2.40812808869566E-03 
1262	 2.37465545925204E-03 
1263	 2.22434866941576E-03 
1264	 2.20063051036337E-03 
1265	 2.36111813130909E-03 
1266	 2.31725232278419E-03 
1267	 2.26289795021129E-03 
1268	 2.15584253117473E-03 
1269	 1.86296006415624E-03 
1270	 1.99441224341812E-03 
1271	 2.18052458781274E-03 
1272	 2.13389586781688E-03 
1273	 2.3736819216061E-03 
1274	 2.49491108439133E-03 
1275	 2.29538668615483E-03 
1276	 2.24500732579569E-03 
1277	 2.37018169007098E-03 
1278	 2.44829966191364E-03 
1279	 2.52202204539408E-03 
1280	 2.54025512587135E-03 
1281	 2.56553217409281E-03 
1282	 2.29005473361309E-03 
1283	 2.21686727457006E-03 
1284	 2.38777201223531E-03 
1285	 2.40497671757791E-03 
1286	 2.29804099451773E-03 
1287	 2.22489900725145E-03 
1288	 2.06530074706497E-03 
1289	 2.03712727261926E-03 
1290	 2.05749935098071E-03 
1291	 2.20238842974089E-03 
1292	 2.21929942201477E-03 
1293	 2.31749755725662E-03 
1294	 2.2810094755021E-03 
1295	 2.00739237677193E-03 
1296	 2.17871419760079E-03 
1297	 2.51628882535518E-03 
1298	 2.34466620680783E-03 
1299	 2.01152500025516E-03 
1300	 2.01762238425659E-03 
1301	 2.16637473033389E-03 
1302	 2.0978432600562E-03 
1303	 2.23792520435363E-03 
1304	 2.19236489203269E-03 
1305	 1.7414742261074E-03 
1306	 0.001647868731497 
1307	 2.26555373796179E-03 
1308	 2.43388222682462E-03 
1309	 2.37941651449865E-03 
1310	 2.36744833162252E-03 
1311	 2.25315240494799E-03 
1312	 2.26510980422831E-03 
1313	 2.2865767291485E-03 
1314	 2.26073014820377E-03 
1315	 2.46142308673549E-03 
1316	 2.46463270409831E-03 
1317	 0.00215538892652 
1318	 1.99944210166631E-03 
1319	 1.71977673214458E-03 
1320	 1.70767154660318E-03 
1321	 2.16518791919113E-03 
1322	 2.0999429200564E-03 
1323	 1.98227856910667E-03 
1324	 2.51636657292261E-03 
1325	 2.58260449407913E-03 
1326	 2.17927523920077E-03 
1327	 2.00231159526092E-03 
1328	 2.00919814867431E-03 
1329	 2.33382377273306E-03 
1330	 2.79076832169114E-03 
1331	 2.93513548004738E-03 
1332	 2.81273725816042E-03 
1333	 2.20898718857139E-03 
1334	 1.46054356361935E-03 
1335	 1.56526095787838E-03 
1336	 2.40798251789699E-03 
1337	 2.37730111857361E-03 
1338	 2.48497091084566E-03 
1339	 2.81641320608856E-03 
1340	 2.61198276467333E-03 
1341	 2.23643795914653E-03 
1342	 2.24915343454689E-03 
1343	 2.46371070844284E-03 
1344	 2.07236722192179E-03 
1345	 1.64297922361176E-03 
1346	 2.02324072548675E-03 
1347	 3.07813567668363E-03 
1348	 3.85549376700887E-03 
1349	 3.79560154738861E-03 
1350	 6.49362532917424E-03 
1351	 9.07336620092077E-03 
1352	 3.07506389485644E-03 
1353	 2.51434425186363E-03 
1354	 1.73210593577331E-02 
1355	 3.40977195533048E-02 
1356	 3.02593107330858E-02 
1357	 2.46144855683046E-02 
1358	 2.69737902192903E-02 
1359	 1.18863288664069E-02 
1360	-6.85404866907871E-02 
1361	-0.101635711260036 
1362	-5.33612778423422E-02 
1363	-6.83071328776851E-02 
1364	-3.71019206337302E-03 
1365	 0.185972873719204 
1366	 0.164185024695685 
1367	-3.52628325248986E-02 
1368	-0.145732386551307 
1369	-0.286303456706958 
1370	-0.32740131899084 
1371	-0.318722889316945 
1372	-0.243035673377286 
1373	-3.97535324839821E-04 
1374	 8.82712653803485E-02 
1375	 0.240553800638809 
1376	 0.264366198972464 
1377	-0.06458035228064 
1378	 3.21783010180356E-02 
1379	 0.604274816662864 
1380	 0.562694010253797 
1381	 0.123551802732089 
1382	 0.185968852442477 
1383	 0.330909996016194 
1384	 0.141285738333347 
1385	 8.78714920788747E-02 
1386	 0.307844829477616 
1387	 0.262272258846848 
1388	-3.29462471934033E-02 
1389	 0.161406735286199 
1390	 0.416912527116898 
1391	 0.112764797296487 
1392	-0.250654984331336 
1393	-0.42682419907337 
1394	-3.74941406575135E-03 
1395	 0.433288257764148 
1396	 0.257114266397441 
1397	 7.13421261966418E-02 
1398	 0.117162995590659 
1399	 2.39181359403978E-02 
1400	-0.10843925635314 
1401	 0.109240614628407 
1402	 0.315778399793142 
1403	 0.102758329897861 
1404	-0.102653941570895 
1405	-0.140677412495577 
1406	-7.48630704094195E-02 
1407	-9.79593454354147E-02 
1408	-0.132203580641648 
1409	-7.68207803221511E-02 
1410	-7.98220154098713E-03 
1411	 2.01956642556332E-02 
1412	 8.71828031075627E-02 
1413	 7.40539131189088E-02 
1414	-6.0998784304154E-03 
1415	-1.48284411006705E-03 
1416	 3.73209735229339E-02 
1417	 2.97467962840293E-02 
1418	 2.23648963864202E-02 
1419	 2.17130280696441E-02 
1420	 8.79221853166409E-03 
1421	 2.09803170950346E-03 
1422	 4.91193210259468E-03 
1423	 6.92248319852562E-03 
1424	 2.27594589882497E-03 
1425	 1.60985007562495E-03 
1426	 7.33946151395115E-03 
1427	 0.009835318042182 
1428	 1.24552978637087E-02 
1429	 1.13589887916953E-02 
1430	 6.89594590672181E-03 
1431	 5.18724653770736E-03 
1432	 9.33564062313495E-04 
1433	-7.69398625670328E-04 
1434	 2.78950098595972E-03 
1435	 3.75845088169949E-03 
1436	 3.99862396287323E-03 
1437	 2.79818477469339E-03 
1438	 6.17593627469021E-03 
1439	 6.12493328307178E-03 
1440	 7.1828979998499E-04 
1441	-1.65527369915036E-03 
1442	 1.78142025315938E-03 
1443	 3.38512823091603E-03 
1444	 2.56305181232706E-03 
1445	 4.44899653430562E-03 
1446	 7.59440745762218E-04 
1447	-3.74477192097955E-03 
1448	 9.52488556852181E-04 
1449	 3.44401538501129E-03 
1450	 1.39607962142365E-03 
1451	 2.23849267491756E-03 
1452	 2.99245899796768E-03 
1453	 2.84303290073068E-03 
1454	 2.22557510065385E-03 
1455	 2.4215518652956E-03 
1456	 2.85000003410007E-03 
1457	 2.32544327733899E-03 
1458	 2.12062474510523E-03 
1459	 3.06406381908618E-03 
1460	 3.89013601044544E-03 
1461	 4.10475707956682E-03 
1462	 0.003754001920281 
1463	 4.41658968075393E-03 
1464	 4.33269837900297E-03 
1465	 1.74955746396094E-03 
1466	 8.97227833591186E-04 
1467	 1.33912766287339E-03 
1468	 1.97362956914775E-03 
1469	 3.60616101569002E-03 
1470	 3.86200376321253E-03 
1471	 3.89610288027479E-03 
1472	 3.94855177893321E-03 
1473	 3.10773880296523E-03 
1474	 2.30802186943735E-03 
1475	 1.55646983971072E-03 
1476	 1.85328407827153E-03 
1477	 2.0977414919543E-03 
1478	 2.1672814760041E-03 
1479	 3.63116371279706E-03 
1480	 3.67024325994248E-03 
1481	 2.28306546733529E-03 
1482	 1.86366207889854E-03 
1483	 1.54278541087533E-03 
1484	 1.49056719878376E-03 
1485	 1.93893871262719E-03 
1486	 1.88234799986067E-03 
1487	 1.47951643193117E-03 
1488	 1.58233601809506E-03 
1489	 1.89907930863984E-03 
1490	 1.82999454676668E-03 
1491	 1.77512054911058E-03 
1492	 1.87286377548651E-03 
1493	 1.78326286130959E-03 
1494	 1.75974721508476E-03 
1495	 2.04787723307975E-03 
1496	 2.07957298492897E-03 
1497	 1.86629991925996E-03 
1498	 1.77658313491607E-03 
1499	 1.66815391184462E-03 
1500	 1.60249109928854E-03 
1501	 1.49982823030682E-03 
1502	 1.54458007113083E-03 
1503	 0.001856610013643 
1504	 1.8969375256901E-03 
1505	 1.89045021812689E-03 
1506	 1.77805669913329E-03 
1507	 1.77385196269444E-03 
1508	 1.80545313451533E-03 
1509	 1.72150618806239E-03 
1510	 1.68925938611682E-03 
1511	 0.00167442192192 
1512	 1.62863342019274E-03 
1513	 1.68854855551084E-03 
1514	 1.70315323502138E-03 
1515	 1.67107502456915E-03 
1516	 1.6891622519696E-03 
1517	 1.53389239650266E-03 
1518	 1.42467800325418E-03 
1519	 1.42624943305499E-03 
1520	 1.38074507574539E-03 
1521	 1.43953849213755E-03 
1522	 1.52091351129767E-03 
1523	 1.56410305421348E-03 
1524	 1.47646341610244E-03 
1525	 1.37946116798862E-03 
1526	 1.43309101976069E-03 
1527	 1.49571022874923E-03 
1528	 1.52732794176374E-03 
1529	 1.5096948050896E-03 
1530	 1.55613482248392E-03 
1531	 1.63821615593732E-03 
1532	 1.52287320547111E-03 
1533	 1.34295840479121E-03 
1534	 1.42873201366779E-03 
1535	 1.82153857053769E-03 
1536	 2.0475181354158E-03 
1537	 1.92391658071329E-03 
1538	 1.9224939049001E-03 
1539	 2.00554327647694E-03 
1540	 1.83195131817186E-03 
1541	 1.71079106779317E-03 
1542	 2.02555705608741E-03 
1543	 2.01995954566205E-03 
1544	 1.49265545623964E-03 
1545	 1.60406191069818E-03 
1546	 1.99626998559044E-03 
1547	 2.00744117072664E-03 
1548	 2.01964690417934E-03 
1549	 1.99538071649451E-03 
1550	 1.93980968011201E-03 
1551	 1.78442109241178E-03 
1552	 1.61166817998137E-03 
1553	 1.67740082326304E-03 
1554	 1.73123476111414E-03 
1555	 1.73188771050671E-03 
1556	 1.88912376604752E-03 
1557	 1.97404901179761E-03 
1558	 1.81689070966766E-03 
1559	 1.7998710519705E-03 
1560	 1.93410915580921E-03 
1561	 1.84555748275141E-03 
1562	 1.57307669689612E-03 
1563	 1.4377914740778E-03 
1564	 1.45213825502089E-03 
1565	 1.59638928648354E-03 
1566	 1.85083124210439E-03 
1567	 1.82987910841183E-03 
1568	 1.77505706018141E-03 
1569	 1.91030925872692E-03 
1570	 1.79551232427421E-03 
1571	 1.69967972392257E-03 
1572	 1.91947840633679E-03 
1573	 1.92050541845192E-03 
1574	 1.76633854350666E-03 
1575	 1.88207150354184E-03 
1576	 1.83106302344898E-03 
1577	 1.64577849712372E-03 
1578	 1.72310089957751E-03 
1579	 1.80506732580989E-03 
1580	 1.81581157109774E-03 
1581	 1.77335017386313E-03 
1582	 1.74611028354587E-03 
1583	 1.84555222953287E-03 
1584	 1.93655172867226E-03 
1585	 2.00157214279523E-03 
1586	 2.03238816673836E-03 
1587	 1.92812499812726E-03 
1588	 1.76877307567696E-03 
1589	 1.79916447233464E-03 
1590	 1.87711424571999E-03 
1591	 1.66340178171209E-03 
1592	 1.55481736952163E-03 
1593	 1.78050427418257E-03 
1594	 1.88368213304913E-03 
1595	 1.89293940514409E-03 
1596	 1.93462812758344E-03 
1597	 1.96524721741359E-03 
1598	 2.02476830037808E-03 
1599	 2.04467790962932E-03 
1600	 2.07799904115931E-03 
1601	 2.1091829655638E-03 
1602	 1.9785684293806E-03 
1603	 1.84872983422277E-03 
1604	 2.00792389805086E-03 
1605	 2.01692206714667E-03 
1606	 1.63854898676105E-03 
1607	 1.49740130888559E-03 
1608	 1.6816362860017E-03 
1609	 1.82658624036252E-03 
1610	 1.91854935992134E-03 
1611	 1.9200145072886E-03 
1612	 1.82379385319518E-03 
1613	 1.8008380060335E-03 
1614	 1.67389360205826E-03 
1615	 1.60336362482391E-03 
1616	 1.80113633321834E-03 
1617	 1.65227945850112E-03 
1618	 1.5107051359982E-03 
1619	 2.03413465510256E-03 
1620	 2.16996037410219E-03 
1621	 1.72959165248704E-03 
1622	 1.85257927657198E-03 
1623	 2.04846418715982E-03 
1624	 1.72208086092321E-03 
1625	 1.76311095258266E-03 
1626	 2.15753850293686E-03 
1627	 1.96464616486546E-03 
1628	 1.73735788719598E-03 
1629	 1.93078331232816E-03 
1630	 1.70295568621576E-03 
1631	 1.47170596368789E-03 
1632	 1.6597524187668E-03 
1633	 1.68072727736942E-03 
1634	 1.7509777104988E-03 
1635	 1.99698728144005E-03 
1636	 1.91625640920067E-03 
1637	 0.001687523664762 
1638	 1.73379327743121E-03 
1639	 1.77082003108696E-03 
1640	 1.78967241076731E-03 
1641	 1.99577965539157E-03 
1642	 1.93512021901044E-03 
1643	 0.001613140030555 
1644	 1.72678818378638E-03 
1645	 1.99750969805837E-03 
1646	 1.91237777553561E-03 
1647	 1.7679039631487E-03 
1648	 1.76925834793448E-03 
1649	 1.86367106177992E-03 
1650	 1.99055493345213E-03 
1651	 2.09296473741947E-03 
1652	 1.86481990746938E-03 
1653	 1.84146035651606E-03 
1654	 1.80433219001861E-03 
1655	 1.72848751449146E-03 
1656	 1.85575257627242E-03 
1657	 2.09196051758913E-03 
1658	 2.09827406902002E-03 
1659	 2.10843409070527E-03 
1660	 2.16560415206437E-03 
1661	 2.12568754264662E-03 
1662	 2.00770770095534E-03 
1663	 1.96244717584489E-03 
1664	 2.04002084372307E-03 
1665	 1.84440317507179E-03 
1666	 1.84788959616104E-03 
1667	 2.38585495364881E-03 
1668	 2.03129047782077E-03 
1669	 1.81651385887042E-03 
1670	 1.84626764465913E-03 
1671	 1.79725214191601E-03 
1672	 2.15578744122825E-03 
1673	 2.3383913308151E-03 
1674	 1.9282000914151E-03 
1675	 1.86769447934679E-03 
1676	 2.08820786572982E-03 
1677	 1.97143033944477E-03 
1678	 1.88114540931986E-03 
1679	 2.07595836431136E-03 
1680	 2.10393674089514E-03 
1681	 1.97555915915562E-03 
1682	 2.0560520704281E-03 
1683	 1.93516018281187E-03 
1684	 1.75576420275271E-03 
1685	 2.11056825307093E-03 
1686	 2.39565875442121E-03 
1687	 2.23959122384435E-03 
1688	 2.23342376229614E-03 
1689	 2.44987131927377E-03 
1690	 2.40003863878367E-03 
1691	 2.08186968767215E-03 
1692	 1.91265970216639E-03 
1693	 1.85244466461229E-03 
1694	 1.75868759145338E-03 
1695	 2.11534252652385E-03 
1696	 2.37718505759087E-03 
1697	 1.94527860422075E-03 
1698	 1.70039965389301E-03 
1699	 1.7644210675437E-03 
1700	 1.91641876098113E-03 
1701	 1.99422960358071E-03 
1702	 1.80947920131208E-03 
1703	 1.96105528895118E-03 
1704	 2.22547349102856E-03 
1705	 2.11893413082439E-03 
1706	 2.22354328828937E-03 
1707	 2.09875914741956E-03 
1708	 1.49182087888425E-03 
1709	 1.74248229183545E-03 
1710	 2.41074476977432E-03 
1711	 2.51199390380315E-03 
1712	 2.41155856392458E-03 
1713	 1.66960366902267E-03 
1714	 1.37433631796666E-03 
1715	 1.66811231105546E-03 
1716	 1.87327420524893E-03 
1717	 1.6024601100199E-03 
1718	 1.53459818136864E-03 
1719	 1.55228879402023E-03 
1720	 1.72474219207942E-03 
1721	 2.11774286831089E-03 
1722	 2.33857942752567E-03 
1723	 2.23789378914957E-03 
1724	 1.75574051080716E-03 
1725	 1.72940684705607E-03 
1726	 2.17648120240994E-03 
1727	 2.12354932415869E-03 
1728	 1.85396278428533E-03 
1729	 1.66864413679422E-03 
1730	 1.54521279673525E-03 
1731	 1.87944975331456E-03 
1732	 2.54213839788916E-03 
1733	 2.60368498157249E-03 
1734	 1.8552816547355E-03 
1735	 1.47104588645859E-03 
1736	 0.002123951880961 
1737	 2.65870236686097E-03 
1738	 2.38686419299192E-03 
1739	 2.18535429911576E-03 
1740	 1.88144959104346E-03 
1741	 1.51046013856376E-03 
1742	 1.99098772678202E-03 
1743	 2.63882740724109E-03 
1744	 2.36376169367623E-03 
1745	 1.86435485123037E-03 
1746	 2.1183243689237E-03 
1747	 2.00879538606117E-03 
1748	 1.74181072535786E-03 
1749	 1.74805922057321E-03 
1750	 1.4322616963539E-03 
1751	 1.59045377516712E-03 
1752	 2.74150648911376E-03 
1753	 2.92119767058921E-03 
1754	 2.82188410382573E-03 
1755	 2.59544224066167E-03 
1756	 1.02366511475625E-03 
1757	 7.61395983016111E-04 
1758	 1.7986531781913E-03 
1759	 2.07633405662554E-03 
1760	 2.5957792126627E-03 
1761	 2.34429387723761E-03 
1762	 1.1978940839965E-03 
1763	 1.41653208038237E-03 
1764	 2.2102852410042E-03 
1765	 2.5194539716065E-03 
1766	 2.6831926294713E-03 
1767	 2.25626270685581E-03 
1768	 1.50320162586975E-03 
1769	 1.89931852655228E-03 
1770	 2.82060026117023E-03 
1771	 2.90945442946101E-03 
1772	 2.95251093913019E-03 
1773	 2.21011600590891E-03 
1774	 1.16525194587581E-03 
1775	 2.16205767458464E-03 
1776	 1.99142274578999E-03 
1777	 1.33827011696977E-03 
1778	 1.92394878959928E-03 
1779	 2.50536255675988E-03 
1780	 2.63938700465012E-03 
1781	 4.42473232264227E-03 
1782	 4.29891926919109E-03 
1783	 9.33762871221904E-04 
1784	 1.12395326129566E-03 
1785	 3.7021975071919E-03 
1786	 3.39439578209787E-03 
1787	 3.45294584487594E-03 
1788	 3.74962640324555E-03 
1789	 1.0282916841476E-03 
1790	 2.93752206231293E-03 
1791	 3.70634985566222E-03 
1792	 4.99764079702087E-04 
1793	 2.08017055965421E-03 
1794	 3.70711478224285E-03 
1795	 1.14771169503751E-03 
1796	-5.6037359252025E-04 
1797	-3.9493711008109E-03 
1798	-4.91543622234574E-03 
1799	 1.10656762361551E-04 
1800	 3.67051236527918E-03 
1801	 5.22369112677989E-03 
1802	-6.49515886424216E-03 
1803	-8.14824191068553E-03 
1804	 8.50151589708717E-03 
1805	 0.014896006451249 
1806	 2.47252576705002E-02 
1807	 2.81044213919302E-02 
1808	-3.27815775595664E-03 
1809	-2.04228867436628E-02 
1810	-2.69017675764545E-02 
1811	-0.038857094046024 
1812	-3.85707480554775E-02 
1813	-4.36422573151739E-02 
1814	-4.31095109351507E-02 
1815	-5.45829222637391E-02 
1816	-8.91208190259141E-02 
1817	-4.64417292105198E-02 
1818	-0.036715452130213 
1819	-7.86930963882839E-02 
1820	-0.131053148790169 
1821	-0.339374899032441 
1822	-0.472717790600469 
1823	-6.35189510558163E-03 
1824	 0.200693965460863 
1825	 0.364040231761766 
1826	 0.348997633781746 
1827	 0.195660526381936 
1828	 0.140114266205491 
1829	-8.28065273131772E-02 
1830	-0.190344482510423 
1831	-2.60298500783255 
1832	-2.32203046371219 
1833	-1.43921117020039 
1834	-1.38844959961818 
1835	-2.24459583864499 
1836	-2.54755989379565 
1837	-3.04625705345582 
1838	-2.56634955165255 
1839	-1.00030181453455 
1840	-0.610160949470261 
1841	-0.769358509926019 
1842	-1.57075481131044 
1843	-2.33285729965018 
1844	 14.1715751380471 
1845	 7.42194991876732 
1846	-4.6142056357281 
1847	-2.34793982933018 
1848	-0.875273029655896 
1849	-2.07256081035246 
1850	-9.55979945455873 
1851	-0.663515498158792 
1852	 0.825714591072574 
1853	 0.894497946610665 
1854	 0.766191154950546 
1855	 0.108863720291041 
1856	-0.06953450701024 
1857	-1.61180807326501 
1858	 5.24052062653419 
1859	 1.46505816275335 
1860	 1.19670230072931 
1861	 1.178432020134 
1862	 1.42069769859919 
1863	 0.816497083154305 
1864	 0.203130303604512 
1865	-4.27963414395819E-03 
1866	-0.951416655671173 
1867	-0.603517388735722 
1868	-8.20061449310969E-02 
1869	 0.100006359313122 
1870	 0.524121167157322 
1871	 0.817612225033679 
1872	 1.36649101593386 
1873	 0.234810062267084 
1874	-1.46305642107256 
1875	-7.94165279735259E-02 
1876	-0.452648530526239 
1877	-0.497166572958563 
1878	-0.791159318397417 
1879	-3.88876806809825 
1880	-6.51488201888916 
1881	-4.2232059183612 
1882	-2.47302295135227 
1883	 0.834840181647544 
1884	 5.88478983788133 
1885	 0.68523269491059 
1886	-0.968341888655898 
1887	-0.36556234295417 
1888	-0.568297727994975 
1889	-0.634089141611958 
1890	-0.562361930230683 
1891	-0.507261454029265 
1892	-0.657853187221514 
1893	-0.294212597771088 
1894	-0.257498039284579 
1895	-0.128140259042229 
1896	 0.133161350234728 
1897	 0.207644365789787 
1898	-3.95167139928165E-03 
1899	 0.557240619294468 
1900	 0.988888616855941 
1901	-1.56447784697274E-02 
1902	-3.56251713010448 
1903	-2.84145126561728 
1904	-2.69996228420208 
1905	-12.9650925131578 
1906	-103.400904794665 
1907	 20.5458941996598 
1908	 27.9783191353668 
1909	 5.77924796607013 
1910	 3.53097458516216 
1911	 7.62706739005761 
1912	 9.63176731295767 
1913	 4.74112640164742 
1914	 1.62868969035769 
1915	 1.38622411405541 
1916	 1.24520688578441 
1917	 0.9910852384684 
1918	 1.36010426782511 
1919	 4.09791687776604 
1920	-8.61376661974076 
1921	-1.13368740311924 
1922	-1.83959350021243 
1923	 15.1467533677456 
1924	 6.60878200875498 
1925	-5.26432401662741 
1926	-5.31479330216008 
1927	-2.62275491087486 
1928	-1.14375427729619 
1929	-0.75918918360572 
1930	-0.642914258026178 
1931	-0.653138143501244 
1932	-0.366550966640049 
1933	-0.319737271538354 
1934	-0.325277656913431 
1935	-0.184895458834801 
1936	-0.188843698148428 
1937	-0.216426611913988 
1938	-0.142986266630649 
1939	-0.118818834487366 
1940	-0.106709685020118 
1941	-8.52405716097967E-02 
1942	-7.98814575869405E-02 
1943	-8.26206846808539E-02 
1944	-4.30337901308222E-02 
1945	-1.12334950037722E-02 
1946	-7.46761569085547E-03 
1947	-3.41243304154466E-03 
1948	-1.06145191075116E-02 
1949	-1.74284383400628E-02 
1950	-1.00825011033668E-02 
1951	-9.4673495056412E-03 
1952	-8.6048478365095E-03 
1953	-1.69279796171282E-02 
1954	-2.22489941123287E-02 
1955	-2.06449427425326E-02 
1956	-2.84791138181979E-03 
1957	 3.94821007182888E-03 
1958	-3.8191118871159E-03 
1959	-2.69756774268083E-03 
1960	-1.42778556840937E-03 
1961	-3.20365606425454E-03 
1962	-3.23244473727954E-03 
1963	-5.71617705569884E-03 
1964	-7.08202716485329E-03 
1965	-3.43475734568609E-03 
1966	-2.29699533376399E-03 
1967	 4.54060953386262E-04 
1968	 1.24845356097663E-03 
1969	-2.75707194250035E-04 
1970	-2.27838531660914E-03 
1971	-2.52200351093397E-03 
1972	-1.91166523993401E-03 
1973	-1.67977926449321E-03 
1974	-1.48590696218598E-03 
1975	-2.6507505214968E-03 
1976	-4.05635663338228E-03 
1977	-2.95772028543182E-03 
1978	-1.95700330657145E-03 
1979	-1.23825618014222E-03 
1980	-5.03078730488578E-04 
1981	 1.18743423097009E-03 
1982	 1.58240354109788E-03 
1983	 1.20032602807469E-03 
1984	 7.06660135922681E-04 
1985	-7.44146285771781E-05 
1986	-9.15515285423908E-05 
1987	 3.43678626774403E-04 
1988	 3.67317556275936E-04 
1989	 8.65440105756787E-04 
1990	 9.77768802175828E-04 
1991	-8.92148076733682E-05 
1992	-4.63748494568128E-04 
1993	-2.67936680001946E-04 
1994	-5.47987220187742E-04 
1995	-1.23364654932065E-03 
1996	-8.10794510918613E-04 
1997	 2.08646630603367E-04 
1998	-1.14402581001365E-03 
1999	-1.04979982072006E-03 
2000	 1.18744919663707E-03 
2001	-2.56556321111699E-04 
2002	-1.29174205956919E-03 
2003	 1.06400247464376E-03 
2004	 1.94149353986003E-03 
2005	 8.89379434580217E-05 
2006	-2.0343045569251E-03 
2007	-3.07833207522518E-03 
2008	-4.69341263730593E-03 
2009	-0.006195215864465 
2010	-3.69338671093709E-03 
2011	-4.46431623079993E-03 
2012	-7.67459058307659E-03 
2013	-1.13774810661735E-02 
2014	-1.19702878483522E-02 
2015	-1.12730911702924E-02 
2016	-9.30848991962421E-03 
2017	-8.69971544689806E-03 
2018	-7.27806335443173E-03 
2019	-4.41177240293012E-03 
2020	-3.51315105136645E-03 
2021	-3.26247166008568E-03 
2022	-0.00291438061309 
2023	-2.84032148515634E-03 
2024	-2.55313002105392E-03 
2025	-1.4472326559801E-03 
2026	-8.45859671601389E-04 
2027	-4.51128474146128E-04 
2028	-3.13249995766966E-04 
2029	 9.40147595302197E-05 
2030	 2.82493775431317E-04 
2031	-2.23210486431368E-04 
2032	-5.04613307863173E-04 
2033	-7.56599925314848E-04 
2034	-7.54960972401921E-04 
2035	-6.80151258949178E-04 
2036	-1.13953286177763E-03 
2037	-1.03337882297434E-03 
2038	-9.4650116974699E-04 
2039	-1.00148499955314E-03 
2040	-3.29865773549405E-04 
2041	-2.85498660914745E-04 
2042	-1.37904811030061E-03 
2043	-1.50862832053748E-03 
2044	-1.08591250339098E-03 
2045	-1.12999947139343E-03 
2046	-5.80893229161235E-04 
2047	 6.01808034672069E-04 
2048	 8.05902527696125E-04 
2049	 5.94118357899769E-04 
2050	 4.015311626406E-04 
2051	-2.23034143480505E-04 
2052	-6.46744923805698E-04 
2053	-9.20069193970026E-04 
2054	-1.52424199530574E-03 
2055	-1.94344667256423E-03 
2056	-1.8050335168286E-03 
2057	-9.85918962663947E-04 
2058	-2.8748595348473E-04 
2059	 1.49284561733121E-03 
2060	 1.74635781540316E-03 
2061	 1.38569599082746E-03 
2062	 2.7437740835059E-04 
2063	-9.47644267098347E-04 
2064	-2.26575502284481E-03 
2065	-2.42548259306547E-03 
2066	-1.77033607018655E-03 
2067	-1.53569963288717E-03 
2068	-9.48882397710653E-04 
2069	-7.2266922547907E-04 
2070	-2.58682033733707E-04 
2071	 7.48455621257813E-04 
2072	 2.31646604670616E-04 
2073	 1.07737440271465E-04 
2074	-4.43825145051284E-04 
2075	-1.34130623045936E-04 
2076	 8.74916308317744E-04 
2077	 1.12495854360781E-03 
2078	 1.43973154826099E-03 
2079	 1.39187869434493E-03 
2080	 7.96558560603885E-04 
2081	-3.9700847836401E-05 
2082	-4.96599790929226E-04 
2083	-6.25052508134207E-04 
2084	-6.60143608279727E-04 
2085	-3.72739271443854E-04 
2086	 7.75161338961163E-05 
2087	 4.94733091555768E-04 
2088	 6.17726304748268E-04 
2089	 5.81211215114341E-04 
2090	 1.30671763415771E-04 
2091	-4.66669187365244E-04 
2092	-1.17060297886887E-04 
2093	 8.86243384147509E-04 
2094	 1.25771264955665E-03 
2095	 2.27715537558844E-03 
2096	 2.46274767314644E-03 
2097	 1.59818139612194E-03 
2098	 9.86385823425014E-04 
2099	-6.76342653243424E-06 
2100	 7.59525274023822E-05 
2101	 1.22433540594846E-04 
2102	-4.03591178852887E-05 
2103	 5.31507897271682E-04 
2104	 9.55296124956222E-04 
2105	 1.03989436275106E-03 
2106	 8.11427794362199E-04 
2107	 6.40833464085219E-04 
2108	 9.88994439527239E-04 
2109	 1.08137287628502E-03 
2110	 8.93727003363397E-04 
2111	 1.01748589247074E-03 
2112	 6.19827086817642E-04 
2113	 1.92644435343014E-04 
2114	-4.25295036138651E-04 
2115	-5.5126951863715E-04 
2116	-6.92941409619662E-04 
2117	-7.36812658481945E-04 
2118	-2.4797144282822E-04 
2119	-1.69468756762693E-04 
2120	-4.37132985857438E-04 
2121	-4.59744519938916E-04 
2122	-4.97120312543592E-04 
2123	-3.91282921651653E-04 
2124	-4.62958785475267E-04 
2125	-6.92564401717861E-04 
2126	-1.71554579332074E-04 
2127	 4.44562690401485E-04 
2128	 8.73771537560446E-04 
2129	 1.79151212557715E-03 
2130	 2.25773835063719E-03 
2131	 2.07013960221417E-03 
2132	 2.02380171749935E-03 
2133	 1.83602516551295E-03 
2134	 1.85529836994611E-03 
2135	 1.90707195268004E-03 
2136	 1.79523992350684E-03 
2137	 1.86065905549437E-03 
2138	 1.65103241438771E-03 
2139	 8.54855825965856E-04 
2140	 9.05097832228002E-04 
2141	 1.29501481287356E-03 
2142	 1.55971253668755E-03 
2143	 2.6260586703639E-03 
2144	 2.6310402032776E-03 
2145	 1.57169003044036E-03 
2146	 1.18515088303676E-03 
2147	 5.48500772172567E-04 
2148	-2.7706312041747E-04 
2149	-5.7354188739651E-04 
2150	-5.07185596622604E-05 
2151	 2.52330029868986E-04 
2152	-2.51350391155429E-04 
2153	-2.92456721588553E-04 
2154	-8.51931864329032E-04 
2155	-1.71527881401579E-03 
2156	-9.16096383705023E-04 
2157	-7.29495746339942E-04 
2158	-5.84909324035319E-04 
2159	-3.0506526012304E-04 
2160	 4.05506556729862E-05 
2161	 4.90427753580385E-05 
2162	 1.77493628635236E-04 
2163	 2.78004614754046E-04 
2164	 3.1659878488444E-04 
2165	-1.35772689819397E-05 
2166	-8.63289393363744E-04 
2167	-7.5762270932822E-04 
2168	-5.3263385634329E-04 
2169	-4.70259804642837E-04 
2170	 2.48471528270532E-04 
2171	 8.95294034512762E-04 
2172	 5.0493262169055E-04 
2173	-5.29789856131287E-05 
2174	 4.31870333524912E-04 
2175	 1.07178747923678E-03 
2176	 1.78029109091828E-03 
2177	 2.91075385161682E-03 
2178	 2.74137848007709E-03 
2179	 1.99169897660881E-03 
2180	 1.17079147581777E-03 
2181	-6.36665863550896E-04 
2182	-1.35438963763101E-03 
2183	-5.04765246737646E-05 
2184	-3.71748770663116E-04 
2185	-1.41758552126157E-03 
2186	-1.08270109287933E-03 
2187	-4.05486054566963E-04 
2188	-3.74573955999071E-04 
2189	 7.56995947387044E-04 
2190	 1.30993423069465E-03 
2191	 6.46761248641098E-04 
2192	 5.21169815727088E-04 
2193	 1.75504685402506E-03 
2194	 1.15584246064366E-03 
2195	-1.74686359402061E-03 
2196	-2.46776426104799E-03 
2197	-3.31672696208122E-03 
2198	-3.83405109378159E-03 
2199	-2.86462148825613E-03 
2200	-9.51984360580985E-04 
2201	-1.4281669610582E-03 
2202	-1.62856040388076E-03 
2203	-2.67434794670889E-04 
2204	-2.5870906777245E-04 
2205	-1.03930604979839E-03 
2206	-9.2440235213485E-04 
2207	-1.66227092700981E-03 
2208	-2.44558054691706E-03 
2209	-1.38934828410237E-03 
2210	 1.83050097305564E-04 
2211	 1.0617676869561E-03 
2212	 1.67630789455223E-03 
2213	 1.11604935731664E-03 
2214	-9.05638291068701E-05 
2215	-1.42190659165796E-03 
2216	-2.45993478945631E-03 
2217	-2.07849446883788E-03 
2218	-4.62350771591935E-06 
2219	 3.67966238884835E-04 
2220	 1.35329161951994E-03 
2221	 1.36629214694609E-03 
2222	-3.77866861217029E-04 
2223	-9.95868519035413E-04 
2224	-1.32796992117907E-03 
2225	-1.64717116049476E-03 
2226	-1.69719803119637E-03 
2227	-1.45137541339815E-03 
2228	-1.04962506191339E-03 
2229	-8.86335587007303E-04 
2230	-5.04719406993315E-04 
2231	-5.52978301599678E-04 
2232	-8.54363532576715E-04 
2233	-7.99928981416888E-04 
2234	-2.89972841355246E-04 
2235	-1.04132405064226E-03 
2236	-1.19535283879055E-03 
2237	-1.37757345519431E-03 
2238	-1.90386277909425E-03 
2239	-1.53880954668939E-03 
2240	-1.17451632263384E-03 
2241	-6.24885893645526E-05 
2242	 1.40577406383835E-03 
2243	 5.95028160484093E-04 
2244	-1.78524793621191E-03 
2245	-3.23107461951759E-03 
2246	-2.90463569381658E-03 
2247	-3.30602637601961E-03 
2248	-2.68250701974762E-03 
2249	 2.93513168549638E-04 
2250	 6.82478348943323E-04 
2251	-3.01545298154617E-04 
2252	-3.6863457681097E-04 
2253	-1.04368721921158E-03 
2254	-2.68037440069429E-03 
2255	-3.92569128217673E-03 
2256	-2.06172597786095E-03 
2257	-1.03345912743181E-03 
2258	-2.4898684173241E-03 
2259	-6.54341732182953E-04 
2260	 4.67791513405586E-04 
2261	 2.34205618720541E-04 
2262	 3.06561090757807E-05 
2263	 7.96978522575974E-04 
2264	 1.10681759537423E-03 
2265	 1.12089776610788E-03 
2266	 3.52156851331505E-04 
2267	-2.09895408067906E-04 
2268	-8.32627946291702E-04 
2269	-4.09686508614955E-03 
2270	-4.2139027777365E-03 
2271	-1.88061025510551E-03 
2272	-1.2436557385732E-03 
2273	 4.18819193226578E-04 
2274	 1.17182564872489E-03 
2275	 1.53450581763809E-03 
2276	 1.43735609472134E-03 
2277	-2.10562528654023E-06 
2278	-8.75132042394626E-04 
2279	-2.55298290229597E-03 
2280	-3.95937558065084E-03 
2281	-5.90209704539155E-03 
2282	-3.97818727538053E-03 
2283	-2.29404504379745E-03 
2284	-2.49312954059157E-03 
2285	-2.07864760028331E-03 
2286	-1.86276682483225E-03 
2287	-3.51802636035524E-03 
2288	-1.78370059347637E-03 
2289	 6.73246773719396E-04 
2290	-2.56886111503123E-04 
2291	-2.46492252820833E-03 
2292	-4.63140292470067E-03 
2293	-3.28537404349131E-03 
2294	-3.13333957273083E-03 
2295	-2.7564541622923E-03 
2296	-1.42721091921214E-03 
2297	-4.3188915966538E-03 
2298	-3.78460608186817E-03 
2299	-1.11741965798533E-03 
2300	-2.9669209459421E-03 
2301	-4.0633927461647E-03 
2302	-2.82311581584958E-03 
2303	-4.30410224711258E-03 
2304	-0.002430775489376 
2305	 1.29099955478303E-03 
2306	-1.24122792302118E-03 
2307	-2.86991496898088E-03 
2308	-4.30859321589136E-03 
2309	-5.66765703646895E-03 
2310	-4.97641238456844E-03 
2311	-5.20152253773364E-03 
2312	-4.55288748137352E-03 
2313	-5.18287588354872E-03 
2314	-5.82955667320278E-03 
2315	-2.10977092912264E-03 
2316	 1.76025679598574E-04 
2317	-3.87024057305304E-03 
2318	-9.84894534655613E-03 
2319	-1.43918040278942E-02 
2320	-1.67195494736532E-02 
2321	-1.64644046001836E-02 
2322	-1.20180724089843E-02 
2323	-8.21104372933738E-03 
2324	-7.26684401470844E-03 
2325	-6.4058748128893E-03 
2326	-9.94405563857639E-03 
2327	-1.38188649512812E-02 
2328	-1.30855615455505E-02 
2329	-1.30392244606043E-02 
2330	-1.05248099257324E-02 
2331	-3.25319168832162E-03 
2332	-1.79546485331536E-03 
2333	 1.38324313297273E-03 
2334	 1.06665682896298E-02 
2335	 8.6877011950452E-03 
2336	 7.38769390681578E-03 
2337	 8.49442256260713E-03 
2338	 4.71486178236158E-04 
2339	 4.46712884587347E-04 
2340	 2.63876535873717E-03 
2341	 1.57160084633563E-03 
2342	 2.81872895297212E-03 
2343	-1.36630485361138E-03 
2344	-1.87745508538802E-03 
2345	-7.91737624756137E-04 
2346	-6.07171038311182E-03 
2347	-5.13039086605117E-03 
2348	-8.00134086316469E-03 
2349	-1.57714993442821E-02 
2350	-1.62994995965895E-02 
2351	-1.92444584879634E-02 
2352	-1.55830351513646E-02 
2353	-9.10478022991238E-03 
2354	-9.00549339611025E-03 
2355	-3.27362075099681E-03 
2356	-5.00860217811336E-04 
2357	-7.63755363540153E-03 
2358	-1.26183846415425E-02 
2359	-9.61166338969264E-03 
2360	-6.97354307574195E-03 
2361	-5.72268239340355E-03 
2362	 3.30525587193958E-04 
2363	-3.26056949396982E-03 
2364	-1.77776896622569E-02 
2365	-0.021972157973068 
2366	-2.08008372050156E-02 
2367	-2.21767181134674E-02 
2368	-2.08721852489975E-02 
2369	-1.54341996245223E-02 
2370	-1.52386440639033E-02 
2371	-2.93072362737549E-02 
2372	-3.52417461320694E-02 
2373	-4.08218771909575E-02 
2374	-4.75435718434038E-02 
2375	-3.25403651150487E-02 
2376	-2.88251443499853E-02 
2377	-3.41338790264687E-02 
2378	-2.42397616475815E-02 
2379	-2.47750443084291E-02 
2380	-2.11723803421457E-02 
2381	-1.20198946464458E-02 
2382	-3.53850115681667E-02 
2383	-4.36456864833885E-02 
2384	-2.85867806764179E-02 
2385	-1.71466032613124E-02 
2386	 3.65348307900986E-03 
2387	 2.75368137857714E-03 
2388	-1.85448548170765E-02 
2389	-4.38103295022484E-02 
2390	-6.37779331323935E-02 
2391	-5.20508225933215E-02 
2392	-5.71012696364139E-02 
2393	-9.06066730587325E-02 
2394	-9.92884211357562E-02 
2395	-9.72249263182407E-02 
2396	-6.79422299834423E-02 
2397	-3.30401966281617E-02 
2398	-3.68889882341877E-02 
2399	-4.78584216809891E-02 
2400	-6.23865655388131E-02 
2401	-7.75344235614552E-02 
2402	-6.28580322944105E-02 
2403	-4.44613796230037E-02 
2404	-7.16270455997647E-02 
2405	-8.52954617603208E-02 
2406	-5.88669791227222E-02 
2407	-4.42454589351841E-02 
2408	-3.71471464262297E-02 
2409	-0.042029446028341 
2410	-7.51550532942348E-02 
2411	-0.118248717203383 
2412	-0.130511895692377 
2413	-0.076707507453834 
2414	 3.83222072561927E-03 
2415	 2.56830838597308E-02 
2416	 1.10724899155815E-02 
2417	 2.39055576517629E-02 
2418	-0.013557841635438 
2419	-7.46809390726724E-02 
2420	-0.139043875528116 
2421	-0.177555082862824 
2422	-0.137969629283458 
2423	-0.113036302707285 
2424	-4.91425580501139E-02 
2425	 5.5119053241561E-03 
2426	-6.72701942092974E-02 
2427	-8.01708713802369E-02 
2428	-2.94623711347756E-02 
2429	-1.81819088468233E-02 
2430	-2.60323441033403E-02 
2431	-2.81360921614929E-02 
2432	-6.44161394251826E-02 
2433	-0.158609150942965 
2434	-0.186666107891214 
2435	-0.231638285580647 
2436	-0.239169825466494 
2437	-0.162091209938483 
2438	-0.125596415945262 
2439	-7.22494145633163E-02 
2440	-7.26976786817111E-02 
2441	-6.73104553647842E-02 
2442	-5.65720944644021E-02 
2443	-8.14453083830805E-02 
2444	-4.76275711994675E-02 
2445	-5.35695968376794E-02 
2446	-0.193059730187915 
2447	-0.30159489191657 
2448	-0.402001665188925 
2449	-0.511219306912034 
2450	-0.569202658259109 
2451	-0.594442528746007 
2452	-0.49679678987132 
2453	-0.41629269965844 
2454	-0.233755134114749 
2455	-0.113932986949228 
2456	-0.115976600957664 
2457	-0.129571430777579 
2458	-0.16746899502098 
2459	-0.155218420123049 
2460	-0.260881400657776 
2461	-0.403810939688328 
2462	-0.431042791652027 
2463	-0.542774407455542 
2464	-0.523911133144833 
2465	-0.206553293259242 
2466	-0.397275670014933 
2467	-0.648979087661645 
2468	-0.617667918994167 
2469	-1.13240389906711 
2470	-1.88719640425322 
2471	-1.04979748476622 
2472	-1.16048704910954 
2473	-2.16843944400285 
2474	-2.44531420317941 
2475	-2.88640459003302 
2476	-2.98759854312797 
2477	-0.916029633227954 
2478	-0.243630933148753 
2479	-0.36166708688895 
2480	-0.756214781050757 
2481	-1.32740180530606 
2482	-2.45913980250537 
2483	-1.93100969652399 
2484	 58.2443349969576 
2485	 0.425131158344891 
2486	 3.95595672287712E-02 
2487	-1.29428801916325 
2488	-2.03040162701421 
2489	 4.50018074321564 
2490	 1.42198067601324 
2491	 2.16787224577008 
2492	 2.91008623347231 
2493	-4.81365526103563 
2494	-8.94374118034892 
2495	-80.0499110821054 
2496	-18.0235486472372 
2497	 13.1363375555126 
2498	 1.94936769602033 
2499	 2.07424545273198 
2500	 1.04244682364587 
