Wavelength	rt0718far200003.asd
350	 0.015483768022711 
351	 1.53054934986592E-02 
352	 1.52136102311828E-02 
353	 1.54418064847425E-02 
354	 1.58740016407171E-02 
355	 1.56548091044698E-02 
356	 0.015840972863199 
357	 1.60442297459502E-02 
358	 1.58113495984949E-02 
359	 1.64679181778296E-02 
360	 1.65672442454437E-02 
361	 1.61160854142625E-02 
362	 1.61028332936513E-02 
363	 1.62248791658313E-02 
364	 1.62877718698914E-02 
365	 1.63090713449594E-02 
366	 1.66189282863615E-02 
367	 1.66567998624327E-02 
368	 1.64577161808499E-02 
369	 1.62889364572878E-02 
370	 1.66309224074028E-02 
371	 1.68220376694467E-02 
372	 1.65838958441951E-02 
373	 1.60368255716739E-02 
374	 1.63259587676515E-02 
375	 1.68519733609498E-02 
376	 0.017190346357445 
377	 1.74359444906408E-02 
378	 0.017099213990971 
379	 1.70009787102133E-02 
380	 1.75750203414664E-02 
381	 1.70715393578163E-02 
382	 1.70028553591289E-02 
383	 0.017361684279907 
384	 1.74861855853509E-02 
385	 1.78226181763738E-02 
386	 1.81309121928106E-02 
387	 0.018225903888251 
388	 1.80664410056573E-02 
389	 1.82677067469176E-02 
390	 1.83946103468587E-02 
391	 1.81287289679553E-02 
392	 1.78703642554508E-02 
393	 1.80729651413802E-02 
394	 1.85244129304266E-02 
395	 0.018802590175503 
396	 1.89103162151589E-02 
397	 1.91727909972726E-02 
398	 1.94693331059461E-02 
399	 1.93377305378355E-02 
400	 1.94522502237035E-02 
401	 1.94988441614802E-02 
402	 1.93453530504052E-02 
403	 1.96302759438907E-02 
404	 1.97821984943025E-02 
405	 1.97889993977014E-02 
406	 1.98381154803781E-02 
407	 1.99748419392633E-02 
408	 2.00658188110119E-02 
409	 0.02006654001918 
410	 2.00398435525478E-02 
411	 2.02694860246491E-02 
412	 2.05371028798137E-02 
413	 2.06411220297617E-02 
414	 2.06185819147941E-02 
415	 2.07015833027824E-02 
416	 2.08997233616844E-02 
417	 2.11034270227085E-02 
418	 2.11258325641965E-02 
419	 0.021297959320128 
420	 0.021603999527931 
421	 2.16389285569032E-02 
422	 2.17340865669689E-02 
423	 2.19405269674687E-02 
424	 2.21717866498254E-02 
425	 2.20962970174062E-02 
426	 2.22784186785012E-02 
427	 2.25954800703775E-02 
428	 2.26698626271322E-02 
429	 2.29472899351244E-02 
430	 2.31821930168546E-02 
431	 2.33078865606451E-02 
432	 2.35359112344189E-02 
433	 2.38267543642796E-02 
434	 2.40230258430635E-02 
435	 2.40819759855629E-02 
436	 2.43780190828423E-02 
437	 2.46133681943737E-02 
438	 2.48154870044286E-02 
439	 2.51487144941536E-02 
440	 2.53084168776912E-02 
441	 2.54683812173474E-02 
442	 2.57252238740948E-02 
443	 2.59892302103122E-02 
444	 2.62177710980092E-02 
445	 0.026409532746999 
446	 0.026586451880935 
447	 0.026789058251499 
448	 2.70530356699749E-02 
449	 2.72755996191239E-02 
450	 2.72944151453823E-02 
451	 2.75237276030287E-02 
452	 2.77702323083133E-02 
453	 2.78931396164034E-02 
454	 2.80423459833984E-02 
455	 2.81659970364467E-02 
456	 2.82763248261055E-02 
457	 2.84039078943226E-02 
458	 2.85661516614517E-02 
459	 2.86987090538581E-02 
460	 0.028805022139871 
461	 2.89553543021687E-02 
462	 2.90784996608917E-02 
463	 2.91465014745773E-02 
464	 2.91894641461349E-02 
465	 2.93742627990446E-02 
466	 2.95352211129415E-02 
467	 2.96108394805497E-02 
468	 2.96309728554771E-02 
469	 2.98690264115549E-02 
470	 3.00425915672929E-02 
471	 3.00750262679355E-02 
472	 3.02280804951257E-02 
473	 3.04457327350702E-02 
474	 3.06288241764273E-02 
475	 3.07177486710232E-02 
476	 3.08403636404438E-02 
477	 3.09816140344712E-02 
478	 3.11619350973104E-02 
479	 3.14087642512422E-02 
480	 3.15532345502195E-02 
481	 3.16840207818636E-02 
482	 3.18841775993061E-02 
483	 3.21599253216346E-02 
484	 3.23850013971447E-02 
485	 3.25227990063179E-02 
486	 3.26203580423831E-02 
487	 3.29268980058977E-02 
488	 3.31818873560008E-02 
489	 3.33460263865019E-02 
490	 3.36106053916046E-02 
491	 3.37801677080711E-02 
492	 0.033937865524524 
493	 3.41867865865553E-02 
494	 3.45586167565966E-02 
495	 3.48413541131292E-02 
496	 3.50260158168833E-02 
497	 0.035223149564868 
498	 3.55423858673693E-02 
499	 0.035839085676814 
500	 0.036077118185862 
501	 3.64306584098464E-02 
502	 3.66788438879433E-02 
503	 0.036939357560043 
504	 3.73344745341099E-02 
505	 3.76132218421429E-02 
506	 3.77775829232821E-02 
507	 3.79512619001432E-02 
508	 3.83223428204304E-02 
509	 3.85937037527487E-02 
510	 3.88715040452991E-02 
511	 3.92353216426355E-02 
512	 3.95561633062894E-02 
513	 3.98238259017479E-02 
514	 4.00990437773534E-02 
515	 4.04621440744576E-02 
516	 4.08532328249376E-02 
517	 4.12704096676898E-02 
518	 0.041676868507432 
519	 4.19936909244774E-02 
520	 4.23504856287971E-02 
521	 4.27395102006661E-02 
522	 4.31211047181213E-02 
523	 4.34507030925582E-02 
524	 0.043820443360082 
525	 4.42584704261657E-02 
526	 4.47349061478434E-02 
527	 4.51310954778256E-02 
528	 4.54511061273177E-02 
529	 4.57538264876764E-02 
530	 4.61633186261837E-02 
531	 4.66284207347887E-02 
532	 4.70786193603843E-02 
533	 4.74468769470342E-02 
534	 4.77595969895153E-02 
535	 4.81533204539954E-02 
536	 4.86173066775841E-02 
537	 4.89710196257251E-02 
538	 4.94325721427319E-02 
539	 4.99166875623364E-02 
540	 5.03253886055246E-02 
541	 0.05077316590239 
542	 5.11698256897624E-02 
543	 5.15233676925058E-02 
544	 5.19005423081552E-02 
545	 5.22662872876225E-02 
546	 5.26905413216562E-02 
547	 5.31598882039297E-02 
548	 5.34707695266709E-02 
549	 5.38650536523041E-02 
550	 0.054290347458917 
551	 5.46288415623371E-02 
552	 0.055019979497212 
553	 5.54398645264911E-02 
554	 5.58565415470276E-02 
555	 5.62388550660078E-02 
556	 5.66358086199853E-02 
557	 5.70531600519666E-02 
558	 5.74688651229733E-02 
559	 5.78250549845311E-02 
560	 5.81679072363604E-02 
561	 5.85009818537346E-02 
562	 5.88059555476542E-02 
563	 5.91112352648408E-02 
564	 5.94262257403145E-02 
565	 5.97324945230648E-02 
566	 5.99623195282653E-02 
567	 6.02017317149722E-02 
568	 6.04256607067376E-02 
569	 6.05841852105733E-02 
570	 6.07328017156029E-02 
571	 6.08923266387657E-02 
572	 6.10623233765931E-02 
573	 6.12206035104389E-02 
574	 6.12951546753962E-02 
575	 6.13275963643143E-02 
576	 6.13736819713105E-02 
577	 6.14511266890546E-02 
578	 6.14262533059117E-02 
579	 6.13274635758475E-02 
580	 6.12667168959785E-02 
581	 6.10649597472912E-02 
582	 6.09163759085265E-02 
583	 6.08599067736748E-02 
584	 6.05681815955843E-02 
585	 6.02529956754579E-02 
586	 5.99500669208371E-02 
587	 5.96310009005674E-02 
588	 5.92664965993259E-02 
589	 5.89402530580146E-02 
590	 5.86252888846363E-02 
591	 5.81617633558288E-02 
592	 0.057771430450375 
593	 5.73361626517214E-02 
594	 5.67390892813449E-02 
595	 5.60620545909798E-02 
596	 5.52287428608072E-02 
597	 5.43329682758004E-02 
598	 5.35436242257017E-02 
599	 5.26638945314943E-02 
600	 5.18878032663674E-02 
601	 5.13180916472975E-02 
602	 5.08153274673075E-02 
603	 5.04451890350624E-02 
604	 5.02162895001112E-02 
605	 0.050107055067277 
606	 5.00304242082704E-02 
607	 4.99607430950249E-02 
608	 4.99060584683574E-02 
609	 4.99026159868048E-02 
610	 4.98699533107211E-02 
611	 4.98162325757363E-02 
612	 4.97686208399253E-02 
613	 4.97525609093074E-02 
614	 4.97156013392099E-02 
615	 4.96445179537991E-02 
616	 4.95606316239679E-02 
617	 4.95543312179317E-02 
618	 4.95428936779865E-02 
619	 4.94691701176318E-02 
620	 4.93421662863135E-02 
621	 4.92773850466905E-02 
622	 4.92687776184561E-02 
623	 4.92532722556144E-02 
624	 4.91284075853871E-02 
625	 4.89954598449466E-02 
626	 4.89301697561638E-02 
627	 4.89611172910093E-02 
628	 4.88296145389609E-02 
629	 4.86999270443907E-02 
630	 4.87042565879889E-02 
631	 4.86774479224223E-02 
632	 4.85918454195751E-02 
633	 4.84633001970743E-02 
634	 4.83440187275623E-02 
635	 4.83331021312569E-02 
636	 4.83108423656637E-02 
637	 0.048218487528261 
638	 0.048113433764175 
639	 4.79847118070587E-02 
640	 4.78615491270661E-02 
641	 4.77690926865608E-02 
642	 4.76758037544244E-02 
643	 4.75371861736049E-02 
644	 4.73785497897854E-02 
645	 4.72772596021952E-02 
646	 4.71457533579235E-02 
647	 4.70471760569229E-02 
648	 0.046974713716487 
649	 4.66862460519601E-02 
650	 4.64551015416365E-02 
651	 4.62249206687483E-02 
652	 0.045849186055873 
653	 4.54414832046943E-02 
654	 4.50449654756466E-02 
655	 4.46123118004099E-02 
656	 0.044043964730221 
657	 4.35384708097641E-02 
658	 4.30851906534987E-02 
659	 4.26617879377893E-02 
660	 4.24371242252754E-02 
661	 4.21153492411335E-02 
662	 4.17716260364323E-02 
663	 4.16811568602995E-02 
664	 4.15106153275344E-02 
665	 4.13503370958027E-02 
666	 4.12509649035057E-02 
667	 4.11020218989963E-02 
668	 4.08913427708345E-02 
669	 4.07234232632148E-02 
670	 0.040690484826322 
671	 0.040605402819396 
672	 4.05073373175865E-02 
673	 4.04468393145027E-02 
674	 4.04662371551739E-02 
675	 4.04081130569558E-02 
676	 4.03366712745784E-02 
677	 4.03162124740043E-02 
678	 4.03043721279037E-02 
679	 4.02622879963507E-02 
680	 4.02167696652643E-02 
681	 4.02135615694075E-02 
682	 4.01850294162472E-02 
683	 4.01681984578685E-02 
684	 4.01518305358577E-02 
685	 0.040042487310519 
686	 3.99685196684795E-02 
687	 0.039846712895005 
688	 3.96055383096043E-02 
689	 3.93934802520316E-02 
690	 3.91586164523114E-02 
691	 3.88574749855394E-02 
692	 3.84529204420246E-02 
693	 3.80160697247122E-02 
694	 3.75787513110031E-02 
695	 3.71410200457723E-02 
696	 3.66199629218574E-02 
697	 3.60407941110903E-02 
698	 3.54087773455278E-02 
699	 3.47577210763516E-02 
700	 3.40858731646821E-02 
701	 3.33730439086987E-02 
702	 3.26459044055676E-02 
703	 3.19375022718969E-02 
704	 3.10781128079688E-02 
705	 3.02398163754291E-02 
706	 2.95122593643477E-02 
707	 2.86556835063434E-02 
708	 2.76214613540976E-02 
709	 2.65720523137886E-02 
710	 2.56832541223305E-02 
711	 2.46946082816079E-02 
712	 2.36194648036559E-02 
713	 2.25213526466816E-02 
714	 2.14685286353998E-02 
715	 2.03939614109041E-02 
716	 1.92527030220761E-02 
717	 1.81172441563023E-02 
718	 1.71005085353238E-02 
719	 1.60528913528316E-02 
720	 1.51679033702842E-02 
721	 1.44845314041428E-02 
722	 1.36692438199442E-02 
723	 1.27729032392266E-02 
724	 1.19499496453039E-02 
725	 1.11783073626764E-02 
726	 1.03980848268737E-02 
727	 9.64867933793582E-03 
728	 8.95948146410832E-03 
729	 8.20134246134547E-03 
730	 7.50268743908672E-03 
731	 6.96948297969559E-03 
732	 6.60542811724846E-03 
733	 6.14328983790021E-03 
734	 5.79644247347107E-03 
735	 5.62839587531317E-03 
736	 5.45543498027244E-03 
737	 5.36096753020631E-03 
738	 5.26031033563819E-03 
739	 5.10579495801753E-03 
740	 5.07136324441802E-03 
741	 5.0281098161609E-03 
742	 4.97340779433286E-03 
743	 4.96530319569742E-03 
744	 4.97071888949655E-03 
745	 4.95247472889815E-03 
746	 4.91703266990156E-03 
747	 4.92839826564862E-03 
748	 4.93354414403158E-03 
749	 4.90593595818832E-03 
750	 4.85325725156812E-03 
751	 4.87490683301059E-03 
752	 4.82778633980743E-03 
753	 4.77203958889888E-03 
754	 4.84599383834481E-03 
755	 4.83740134658057E-03 
756	 4.80304957469996E-03 
757	 4.80494062772159E-03 
758	 4.90136758201778E-03 
759	 4.79961013709804E-03 
760	 4.69611217487874E-03 
761	 4.95308406483319E-03 
762	 4.92515118617035E-03 
763	 4.82394018277651E-03 
764	 4.83656051721414E-03 
765	 5.00296914984395E-03 
766	 4.90980248585131E-03 
767	 4.84122282601054E-03 
768	 4.85952889953582E-03 
769	 4.81885807882183E-03 
770	 4.83269316242341E-03 
771	 4.85145150830528E-03 
772	 4.84416840887094E-03 
773	 4.92272998214338E-03 
774	 4.98606482642542E-03 
775	 5.0134144157012E-03 
776	 5.02563144881395E-03 
777	 5.06015625313574E-03 
778	 5.03542972005391E-03 
779	 5.00941497910493E-03 
780	 5.16613140331018E-03 
781	 5.22018655515931E-03 
782	 5.21537906076911E-03 
783	 5.2455003766634E-03 
784	 5.38398246211499E-03 
785	 5.41943405252386E-03 
786	 5.44494859343655E-03 
787	 5.59296730995235E-03 
788	 5.57439481120577E-03 
789	 5.64692608440584E-03 
790	 5.78392846132702E-03 
791	 5.74723799811215E-03 
792	 5.82689045866232E-03 
793	 6.02862753231466E-03 
794	 6.21887878463888E-03 
795	 6.10264078003217E-03 
796	 6.17991330819394E-03 
797	 6.29381548511521E-03 
798	 6.25067955929487E-03 
799	 6.39276338996822E-03 
800	 6.53098973147655E-03 
801	 6.58097728604919E-03 
802	 6.55233242627883E-03 
803	 6.61613428225389E-03 
804	 6.6740180808302E-03 
805	 6.66792493925934E-03 
806	 6.61789212257605E-03 
807	 6.63344689451516E-03 
808	 6.72452077348423E-03 
809	 6.81198518322817E-03 
810	 6.63791949493751E-03 
811	 6.58943130867625E-03 
812	 6.58307048292908E-03 
813	 6.42279241612451E-03 
814	 6.53168437478672E-03 
815	 6.44589460417584E-03 
816	 6.1733965670868E-03 
817	 6.1072260469229E-03 
818	 5.99658401668464E-03 
819	 5.95530948323805E-03 
820	 5.89308530564126E-03 
821	 5.41909935037104E-03 
822	 5.18304759422385E-03 
823	 5.09154959091756E-03 
824	 4.93848434890035E-03 
825	 4.78360145567189E-03 
826	 4.58432982437211E-03 
827	 4.33920867595452E-03 
828	 4.08526096964636E-03 
829	 3.85601219110974E-03 
830	 3.77472043703028E-03 
831	 3.77342512632692E-03 
832	 3.6654882249991E-03 
833	 3.55236602236752E-03 
834	 3.46464196464238E-03 
835	 3.44259311957755E-03 
836	 3.5444570985525E-03 
837	 3.35314333542336E-03 
838	 3.22505670905942E-03 
839	 3.39412435659326E-03 
840	 3.3330801823176E-03 
841	 3.28769251850133E-03 
842	 3.29038710075972E-03 
843	 3.28567285506685E-03 
844	 3.15686756677384E-03 
845	 3.12360615437536E-03 
846	 3.26937684844882E-03 
847	 3.50059909972939E-03 
848	 3.17132139390357E-03 
849	 3.0216208404036E-03 
850	 3.23925081690929E-03 
851	 3.13371014062126E-03 
852	 3.15123846233378E-03 
853	 3.1178309184626E-03 
854	 2.97140914681287E-03 
855	 3.14443842825435E-03 
856	 3.11234960035453E-03 
857	 2.87052355527853E-03 
858	 2.65263633227618E-03 
859	 2.99534372253569E-03 
860	 3.03974772646018E-03 
861	 2.87618032651833E-03 
862	 3.00422155418994E-03 
863	 3.1000757631577E-03 
864	 3.05131789917971E-03 
865	 2.89423598972051E-03 
866	 2.7962863976714E-03 
867	 2.83796312452169E-03 
868	 2.85351515826292E-03 
869	 2.77827194924887E-03 
870	 2.7257172019717E-03 
871	 2.78547434726825E-03 
872	 2.88303948006298E-03 
873	 2.91415782160899E-03 
874	 2.79731061785909E-03 
875	 2.74597668002012E-03 
876	 2.70801742517312E-03 
877	 2.61989668787045E-03 
878	 2.70074643355643E-03 
879	 2.82976548890596E-03 
880	 2.82469917684751E-03 
881	 2.58313486567784E-03 
882	 2.53258015064732E-03 
883	 2.51442265146591E-03 
884	 2.52059630251088E-03 
885	 2.64221829854633E-03 
886	 2.61864980560983E-03 
887	 2.61206537535479E-03 
888	 2.69838758090736E-03 
889	 2.78514172018518E-03 
890	 2.56113996502225E-03 
891	 2.35891543369983E-03 
892	 2.44332508243202E-03 
893	 2.72313596163225E-03 
894	 2.87169278593915E-03 
895	 2.87979592006493E-03 
896	 2.75222827600799E-03 
897	 2.15731563307843E-03 
898	 2.44830415911957E-03 
899	 2.83244618585232E-03 
900	 2.34409593587206E-03 
901	 2.2325525498642E-03 
902	 2.30407201652218E-03 
903	 2.30861453229598E-03 
904	 2.09231340655595E-03 
905	 2.08515460951011E-03 
906	 2.11173858077087E-03 
907	 2.21046816626141E-03 
908	 2.46511831773805E-03 
909	 2.08298255324864E-03 
910	 1.95124083284957E-03 
911	 2.39889914630516E-03 
912	 2.99967684563167E-03 
913	 2.87211066706713E-03 
914	 2.37726971772783E-03 
915	 2.09198876290615E-03 
916	 2.44070096287341E-03 
917	 2.03602925317588E-03 
918	 1.76249818933162E-03 
919	 2.06372800267144E-03 
920	 2.34464349676632E-03 
921	 2.01962508533239E-03 
922	 1.77031545228205E-03 
923	 2.0222743659094E-03 
924	 2.12177494470982E-03 
925	 2.72217983147001E-03 
926	 2.95069517863406E-03 
927	 1.93058836526775E-03 
928	 4.9803592094281E-04 
929	 1.07662455234865E-03 
930	 2.13506995669798E-03 
931	 5.66758655373801E-04 
932	 1.41039594392743E-03 
933	 2.73322072675782E-04 
934	-5.40418256911057E-04 
935	 2.18087464093754E-03 
936	 8.4332129176565E-04 
937	 6.95007014890267E-04 
938	 1.50174297033874E-03 
939	 1.3466033146225E-03 
940	-8.31770044622906E-04 
941	-2.67212639095233E-04 
942	 9.53722093410079E-04 
943	-1.13709236433425E-03 
944	 1.08370135774275E-03 
945	 1.7096399111381E-03 
946	-3.10047673680592E-04 
947	-1.86446035343449E-03 
948	 1.2046717071606E-03 
949	 1.86462115471988E-03 
950	-2.23354069845356E-04 
951	-8.48777066667605E-04 
952	 1.17152102314451E-03 
953	 1.69344350131911E-03 
954	 1.10555440610964E-03 
955	 2.24947430352332E-03 
956	-5.18054957242715E-05 
957	-2.50700984464737E-03 
958	-1.71739725790942E-03 
959	 3.18846987709754E-03 
960	 1.57554513321147E-03 
961	-8.73822114702148E-04 
962	-7.8154747871224E-04 
963	 1.42517519459617E-03 
964	 1.88528286419718E-03 
965	 2.38169832275988E-03 
966	 3.06422633591204E-03 
967	 2.68906642986308E-03 
968	 1.70876646887104E-03 
969	 2.14190798671553E-03 
970	 3.16138439707777E-03 
971	 1.97727806928025E-03 
972	 1.52875290359591E-03 
973	 1.42846356735612E-03 
974	 1.26155802845552E-03 
975	 9.98762799489605E-04 
976	 1.08803205815377E-03 
977	 4.22602608475134E-04 
978	-1.3059605021849E-05 
979	 1.92651050659108E-03 
980	 2.46330746919594E-03 
981	 1.98913275384886E-03 
982	 1.47078328047554E-03 
983	 1.68122114529299E-03 
984	 1.29247828210055E-03 
985	 1.4964299790083E-03 
986	 2.35426511354746E-03 
987	 2.77878407494026E-03 
988	 1.63103943079937E-03 
989	 1.60859737436876E-03 
990	 2.72389336996538E-03 
991	 2.69905461186686E-03 
992	 4.9596664698751E-04 
993	 1.15235967284685E-04 
994	 1.73134806930841E-03 
995	 2.54535192191777E-03 
996	 1.91443037664573E-03 
997	 1.70323307748117E-03 
998	 1.63393943400257E-03 
999	 5.93261703303035E-04 
1000	 1.38260446678877E-03 
1001	 1.5408705862232E-03 
1002	 2.0087842971024E-03 
1003	 2.16473114961498E-03 
1004	 2.09166429342711E-03 
1005	 2.07159468271731E-03 
1006	 2.04724591148613E-03 
1007	 1.86359790817447E-03 
1008	 1.86860445593893E-03 
1009	 1.82998459492297E-03 
1010	 1.75165988861957E-03 
1011	 1.78611957241893E-03 
1012	 1.7570324950965E-03 
1013	 1.89264005579785E-03 
1014	 1.7888429932055E-03 
1015	 1.61341151386463E-03 
1016	 1.47197861100874E-03 
1017	 1.09145097435401E-03 
1018	 9.47928458836119E-04 
1019	 1.02354185443699E-03 
1020	 9.62762520560708E-04 
1021	 7.93608985143289E-04 
1022	 7.7863244066131E-04 
1023	 1.0815878141987E-03 
1024	 1.45375097539259E-03 
1025	 1.57844182103694E-03 
1026	 1.97749244452031E-03 
1027	 2.29568560208112E-03 
1028	 2.49750556869567E-03 
1029	 2.58549750518553E-03 
1030	 2.89559748304024E-03 
1031	 2.72809869777286E-03 
1032	 1.85995765353489E-03 
1033	 1.63081139321856E-03 
1034	 1.51948303818859E-03 
1035	 1.52684540488154E-03 
1036	 2.02775920254494E-03 
1037	 2.11604802407019E-03 
1038	 2.03090651001993E-03 
1039	 1.93650108801978E-03 
1040	 1.61621341856999E-03 
1041	 1.5826565696671E-03 
1042	 1.6051542066218E-03 
1043	 1.76651769954033E-03 
1044	 1.9072256312626E-03 
1045	 2.28144864663574E-03 
1046	 2.25570959218613E-03 
1047	 2.09801940389584E-03 
1048	 0.001885336995687 
1049	 1.21194668113236E-03 
1050	 1.03214380811494E-03 
1051	 9.89599571474541E-04 
1052	 1.10394566879814E-03 
1053	 1.80642197716416E-03 
1054	 1.99191708170321E-03 
1055	 1.96143745691124E-03 
1056	 1.9887488644846E-03 
1057	 1.92194094458149E-03 
1058	 0.001421796393837 
1059	 1.55340570086922E-03 
1060	 2.11861527844473E-03 
1061	 2.27235607621433E-03 
1062	 2.67593600211233E-03 
1063	 2.57093267249382E-03 
1064	 1.81022979469182E-03 
1065	 1.5719840863078E-03 
1066	 1.15994863295728E-03 
1067	 1.16683931723011E-03 
1068	 1.91761634691992E-03 
1069	 2.11424112560915E-03 
1070	 2.16700456134395E-03 
1071	 2.26281451593313E-03 
1072	 2.22044539487899E-03 
1073	 1.97231301990688E-03 
1074	 1.87265676234472E-03 
1075	 1.90582987058548E-03 
1076	 1.94259550508241E-03 
1077	 1.86645703598765E-03 
1078	 1.94055920079054E-03 
1079	 2.31965530670065E-03 
1080	 2.34531076781206E-03 
1081	 2.21738558509311E-03 
1082	 2.13676715036411E-03 
1083	 1.75816716726021E-03 
1084	 1.67644449455884E-03 
1085	 1.92905835084903E-03 
1086	 1.94613619154786E-03 
1087	 1.86973003085304E-03 
1088	 1.94945824485885E-03 
1089	 2.19156541093892E-03 
1090	 2.01720718838812E-03 
1091	 1.98062412822138E-03 
1092	 2.12682214527305E-03 
1093	 2.08400617893739E-03 
1094	 1.66724994496013E-03 
1095	 1.73218608121857E-03 
1096	 2.18344013111743E-03 
1097	 2.22853701745968E-03 
1098	 2.41109305887141E-03 
1099	 2.27199916360559E-03 
1100	 1.20389897885606E-03 
1101	 1.16409802382856E-03 
1102	 1.98027327837882E-03 
1103	 2.11547200098565E-03 
1104	 2.47344504920915E-03 
1105	 2.84709928351554E-03 
1106	 2.04340223192591E-03 
1107	 1.06706782063305E-03 
1108	 1.42811191288615E-03 
1109	 1.93273749910647E-03 
1110	 1.8214978683727E-03 
1111	 1.85291778742114E-03 
1112	 1.87159292593752E-03 
1113	 8.04344848023823E-04 
1114	 3.2702011227855E-04 
1115	 8.59370396753809E-04 
1116	 1.11174075299274E-03 
1117	 7.59169352403709E-04 
1118	 1.1023610263867E-03 
1119	 3.59657414167678E-03 
1120	 3.64179676135469E-03 
1121	 2.66498346386596E-04 
1122	 7.22976852021824E-04 
1123	-1.49157862818441E-04 
1124	-2.55411171549053E-03 
1125	 1.21612015066525E-04 
1126	 1.9672937745398E-03 
1127	 2.24050971449468E-03 
1128	 3.42194971524627E-03 
1129	 3.93663413953081E-03 
1130	 4.41957235994007E-03 
1131	 3.45205419911852E-03 
1132	 0.001497411510692 
1133	 1.33438991076245E-03 
1134	 1.25395133455945E-03 
1135	 8.9747888044569E-04 
1136	 9.97715097115669E-04 
1137	 6.4607111854853E-04 
1138	-8.36566490548448E-04 
1139	-8.22998492458713E-04 
1140	 3.41243612357254E-04 
1141	 2.43661929823709E-03 
1142	 3.42635030124961E-03 
1143	 2.37647447854527E-03 
1144	 1.06358328801659E-03 
1145	 1.22921700493911E-03 
1146	 2.08397275773091E-03 
1147	 2.04151607977317E-03 
1148	 2.44403047204855E-03 
1149	 2.22974577164771E-03 
1150	 1.68280624020439E-03 
1151	 9.31475524812155E-04 
1152	 1.26513796820007E-03 
1153	 1.06881126878313E-03 
1154	 1.11512931533642E-03 
1155	 1.85494741408513E-03 
1156	 2.37907291168665E-03 
1157	 1.30292748377284E-03 
1158	 1.05296164203004E-03 
1159	 1.40711279562899E-03 
1160	 1.37881223564561E-03 
1161	 1.59081270936013E-03 
1162	 2.19105902451846E-03 
1163	 2.37537823991327E-03 
1164	 2.04596872944363E-03 
1165	 1.86154993230565E-03 
1166	 1.68784938038628E-03 
1167	 1.33392172555062E-03 
1168	 1.35690538853874E-03 
1169	 1.68133274617374E-03 
1170	 1.87137147292813E-03 
1171	 1.91729285006295E-03 
1172	 1.80677512636643E-03 
1173	 1.78349966044535E-03 
1174	 1.60458823917444E-03 
1175	 1.69467921738562E-03 
1176	 1.82357862826545E-03 
1177	 1.80349421230429E-03 
1178	 1.73652716760453E-03 
1179	 1.59862437245348E-03 
1180	 1.49172674735147E-03 
1181	 1.54500652599624E-03 
1182	 1.5714582125781E-03 
1183	 1.41054574288811E-03 
1184	 1.34924528904354E-03 
1185	 1.44416823497411E-03 
1186	 1.33989541631844E-03 
1187	 1.35965561831791E-03 
1188	 1.62340535493069E-03 
1189	 1.69496024472308E-03 
1190	 1.55460401034871E-03 
1191	 1.46765511831268E-03 
1192	 1.49442841956726E-03 
1193	 1.50083245351158E-03 
1194	 1.42881585310819E-03 
1195	 1.48564326080767E-03 
1196	 1.56581455110336E-03 
1197	 1.32845611008366E-03 
1198	 1.24280720269215E-03 
1199	 1.60718920256227E-03 
1200	 1.81056685105341E-03 
1201	 1.68042318646172E-03 
1202	 1.63545539328894E-03 
1203	 1.45693385195905E-03 
1204	 1.14780692809169E-03 
1205	 1.25299131922332E-03 
1206	 1.34067539775919E-03 
1207	 1.37437921940394E-03 
1208	 1.63460833177155E-03 
1209	 1.61743347584848E-03 
1210	 1.54768928775554E-03 
1211	 1.64700140142289E-03 
1212	 1.61245098545826E-03 
1213	 1.51809646810756E-03 
1214	 1.51631902536992E-03 
1215	 1.60878014219875E-03 
1216	 1.65677684948151E-03 
1217	 1.64331811401721E-03 
1218	 1.60264108072921E-03 
1219	 1.60560510539673E-03 
1220	 1.57353197688421E-03 
1221	 1.44257158512648E-03 
1222	 1.46408030598815E-03 
1223	 1.49935994459172E-03 
1224	 1.27603110756199E-03 
1225	 1.23935877760561E-03 
1226	 1.54125240814412E-03 
1227	 1.65047872675195E-03 
1228	 1.43457939458574E-03 
1229	 1.35092331721587E-03 
1230	 0.001460527563244 
1231	 1.4989018612682E-03 
1232	 1.5515993639928E-03 
1233	 1.68000309049242E-03 
1234	 1.66510429379068E-03 
1235	 1.59480225834465E-03 
1236	 1.59263297626412E-03 
1237	 1.62203319587548E-03 
1238	 1.6545972374074E-03 
1239	 1.36802603438239E-03 
1240	 1.29357759725113E-03 
1241	 1.35376544371077E-03 
1242	 1.33899957421672E-03 
1243	 1.37698929200792E-03 
1244	 1.42339997784099E-03 
1245	 1.46486672905799E-03 
1246	 1.48291550282736E-03 
1247	 1.44611277814892E-03 
1248	 1.5142628008493E-03 
1249	 1.66890257142299E-03 
1250	 1.60968068374628E-03 
1251	 1.46440658117369E-03 
1252	 1.47926678096828E-03 
1253	 0.001492233744009 
1254	 1.50150825142453E-03 
1255	 1.71896269743283E-03 
1256	 1.83125312059251E-03 
1257	 1.83253531170544E-03 
1258	 1.75176083724103E-03 
1259	 1.62008251647968E-03 
1260	 1.48626617902946E-03 
1261	 1.17472060178551E-03 
1262	 1.20685346359841E-03 
1263	 1.51219956417186E-03 
1264	 1.58696205655254E-03 
1265	 1.56376448463235E-03 
1266	 1.56742843780644E-03 
1267	 1.42854575348476E-03 
1268	 1.28526688318485E-03 
1269	 1.54664692969397E-03 
1270	 1.73712257125146E-03 
1271	 1.53917835550168E-03 
1272	 1.48124542117372E-03 
1273	 1.42609003305986E-03 
1274	 1.32928999573599E-03 
1275	 1.38233936643161E-03 
1276	 1.60602521263829E-03 
1277	 1.86494000256756E-03 
1278	 1.75090220823245E-03 
1279	 1.60871975297911E-03 
1280	 1.69858879232715E-03 
1281	 1.66195125363007E-03 
1282	 1.58168046215945E-03 
1283	 1.61187752571568E-03 
1284	 1.70657937160854E-03 
1285	 1.59324646516103E-03 
1286	 1.47275672137407E-03 
1287	 1.43530671793773E-03 
1288	 1.18176911789898E-03 
1289	 1.07195685768638E-03 
1290	 1.09938566367301E-03 
1291	 1.18499037628898E-03 
1292	 1.34359298084412E-03 
1293	 1.6345750074942E-03 
1294	 1.86751354605839E-03 
1295	 1.90409610592483E-03 
1296	 1.69652474335334E-03 
1297	 1.45777873491184E-03 
1298	 1.50009093015301E-03 
1299	 1.70319094307705E-03 
1300	 1.59872162636122E-03 
1301	 1.30647994425629E-03 
1302	 1.3714712712875E-03 
1303	 1.61062649837783E-03 
1304	 1.67997181341219E-03 
1305	 1.65084970867238E-03 
1306	 1.68831346071125E-03 
1307	 1.37252582586684E-03 
1308	 1.2626832849178E-03 
1309	 1.41385955605342E-03 
1310	 1.51175864578482E-03 
1311	 1.51317934547048E-03 
1312	 1.48356662523496E-03 
1313	 1.72625108300065E-03 
1314	 1.72253625170259E-03 
1315	 1.11360050384185E-03 
1316	 1.08577044948772E-03 
1317	 1.61198628013815E-03 
1318	 1.56565017087001E-03 
1319	 1.39702467089745E-03 
1320	 1.5564232967728E-03 
1321	 1.7482293306646E-03 
1322	 1.24158805819365E-03 
1323	 1.06577925445453E-03 
1324	 1.39833398261585E-03 
1325	 1.23248427047215E-03 
1326	 1.05395572831647E-03 
1327	 1.51993872080261E-03 
1328	 1.96249381649774E-03 
1329	 1.72615878310491E-03 
1330	 1.54875204735854E-03 
1331	 1.73974053247243E-03 
1332	 1.45119566937438E-03 
1333	 1.20761165573083E-03 
1334	 1.63246928480431E-03 
1335	 1.59438788492401E-03 
1336	 1.43417667993126E-03 
1337	 1.26778792569328E-03 
1338	 7.12444137432029E-04 
1339	 6.80790592022139E-04 
1340	 1.29698157692123E-03 
1341	 1.18902386734701E-03 
1342	 5.66447058113087E-04 
1343	 5.83087300020676E-04 
1344	 6.33746606550047E-04 
1345	 5.50477255385592E-04 
1346	 1.6152879947716E-03 
1347	 2.15868032474485E-03 
1348	 8.88113526552339E-04 
1349	 9.69625091415571E-05 
1350	-3.20740002837855E-04 
1351	-6.79451582461245E-04 
1352	-2.85596976966795E-04 
1353	 2.14669228475654E-03 
1354	 1.81372390252838E-02 
1355	 1.85885190120714E-02 
1356	 2.9310434676312E-03 
1357	-1.38958854698068E-03 
1358	-5.55283505863611E-03 
1359	-0.074291570930289 
1360	-0.137277982783507 
1361	-0.113570282654106 
1362	-0.071364058376017 
1363	 3.31039863682748E-03 
1364	 7.46030127932112E-02 
1365	 3.43399847636484E-02 
1366	-0.095121170122995 
1367	-0.235941055301039 
1368	-0.260028910674771 
1369	-1.22197186053121E-02 
1370	 3.88895814470764E-03 
1371	-2.46411375880736E-02 
1372	-5.20567741028916E-02 
1373	-0.281276011434928 
1374	-0.348417809559899 
1375	-0.261606296914858 
1376	-0.243480547845251 
1377	-0.121970438106626 
1378	-9.06088226729698E-02 
1379	-0.223889213764266 
1380	-0.268104427418562 
1381	-0.234590886711299 
1382	-0.280128443855446 
1383	-0.393792956416593 
1384	-0.418450564442346 
1385	-0.438766986455573 
1386	-0.504372727822362 
1387	-0.569427032016552 
1388	-0.477653573543667 
1389	-0.171231085270786 
1390	-0.217310806893797 
1391	-0.325981556438015 
1392	-0.529978276019497 
1393	-0.352703230810436 
1394	-0.103096536707067 
1395	-0.143051775752923 
1396	-0.209167872841867 
1397	-0.370483819708763 
1398	-0.692021223500808 
1399	-0.46779183010114 
1400	-0.144599316530088 
1401	-7.20965297136143E-02 
1402	 8.59969359664255E-02 
1403	 0.175144996069573 
1404	 0.182196063209717 
1405	 0.104452820512327 
1406	-0.182474316457367 
1407	-0.1799448654675 
1408	-6.49399070049736E-02 
1409	-5.51182749686869E-02 
1410	-1.45401250385015E-02 
1411	-2.58827568014926E-02 
1412	-0.118435553868095 
1413	-0.10970727789864 
1414	-6.19415471028846E-02 
1415	-4.52991716125911E-02 
1416	-8.34484106705311E-03 
1417	-3.48069852742417E-03 
1418	-0.024535730118162 
1419	-2.53944805418288E-02 
1420	-0.021616679434133 
1421	-2.14223011773553E-02 
1422	-2.64181911277853E-02 
1423	-0.020285439571383 
1424	-6.67072344112234E-03 
1425	-4.97369955542707E-03 
1426	-2.98976295127376E-03 
1427	-1.11879852839718E-03 
1428	-4.63708035647882E-03 
1429	-6.03737721058786E-03 
1430	-5.75854725917533E-03 
1431	-4.13970527854056E-03 
1432	-2.99197768793099E-03 
1433	-2.9068481889159E-03 
1434	-7.134731794233E-04 
1435	 7.61019636765411E-04 
1436	-8.44062222868501E-04 
1437	 1.69638706744542E-03 
1438	 7.34895727905254E-03 
1439	 6.42403447769333E-03 
1440	 1.27179278612592E-03 
1441	 9.79228756691959E-04 
1442	 2.91175881269918E-03 
1443	 2.8465963012773E-03 
1444	 2.09400552253399E-03 
1445	 1.63089550318231E-03 
1446	 7.62207018223259E-04 
1447	-2.07716891141473E-04 
1448	-6.29812666320905E-04 
1449	-1.33658124594524E-03 
1450	-2.04513795663504E-03 
1451	-9.58481872440242E-04 
1452	 1.00085757266334E-03 
1453	 9.7189243326589E-04 
1454	 1.28366396207363E-03 
1455	 5.29839159342942E-04 
1456	 1.79176033365547E-04 
1457	 8.32993024873114E-05 
1458	 3.88397054652706E-04 
1459	 5.34418949803755E-04 
1460	 4.91731042488599E-04 
1461	 8.93459160074245E-04 
1462	 1.28155257228951E-03 
1463	 1.25393642987351E-03 
1464	 1.14311527985894E-03 
1465	 1.73906406517261E-03 
1466	 1.76322338132725E-03 
1467	 5.3997788225609E-04 
1468	 1.03670891560535E-04 
1469	-1.19659182551548E-04 
1470	 2.12562816702701E-04 
1471	 1.80348636698818E-03 
1472	 1.80009691617543E-03 
1473	 9.8386074804743E-04 
1474	 8.03446680536198E-04 
1475	 5.56770429979601E-05 
1476	-2.00347458608479E-04 
1477	 1.02735277969454E-04 
1478	 6.47286865518412E-04 
1479	 1.4518719698449E-03 
1480	 1.49752289796001E-03 
1481	 1.98191945999644E-03 
1482	 1.59924555509524E-03 
1483	-4.01625228839253E-04 
1484	-5.1315820429439E-04 
1485	 1.50720328492156E-04 
1486	 4.19263578262846E-04 
1487	 1.29056362129543E-03 
1488	 1.57395571475829E-03 
1489	 1.36551981668864E-03 
1490	 1.30280059881451E-03 
1491	 1.39878544189126E-03 
1492	 1.36580172302875E-03 
1493	 1.14293737924133E-03 
1494	 1.01004781631743E-03 
1495	 7.27496641933721E-04 
1496	 7.33561865574809E-04 
1497	 1.18551848598359E-03 
1498	 1.10247660483998E-03 
1499	 6.12267871138026E-04 
1500	 6.52223107170568E-04 
1501	 6.73877866220168E-04 
1502	 6.69311914151818E-04 
1503	 1.17192985783773E-03 
1504	 1.43515314302407E-03 
1505	 1.50105692490114E-03 
1506	 1.34125024695694E-03 
1507	 1.44934549290142E-03 
1508	 1.54210523284875E-03 
1509	 1.28075098008985E-03 
1510	 1.16362968779264E-03 
1511	 1.07711167256988E-03 
1512	 9.85651027280071E-04 
1513	 9.52698546563133E-04 
1514	 9.24334313065244E-04 
1515	 1.12852805325118E-03 
1516	 1.12447912468493E-03 
1517	 9.67956033594751E-04 
1518	 1.14903642956023E-03 
1519	 1.38726152677886E-03 
1520	 1.36988333899295E-03 
1521	 1.21041589303929E-03 
1522	 1.08737804905784E-03 
1523	 9.96333844174468E-04 
1524	 9.08362239521497E-04 
1525	 1.02505066812336E-03 
1526	 1.30585405455851E-03 
1527	 1.30501079376061E-03 
1528	 1.06063909061032E-03 
1529	 1.03216924554571E-03 
1530	 1.24905221969688E-03 
1531	 1.3689139949543E-03 
1532	 1.28566040723219E-03 
1533	 1.31712332197905E-03 
1534	 1.35233172039658E-03 
1535	 1.15732043803987E-03 
1536	 1.16132879378364E-03 
1537	 1.22116801614609E-03 
1538	 1.08414262594567E-03 
1539	 1.05373686674614E-03 
1540	 1.04718926823432E-03 
1541	 9.00301615571088E-04 
1542	 8.46126434605993E-04 
1543	 9.71598836151628E-04 
1544	 1.0451502791097E-03 
1545	 1.11904074222388E-03 
1546	 1.1200150598165E-03 
1547	 1.08955410242637E-03 
1548	 1.0779382989309E-03 
1549	 9.89998337340713E-04 
1550	 1.05881438947784E-03 
1551	 1.03318614252466E-03 
1552	 9.42114064968282E-04 
1553	 9.88739051401778E-04 
1554	 8.8309329708131E-04 
1555	 7.21578828677265E-04 
1556	 7.15326254788469E-04 
1557	 7.79272881989654E-04 
1558	 7.95978801592876E-04 
1559	 8.24772466784649E-04 
1560	 9.78959421897993E-04 
1561	 1.1069729168667E-03 
1562	 1.0491149282927E-03 
1563	 1.00311182226195E-03 
1564	 1.10010045331244E-03 
1565	 1.14706787902985E-03 
1566	 1.10378849735653E-03 
1567	 1.24299055743994E-03 
1568	 1.28311210339751E-03 
1569	 1.03308299098869E-03 
1570	 1.08650413623546E-03 
1571	 0.001162437026865 
1572	 8.96737940981865E-04 
1573	 8.57303946834706E-04 
1574	 1.01692237822241E-03 
1575	 1.16400378683618E-03 
1576	 1.41390849995431E-03 
1577	 1.40892468914605E-03 
1578	 1.18301855874931E-03 
1579	 1.21662970929021E-03 
1580	 1.20659285353602E-03 
1581	 1.02710901059409E-03 
1582	 1.10505550862631E-03 
1583	 1.30321920038968E-03 
1584	 1.24012908800395E-03 
1585	 1.17921194435572E-03 
1586	 1.35816364587299E-03 
1587	 1.32309577971684E-03 
1588	 1.14358398399634E-03 
1589	 1.24017943570877E-03 
1590	 1.3680309563135E-03 
1591	 1.43165403694086E-03 
1592	 1.46602254096082E-03 
1593	 1.27770937369473E-03 
1594	 1.2214727031494E-03 
1595	 1.31887609555346E-03 
1596	 1.21286542002938E-03 
1597	 1.20230397695663E-03 
1598	 1.26615301760592E-03 
1599	 1.41667320298449E-03 
1600	 1.55713800408674E-03 
1601	 1.36575069017638E-03 
1602	 1.29101182046573E-03 
1603	 1.22060617363222E-03 
1604	 9.62879529687232E-04 
1605	 9.22739767168559E-04 
1606	 1.0157523208533E-03 
1607	 9.13871805267139E-04 
1608	 7.78931919035725E-04 
1609	 1.05311574782195E-03 
1610	 1.33219360504997E-03 
1611	 1.24478635274235E-03 
1612	 1.22446374381162E-03 
1613	 1.22542317272567E-03 
1614	 9.36760412742937E-04 
1615	 8.05344448952319E-04 
1616	 1.11880151146137E-03 
1617	 1.28132476295251E-03 
1618	 1.14640290151253E-03 
1619	 1.11235419024246E-03 
1620	 1.07286868837485E-03 
1621	 9.64908664846204E-04 
1622	 1.01278737014234E-03 
1623	 1.10286344892036E-03 
1624	 1.01084861377594E-03 
1625	 7.87681768956773E-04 
1626	 6.53840880707746E-04 
1627	 7.84026048144339E-04 
1628	 9.67993943686285E-04 
1629	 7.6738303527916E-04 
1630	 7.82893341547467E-04 
1631	 1.40396785879427E-03 
1632	 1.48251978546137E-03 
1633	 1.06041495436123E-03 
1634	 1.05441980319737E-03 
1635	 8.91340344962159E-04 
1636	 6.16357911594751E-04 
1637	 1.01606497931579E-03 
1638	 1.2691102095692E-03 
1639	 1.06867933391159E-03 
1640	 1.09921685723283E-03 
1641	 1.11937723940088E-03 
1642	 1.02478942090605E-03 
1643	 1.20566919268823E-03 
1644	 1.30996866654899E-03 
1645	 1.05333608581545E-03 
1646	 1.13558575867743E-03 
1647	 1.3436696663143E-03 
1648	 1.09184925269778E-03 
1649	 9.40308343650359E-04 
1650	 1.13116866678852E-03 
1651	 1.19511537322079E-03 
1652	 1.0377040693668E-03 
1653	 1.04241520908172E-03 
1654	 1.0580991948791E-03 
1655	 1.01254489583117E-03 
1656	 9.52273562699972E-04 
1657	 9.15023009351772E-04 
1658	 1.11954519625448E-03 
1659	 1.51623200668663E-03 
1660	 1.44846555369165E-03 
1661	 1.23264660467974E-03 
1662	 1.13603420478138E-03 
1663	 6.75993832108345E-04 
1664	 7.30917508669173E-04 
1665	 1.43599911401446E-03 
1666	 1.43722000592282E-03 
1667	 1.1136435211783E-03 
1668	 9.372920821168E-04 
1669	 8.00431523909712E-04 
1670	 1.00117553271282E-03 
1671	 1.16513979893721E-03 
1672	 1.16910313108501E-03 
1673	 1.23436265842756E-03 
1674	 1.13306652093957E-03 
1675	 1.06093981760042E-03 
1676	 1.1529997077948E-03 
1677	 1.17427714874467E-03 
1678	 1.1068259943344E-03 
1679	 1.00986359400705E-03 
1680	 1.01129518971098E-03 
1681	 1.09097870662016E-03 
1682	 1.24371837001334E-03 
1683	 1.35523205195909E-03 
1684	 1.20681089424579E-03 
1685	 1.09477168987846E-03 
1686	 1.25275498035778E-03 
1687	 1.37222076469492E-03 
1688	 1.34052594970305E-03 
1689	 1.20428468999542E-03 
1690	 9.69983269575255E-04 
1691	 7.92408010605101E-04 
1692	 8.39105013126343E-04 
1693	 1.05316112141062E-03 
1694	 9.78257798000521E-04 
1695	 1.02979266865939E-03 
1696	 1.23321880165646E-03 
1697	 8.93673070272938E-04 
1698	 9.02444895258111E-04 
1699	 1.19135193010126E-03 
1700	 1.03618034004622E-03 
1701	 1.09887469315176E-03 
1702	 1.28790331060524E-03 
1703	 9.41760197292428E-04 
1704	 6.35087132432084E-04 
1705	 8.62488740443331E-04 
1706	 8.62370389257661E-04 
1707	 7.29284112041698E-04 
1708	 9.03212876129322E-04 
1709	 9.84098816510552E-04 
1710	 1.00610249368263E-03 
1711	 1.15629391622602E-03 
1712	 0.001311465094184 
1713	 1.12731572548341E-03 
1714	 1.13329082537273E-03 
1715	 1.32039907079616E-03 
1716	 1.44177021530247E-03 
1717	 1.16471103462336E-03 
1718	 9.49508020985097E-04 
1719	 1.0037678244591E-03 
1720	 1.25169442613674E-03 
1721	 1.48348725363398E-03 
1722	 0.001302302203461 
1723	 8.90418808585257E-04 
1724	 7.56816890509244E-04 
1725	 6.84601956703217E-04 
1726	 9.49120681531474E-04 
1727	 1.46980106638524E-03 
1728	 1.29170371458804E-03 
1729	 1.16264417759605E-03 
1730	 1.53047463391185E-03 
1731	 1.2313468865136E-03 
1732	 8.95346635014364E-04 
1733	 1.27889257011589E-03 
1734	 1.02596363373735E-03 
1735	 5.89413041887608E-04 
1736	 9.65823622723112E-04 
1737	 9.98895721930893E-04 
1738	 7.30144683926983E-04 
1739	 1.28197814862293E-03 
1740	 1.77442117446421E-03 
1741	 1.04021967079887E-03 
1742	 5.58194830640212E-04 
1743	 9.33082212378281E-04 
1744	 6.90066544299035E-04 
1745	 9.3255508278593E-04 
1746	 1.27120580457225E-03 
1747	 1.22128418136399E-03 
1748	 1.07221167036432E-03 
1749	 1.20764250915988E-03 
1750	 1.62000617734192E-03 
1751	 1.70100529012055E-03 
1752	 1.46607947689384E-03 
1753	 1.18311130686875E-03 
1754	 5.91739933119341E-04 
1755	 6.41885276472678E-04 
1756	 1.1231471642429E-03 
1757	 8.98056159361873E-04 
1758	 1.48638794049143E-03 
1759	 1.95717475620819E-03 
1760	 1.61248029383421E-03 
1761	 1.33112586894371E-03 
1762	 6.95791568630263E-04 
1763	-1.38470163204343E-04 
1764	 7.91810211702587E-05 
1765	 1.20816168082712E-03 
1766	 1.21183455520897E-03 
1767	 4.27287751633546E-04 
1768	 3.61398469212361E-04 
1769	 5.25668756198094E-04 
1770	 1.21533615021277E-03 
1771	 1.61977330896059E-03 
1772	 0.001154972063705 
1773	 3.66873799580687E-04 
1774	-3.29825893869732E-04 
1775	 1.70880339928322E-03 
1776	 1.71783979728394E-03 
1777	-3.63992505091024E-04 
1778	-1.1090290191713E-04 
1779	 1.07821439107217E-03 
1780	 8.61527436188744E-04 
1781	 1.62569088565021E-03 
1782	 1.96567499173777E-03 
1783	-5.59767271131592E-04 
1784	-5.5880833957248E-04 
1785	 3.18302469411742E-03 
1786	 3.00693333673016E-03 
1787	 6.1166931031565E-04 
1788	 3.29720934576951E-05 
1789	-2.32801605112843E-03 
1790	-1.56160145025989E-03 
1791	-2.90052698562662E-04 
1792	 4.44441290080767E-04 
1793	 2.94431583947347E-03 
1794	 3.74231418489264E-03 
1795	 2.09335277314389E-03 
1796	-5.51610471155259E-05 
1797	-3.29755492029869E-03 
1798	-4.98628490952285E-03 
1799	-2.68230041211527E-04 
1800	 5.50493641348785E-04 
1801	 1.40505200067076E-03 
1802	 3.98333263173641E-03 
1803	 1.48553608729465E-03 
1804	-0.010437959627378 
1805	-1.50259854644708E-02 
1806	-2.40827696144369E-02 
1807	-2.58908332677897E-02 
1808	 9.05572252399138E-03 
1809	 2.41457681901401E-02 
1810	 2.55532641978554E-02 
1811	 2.25337064416476E-02 
1812	-2.72335047128757E-02 
1813	-4.08318633079779E-02 
1814	-2.87616149886627E-02 
1815	-2.59157790691542E-02 
1816	 4.47750035445546E-02 
1817	-1.19466697039672E-02 
1818	-9.35772608141351E-02 
1819	-0.143505049510763 
1820	-0.264823551380059 
1821	-0.456536998348524 
1822	-0.540542653401337 
1823	-0.101726976759639 
1824	-3.31753897103798E-02 
1825	-3.24974771316919E-03 
1826	-0.042135491753862 
1827	-0.407057093259693 
1828	-0.48749959664147 
1829	-0.389223075377776 
1830	-0.289435797576898 
1831	-0.769409215709123 
1832	-0.700268266995569 
1833	-0.179407106640453 
1834	-0.148803227516901 
1835	-0.459738620087263 
1836	-0.676619509895898 
1837	-0.870231657462661 
1838	-0.831950938805161 
1839	-0.252398725482106 
1840	-0.910718737737769 
1841	-0.662282147064188 
1842	-0.660408565505618 
1843	-0.802382273855684 
1844	 1.12064321582292 
1845	 0.131712861536126 
1846	-1.8854922732411 
1847	-1.39154156043793 
1848	-0.67822650426232 
1849	-1.06809727769233 
1850	-3.25789830642805 
1851	-0.466326237141758 
1852	-0.119220499961273 
1853	 0.328943535793013 
1854	 0.355851147203282 
1855	 6.38495501709796E-02 
1856	 0.218301318865665 
1857	 2.03594156886075 
1858	-2.44368989949146 
1859	-0.407781540214228 
1860	-0.211563112957495 
1861	 0.33139863826816 
1862	 0.530640714670479 
1863	 1.31757024465804 
1864	 0.129373736466708 
1865	-0.582350156089516 
1866	 0.354684165768016 
1867	 0.457216723723479 
1868	 0.70137302444958 
1869	 0.500719170361005 
1870	 8.82011668308384E-02 
1871	-0.759372505712204 
1872	-5.61373897733595 
1873	 27.1724580083159 
1874	-5.35138351411997 
1875	-2.75156153639062 
1876	-2.30676166591249 
1877	-1.04554828011445 
1878	-0.862118744405858 
1879	-2.60355037449533 
1880	-3.13131668132766 
1881	-1.11944248675111 
1882	-0.178195138795829 
1883	-1.74989487974299 
1884	 10.0474388741166 
1885	 1.92643000491228 
1886	-4.05971976594756 
1887	 0.346224054332295 
1888	 0.350935692718561 
1889	 0.161532558511419 
1890	-0.414139835206746 
1891	-0.639869031149711 
1892	-1.18857897521566 
1893	-2.56098298872625 
1894	-1.43099397688058 
1895	-0.548677421956544 
1896	-0.360136585265133 
1897	-0.52389587553546 
1898	-0.850870242883287 
1899	-1.21254012299046 
1900	-1.59588848226696 
1901	-1.9197667992568 
1902	-3.72699199472854 
1903	 0.485771593794399 
1904	-0.749434990898168 
1905	 0.314062536603447 
1906	 23.9719008946377 
1907	 12.0449307443432 
1908	 25.2873372426022 
1909	 4.14368940817239 
1910	 2.52043939100455 
1911	 3.8119630960624 
1912	 2.06514535086865 
1913	 0.767302712585674 
1914	 2.16417587999045 
1915	 1.71168657715848 
1916	 0.786969437487747 
1917	 0.130362399688087 
1918	 9.30433263890682E-02 
1919	 1.425862731018 
1920	-5.73398797344433 
1921	-1.09632857612707 
1922	-1.07378665721081 
1923	 3.73226242671028 
1924	-0.193251222200634 
1925	-1.26830289375397 
1926	-2.09204379845432 
1927	-2.39811113950771 
1928	-1.08157056800401 
1929	-0.40152684107598 
1930	-0.170689929546245 
1931	-0.141744118353046 
1932	-4.05551833022158E-02 
1933	-0.145621959958182 
1934	-0.310217555387371 
1935	-0.27222618640235 
1936	-0.210186678542541 
1937	-0.105406169483527 
1938	-2.84273514317007E-02 
1939	-7.57891833113596E-03 
1940	 2.36956122392297E-03 
1941	-8.52266994812761E-03 
1942	-4.02595958489623E-02 
1943	-3.59984209880163E-02 
1944	-2.58254899298328E-02 
1945	-8.04698071751149E-03 
1946	 1.36242408952665E-03 
1947	-1.30245108452182E-03 
1948	 1.52693386117346E-02 
1949	 1.74511838673125E-02 
1950	-3.32164408467757E-03 
1951	-1.22176169294818E-02 
1952	-1.13073275579764E-02 
1953	-1.14695538249408E-02 
1954	-2.13335027551097E-02 
1955	-1.63186422226616E-02 
1956	-5.39429276769175E-03 
1957	-1.83403629657096E-02 
1958	-2.76420210759959E-02 
1959	-2.07437389522867E-02 
1960	-1.59260860809348E-02 
1961	-1.36095745685339E-02 
1962	-1.21355234104979E-02 
1963	-1.19474657448171E-02 
1964	-1.08305887103746E-02 
1965	-1.10004096817457E-02 
1966	-8.48247848792672E-03 
1967	-3.27157176124456E-03 
1968	 1.66189895687341E-03 
1969	 1.50736888342316E-03 
1970	 5.50843260500666E-04 
1971	-1.46200596160261E-03 
1972	-3.13284157934922E-03 
1973	-2.44181603870976E-03 
1974	 2.23154852462662E-05 
1975	 2.04234764943437E-03 
1976	 1.56142546839285E-03 
1977	 1.21846762368151E-03 
1978	 9.82441327289956E-04 
1979	 3.87352158415394E-04 
1980	-5.83069240744866E-04 
1981	-2.50995426884886E-04 
1982	 6.17714738997249E-04 
1983	 1.18626049984962E-03 
1984	 1.03818949600178E-03 
1985	 6.81926111565851E-04 
1986	-2.11376718500326E-04 
1987	-1.41721582409617E-03 
1988	-7.91784800066606E-04 
1989	 1.57823574278812E-04 
1990	 5.35678427776553E-04 
1991	 6.12321379734818E-04 
1992	-1.11644054123186E-03 
1993	-1.79487151082102E-03 
1994	-1.76536761423428E-03 
1995	-9.24709044882429E-04 
1996	-1.71708121466351E-03 
1997	-4.13792810054934E-04 
1998	 1.56896507978053E-03 
1999	 5.0757546714252E-04 
2000	-2.12126052707415E-04 
2001	-1.05600059539829E-03 
2002	-3.20554594698003E-03 
2003	-3.43282071643621E-03 
2004	-4.65217137144521E-03 
2005	-5.96515013939705E-03 
2006	-3.33883039020828E-03 
2007	-3.73045903211894E-03 
2008	-4.25742656521057E-03 
2009	-2.9048569995271E-03 
2010	 1.69489592430275E-04 
2011	 2.4084550760027E-05 
2012	-1.06600082204797E-03 
2013	 5.92490386574484E-04 
2014	-2.05415065715624E-03 
2015	-3.77144078868625E-03 
2016	-4.05434094984527E-03 
2017	-4.14885060661587E-03 
2018	-1.30007995283665E-03 
2019	 4.76879923546542E-04 
2020	-2.28982785096852E-04 
2021	-2.95765872740822E-04 
2022	-7.12926801797459E-04 
2023	-1.39914661024095E-03 
2024	-1.19007607626162E-03 
2025	 2.84602512858658E-04 
2026	 8.43803507509113E-04 
2027	 1.14218154269629E-03 
2028	 1.81809542110876E-03 
2029	 1.59409925863061E-03 
2030	 7.34553708049144E-04 
2031	-1.05713423693986E-04 
2032	-9.10337129154156E-04 
2033	-2.31036511747613E-04 
2034	 7.59987098879385E-04 
2035	 1.33434214831486E-03 
2036	 1.96432673928467E-03 
2037	 1.8548942091415E-03 
2038	 1.29028862638935E-03 
2039	 8.02521345424852E-04 
2040	-7.5031504449726E-05 
2041	-3.02119114221605E-04 
2042	-3.55317573570946E-04 
2043	-2.23187644041463E-04 
2044	 6.96614855632354E-04 
2045	 1.12939902196804E-03 
2046	 2.86875323584113E-04 
2047	-1.94524751220081E-05 
2048	 2.31533196309249E-05 
2049	-2.23298202333386E-04 
2050	 2.15789824887245E-04 
2051	 5.15363557980214E-04 
2052	 3.52888725090085E-04 
2053	 7.43779128186527E-04 
2054	 1.54472026517279E-03 
2055	 1.61986934639471E-03 
2056	 1.32797411961353E-03 
2057	-6.02883774954322E-05 
2058	-3.40546734502219E-04 
2059	-1.33423934631479E-04 
2060	-4.18928381158639E-04 
2061	-4.93578928688369E-04 
2062	-1.0532479207087E-03 
2063	-9.50743569022697E-04 
2064	-9.19517441857448E-05 
2065	 1.47963941707507E-03 
2066	 2.71841598225663E-03 
2067	 2.53168029191701E-03 
2068	 2.20037638472944E-03 
2069	 7.57947583614456E-04 
2070	-7.41781242326957E-04 
2071	-3.62892676287949E-04 
2072	-5.97394344544781E-04 
2073	-9.76602698625487E-04 
2074	-6.75512511032261E-04 
2075	-4.70793704918463E-04 
2076	-1.18608914963755E-03 
2077	-1.30617088907208E-03 
2078	-1.05500875916562E-03 
2079	-4.53515585079922E-04 
2080	 2.46822506521046E-04 
2081	 1.7473518328292E-03 
2082	 2.05658406116382E-03 
2083	 1.94707991153705E-03 
2084	 1.47694863892392E-03 
2085	 1.72502397765542E-04 
2086	 1.40006737870502E-04 
2087	 1.13646315606992E-03 
2088	 1.25481980317781E-03 
2089	 1.09515325795626E-03 
2090	 1.22217700613461E-03 
2091	 3.66100528977194E-04 
2092	-2.62382205478437E-04 
2093	-1.1952589597417E-03 
2094	-1.14388185885215E-03 
2095	-5.56012612108258E-04 
2096	-4.01198726042676E-04 
2097	 2.67042248985432E-04 
2098	 5.39267319612042E-04 
2099	 1.4552693151495E-04 
2100	-8.37073276577144E-05 
2101	 8.70788363927601E-04 
2102	 1.51841970158844E-03 
2103	 1.02113984232342E-03 
2104	 5.5842464828101E-04 
2105	 4.95111839609663E-04 
2106	 3.40390809945762E-04 
2107	 1.81836288402031E-04 
2108	 6.09024588938542E-04 
2109	 9.51939165749964E-04 
2110	 5.76039891347394E-04 
2111	-1.38136952438722E-04 
2112	-3.02735236518388E-04 
2113	-3.7408416484876E-04 
2114	-1.09667435538039E-03 
2115	-1.24262459356842E-03 
2116	-4.21198321465621E-04 
2117	-2.67391854518298E-04 
2118	-3.39547055961828E-04 
2119	-2.65828894533949E-04 
2120	-2.25284428110123E-04 
2121	-1.75633965263402E-04 
2122	 2.3371389305804E-04 
2123	 1.3350306477486E-04 
2124	 2.40337320258691E-06 
2125	 1.75954119252805E-04 
2126	 5.50984508676219E-05 
2127	-2.44639705683172E-04 
2128	 1.93852907591082E-04 
2129	 7.94417625702412E-04 
2130	 5.81214086762652E-04 
2131	 2.73646397675772E-04 
2132	-1.27187884258439E-04 
2133	-7.9020719494748E-04 
2134	-7.49439663875472E-04 
2135	 2.77619322323744E-04 
2136	 5.48370534126634E-04 
2137	 8.14526260224474E-04 
2138	 8.88564508920452E-04 
2139	 7.00513860929896E-04 
2140	 7.13832475867161E-04 
2141	 6.8942965447755E-04 
2142	 6.2414990970924E-04 
2143	 8.89257160837914E-04 
2144	 2.65335473251186E-04 
2145	-4.23794649060724E-04 
2146	-1.28201120279327E-03 
2147	-2.25233039062297E-03 
2148	-2.53637401111642E-03 
2149	-1.63560885018872E-03 
2150	-5.73142177095357E-04 
2151	-6.14889700403532E-04 
2152	-8.966895823203E-05 
2153	 4.80780841776926E-04 
2154	 3.46506053577088E-05 
2155	 6.82832725951776E-04 
2156	 1.98540694109727E-03 
2157	 2.0293661455051E-03 
2158	 6.11600574442145E-04 
2159	 3.34851992842018E-04 
2160	 2.58681657569814E-04 
2161	-2.51838038209435E-04 
2162	-7.29215532276423E-04 
2163	-6.22065299042069E-04 
2164	-5.27100801188109E-04 
2165	-5.06378514720623E-04 
2166	-1.59400728412177E-04 
2167	 2.63851238578673E-04 
2168	 1.08766569367805E-03 
2169	 7.32073461522496E-04 
2170	-4.94881156200691E-04 
2171	-4.78437422856182E-04 
2172	-8.21180154583726E-04 
2173	-1.4710856752137E-03 
2174	-8.07179295702161E-04 
2175	 1.08074416328003E-04 
2176	 1.14293450071085E-04 
2177	 2.55059099801908E-04 
2178	-7.38962581513218E-05 
2179	-1.33538179421875E-03 
2180	-1.7055989579255E-03 
2181	-1.39020642648849E-03 
2182	-1.07042125468115E-03 
2183	 1.09990384959391E-04 
2184	 7.30494062254972E-04 
2185	-3.52244903053577E-04 
2186	-1.10833142946037E-03 
2187	-2.27538943410021E-03 
2188	-2.96548685025625E-03 
2189	-3.79748722136141E-03 
2190	-3.78880857885023E-03 
2191	-2.84952647833374E-03 
2192	-2.37198879913266E-03 
2193	-1.77299123603792E-03 
2194	-1.31825401384219E-03 
2195	-1.29620174704783E-03 
2196	-1.12523904388303E-03 
2197	-8.35814109373449E-04 
2198	-3.91849026129586E-04 
2199	-3.26023038852909E-04 
2200	 1.56810316674957E-03 
2201	 1.94514861222915E-03 
2202	 1.08967841645582E-03 
2203	 5.94491843271419E-04 
2204	 5.2833369092498E-05 
2205	 5.97227366216379E-04 
2206	 1.36079276035507E-03 
2207	 4.37621606696534E-04 
2208	-9.64502002910347E-04 
2209	-4.58965854508927E-04 
2210	-4.43587157151104E-05 
2211	 2.00566388208718E-04 
2212	 3.02683545054955E-04 
2213	-1.76788352417024E-03 
2214	-2.06913655641016E-03 
2215	-9.83274225772257E-05 
2216	 1.20688450937792E-03 
2217	 1.64341795531983E-03 
2218	 0.002289858781037 
2219	 1.95008967922465E-03 
2220	-3.36405159873572E-04 
2221	-1.00315294147517E-03 
2222	-8.24446924195051E-04 
2223	-4.3975819749909E-04 
2224	 4.08536955623172E-04 
2225	 3.65669725508969E-04 
2226	-1.60120894564788E-04 
2227	 1.14325307604489E-04 
2228	 4.35398329091154E-04 
2229	 4.71156905906367E-04 
2230	 2.2147342125403E-03 
2231	 1.86103564088513E-03 
2232	-2.11520020542739E-03 
2233	-0.002759917414832 
2234	-2.21593291469664E-03 
2235	-1.39284145338034E-03 
2236	-7.79430153922284E-04 
2237	 1.03059425620129E-03 
2238	 1.89375083710907E-03 
2239	 1.35113164331927E-03 
2240	 1.01749584591052E-03 
2241	 6.57163315561293E-04 
2242	 9.96653580383971E-04 
2243	 1.40012633889808E-03 
2244	 1.18994601035381E-03 
2245	-1.03360931597794E-03 
2246	-2.87703513413801E-03 
2247	-1.49650697991951E-03 
2248	-9.46039370236255E-04 
2249	 6.05134188031027E-04 
2250	 2.78440620623245E-03 
2251	 1.16418550950838E-03 
2252	 7.09038473430265E-04 
2253	 2.06076111375244E-03 
2254	 1.72097403904639E-03 
2255	 2.98634080800762E-04 
2256	-1.44649366870442E-03 
2257	-1.79252606430227E-03 
2258	-2.19729605024244E-03 
2259	-4.08299761116066E-03 
2260	-4.13663436985259E-03 
2261	-3.12076664994481E-03 
2262	-2.76155267870678E-03 
2263	-1.00753313318505E-03 
2264	-6.04762818737336E-04 
2265	-2.25457534418602E-03 
2266	-2.36866531288342E-03 
2267	-0.001517031325771 
2268	-2.21265870522355E-03 
2269	-3.67725496090157E-03 
2270	-3.08425565639706E-03 
2271	-1.80076607522567E-03 
2272	-1.70264275387952E-03 
2273	-4.74883882223488E-04 
2274	-1.87114560610029E-04 
2275	-3.07607032493129E-03 
2276	-3.39576724701787E-03 
2277	-5.14891192260479E-04 
2278	-6.16307664599814E-04 
2279	-2.4347088793743E-03 
2280	-2.33471928196754E-03 
2281	-2.96875509782106E-03 
2282	-1.84305796083098E-03 
2283	-1.52866679573638E-04 
2284	 6.75366123495628E-04 
2285	 1.94386645476367E-03 
2286	-9.18843963311992E-04 
2287	-3.39029685309413E-03 
2288	-3.02278511760814E-03 
2289	-5.31506053161097E-03 
2290	-6.11018109197748E-03 
2291	-4.20237359080755E-03 
2292	-3.3941603322609E-03 
2293	-2.25144059939535E-03 
2294	-1.47107474674632E-03 
2295	-1.55631068679209E-03 
2296	-3.69861985446337E-03 
2297	-5.83175287361185E-03 
2298	-5.16561074697514E-03 
2299	-6.67889616366556E-03 
2300	-5.99287295699534E-03 
2301	-3.5172077749023E-03 
2302	-4.88194024994253E-03 
2303	-4.45842464994193E-03 
2304	-2.59212844424422E-03 
2305	-1.47276788830784E-03 
2306	-1.32739737764578E-03 
2307	-1.19042082336962E-03 
2308	-5.41897058479047E-04 
2309	-1.14931709780674E-03 
2310	-2.97935118347149E-03 
2311	-3.62949281323157E-03 
2312	-2.9745648099974E-03 
2313	-6.58490051023358E-03 
2314	-7.08357359923935E-03 
2315	-3.38804840982797E-03 
2316	-4.52381748155457E-03 
2317	-3.98123847812695E-03 
2318	 6.56551498132141E-06 
2319	 2.48268458972772E-03 
2320	 2.81872708671226E-03 
2321	 2.23769857284844E-03 
2322	-2.75330874766373E-03 
2323	-9.85650679395704E-03 
2324	-1.04961588095884E-02 
2325	-8.08579110096462E-03 
2326	-5.45900083661214E-03 
2327	-4.48712862076208E-03 
2328	-3.55749970838848E-03 
2329	-2.92200203309245E-03 
2330	-6.3397342862919E-03 
2331	-1.36296098518972E-03 
2332	-1.32264292715884E-04 
2333	-9.54303994535185E-03 
2334	-7.61986088647768E-03 
2335	-9.62219471222893E-03 
2336	-1.59762739273162E-02 
2337	-1.44540275313062E-02 
2338	-1.90222944429454E-02 
2339	-2.05523118606122E-02 
2340	-2.09966898393408E-02 
2341	-2.21752780626157E-02 
2342	-1.08357261620404E-02 
2343	-5.4534837968975E-03 
2344	-3.18809935309644E-03 
2345	 5.6974117469381E-03 
2346	 2.20231705452734E-03 
2347	-7.20755345289808E-03 
2348	-7.30600745059587E-03 
2349	-7.09346190000399E-03 
2350	-9.93879110702518E-03 
2351	-0.007390814309978 
2352	-7.48400018303885E-03 
2353	-1.19052207673151E-02 
2354	-6.41681763141162E-03 
2355	-4.62118148099383E-03 
2356	-1.02867729080652E-02 
2357	-6.5773109672319E-03 
2358	-5.82676755837331E-03 
2359	-9.66428198197328E-03 
2360	-9.98100440287396E-03 
2361	-1.48556196222299E-02 
2362	-1.87396183543723E-02 
2363	-2.20535028449105E-02 
2364	-1.97822066356568E-02 
2365	-7.37588471217784E-03 
2366	-9.45135297802703E-03 
2367	-1.02181929210311E-02 
2368	-1.8310650757379E-04 
2369	-4.44015969617107E-03 
2370	-1.37465897973006E-03 
2371	-4.06005241144498E-03 
2372	-2.54211949107126E-02 
2373	-2.88127535506518E-02 
2374	-3.45221022907931E-02 
2375	-4.38384042626524E-02 
2376	-3.53991309934861E-02 
2377	-2.76022348161664E-02 
2378	-2.56230315905217E-02 
2379	-0.010468223013636 
2380	 1.01563255455326E-02 
2381	 1.16232936887991E-02 
2382	 1.02792419350606E-03 
2383	-0.010091175249577 
2384	-2.16252001017504E-02 
2385	-3.47687033345737E-02 
2386	-3.58155032139775E-02 
2387	-3.14864726740839E-02 
2388	-4.21751733138319E-02 
2389	-4.16310562058427E-02 
2390	-3.72594264615986E-02 
2391	-4.65519598900348E-02 
2392	-2.80484167996343E-02 
2393	-4.89428052173094E-03 
2394	-1.87943901319658E-02 
2395	-3.09585963808452E-02 
2396	-3.94048631070626E-02 
2397	-5.22237990631546E-02 
2398	-4.54205966640064E-02 
2399	-3.48791276471055E-02 
2400	-1.89490019589027E-02 
2401	 1.43632944631823E-03 
2402	 7.86460639322254E-03 
2403	 1.64734348035905E-02 
2404	 6.09352721157933E-03 
2405	-1.98084173968694E-02 
2406	-2.40353059387466E-02 
2407	-5.48058850874924E-02 
2408	-9.86351154433738E-02 
2409	-0.115320260244049 
2410	-0.11525830852586 
2411	-6.81763478384871E-02 
2412	-7.58630218315821E-03 
2413	 1.40653477054369E-02 
2414	-0.031750858743188 
2415	-0.103441335370986 
2416	-0.134672193534529 
2417	-0.161831481844394 
2418	-9.74365578458243E-02 
2419	-7.09113100580751E-02 
2420	-0.104016326826997 
2421	-6.09066607947063E-02 
2422	-0.126346078564194 
2423	-0.166950713264668 
2424	-8.39330730988689E-02 
2425	-0.120831763535247 
2426	-0.181518199250777 
2427	-0.10874938282475 
2428	-6.99072118750973E-02 
2429	-5.89673767499703E-02 
2430	 9.16609418210803E-03 
2431	-3.16554375304207E-02 
2432	-0.117680741812582 
2433	-0.137237296873149 
2434	-0.172616575915344 
2435	-0.15823242701006 
2436	-0.127783965580894 
2437	-0.153371803497427 
2438	-0.180120499574042 
2439	-0.158960983746634 
2440	-0.123292606262854 
2441	-9.74555031595164E-02 
2442	-4.41606441108619E-02 
2443	-5.57513748171877E-02 
2444	-0.111278913572718 
2445	-0.151809876529013 
2446	-0.137516624110672 
2447	 2.17141313335507E-02 
2448	-4.99657617295936E-02 
2449	-0.285897920988891 
2450	-0.322767265556509 
2451	-0.447360882256978 
2452	-0.338159862974693 
2453	-0.205417136027854 
2454	-0.504232738501146 
2455	-0.802376976653795 
2456	-0.64096954538984 
2457	-0.545114223122744 
2458	-0.448424612524711 
2459	-0.204523445179649 
2460	-0.271686357328791 
2461	-0.589347855051731 
2462	-0.610684312430807 
2463	-0.407619416998984 
2464	-0.33497949139745 
2465	-9.46352034752169E-02 
2466	-0.10601890888262 
2467	-0.263221309803202 
2468	-0.478708523886424 
2469	-0.575199808882321 
2470	-0.22734703447094 
2471	-0.592653452722884 
2472	-0.695348467654924 
2473	-0.788269123908231 
2474	-1.65554552879751 
2475	-1.64248504832658 
2476	-0.846692310408819 
2477	-0.538220888819287 
2478	-0.143303691207888 
2479	 3.80972824520625E-02 
2480	-0.221786621796127 
2481	-0.959612212960903 
2482	-3.39505668598412 
2483	-2.81682710334147 
2484	 122.471162350501 
2485	-5.05431128049535 
2486	-0.706998983810794 
2487	-1.84295174926005 
2488	-2.83293840186878 
2489	 4.19950671408802 
2490	 0.453345677508162 
2491	 1.15348210002328 
2492	 6.19183706551623 
2493	-5.39155469792355 
2494	-8.90999668696948 
2495	-47.2078448467351 
2496	-6.03896012566611 
2497	-3.84687259496381 
2498	-0.174169771874394 
2499	 0.471123639168872 
2500	 0.437713151837832 
