Wavelength	rt0718far00008.asd
350	 2.63425334673972E-02 
351	 2.58897740364991E-02 
352	 2.56160028238432E-02 
353	 2.59188073584517E-02 
354	 2.65416605934261E-02 
355	 2.61134765948058E-02 
356	 0.025872631989118 
357	 2.59663118026351E-02 
358	 2.61774531576045E-02 
359	 0.026332085477959 
360	 2.65121578145056E-02 
361	 2.66411516962026E-02 
362	 0.026553628165486 
363	 2.63161256789623E-02 
364	 2.63402107498618E-02 
365	 2.67186625264823E-02 
366	 2.70360408364715E-02 
367	 0.0271799691299 
368	 2.70530524205621E-02 
369	 2.67577142048839E-02 
370	 2.70378433031074E-02 
371	 2.67796324687689E-02 
372	 2.64035381288947E-02 
373	 2.70138677034186E-02 
374	 2.71693022721987E-02 
375	 2.71770082523342E-02 
376	 2.74309080276303E-02 
377	 2.81613180783297E-02 
378	 2.78668961714382E-02 
379	 2.74403537819613E-02 
380	 2.78131581985454E-02 
381	 2.82068596919377E-02 
382	 2.81744432945325E-02 
383	 2.79950524367882E-02 
384	 2.82495968449536E-02 
385	 2.87235040457087E-02 
386	 2.92029518911493E-02 
387	 2.94450163780268E-02 
388	 0.029222165485413 
389	 2.92785533888825E-02 
390	 2.94143376758544E-02 
391	 2.93965786681772E-02 
392	 2.93486769735738E-02 
393	 2.97309210135207E-02 
394	 0.030309540976855 
395	 3.06109686188122E-02 
396	 3.04090957798657E-02 
397	 3.03879629220686E-02 
398	 3.06736370194972E-02 
399	 3.08797527858075E-02 
400	 3.09370599325613E-02 
401	 3.08988128060186E-02 
402	 3.08841132909486E-02 
403	 3.11222530266099E-02 
404	 3.12861972429778E-02 
405	 3.13002356981814E-02 
406	 3.12544643528885E-02 
407	 3.15788132129101E-02 
408	 3.17363047074738E-02 
409	 3.17018364531681E-02 
410	 3.19743518733522E-02 
411	 3.21482557187477E-02 
412	 3.22039390960763E-02 
413	 3.22385220284262E-02 
414	 3.24543717850283E-02 
415	 3.26598225976506E-02 
416	 3.28668731779878E-02 
417	 3.31227388209658E-02 
418	 3.31365266137438E-02 
419	 3.32980753226266E-02 
420	 3.36674653362768E-02 
421	 3.39113042435956E-02 
422	 3.40045843629582E-02 
423	 3.41508612444493E-02 
424	 3.44430579861729E-02 
425	 3.44960495088205E-02 
426	 3.47745127006049E-02 
427	 3.51880442993073E-02 
428	 3.54168722951798E-02 
429	 3.56332550909214E-02 
430	 0.035824057523948 
431	 3.60635760893807E-02 
432	 3.65370775031815E-02 
433	 3.68124177938376E-02 
434	 3.69995026832024E-02 
435	 0.037264060768964 
436	 0.037552791378784 
437	 3.78174402842221E-02 
438	 3.81040977893401E-02 
439	 3.84826361610961E-02 
440	 3.87584329643405E-02 
441	 3.90142163711954E-02 
442	 3.93190403164918E-02 
443	 3.96797839785817E-02 
444	 3.99536958913598E-02 
445	 4.02102679392459E-02 
446	 4.05341842340712E-02 
447	 0.040824906822907 
448	 4.11101270800785E-02 
449	 0.041351580955811 
450	 4.14830204092095E-02 
451	 4.17140602759276E-02 
452	 4.19604287300023E-02 
453	 4.21568587001132E-02 
454	 4.23671804535001E-02 
455	 4.25787755784244E-02 
456	 4.27173334134106E-02 
457	 4.27570766803709E-02 
458	 0.043044436899818 
459	 4.32911137336383E-02 
460	 4.34087010656279E-02 
461	 4.35414440047277E-02 
462	 4.37190988893749E-02 
463	 4.39433731856967E-02 
464	 4.41511010350942E-02 
465	 4.41016552977556E-02 
466	 4.42321248674711E-02 
467	 4.44849994922087E-02 
468	 0.044598723888009 
469	 4.48257923600866E-02 
470	 4.50062484806693E-02 
471	 4.51110479869277E-02 
472	 4.53291201318981E-02 
473	 4.55609454681369E-02 
474	 4.57389365021318E-02 
475	 4.58585352769144E-02 
476	 4.61094523565288E-02 
477	 4.63201540620248E-02 
478	 4.65183404057116E-02 
479	 4.68479435625961E-02 
480	 4.71165335207814E-02 
481	 4.72712757949028E-02 
482	 4.73712144370585E-02 
483	 4.76560084167086E-02 
484	 4.79956281988592E-02 
485	 0.048292497942964 
486	 4.85097103782735E-02 
487	 4.88896305685348E-02 
488	 4.91852498405622E-02 
489	 4.93839409017323E-02 
490	 0.049711259757136 
491	 4.99603779205045E-02 
492	 5.02164555101958E-02 
493	 5.05657531261286E-02 
494	 5.09570021553168E-02 
495	 5.13331718448562E-02 
496	 5.16648458538742E-02 
497	 5.19617374223936E-02 
498	 5.23857975020458E-02 
499	 0.052828955604373 
500	 5.32336777443824E-02 
501	 5.36670494069683E-02 
502	 5.40370822491879E-02 
503	 5.44077009833993E-02 
504	 5.48408215706301E-02 
505	 5.51980141899615E-02 
506	 5.55653425926308E-02 
507	 5.59675748944256E-02 
508	 5.63706828262201E-02 
509	 5.66868685324776E-02 
510	 5.70155197462715E-02 
511	 0.057430724289857 
512	 5.78850706859027E-02 
513	 5.83583383579021E-02 
514	 5.88061482476017E-02 
515	 5.92111655074664E-02 
516	 5.98198770729632E-02 
517	 6.04261663606633E-02 
518	 6.09336821076168E-02 
519	 6.14373207979299E-02 
520	 6.18995801998643E-02 
521	 6.23665936818852E-02 
522	 6.28811237990061E-02 
523	 0.063401212884423 
524	 0.0639605690825 
525	 6.45223972154846E-02 
526	 0.065018661253667 
527	 6.56212690190761E-02 
528	 6.61767339364446E-02 
529	 6.66252429576366E-02 
530	 6.71814333731178E-02 
531	 6.77357807577713E-02 
532	 6.83216862103472E-02 
533	 6.89744569187376E-02 
534	 6.94585964744047E-02 
535	 6.99668371784802E-02 
536	 7.05604980598041E-02 
537	 7.11202829249179E-02 
538	 7.17528959340524E-02 
539	 7.23819414598924E-02 
540	 7.29439046948354E-02 
541	 7.35665952999444E-02 
542	 7.41434821862078E-02 
543	 7.46862372101774E-02 
544	 7.52722185706587E-02 
545	 7.58071499851805E-02 
546	 0.076356880756667 
547	 7.69376071272173E-02 
548	 7.74272059863055E-02 
549	 7.79771827437673E-02 
550	 7.85739910933067E-02 
551	 7.91556117181802E-02 
552	 7.97467136951111E-02 
553	 8.03116923162471E-02 
554	 8.08540526102688E-02 
555	 0.08142066517495 
556	 8.20307151251006E-02 
557	 8.26225936013204E-02 
558	 0.083146369440878 
559	 8.36804028249643E-02 
560	 8.41995498385114E-02 
561	 8.46876567843522E-02 
562	 8.51418255649245E-02 
563	 8.56081207283283E-02 
564	 8.60616927710408E-02 
565	 8.64730282765565E-02 
566	 8.68199976555109E-02 
567	 0.087185293196367 
568	 8.75542195554381E-02 
569	 8.78761423274538E-02 
570	 8.81361085213795E-02 
571	 8.83819102716046E-02 
572	 8.86347261224573E-02 
573	 8.88796304211456E-02 
574	 8.89999318530746E-02 
575	 8.90895376869077E-02 
576	 8.92224257745218E-02 
577	 0.089241483414518 
578	 8.92350724094995E-02 
579	 8.92111508869428E-02 
580	 8.91246369690694E-02 
581	 0.088916982563915 
582	 8.87439899061241E-02 
583	 8.86224694703561E-02 
584	 8.82584291514887E-02 
585	 8.79850982243704E-02 
586	 8.77210371026052E-02 
587	 8.72893951438106E-02 
588	 8.69067590271212E-02 
589	 8.65457201191134E-02 
590	 8.61206808397875E-02 
591	 8.54950534647991E-02 
592	 8.50057454757636E-02 
593	 0.084429374445018 
594	 8.35950255958074E-02 
595	 8.28334837068147E-02 
596	 8.18306225389202E-02 
597	 8.06543733192992E-02 
598	 0.079573870966031 
599	 7.84045093863643E-02 
600	 7.73648124120329E-02 
601	 7.65979510683622E-02 
602	 7.60371087197009E-02 
603	 7.56148061686562E-02 
604	 7.53418105696491E-02 
605	 7.52247583625703E-02 
606	 7.50824774439511E-02 
607	 7.49922547684097E-02 
608	 7.49659877041628E-02 
609	 7.49344612152892E-02 
610	 7.48396955571305E-02 
611	 7.47579606522369E-02 
612	 7.47424311122008E-02 
613	 7.46847161461473E-02 
614	 7.46718224495317E-02 
615	 7.46450225097669E-02 
616	 0.074498375534512 
617	 0.074480680845541 
618	 7.44257890130558E-02 
619	 7.42817403640065E-02 
620	 7.42573657977502E-02 
621	 7.41393541558357E-02 
622	 7.40600238932166E-02 
623	 7.41466894069014E-02 
624	 7.39490512696702E-02 
625	 0.073747953048469 
626	 7.36710808288647E-02 
627	 7.36646823947098E-02 
628	 7.35788568067041E-02 
629	 7.34745775615828E-02 
630	 7.34183836987519E-02 
631	 7.33814419874296E-02 
632	 7.32918512977834E-02 
633	 7.31171783315786E-02 
634	 7.28840928581584E-02 
635	 7.28684190307766E-02 
636	 7.28621106137817E-02 
637	 7.27491310709325E-02 
638	 7.26123763257377E-02 
639	 7.24190424982013E-02 
640	 7.22654524624151E-02 
641	 7.22156252119229E-02 
642	 7.20599624616588E-02 
643	 7.18636663142869E-02 
644	 7.16885093196672E-02 
645	 7.15807807646811E-02 
646	 0.071405805594114 
647	 7.11930060851859E-02 
648	 7.09795675801574E-02 
649	 7.07439967816053E-02 
650	 7.04827235711016E-02 
651	 7.01357990022942E-02 
652	 6.96632054144025E-02 
653	 0.069237845753496 
654	 6.86978697713961E-02 
655	 0.067964262179237 
656	 6.72126273931591E-02 
657	 6.66187850081782E-02 
658	 6.60592772213268E-02 
659	 6.54432376089121E-02 
660	 6.50487716732798E-02 
661	 6.46949104947753E-02 
662	 6.43623429180143E-02 
663	 6.41261105448222E-02 
664	 6.38639686497529E-02 
665	 6.36046200846983E-02 
666	 6.33847550427866E-02 
667	 6.32273874665729E-02 
668	 6.30940093415958E-02 
669	 6.29089499419838E-02 
670	 6.26505209423305E-02 
671	 6.26149639562014E-02 
672	 6.25384903025035E-02 
673	 6.23765782760134E-02 
674	 6.23100775225089E-02 
675	 6.23287680628848E-02 
676	 6.23161037563213E-02 
677	 6.22150317617055E-02 
678	 0.062170727575938 
679	 0.062118080056591 
680	 6.21097648384405E-02 
681	 6.22014368909771E-02 
682	 6.21181538615118E-02 
683	 6.19377800325276E-02 
684	 6.17927583588446E-02 
685	 6.18441161778993E-02 
686	 6.17491987204573E-02 
687	 6.15335248839808E-02 
688	 6.13341547093541E-02 
689	 6.11115723101961E-02 
690	 6.07720857728083E-02 
691	 6.03171619173236E-02 
692	 5.97984437238724E-02 
693	 0.059246828158247 
694	 5.86389152467076E-02 
695	 5.79971489016867E-02 
696	 5.73697918499672E-02 
697	 5.65625931829664E-02 
698	 0.055664559427667 
699	 5.48475882244729E-02 
700	 5.39495727704292E-02 
701	 5.29368776141889E-02 
702	 5.18952719025249E-02 
703	 5.09484000912321E-02 
704	 4.98304673362717E-02 
705	 4.86168979170694E-02 
706	 0.047430739306839 
707	 4.63287866647552E-02 
708	 0.045011464829676 
709	 4.35632703378648E-02 
710	 4.21761217173293E-02 
711	 4.07444505586583E-02 
712	 0.039239272867804 
713	 3.76758777391007E-02 
714	 3.60764770053717E-02 
715	 3.46259492556407E-02 
716	 3.31237040636206E-02 
717	 3.14602282679558E-02 
718	 2.98419184191252E-02 
719	 0.028214198872707 
720	 2.68392130767861E-02 
721	 2.56914449259679E-02 
722	 2.44533012455774E-02 
723	 2.31662742614179E-02 
724	 2.19737830140352E-02 
725	 2.07122349066624E-02 
726	 1.94955016915183E-02 
727	 1.82793881799557E-02 
728	 1.70356975353812E-02 
729	 1.57887521280247E-02 
730	 1.46448281335733E-02 
731	 0.013691350090183 
732	 0.012921420589407 
733	 0.012244776244065 
734	 1.16989055825265E-02 
735	 1.12804962006658E-02 
736	 1.09052546618384E-02 
737	 1.06799411800863E-02 
738	 1.05371151100957E-02 
739	 1.03958387109963E-02 
740	 1.02532070539558E-02 
741	 1.01351868107483E-02 
742	 1.00764332014369E-02 
743	 1.00916749837013E-02 
744	 1.00314201623843E-02 
745	 1.00008667464186E-02 
746	 1.00008099942723E-02 
747	 9.8584365424204E-03 
748	 9.83457672112238E-03 
749	 9.84345239489046E-03 
750	 9.78362582010034E-03 
751	 9.81923189997664E-03 
752	 9.78181241382712E-03 
753	 9.70100648219685E-03 
754	 9.70210862222744E-03 
755	 9.7077294328594E-03 
756	 9.73465947570718E-03 
757	 9.77246240675513E-03 
758	 9.75226774933835E-03 
759	 9.80021200208976E-03 
760	 9.89575055320888E-03 
761	 9.89995417043895E-03 
762	 9.98341939015783E-03 
763	 9.78447834609759E-03 
764	 9.62950771961826E-03 
765	 9.82627977624274E-03 
766	 9.75082282969807E-03 
767	 9.76899389594568E-03 
768	 9.87941698702413E-03 
769	 9.72604065847943E-03 
770	 9.72383470843835E-03 
771	 9.8247470473413E-03 
772	 9.90520230057824E-03 
773	 9.90439606800973E-03 
774	 9.91062050491582E-03 
775	 9.99052661773984E-03 
776	 1.01531654937176E-02 
777	 1.01482747670797E-02 
778	 0.010145258139001 
779	 1.02270623486889E-02 
780	 1.03531424000509E-02 
781	 1.04800043914448E-02 
782	 1.05065913902112E-02 
783	 1.04590322368392E-02 
784	 1.06711988106004E-02 
785	 1.08031624795308E-02 
786	 1.09171363238366E-02 
787	 1.11372270841799E-02 
788	 1.11159737008255E-02 
789	 1.12504406682011E-02 
790	 1.15055748967776E-02 
791	 1.15141214453203E-02 
792	 1.15859042136283E-02 
793	 1.17994907535318E-02 
794	 1.20563319012523E-02 
795	 0.0120210402218 
796	 1.22187317182724E-02 
797	 1.24225225022274E-02 
798	 1.23921780644955E-02 
799	 0.012577319298518 
800	 1.27153142089886E-02 
801	 1.28040308689145E-02 
802	 1.29620003539504E-02 
803	 0.013012155380057 
804	 1.30342706517708E-02 
805	 1.30736584890746E-02 
806	 1.31100994039062E-02 
807	 1.31044275450317E-02 
808	 1.31779897359724E-02 
809	 0.013316663125038 
810	 1.30748426977119E-02 
811	 1.28404226878464E-02 
812	 0.012732286567235 
813	 1.27349549443696E-02 
814	 1.26920735466264E-02 
815	 1.24942544968153E-02 
816	 1.22032621551334E-02 
817	 1.19983869693278E-02 
818	 1.17991651744803E-02 
819	 1.16725958141854E-02 
820	 1.15195286224423E-02 
821	 1.10233242121251E-02 
822	 1.06392447658527E-02 
823	 1.03154346553413E-02 
824	 9.93904204930648E-03 
825	 9.57821103052583E-03 
826	 9.15311558087366E-03 
827	 8.73341256798465E-03 
828	 8.42629843573958E-03 
829	 8.02376416897349E-03 
830	 7.7595005758951E-03 
831	 7.58321410543288E-03 
832	 7.2746969723079E-03 
833	 7.19765588600479E-03 
834	 7.19476032063785E-03 
835	 7.14365569216509E-03 
836	 7.05767115556896E-03 
837	 6.83909489153502E-03 
838	 6.72704016484455E-03 
839	 6.83241707291902E-03 
840	 6.75915724385215E-03 
841	 6.68181234478412E-03 
842	 6.67395171072993E-03 
843	 6.72330849517124E-03 
844	 6.5728714160725E-03 
845	 6.54864974346893E-03 
846	 6.69526898148682E-03 
847	 6.81763061088928E-03 
848	 6.62790038158525E-03 
849	 6.41650227594064E-03 
850	 6.37250737152254E-03 
851	 6.4442681915421E-03 
852	 6.37818526898825E-03 
853	 6.30508370658033E-03 
854	 6.31189318360324E-03 
855	 6.19717118706081E-03 
856	 6.26201516186818E-03 
857	 6.22724797990106E-03 
858	 5.91752316465703E-03 
859	 6.11444987238038E-03 
860	 6.19793359191707E-03 
861	 6.10264985342591E-03 
862	 6.06980292938303E-03 
863	 6.27244275153235E-03 
864	 6.25156446855543E-03 
865	 6.02951414763676E-03 
866	 6.05764938875605E-03 
867	 5.9471878492117E-03 
868	 5.81052368400168E-03 
869	 5.76060653645382E-03 
870	 5.8176464082428E-03 
871	 5.8093346189568E-03 
872	 5.9125330308919E-03 
873	 6.10809531822659E-03 
874	 5.75773252678023E-03 
875	 5.75570138211926E-03 
876	 5.81218578948604E-03 
877	 5.56323836620097E-03 
878	 5.80006214043637E-03 
879	 6.02620743142195E-03 
880	 5.87614343771345E-03 
881	 5.32225518964174E-03 
882	 5.60367727058814E-03 
883	 5.83709252349519E-03 
884	 5.68656627685954E-03 
885	 5.38576776071776E-03 
886	 5.36571866704839E-03 
887	 5.46654317091144E-03 
888	 5.58766738256985E-03 
889	 5.76075829089979E-03 
890	 5.59808973238482E-03 
891	 5.43717945598854E-03 
892	 5.4965450794194E-03 
893	 5.52303561069371E-03 
894	 5.54507971135254E-03 
895	 5.54886391947658E-03 
896	 5.5042266702159E-03 
897	 5.33289273213038E-03 
898	 5.49543515569597E-03 
899	 5.63843457322911E-03 
900	 5.39114563401126E-03 
901	 5.34090676939277E-03 
902	 5.46096773228876E-03 
903	 5.43715354295095E-03 
904	 5.0622277449174E-03 
905	 5.1771186154531E-03 
906	 5.49072369187874E-03 
907	 5.57298799164567E-03 
908	 5.08701846408162E-03 
909	 4.94688465493185E-03 
910	 4.92235443086286E-03 
911	 5.22476524504406E-03 
912	 6.28604078919816E-03 
913	 6.11136341473051E-03 
914	 5.61071186148523E-03 
915	 5.27419202688315E-03 
916	 4.72780419569385E-03 
917	 4.82856334971519E-03 
918	 5.05311143171757E-03 
919	 5.04895660868851E-03 
920	 4.9821546465815E-03 
921	 5.05439191083844E-03 
922	 5.04695036193082E-03 
923	 4.90700800728025E-03 
924	 5.0995932499137E-03 
925	 5.34987613908448E-03 
926	 5.45991351668688E-03 
927	 5.1857928935776E-03 
928	 4.04649733805051E-03 
929	 3.61968449146333E-03 
930	 3.79627306665498E-03 
931	 3.82689678337128E-03 
932	 5.85669675836239E-03 
933	 5.88965007561538E-03 
934	 4.46975814607821E-03 
935	 4.01871808838098E-03 
936	 1.07834570291831E-03 
937	 3.48829276195786E-03 
938	 6.88578088969869E-03 
939	 5.60288133808043E-03 
940	 3.45656056851176E-03 
941	 3.90895341263513E-03 
942	 5.34627816995028E-03 
943	 4.44790278433183E-03 
944	 5.04484954816914E-03 
945	 4.18041911889201E-03 
946	 2.66648112236511E-03 
947	 3.23020848192426E-03 
948	 4.26740249023797E-03 
949	 4.5389013300851E-03 
950	 3.78922718267815E-03 
951	 2.8459311099135E-03 
952	 4.79680246462359E-03 
953	 5.91321269183496E-03 
954	 5.13108766182413E-03 
955	 3.82729663996924E-03 
956	 2.9975262167365E-03 
957	 1.26825604692266E-03 
958	 9.82083860703082E-04 
959	 5.29993904913937E-03 
960	 4.89068312302351E-03 
961	 2.52278588923061E-03 
962	 1.44654710439872E-03 
963	 3.25966897744784E-03 
964	 3.84592066868104E-03 
965	 5.01070432989048E-03 
966	 5.98438826021854E-03 
967	 4.47363862604699E-03 
968	 3.91193856518145E-03 
969	 4.90329760089547E-03 
970	 6.04897474029074E-03 
971	 5.03092602333812E-03 
972	 0.004288923567458 
973	 4.2400084384327E-03 
974	 4.64206073530125E-03 
975	 4.78523555765404E-03 
976	 0.003827558037782 
977	 4.3391025174409E-03 
978	 5.34575565781646E-03 
979	 3.50992993120877E-03 
980	 4.25763179195029E-03 
981	 4.90405158735761E-03 
982	 4.3458160132243E-03 
983	 3.65889437540879E-03 
984	 4.28595120134361E-03 
985	 4.70188483334578E-03 
986	 4.71230340226593E-03 
987	 5.16483550740066E-03 
988	 4.48887073158296E-03 
989	 3.44194801400038E-03 
990	 3.37357615661053E-03 
991	 5.07728407827736E-03 
992	 4.52061382430568E-03 
993	 3.64926713335979E-03 
994	 3.88038340915067E-03 
995	 5.20487724091792E-03 
996	 4.32806220760255E-03 
997	 4.45576424524394E-03 
998	 5.28673224825253E-03 
999	 4.60164083903234E-03 
1000	 4.20757940406172E-03 
1001	 3.9049879487888E-03 
1002	 3.78021457807998E-03 
1003	 3.8925347216377E-03 
1004	 3.99108782048268E-03 
1005	 3.92841851812204E-03 
1006	 3.89421774924008E-03 
1007	 4.14477752614075E-03 
1008	 3.84452203619085E-03 
1009	 3.68252362640851E-03 
1010	 3.57264767981478E-03 
1011	 3.10974811383337E-03 
1012	 3.23050657437069E-03 
1013	 3.43504703835087E-03 
1014	 3.56987227694787E-03 
1015	 4.08726731259376E-03 
1016	 4.20853205579883E-03 
1017	 3.96996896069217E-03 
1018	 3.9418007764848E-03 
1019	 3.99518017128532E-03 
1020	 3.89277475570496E-03 
1021	 3.70238831741971E-03 
1022	 3.53319950650837E-03 
1023	 3.33502077711658E-03 
1024	 3.37398587622211E-03 
1025	 3.6608227957213E-03 
1026	 3.81051246892908E-03 
1027	 3.86620834963371E-03 
1028	 3.72611965191163E-03 
1029	 3.77451373939621E-03 
1030	 3.92946690879349E-03 
1031	 3.91782426559013E-03 
1032	 3.9165540481642E-03 
1033	 3.97092298996619E-03 
1034	 3.85661187312483E-03 
1035	 3.86840923519218E-03 
1036	 3.98604457770389E-03 
1037	 4.08889862009146E-03 
1038	 4.32202994384051E-03 
1039	 4.46841842706949E-03 
1040	 3.97971282795776E-03 
1041	 3.94362961343006E-03 
1042	 3.77672476202715E-03 
1043	 3.25264358946395E-03 
1044	 3.1642580689739E-03 
1045	 3.51637389574726E-03 
1046	 3.51168152290967E-03 
1047	 3.41765327776894E-03 
1048	 3.38668137389533E-03 
1049	 3.19027433568907E-03 
1050	 3.23188369964616E-03 
1051	 3.6253819725679E-03 
1052	 3.66166293256515E-03 
1053	 3.55515706820294E-03 
1054	 3.54608765556627E-03 
1055	 3.30124044060239E-03 
1056	 3.19189182046036E-03 
1057	 3.17569004006724E-03 
1058	 3.36249568019868E-03 
1059	 3.44935086642015E-03 
1060	 3.55834999688161E-03 
1061	 3.60321808993622E-03 
1062	 3.6236292705544E-03 
1063	 3.69506637280138E-03 
1064	 3.74690134925542E-03 
1065	 3.79375231226272E-03 
1066	 3.92163234833559E-03 
1067	 3.98047086476591E-03 
1068	 4.06383858205005E-03 
1069	 3.96547940213129E-03 
1070	 3.65045663185628E-03 
1071	 3.50867872972534E-03 
1072	 3.15393041112199E-03 
1073	 3.05822862038367E-03 
1074	 3.19346629520766E-03 
1075	 3.72579223427452E-03 
1076	 3.8789688529644E-03 
1077	 0.004112563762427 
1078	 4.14103209604288E-03 
1079	 3.87767466772015E-03 
1080	 3.77082544270375E-03 
1081	 3.68299738275555E-03 
1082	 3.63794675331995E-03 
1083	 3.4844285566437E-03 
1084	 3.54395960831986E-03 
1085	 3.97989985084441E-03 
1086	 4.02211516735567E-03 
1087	 3.88685387106873E-03 
1088	 3.88902491551253E-03 
1089	 3.75929440692737E-03 
1090	 3.46495398206519E-03 
1091	 3.51061950862502E-03 
1092	 4.09146683194303E-03 
1093	 3.98031093553088E-03 
1094	 3.43657753223395E-03 
1095	 3.35989132225412E-03 
1096	 3.13053899536576E-03 
1097	 3.06749358161712E-03 
1098	 3.62317059486424E-03 
1099	 3.7199940533527E-03 
1100	 3.30045623209682E-03 
1101	 3.32525140818491E-03 
1102	 3.64752888174276E-03 
1103	 3.71784736283626E-03 
1104	 4.15950995223582E-03 
1105	 3.87855252774261E-03 
1106	 3.24953568852793E-03 
1107	 3.18421023156695E-03 
1108	 2.76475515875525E-03 
1109	 3.07771670024041E-03 
1110	 3.36627983328273E-03 
1111	 3.93302849531756E-03 
1112	 3.98957783167077E-03 
1113	 4.31579493601292E-03 
1114	 4.35389022442319E-03 
1115	 3.30734338065875E-03 
1116	 3.38464225626438E-03 
1117	 4.77831181096608E-03 
1118	 4.68457129148765E-03 
1119	 4.02956014773109E-03 
1120	 3.74406749841695E-03 
1121	 1.76435350468911E-03 
1122	 2.22684190653474E-04 
1123	 2.5253018426896E-03 
1124	 4.65988021442929E-03 
1125	 5.45192179909254E-03 
1126	 5.13809813140998E-03 
1127	 2.22143957444663E-03 
1128	 2.06721023527629E-03 
1129	 2.96512324564602E-03 
1130	 6.45594662071045E-03 
1131	 6.06226733604241E-03 
1132	 4.39576908834362E-03 
1133	 3.84809642560822E-03 
1134	 1.62583730240451E-03 
1135	 1.82829742785285E-03 
1136	 5.38116932523319E-03 
1137	 5.61439875519847E-03 
1138	 4.6450278575143E-03 
1139	 3.82312459561116E-03 
1140	 2.98152289460287E-03 
1141	 2.23794842437966E-03 
1142	 4.13979170579792E-03 
1143	 5.6599405577085E-03 
1144	 4.54759548496943E-03 
1145	 3.84681758864466E-03 
1146	 3.94915496189107E-03 
1147	 4.37442481245567E-03 
1148	 5.90984381708693E-03 
1149	 5.76871110538587E-03 
1150	 5.22367039125585E-03 
1151	 2.99116980341635E-03 
1152	 2.75835518315409E-03 
1153	 3.06978822381952E-03 
1154	 3.46167478156568E-03 
1155	 4.85441706791413E-03 
1156	 4.55234888984203E-03 
1157	 3.43587137241102E-03 
1158	 3.24311781658933E-03 
1159	 3.04024341023744E-03 
1160	 2.84079598497433E-03 
1161	 3.31830534936147E-03 
1162	 3.41230981274076E-03 
1163	 2.88988835648267E-03 
1164	 2.99512811399497E-03 
1165	 3.52892811145285E-03 
1166	 3.6799744894901E-03 
1167	 3.63660703065807E-03 
1168	 3.51958245280785E-03 
1169	 3.12978235575666E-03 
1170	 2.91141455320137E-03 
1171	 2.99098213921745E-03 
1172	 3.73903859351691E-03 
1173	 3.85601650063007E-03 
1174	 3.88700243077357E-03 
1175	 3.65763120714781E-03 
1176	 3.13406191131522E-03 
1177	 3.04789240807317E-03 
1178	 3.45035172173484E-03 
1179	 3.56562004979153E-03 
1180	 3.51876461968279E-03 
1181	 3.31203131082536E-03 
1182	 2.92240885885757E-03 
1183	 3.10856741111348E-03 
1184	 3.55799114676835E-03 
1185	 3.55445295838847E-03 
1186	 3.38981610544164E-03 
1187	 3.36045815728921E-03 
1188	 3.32504731136973E-03 
1189	 3.39838907872944E-03 
1190	 3.59681310005872E-03 
1191	 3.42058741171548E-03 
1192	 3.30519686115382E-03 
1193	 3.10254785643072E-03 
1194	 3.30102205842083E-03 
1195	 3.21110497684304E-03 
1196	 2.96394661487775E-03 
1197	 2.98565548786246E-03 
1198	 3.00114106471132E-03 
1199	 3.01663869450194E-03 
1200	 3.13774018905165E-03 
1201	 3.26110723122678E-03 
1202	 3.14105025986542E-03 
1203	 3.00146761955561E-03 
1204	 3.10516094248839E-03 
1205	 3.05095789040757E-03 
1206	 3.05155062362061E-03 
1207	 3.28386998814914E-03 
1208	 3.14427560300202E-03 
1209	 2.83419979669052E-03 
1210	 2.88451045955721E-03 
1211	 2.92887137595157E-03 
1212	 3.02926234045412E-03 
1213	 3.38442686354427E-03 
1214	 3.46808381565614E-03 
1215	 3.29545620855177E-03 
1216	 3.05154581215818E-03 
1217	 3.1681563600707E-03 
1218	 3.04666053178771E-03 
1219	 3.00370238072244E-03 
1220	 3.11321638978267E-03 
1221	 2.9114081752145E-03 
1222	 2.91271295668762E-03 
1223	 3.04395638284854E-03 
1224	 2.9132964990003E-03 
1225	 2.92708961431833E-03 
1226	 3.23547331143717E-03 
1227	 3.39736959807402E-03 
1228	 3.27886962001471E-03 
1229	 3.17593237726769E-03 
1230	 0.003057261269156 
1231	 2.9809034894123E-03 
1232	 3.19096434952191E-03 
1233	 3.31007227510256E-03 
1234	 3.0668247885473E-03 
1235	 2.9961296441206E-03 
1236	 2.94513287484895E-03 
1237	 2.93974446999197E-03 
1238	 2.99989809501406E-03 
1239	 3.06653292039087E-03 
1240	 3.13396953698764E-03 
1241	 2.99542947637056E-03 
1242	 2.83150713607687E-03 
1243	 3.03215151192793E-03 
1244	 3.13520030839408E-03 
1245	 2.92213463515736E-03 
1246	 2.88676064115349E-03 
1247	 2.83342654490058E-03 
1248	 2.78046617390084E-03 
1249	 3.08555030044174E-03 
1250	 3.23932877970312E-03 
1251	 3.18943092872835E-03 
1252	 3.12069977735914E-03 
1253	 2.93472211700692E-03 
1254	 3.05625622441374E-03 
1255	 0.003180010052124 
1256	 3.11229816002623E-03 
1257	 2.92814452992071E-03 
1258	 2.95483338539169E-03 
1259	 2.93558592743294E-03 
1260	 2.81487461268768E-03 
1261	 2.68407193078522E-03 
1262	 2.78301094021832E-03 
1263	 2.92849799156766E-03 
1264	 2.96567425031429E-03 
1265	 2.91139605200797E-03 
1266	 2.96327282876598E-03 
1267	 2.81465791372876E-03 
1268	 2.46250037589178E-03 
1269	 2.67934948586965E-03 
1270	 3.11437780477288E-03 
1271	 2.87470043646953E-03 
1272	 2.68525340328351E-03 
1273	 3.00232829113445E-03 
1274	 3.10335625603541E-03 
1275	 2.95954114554226E-03 
1276	 3.13247646390592E-03 
1277	 3.27978867849668E-03 
1278	 3.06790279061087E-03 
1279	 3.06630395007327E-03 
1280	 3.24437507408725E-03 
1281	 3.23378934299816E-03 
1282	 2.95097280998865E-03 
1283	 2.86422333176143E-03 
1284	 2.91033365878169E-03 
1285	 2.84377019640962E-03 
1286	 2.66724605538764E-03 
1287	 2.69822431322239E-03 
1288	 2.88228218920416E-03 
1289	 2.87718775129489E-03 
1290	 2.91686199493175E-03 
1291	 2.89072084559835E-03 
1292	 2.65107707848041E-03 
1293	 2.32924683598647E-03 
1294	 2.38364610347266E-03 
1295	 2.60164309422092E-03 
1296	 2.67940661615192E-03 
1297	 2.81188690090921E-03 
1298	 2.96680866521138E-03 
1299	 3.11123214515242E-03 
1300	 3.21255955528306E-03 
1301	 3.20750513056072E-03 
1302	 3.0626299716685E-03 
1303	 2.73585210892664E-03 
1304	 2.38852433245356E-03 
1305	 2.39139745445491E-03 
1306	 2.50651828056012E-03 
1307	 2.82017097485309E-03 
1308	 2.84972287365728E-03 
1309	 2.98661877494516E-03 
1310	 3.11269049519494E-03 
1311	 3.01501416583076E-03 
1312	 2.84192637839549E-03 
1313	 2.71892027412257E-03 
1314	 2.72466775883118E-03 
1315	 2.54098086165092E-03 
1316	 2.48289096447365E-03 
1317	 2.7046428380374E-03 
1318	 2.83610160775804E-03 
1319	 3.08886795914484E-03 
1320	 0.002972953843579 
1321	 2.4931309925014E-03 
1322	 2.44318290863992E-03 
1323	 2.89575265464878E-03 
1324	 2.68944089472443E-03 
1325	 2.65555061679544E-03 
1326	 3.22728535633969E-03 
1327	 2.8639500351703E-03 
1328	 2.49872096253841E-03 
1329	 3.16992254287829E-03 
1330	 3.11279114978049E-03 
1331	 2.79716192745897E-03 
1332	 2.96529505483828E-03 
1333	 2.89694773452964E-03 
1334	 2.73850502500134E-03 
1335	 2.69834838674722E-03 
1336	 2.68717236154547E-03 
1337	 2.77124149940097E-03 
1338	 2.96453793241568E-03 
1339	 3.01083234306982E-03 
1340	 3.13813741985039E-03 
1341	 3.14598271120459E-03 
1342	 3.15744313923357E-03 
1343	 2.91545945383491E-03 
1344	 1.97957574977737E-03 
1345	 1.47992106119536E-03 
1346	 6.01961371229457E-04 
1347	 3.05772924288608E-04 
1348	 2.72890428947514E-03 
1349	 2.57478277914023E-03 
1350	-2.64242049435022E-03 
1351	-4.18974200274207E-03 
1352	-1.78023643340553E-03 
1353	-2.83500191765476E-03 
1354	 4.77866595315064E-03 
1355	 9.85633549774386E-03 
1356	-1.18406711075351E-02 
1357	-3.90721933614933E-02 
1358	-1.37337581384636E-02 
1359	-2.39797234839113E-02 
1360	-7.33088196385291E-02 
1361	-8.07099358582671E-02 
1362	-0.105517689125711 
1363	-9.21770891100504E-02 
1364	-9.16510074473813E-02 
1365	-0.121281793816373 
1366	-0.050332687626927 
1367	-7.22322694195285E-02 
1368	-0.183303387098917 
1369	-0.373094907115924 
1370	-0.315465564821899 
1371	-0.222619760596041 
1372	-0.257830339359881 
1373	-0.163838564379449 
1374	-2.28198867123342E-02 
1375	-0.058607414482378 
1376	-7.41799216799752E-02 
1377	 0.236767603735199 
1378	 0.322972282766337 
1379	 5.41891428079095E-03 
1380	-3.87566273562827E-02 
1381	 0.221318828114414 
1382	 0.250029880425523 
1383	 5.54172140483638E-02 
1384	 2.74173112632712E-02 
1385	-4.17061843186688E-02 
1386	-8.68175180086236E-02 
1387	 0.173007893380832 
1388	 0.193107420311849 
1389	-0.186097296074492 
1390	-0.305834825705072 
1391	-0.306610881646075 
1392	-0.260211150562261 
1393	-0.531314919285057 
1394	-0.596291285811482 
1395	-0.148316993790031 
1396	 4.48744047662119E-02 
1397	 0.124905182517965 
1398	 0.464636771527238 
1399	 0.520551427165751 
1400	 0.139441923706531 
1401	-0.123118043741308 
1402	-0.070576931053175 
1403	-0.025142659043462 
1404	-0.113572068296932 
1405	-0.150592466486613 
1406	-8.64224742500231E-02 
1407	-3.13416040969566E-02 
1408	-5.87022866028009E-03 
1409	-5.11634633193722E-02 
1410	-9.68351223693936E-02 
1411	-7.49380586150853E-02 
1412	-7.69328745191609E-02 
1413	-6.03307896470735E-02 
1414	 1.16301073755044E-02 
1415	 2.94620771660498E-02 
1416	 1.11073568633298E-02 
1417	 8.03654642222472E-03 
1418	 1.47456873545294E-02 
1419	 1.23006159915103E-02 
1420	-3.87997407311087E-05 
1421	-1.5160280512458E-03 
1422	 2.94802714099274E-03 
1423	 3.58820168394584E-03 
1424	 2.75072250337542E-03 
1425	 2.20396629965523E-03 
1426	-1.73234520203076E-03 
1427	 2.36904740576727E-04 
1428	 9.92490109596569E-03 
1429	 1.06130699417465E-02 
1430	 7.31167930550808E-03 
1431	 7.71140763921924E-03 
1432	 6.98987884347208E-03 
1433	 5.09556055652022E-03 
1434	 0.00479427534018 
1435	 4.12510560450177E-03 
1436	-1.88336860734749E-03 
1437	-2.18901464377772E-03 
1438	 3.45448562808001E-03 
1439	 3.4971993515285E-03 
1440	 2.08839564527069E-03 
1441	 1.7682220788872E-03 
1442	-9.16754321224091E-04 
1443	 1.14971130060844E-03 
1444	 2.94803503211501E-03 
1445	 2.25119745880494E-04 
1446	 6.76063779134314E-04 
1447	 3.5228943075975E-03 
1448	 2.23835213987744E-03 
1449	-6.72554242584718E-05 
1450	 1.53587266789469E-03 
1451	 3.12416129393587E-03 
1452	 3.12868341317077E-03 
1453	 3.77206460959022E-03 
1454	 4.35809819424893E-03 
1455	 3.10872893715351E-03 
1456	 2.46238170333088E-03 
1457	 3.19307946536268E-03 
1458	 3.36877693117044E-03 
1459	 2.34689425388243E-03 
1460	 2.04066294041222E-03 
1461	 2.34225145095028E-03 
1462	 2.86122439763449E-03 
1463	 3.84988055444734E-03 
1464	 3.41556617287699E-03 
1465	 2.54866673632291E-03 
1466	 2.59958363305717E-03 
1467	 1.73516008511072E-03 
1468	 8.59085157303106E-04 
1469	 8.78260591477507E-04 
1470	 1.43361949514507E-03 
1471	 2.03615798220938E-03 
1472	 1.67802846783479E-03 
1473	 8.79635418432591E-04 
1474	 2.14639903988871E-03 
1475	 4.64464358550624E-03 
1476	 3.93501046803422E-03 
1477	 2.39585967500423E-03 
1478	 3.12420294787645E-03 
1479	 3.42015860616291E-03 
1480	 2.48672862002208E-03 
1481	 2.51321011704175E-03 
1482	 3.02818878698687E-03 
1483	 2.12243095841679E-03 
1484	 1.47879745006868E-03 
1485	 2.31785402871644E-03 
1486	 2.79491603747632E-03 
1487	 2.23953552666881E-03 
1488	 1.97022797227342E-03 
1489	 2.4741218228134E-03 
1490	 2.63720967363775E-03 
1491	 2.44422552515375E-03 
1492	 2.07428231922113E-03 
1493	 1.22427062647818E-03 
1494	 1.45074585426423E-03 
1495	 2.47601397641722E-03 
1496	 2.40610915024174E-03 
1497	 2.22806894293016E-03 
1498	 2.4016624808204E-03 
1499	 1.97080757578448E-03 
1500	 1.7768473475901E-03 
1501	 2.25213349984811E-03 
1502	 2.44175557304248E-03 
1503	 0.002253850519342 
1504	 2.19934386982297E-03 
1505	 2.36683533034434E-03 
1506	 2.46268378539681E-03 
1507	 2.32686997613688E-03 
1508	 2.10344261286291E-03 
1509	 1.99171575223205E-03 
1510	 2.18564251475062E-03 
1511	 2.49045245410136E-03 
1512	 2.47149961622825E-03 
1513	 2.29808818535356E-03 
1514	 2.28118204609955E-03 
1515	 2.16153093108879E-03 
1516	 1.98731521915784E-03 
1517	 2.21303911912055E-03 
1518	 2.29659898130751E-03 
1519	 2.11160168799486E-03 
1520	 2.26156691129389E-03 
1521	 2.2804642486202E-03 
1522	 2.08382353985297E-03 
1523	 2.27555378762835E-03 
1524	 2.46673895325133E-03 
1525	 2.34191883494781E-03 
1526	 2.31068198349248E-03 
1527	 2.31275650383092E-03 
1528	 2.20485012861095E-03 
1529	 2.0889552866215E-03 
1530	 2.20067923494824E-03 
1531	 2.49174651915591E-03 
1532	 2.46981250529565E-03 
1533	 2.29084264015468E-03 
1534	 2.14536371561369E-03 
1535	 2.01606973864849E-03 
1536	 2.08731317730719E-03 
1537	 2.13405486383262E-03 
1538	 2.04883741978604E-03 
1539	 2.08385109153403E-03 
1540	 2.0665339434618E-03 
1541	 1.92212964535175E-03 
1542	 2.12446819183784E-03 
1543	 2.37336317564419E-03 
1544	 2.15158362957705E-03 
1545	 2.00445432797721E-03 
1546	 2.10040437413953E-03 
1547	 2.12207047417201E-03 
1548	 2.08381916742703E-03 
1549	 2.16881784142825E-03 
1550	 2.28610587877771E-03 
1551	 2.1076116463374E-03 
1552	 2.15715227516686E-03 
1553	 2.4790733938562E-03 
1554	 2.43975929199804E-03 
1555	 2.31124252096317E-03 
1556	 2.26852058193504E-03 
1557	 2.14737636755848E-03 
1558	 2.14804468581681E-03 
1559	 2.28162277196147E-03 
1560	 2.2042698773171E-03 
1561	 1.93738376248333E-03 
1562	 1.83642602977056E-03 
1563	 2.01689894785886E-03 
1564	 2.04477183566043E-03 
1565	 1.98818535226924E-03 
1566	 2.20752018990309E-03 
1567	 2.18253484588839E-03 
1568	 2.06597239540317E-03 
1569	 2.15573886140272E-03 
1570	 2.04176917319137E-03 
1571	 1.99499739004748E-03 
1572	 2.15687464923925E-03 
1573	 2.24030763585579E-03 
1574	 2.28030740374588E-03 
1575	 2.13207689625996E-03 
1576	 2.02267209832645E-03 
1577	 2.2613875137296E-03 
1578	 2.30396308137213E-03 
1579	 2.14661452950674E-03 
1580	 2.26104308705665E-03 
1581	 2.42661398655922E-03 
1582	 2.35552350846322E-03 
1583	 2.25790358199033E-03 
1584	 2.31411877795464E-03 
1585	 2.3373652778981E-03 
1586	 2.32029836064017E-03 
1587	 2.37414552210702E-03 
1588	 2.33969929378346E-03 
1589	 2.19484750858284E-03 
1590	 2.24587089259875E-03 
1591	 2.46449349676199E-03 
1592	 2.43840337224552E-03 
1593	 2.16245772501024E-03 
1594	 1.98927173861336E-03 
1595	 2.06414456263069E-03 
1596	 2.10935060439191E-03 
1597	 2.20024900946722E-03 
1598	 2.33100617767883E-03 
1599	 2.09785878431691E-03 
1600	 1.9871645266668E-03 
1601	 2.19087020962515E-03 
1602	 2.17253741376377E-03 
1603	 2.10248970979229E-03 
1604	 2.30476685361821E-03 
1605	 2.48450378223762E-03 
1606	 2.41700392503794E-03 
1607	 2.31856605486721E-03 
1608	 2.31427211912902E-03 
1609	 2.20578478913682E-03 
1610	 2.10498162813181E-03 
1611	 2.12684335028816E-03 
1612	 2.11317156622367E-03 
1613	 2.32396093970181E-03 
1614	 2.36035293363012E-03 
1615	 2.06139102051044E-03 
1616	 2.1528271948313E-03 
1617	 2.29731869695349E-03 
1618	 2.06837941857591E-03 
1619	 1.94804626828679E-03 
1620	 2.14691781056641E-03 
1621	 2.16725483687679E-03 
1622	 2.14575455313864E-03 
1623	 2.46187611553326E-03 
1624	 2.43231562240346E-03 
1625	 2.00525004497231E-03 
1626	 1.93845688419847E-03 
1627	 1.99836926929471E-03 
1628	 1.94253704419707E-03 
1629	 2.08894406332279E-03 
1630	 2.05190875567569E-03 
1631	 1.75660417462555E-03 
1632	 1.67364511866411E-03 
1633	 1.74460965306873E-03 
1634	 1.9661484781814E-03 
1635	 2.38183972815222E-03 
1636	 2.58209305089858E-03 
1637	 2.39949223951634E-03 
1638	 2.14962952874358E-03 
1639	 1.93129800003739E-03 
1640	 2.02164481259938E-03 
1641	 2.36534179792201E-03 
1642	 2.32296196881489E-03 
1643	 2.17000300284133E-03 
1644	 2.13324465723225E-03 
1645	 1.93389864762635E-03 
1646	 1.91801050458815E-03 
1647	 2.15152101526564E-03 
1648	 2.09657653985266E-03 
1649	 1.82287238651626E-03 
1650	 1.87442804983583E-03 
1651	 1.99208166727457E-03 
1652	 2.05666723061785E-03 
1653	 2.65342725379879E-03 
1654	 2.6349196219382E-03 
1655	 2.08183200740462E-03 
1656	 2.10108769248682E-03 
1657	 2.13466117343841E-03 
1658	 2.01095621391392E-03 
1659	 2.16560992445518E-03 
1660	 2.21460667785911E-03 
1661	 2.05754751650714E-03 
1662	 1.98451272129438E-03 
1663	 1.90016236545147E-03 
1664	 1.92198215034955E-03 
1665	 1.95022096873502E-03 
1666	 2.15657435634457E-03 
1667	 2.78634520866736E-03 
1668	 2.68533692078078E-03 
1669	 2.37403217724957E-03 
1670	 1.94489803459551E-03 
1671	 1.87135156100558E-03 
1672	 2.30048634161504E-03 
1673	 2.44968037954791E-03 
1674	 2.08827988967587E-03 
1675	 1.80477355641011E-03 
1676	 1.76323185345974E-03 
1677	 0.00190662522051 
1678	 2.2631111134967E-03 
1679	 2.45023395959454E-03 
1680	 2.16263977715162E-03 
1681	 2.03377349970469E-03 
1682	 2.28042519427923E-03 
1683	 2.34797041051943E-03 
1684	 2.22367642293969E-03 
1685	 2.15200892884379E-03 
1686	 1.8970528319407E-03 
1687	 1.74427340416586E-03 
1688	 2.19796301859279E-03 
1689	 2.26243263803573E-03 
1690	 1.89484072525894E-03 
1691	 2.21966293978582E-03 
1692	 2.44550443639263E-03 
1693	 2.11092536495333E-03 
1694	 2.11111945615662E-03 
1695	 2.13991761633666E-03 
1696	 1.79392712994687E-03 
1697	 1.84075344952845E-03 
1698	 2.31613043801999E-03 
1699	 2.40375367590386E-03 
1700	 2.38405304648462E-03 
1701	 2.42335727962168E-03 
1702	 2.24880735737999E-03 
1703	 1.86723745808878E-03 
1704	 1.45384728246972E-03 
1705	 1.58855147076613E-03 
1706	 1.76271263609493E-03 
1707	 1.89637061552294E-03 
1708	 2.24677071234201E-03 
1709	 2.09182942801714E-03 
1710	 1.84668564667957E-03 
1711	 1.90775938744445E-03 
1712	 1.81217392501928E-03 
1713	 1.88185457915867E-03 
1714	 1.99526039913593E-03 
1715	 1.95544563705133E-03 
1716	 2.00718590011284E-03 
1717	 2.10812300433708E-03 
1718	 1.9659204696341E-03 
1719	 1.71333447764009E-03 
1720	 1.81192029931724E-03 
1721	 1.99647609078732E-03 
1722	 1.87782261054777E-03 
1723	 1.92992444054776E-03 
1724	 2.0055352704007E-03 
1725	 1.78840831411804E-03 
1726	 2.12821550516761E-03 
1727	 2.41667127335958E-03 
1728	 2.06281188805634E-03 
1729	 2.05495131712277E-03 
1730	 2.21456882108929E-03 
1731	 1.97094955587008E-03 
1732	 1.67979095604513E-03 
1733	 1.87766645210507E-03 
1734	 2.2274198782986E-03 
1735	 2.11259059615137E-03 
1736	 2.13015116310843E-03 
1737	 2.55699220371109E-03 
1738	 2.28745291855748E-03 
1739	 1.56916513135422E-03 
1740	 1.71875744030564E-03 
1741	 1.97296773933194E-03 
1742	 1.9531132550453E-03 
1743	 2.58800113025638E-03 
1744	 2.90375634424961E-03 
1745	 2.18584447312079E-03 
1746	 1.51789223176225E-03 
1747	 1.47020949364357E-03 
1748	 2.08905547275658E-03 
1749	 2.14873127022217E-03 
1750	 1.97781362155532E-03 
1751	 1.99176931780241E-03 
1752	 1.86607695560604E-03 
1753	 1.97748840784074E-03 
1754	 2.53582028455475E-03 
1755	 2.70640295374935E-03 
1756	 2.60636379110051E-03 
1757	 2.60654401676188E-03 
1758	 2.50238844133213E-03 
1759	 2.07957403029284E-03 
1760	 1.86718626295949E-03 
1761	 1.89559470480374E-03 
1762	 1.70048882469288E-03 
1763	 1.7503118954056E-03 
1764	 1.85520769990438E-03 
1765	 1.80048342369394E-03 
1766	 1.87566558308453E-03 
1767	 1.66746918448726E-03 
1768	 1.56191829962013E-03 
1769	 1.60192389698456E-03 
1770	 1.62033090274793E-03 
1771	 2.10085183300123E-03 
1772	 2.00099614320609E-03 
1773	 1.18346485268856E-03 
1774	 1.02810753236385E-03 
1775	 1.98684587376405E-03 
1776	 1.94629074705464E-03 
1777	 1.48871228128589E-03 
1778	 1.68690263190209E-03 
1779	 1.27261421267529E-03 
1780	 1.51752275451946E-03 
1781	 4.01082981746933E-03 
1782	 4.04724660153657E-03 
1783	 1.39547490352945E-03 
1784	 1.28988083990473E-03 
1785	 1.78131302832613E-03 
1786	 1.91948838621261E-03 
1787	 4.05708733967841E-03 
1788	 4.30680754355246E-03 
1789	 2.32528228531652E-03 
1790	 1.32483438732123E-03 
1791	 7.9203526300761E-04 
1792	 1.1234704177595E-03 
1793	 1.04557865493541E-03 
1794	 1.77287868162016E-03 
1795	 4.10274703643118E-03 
1796	 6.15984154690592E-03 
1797	 6.27924077697074E-03 
1798	 5.30591547543297E-03 
1799	 4.31324390023098E-03 
1800	-1.02881465519851E-03 
1801	-3.59806042916677E-03 
1802	-3.06961704808665E-03 
1803	-3.03375242473746E-03 
1804	-3.54858755300327E-04 
1805	 6.48589951358801E-03 
1806	 2.52456842370906E-02 
1807	 2.85872227246594E-02 
1808	 2.24108488016679E-02 
1809	 1.56647709157202E-02 
1810	-3.59277020923917E-02 
1811	-5.53946114255561E-02 
1812	-4.33355066182103E-02 
1813	-2.84702769995232E-02 
1814	 3.75926088680953E-02 
1815	 0.126508543002963 
1816	 0.300360203967771 
1817	 0.314370536898852 
1818	 0.162929983936937 
1819	-8.99609653403273E-02 
1820	-0.403346556487728 
1821	-0.60426548617072 
1822	-0.712143431844298 
1823	 0.234622595231174 
1824	 0.42153491206867 
1825	 0.273330969824694 
1826	 0.18796547311516 
1827	-0.308242195249659 
1828	-0.43323290755983 
1829	-0.32061680250766 
1830	-0.257656084897625 
1831	 0.14333571257012 
1832	 0.259105659963388 
1833	 0.266999234241323 
1834	 0.25752682310195 
1835	 0.454580969270456 
1836	 0.420174290904678 
1837	 0.219790323718843 
1838	-8.44094501371715E-02 
1839	-0.452148522539405 
1840	-0.658435813770379 
1841	-0.608882595437571 
1842	-0.893365898881349 
1843	-0.638123961956514 
1844	-8.51252084781937 
1845	-4.40950576691495 
1846	 0.311534728751916 
1847	 2.41702284221894E-02 
1848	-0.325356593052844 
1849	-0.779214237788097 
1850	-2.26547879955852 
1851	 0.303810227340637 
1852	 1.30509339177977 
1853	 0.925101529292112 
1854	 0.697962322231714 
1855	 0.631346320964608 
1856	 0.511708022946157 
1857	-3.71396223091989 
1858	 7.92730544774692 
1859	 0.636763768521883 
1860	 1.04098201088566 
1861	 1.9306515376072 
1862	 1.82191657807532 
1863	 2.75197225926074 
1864	 1.32701607859403 
1865	 1.38653280669214 
1866	 1.2576306622758 
1867	 0.947335965061565 
1868	 0.484271424030242 
1869	 0.301984834213162 
1870	-0.300554833416926 
1871	-1.37002745522852 
1872	-1.8610789198472 
1873	 0.92396686852917 
1874	 6.25859898442629 
1875	 4.65589311179207 
1876	 4.20583897589872 
1877	 0.992823574612133 
1878	 0.169587029224055 
1879	-1.8124042528163 
1880	-3.14733358084616 
1881	-0.849974368195485 
1882	 0.246788785110101 
1883	-2.30568906941351 
1884	 7.58214039089486 
1885	 2.47026540646646 
1886	-17.4370998424861 
1887	 5.58836442834881 
1888	 2.05626572347803 
1889	 1.93574734247779 
1890	 1.28507721391908 
1891	 0.724299682040846 
1892	 1.02505454757314 
1893	 1.96522631799068 
1894	 0.891350024834888 
1895	 0.316185437132882 
1896	 0.291813660057468 
1897	 0.444330814450221 
1898	 0.744195483274967 
1899	 1.17201765648051 
1900	 1.61462383039273 
1901	 2.1403067201044 
1902	 6.25502556733744 
1903	 3.26417833581798 
1904	 1.89123982846882 
1905	 5.06207099972173 
1906	 5.38579660484363 
1907	-2.06343781029006 
1908	-6.92898333907011 
1909	-1.10777273859116 
1910	 2.47695613513127E-02 
1911	 2.70352187101813 
1912	 1.11554948220969 
1913	 4.40066200923955E-02 
1914	-0.693430903467943 
1915	-0.91538948781253 
1916	-1.05887777199668 
1917	-0.682411873527607 
1918	-0.43274733734792 
1919	-1.11586557381033 
1920	 2.67544573446989 
1921	 0.30188656460232 
1922	 0.337933104788787 
1923	-3.15176741402205 
1924	-3.43852128671607 
1925	 2.23220385587844 
1926	 1.61046082554561 
1927	-3.53991743047637E-02 
1928	 0.548389238446867 
1929	 0.812494733042561 
1930	 0.697208749620112 
1931	 0.577765629638581 
1932	 0.245177865577668 
1933	-3.84391613399815E-02 
1934	-0.106026953312864 
1935	-1.18760327102542E-02 
1936	 5.74433919891443E-02 
1937	 0.101134528984667 
1938	 0.123614078752432 
1939	 0.118287604765092 
1940	 9.66904785266192E-02 
1941	 8.27156401890507E-02 
1942	 7.38413499042943E-02 
1943	 3.86547471752971E-02 
1944	 1.12105649208228E-02 
1945	-1.44547058717866E-02 
1946	-2.69404364305461E-02 
1947	-1.41531023136178E-02 
1948	-1.09550915182116E-02 
1949	-1.06904594657407E-04 
1950	 2.28187384505285E-02 
1951	 1.52575281869108E-02 
1952	 4.51554466397848E-03 
1953	-1.41335015177923E-02 
1954	-1.30214669059663E-02 
1955	-1.44689184148363E-02 
1956	-1.88555971406227E-02 
1957	-1.09833905241765E-02 
1958	 3.75507271095992E-03 
1959	 3.76415800756936E-03 
1960	 5.41279555429779E-04 
1961	 8.98800573370129E-03 
1962	 8.39770422656858E-03 
1963	 6.49690178979403E-04 
1964	-3.67213914915004E-04 
1965	 1.39247305512616E-03 
1966	 1.53497536460236E-03 
1967	 4.25463844253116E-04 
1968	 2.01647433365216E-03 
1969	 4.5446909079525E-03 
1970	 3.49452897497558E-03 
1971	 3.49392710963235E-03 
1972	 3.9564903975798E-03 
1973	 3.43212560998431E-03 
1974	 3.76269681676943E-03 
1975	 3.52815945576939E-03 
1976	 3.68044342894474E-03 
1977	 3.9443921757819E-03 
1978	 3.90858002285484E-03 
1979	 3.44035343009454E-03 
1980	 2.67519629714613E-03 
1981	 1.63335563809318E-03 
1982	 1.31185584207073E-03 
1983	 1.63211874792332E-03 
1984	 2.54878561612515E-03 
1985	 3.76164639870392E-03 
1986	 4.36849676396346E-03 
1987	 3.34526363260643E-03 
1988	 1.41764385104464E-03 
1989	 2.64892956233865E-04 
1990	 2.35770659536593E-04 
1991	 7.78874908213861E-04 
1992	 1.3110193401409E-03 
1993	 1.99650727794194E-03 
1994	 2.71817112602471E-03 
1995	 2.92297099324847E-03 
1996	 3.12384921816921E-03 
1997	 4.26369596905258E-03 
1998	 4.96201456219666E-03 
1999	 3.59426004829322E-03 
2000	 2.50000239689076E-03 
2001	 3.71399108900506E-03 
2002	 4.87145546690665E-03 
2003	 6.29337914128021E-03 
2004	 6.66748917434604E-03 
2005	 6.86117959008228E-03 
2006	 6.84293438073368E-03 
2007	 5.22256086481615E-03 
2008	 6.52201095853547E-03 
2009	 5.63035675385972E-03 
2010	-2.93378612180566E-05 
2011	-5.40795401366512E-04 
2012	 2.66613264066875E-03 
2013	 1.61544955829353E-03 
2014	 1.05074975983776E-03 
2015	 1.27292427975278E-03 
2016	-1.59304108176498E-03 
2017	-1.85470725973893E-03 
2018	 1.87045152216762E-04 
2019	 2.09869646743908E-03 
2020	 2.24186693488873E-03 
2021	 2.02661057359701E-03 
2022	 2.47087497390135E-03 
2023	 2.51706280425875E-03 
2024	 2.35297887736276E-03 
2025	 2.68030183635683E-03 
2026	 2.62788694109576E-03 
2027	 2.29962892790503E-03 
2028	 1.15590982344983E-03 
2029	 8.57632909411993E-04 
2030	 0.001318507071735 
2031	 7.12215251603504E-04 
2032	 7.3890744330397E-04 
2033	 1.69639963932794E-03 
2034	 2.04438292905863E-03 
2035	 2.49664661499744E-03 
2036	 2.8099382774378E-03 
2037	 1.92230425965691E-03 
2038	 7.34121974328274E-04 
2039	 4.02194137981022E-04 
2040	 4.99943160813731E-04 
2041	 7.10216978616165E-04 
2042	 1.79658336924872E-03 
2043	 2.02791312478789E-03 
2044	 1.86396641186198E-03 
2045	 1.4449396413364E-03 
2046	 1.60685752073612E-03 
2047	 2.6165013322398E-03 
2048	 2.88504998712304E-03 
2049	 2.55781831132084E-03 
2050	 1.86468630119416E-03 
2051	 4.82521294900462E-04 
2052	 5.07762411728294E-04 
2053	 1.2445170832532E-03 
2054	 1.48100443538054E-03 
2055	 2.03972786235807E-03 
2056	 2.46318528042189E-03 
2057	 2.77871214133179E-03 
2058	 3.00649015129717E-03 
2059	 3.11327311151574E-03 
2060	 3.05559823755678E-03 
2061	 2.63652501696582E-03 
2062	 2.76250585808604E-03 
2063	 2.72281026787583E-03 
2064	 3.85752312616352E-03 
2065	 4.53201811905431E-03 
2066	 4.13651694910009E-03 
2067	 4.20510827245645E-03 
2068	 3.76997236354227E-03 
2069	 2.82915407622262E-03 
2070	 2.55116297687552E-03 
2071	 2.52118150215975E-03 
2072	 2.45475605830517E-03 
2073	 2.63167943388062E-03 
2074	 3.6481273797548E-03 
2075	 3.65032994810241E-03 
2076	 3.38656217811564E-03 
2077	 3.06263138683092E-03 
2078	 1.96226596279984E-03 
2079	 1.63660614360742E-03 
2080	 1.74043404236786E-03 
2081	 1.41023136186011E-03 
2082	 1.48552405503797E-03 
2083	 2.05090885129591E-03 
2084	 1.93811494510692E-03 
2085	 1.43740034608552E-03 
2086	 1.14406612766224E-03 
2087	 1.43430665315423E-03 
2088	 1.83765210684342E-03 
2089	 2.06685351508558E-03 
2090	 1.99987748684288E-03 
2091	 1.17272515100468E-03 
2092	 8.37985428119759E-04 
2093	 2.73327095944298E-04 
2094	 4.67717423625399E-04 
2095	 1.69653141728814E-03 
2096	 1.97480303613814E-03 
2097	 1.84994631854545E-03 
2098	 2.20636545765623E-03 
2099	 0.002787459552341 
2100	 2.20918879742673E-03 
2101	 2.00852018675577E-03 
2102	 2.88588527866644E-03 
2103	 2.5043261416704E-03 
2104	 2.01821588726696E-03 
2105	 2.06984483641387E-03 
2106	 1.72563643247136E-03 
2107	 1.77522954212984E-03 
2108	 2.40471578720653E-03 
2109	 2.72822008010552E-03 
2110	 2.54677623945924E-03 
2111	 1.82740292167496E-03 
2112	 8.19939191811852E-04 
2113	 4.93095944167311E-04 
2114	 5.07097873793688E-04 
2115	 7.69993326088746E-04 
2116	 1.97924796699975E-03 
2117	 2.21304666465523E-03 
2118	 1.93950808007529E-03 
2119	 2.14386184283648E-03 
2120	 2.03338932141392E-03 
2121	 2.12411333454506E-03 
2122	 3.26949409321724E-03 
2123	 4.15692572075138E-03 
2124	 3.6909677623303E-03 
2125	 3.4231524883132E-03 
2126	 3.60005594168019E-03 
2127	 3.67985420798452E-03 
2128	 3.60282196464735E-03 
2129	 3.48513446825444E-03 
2130	 3.10722236896875E-03 
2131	 2.55428925103441E-03 
2132	 2.61245593679539E-03 
2133	 2.64693209533705E-03 
2134	 2.7062179661356E-03 
2135	 2.54282741060053E-03 
2136	 2.21933263355564E-03 
2137	 1.98123489418009E-03 
2138	 2.1454358268566E-03 
2139	 2.37591876770885E-03 
2140	 2.05458140847354E-03 
2141	 1.63977638661204E-03 
2142	 1.47550744026586E-03 
2143	 7.83456181416674E-04 
2144	 4.36849023388993E-04 
2145	 1.19785119562678E-03 
2146	 2.00276222199601E-03 
2147	 1.57954170445361E-03 
2148	 1.03763388538137E-03 
2149	 6.25823010768947E-04 
2150	 5.84548770821373E-04 
2151	 1.00924183019751E-03 
2152	 2.03968106405404E-03 
2153	 2.36078613140916E-03 
2154	 1.2638727312407E-03 
2155	 8.58655767493077E-04 
2156	 1.02940223547251E-03 
2157	 1.33342619876436E-03 
2158	 2.7721137312763E-03 
2159	 3.03560871420212E-03 
2160	 2.67254556165638E-03 
2161	 2.49890572766219E-03 
2162	 1.94787190279526E-03 
2163	 1.56093023069512E-03 
2164	 1.04209049806725E-03 
2165	 1.04589698807342E-03 
2166	 1.25418616978699E-03 
2167	 1.46796218890474E-03 
2168	 2.87166938083843E-03 
2169	 3.01731443163188E-03 
2170	 2.18255329891605E-03 
2171	 1.33196077468029E-03 
2172	 1.49270103593391E-03 
2173	 1.35935812863902E-03 
2174	 1.36946536272792E-03 
2175	 1.56106601732208E-03 
2176	 1.80503987182038E-03 
2177	 2.29531244372912E-03 
2178	 2.62404714005113E-03 
2179	 3.46331398417836E-03 
2180	 3.09756395993257E-03 
2181	 1.74402126869376E-03 
2182	 1.65790175968675E-03 
2183	 1.91292870399719E-03 
2184	 3.04485367618884E-03 
2185	 4.35892141934739E-03 
2186	 4.49141739270313E-03 
2187	 3.62834239982534E-03 
2188	 3.6152004631418E-03 
2189	 3.46595468478739E-03 
2190	 2.70815105800219E-03 
2191	 1.97232807940157E-03 
2192	 1.74594918948451E-03 
2193	 3.26674290046026E-04 
2194	 1.01286523191427E-04 
2195	 1.86447954762316E-03 
2196	 2.42894304525063E-03 
2197	 2.24848967249769E-03 
2198	 3.09385523338395E-03 
2199	 4.94652211580415E-03 
2200	 5.31801421598105E-03 
2201	 4.77765889943763E-03 
2202	 4.45702233734807E-03 
2203	 3.80901692013737E-03 
2204	 3.41042417520235E-03 
2205	 4.40992981785628E-03 
2206	 6.02296346242463E-03 
2207	 4.03798134876987E-03 
2208	 1.94936554292129E-03 
2209	 2.10522037741525E-03 
2210	 7.30779037416742E-04 
2211	 5.82988189841382E-04 
2212	 1.67419117300314E-03 
2213	 1.92240357809059E-03 
2214	 2.79534659150012E-03 
2215	 4.23272323336986E-03 
2216	 4.77534510455685E-03 
2217	 4.68324879135939E-03 
2218	 3.41863403787339E-03 
2219	 2.88492145877292E-03 
2220	 1.80590942272884E-03 
2221	 1.92236305080633E-03 
2222	 2.61775498710473E-03 
2223	 3.04003011721991E-03 
2224	 4.90172982410611E-03 
2225	 4.91544396979393E-03 
2226	 3.53439270045113E-03 
2227	 3.43654958857597E-03 
2228	 2.86246907642852E-03 
2229	 1.97620067777986E-03 
2230	 1.37308522353604E-03 
2231	 1.0475999983189E-03 
2232	 6.61248570794944E-04 
2233	 1.05790711649399E-03 
2234	 2.95902498255533E-03 
2235	 3.19926218115499E-03 
2236	 2.87445077330172E-03 
2237	 9.05409456220358E-04 
2238	-1.86137674726695E-03 
2239	-3.10267829257767E-03 
2240	-8.29312122317743E-04 
2241	 9.49976245166915E-04 
2242	 2.05939185576441E-03 
2243	 5.36242131689451E-03 
2244	 4.97458615210397E-03 
2245	 2.85180130073895E-03 
2246	 2.19042601944405E-03 
2247	 3.31975252685602E-04 
2248	 5.91398378832844E-04 
2249	 2.13991286091605E-03 
2250	 2.38528276004068E-03 
2251	 3.73058189491355E-03 
2252	 4.92786721754399E-03 
2253	 3.37214659985269E-03 
2254	 1.60312988512598E-03 
2255	 1.74890509660595E-04 
2256	-1.19336846158159E-03 
2257	-9.64978665063527E-04 
2258	 1.3361744502972E-04 
2259	 1.3212185094925E-03 
2260	 2.00614778256518E-03 
2261	 2.45816333178249E-03 
2262	 2.74486827524857E-03 
2263	 2.26664577832576E-03 
2264	 2.46297401623577E-03 
2265	 2.10279447265733E-03 
2266	 2.76949611995649E-03 
2267	 6.39812817768328E-03 
2268	 6.74808898189455E-03 
2269	 4.80637512678671E-03 
2270	 4.46892173938301E-03 
2271	 2.77746230527748E-03 
2272	 1.39941253701541E-03 
2273	 1.55669464494056E-03 
2274	 2.39245626120068E-03 
2275	 2.85890203811805E-03 
2276	 2.60453415781446E-03 
2277	 3.97321164667885E-03 
2278	 4.47310476274011E-03 
2279	 2.21694517187759E-03 
2280	 1.96346922652105E-03 
2281	 3.76614218143669E-03 
2282	 4.02968455379617E-03 
2283	 9.50807427560937E-04 
2284	 6.31430689507153E-04 
2285	 3.6128160411249E-03 
2286	 4.34983934582013E-03 
2287	 6.14944297241309E-03 
2288	 8.35199474447719E-03 
2289	 8.1154040271888E-03 
2290	 5.5543803857553E-03 
2291	 1.30923816488187E-03 
2292	 4.54566309261211E-03 
2293	 9.36082921028224E-03 
2294	 9.31445025943985E-03 
2295	 1.32106540951333E-02 
2296	 1.45140129421574E-02 
2297	 5.87734586809917E-03 
2298	 1.67824160861613E-04 
2299	 2.34195497099908E-03 
2300	 3.22419815975067E-03 
2301	 3.95018951012676E-03 
2302	 5.71733985447568E-03 
2303	 5.14972923397785E-03 
2304	 3.42870231348922E-03 
2305	 1.31772602632364E-03 
2306	 3.3070106023341E-03 
2307	 7.19097925034713E-03 
2308	 6.25657335407077E-03 
2309	 7.25388849888408E-03 
2310	 0.010168931480709 
2311	 5.81191915993556E-03 
2312	 4.38505600880152E-04 
2313	 2.6690009031275E-03 
2314	 4.77758557331325E-03 
2315	 5.2747389828925E-03 
2316	 7.70467952411642E-03 
2317	 4.52146868424885E-03 
2318	-2.59842606034024E-04 
2319	-1.67856314206908E-03 
2320	-2.04418462335724E-03 
2321	-1.81672038364813E-03 
2322	-4.31883955870419E-03 
2323	-6.4219168288221E-03 
2324	-4.82198211189732E-03 
2325	 8.54754446548273E-04 
2326	 5.78955745469088E-03 
2327	 8.32632928584673E-03 
2328	 9.86939523569721E-03 
2329	 5.41941169951935E-03 
2330	 2.98897085390781E-03 
2331	 6.97703076759822E-04 
2332	-2.81887150762709E-03 
2333	-1.13769004980089E-04 
2334	 2.23665504625222E-03 
2335	 5.97935840904913E-03 
2336	 8.97423692133689E-03 
2337	 6.74591029232442E-03 
2338	 7.53163591415639E-03 
2339	 1.34836340322872E-02 
2340	 1.59673075063857E-02 
2341	 1.37780218376091E-02 
2342	 9.24238002394767E-03 
2343	 2.98803173657357E-03 
2344	 1.32358565153436E-03 
2345	 3.84902192178988E-03 
2346	 4.20819468539823E-03 
2347	 5.40975429262481E-03 
2348	 6.57814754070773E-03 
2349	 6.78501339833597E-03 
2350	 9.68626243524766E-03 
2351	 6.38485362911645E-03 
2352	 6.58176880010196E-04 
2353	-1.81650638330025E-03 
2354	 2.82707681203829E-04 
2355	 4.02331504827855E-03 
2356	 3.92329618365411E-03 
2357	 6.13521043598195E-03 
2358	 1.13597144787676E-02 
2359	 0.013244682079144 
2360	 7.97436151729653E-03 
2361	 2.66102722743036E-03 
2362	-9.62638969128858E-03 
2363	-2.46299580818553E-02 
2364	-2.37600971857326E-02 
2365	-0.015437614499157 
2366	-1.00764088259452E-02 
2367	-0.016172538783719 
2368	-0.021854857557286 
2369	-1.62387313574384E-02 
2370	-1.20834838452251E-02 
2371	-2.40492437125481E-03 
2372	 8.0594616139929E-03 
2373	 1.79625681563574E-03 
2374	-0.01025740406497 
2375	-4.23480626270797E-03 
2376	 5.22019724041778E-03 
2377	 1.29517012131922E-02 
2378	 1.18718208975288E-02 
2379	 2.83632106810588E-03 
2380	 1.54227135107578E-02 
2381	 6.40185382236267E-03 
2382	-1.63808614151947E-02 
2383	-1.68250553760151E-02 
2384	-2.23524262759473E-02 
2385	-0.023267823201565 
2386	-9.19977453319253E-03 
2387	 5.05164433812636E-03 
2388	 1.37473022452292E-02 
2389	 3.44597863936184E-02 
2390	 5.05088742072888E-02 
2391	 6.06914652936668E-02 
2392	 3.39888628590604E-02 
2393	-2.97164242366478E-02 
2394	-5.02933736043214E-02 
2395	-0.041293494849784 
2396	-2.49632779750106E-02 
2397	-1.52975543560352E-02 
2398	-1.53294699973474E-02 
2399	-3.14777769086904E-02 
2400	-4.76857307942948E-02 
2401	-2.07863320717414E-02 
2402	 3.51719102335478E-03 
2403	 8.16160886498443E-03 
2404	 6.28888548757644E-03 
2405	 5.05824581453561E-03 
2406	 2.98814318695653E-03 
2407	-4.61848980907846E-03 
2408	-1.31052873727845E-03 
2409	-1.96519835374629E-02 
2410	-0.054188605471423 
2411	-8.12156340688768E-02 
2412	-0.118548419286349 
2413	-0.125187468612127 
2414	-8.43834500138658E-02 
2415	-7.33428358595548E-02 
2416	-6.59801818349969E-02 
2417	-0.04246529536688 
2418	-0.085750800306101 
2419	-3.82785896839751E-02 
2420	 5.16662979484291E-02 
2421	 2.59698017031704E-02 
2422	 6.75829490237697E-03 
2423	-2.84336383080638E-02 
2424	-0.111859330112777 
2425	-0.136775894192067 
2426	-0.138412837501682 
2427	-0.105047459133542 
2428	-4.78635280491243E-02 
2429	-3.82806756546514E-02 
2430	-3.18488955467649E-02 
2431	-8.29876385489287E-03 
2432	 2.95328075693946E-02 
2433	 8.79756476863976E-02 
2434	 0.090221576453258 
2435	 3.53727680206731E-02 
2436	-2.01408305651798E-02 
2437	-7.80903529991509E-02 
2438	-9.02052697435362E-02 
2439	-5.60387079116566E-02 
2440	-8.49471505943339E-02 
2441	-7.71150899279196E-02 
2442	 1.79034829738906E-04 
2443	 8.29450386484323E-02 
2444	 7.68702043824454E-02 
2445	-1.72537387736668E-02 
2446	 3.52695809859856E-02 
2447	-7.31199427501834E-02 
2448	-0.107013929685943 
2449	 3.7515061625861E-03 
2450	 1.36450631017402E-02 
2451	-5.02856566643139E-02 
2452	 1.85310798230906E-02 
2453	 9.79408584174827E-02 
2454	 0.214226839208837 
2455	 0.211417626524079 
2456	 4.64896625966892E-02 
2457	-6.14094417661373E-02 
2458	-0.18449198534539 
2459	-0.171109702190149 
2460	-5.05954266178239E-02 
2461	 8.55230833590049E-02 
2462	 0.455682179394879 
2463	 0.838572651359859 
2464	 0.774649081190782 
2465	 0.41751710759252 
2466	 0.155699897285728 
2467	 0.107948643895452 
2468	 0.257683634508053 
2469	 0.190644344452943 
2470	-0.431336283962045 
2471	-0.60089501972693 
2472	-0.731957192383444 
2473	-1.26319892876708 
2474	-0.799762332012805 
2475	-0.666586625779578 
2476	-0.921308187599759 
2477	 3.13104329623499E-02 
2478	-9.29023178214995E-03 
2479	-0.159383668287092 
2480	 0.147191975876672 
2481	 0.600900894704724 
2482	 0.949643852234242 
2483	 0.293175894980614 
2484	 9.27715458958316 
2485	-1.59669024362156 
2486	 0.198814494690299 
2487	 1.97622575124268 
2488	 2.71364131135002 
2489	-5.21602899442193 
2490	-0.823661691776121 
2491	 1.31067382514648 
2492	 8.83764707102411 
2493	-3.17085435407088 
2494	-1.92899558551796 
2495	 55.653757758621 
2496	 9.52173499741421 
2497	 1.68483201722331 
2498	 0.719408715986707 
2499	 0.913957549996031 
2500	 1.07157427923525 
