Wavelength	rt0718far200005.asd
350	 1.31064627939415E-02 
351	 1.27215846573289E-02 
352	 0.012978152178906 
353	 1.33384388720215E-02 
354	 0.013332704173057 
355	 1.32379929739478E-02 
356	 1.31941166322802E-02 
357	 1.32401663662333E-02 
358	 1.33563109419943E-02 
359	 1.34880738897448E-02 
360	 1.36771001174445E-02 
361	 1.37555477670181E-02 
362	 1.35021235151583E-02 
363	 1.36748777213542E-02 
364	 0.013619583621008 
365	 0.013282249337728 
366	 1.37632193534963E-02 
367	 0.01396357412127 
368	 1.39527044254903E-02 
369	 1.40391348610119E-02 
370	 1.42475171088282E-02 
371	 1.42195380113441E-02 
372	 1.40727831487605E-02 
373	 1.41721916404749E-02 
374	 1.43405550903251E-02 
375	 1.44462702983034E-02 
376	 1.45124476075595E-02 
377	 1.47578390551923E-02 
378	 1.45352047747417E-02 
379	 1.45066810648864E-02 
380	 0.015107671679902 
381	 1.51389976763075E-02 
382	 1.49864846985183E-02 
383	 1.49345179854533E-02 
384	 1.51702654921125E-02 
385	 1.55236986009532E-02 
386	 1.57369188442341E-02 
387	 1.57614243703174E-02 
388	 1.57869740736064E-02 
389	 1.59907898437421E-02 
390	 1.61154084117141E-02 
391	 1.59763198301066E-02 
392	 1.56982917178957E-02 
393	 1.58932576289342E-02 
394	 1.64339532198292E-02 
395	 1.68812065230688E-02 
396	 0.01692103338888 
397	 1.68172461200552E-02 
398	 1.67828100253828E-02 
399	 0.016930708812525 
400	 1.71569354532127E-02 
401	 1.73027328944945E-02 
402	 1.73220594854467E-02 
403	 0.017406365539438 
404	 0.017542600146303 
405	 1.75704711433353E-02 
406	 1.74052451413206E-02 
407	 1.77094872070275E-02 
408	 1.80644029762217E-02 
409	 1.81884841855391E-02 
410	 1.80357670556397E-02 
411	 1.81649776174478E-02 
412	 1.83619231657655E-02 
413	 1.84098682984589E-02 
414	 1.84147545255351E-02 
415	 1.86529574738887E-02 
416	 1.89119915404833E-02 
417	 1.88759043100816E-02 
418	 1.89204857399314E-02 
419	 1.91812229561442E-02 
420	 0.019541884560117 
421	 1.96556890145524E-02 
422	 1.96733734561423E-02 
423	 1.98137405587942E-02 
424	 2.01134145953833E-02 
425	 2.00369572656995E-02 
426	 2.02325571434221E-02 
427	 2.05535569616285E-02 
428	 2.05666930693619E-02 
429	 2.07927117774262E-02 
430	 2.10946333130677E-02 
431	 2.13492887502493E-02 
432	 2.15272095160766E-02 
433	 2.16975112719035E-02 
434	 2.19001099813479E-02 
435	 2.21468271514083E-02 
436	 2.24150318094739E-02 
437	 0.022531815747592 
438	 2.26563943524468E-02 
439	 2.30569329930968E-02 
440	 2.32448249622144E-02 
441	 2.34082248690613E-02 
442	 2.36601527324071E-02 
443	 2.38936555564768E-02 
444	 2.41535759880152E-02 
445	 0.024409486994347 
446	 2.46180970730866E-02 
447	 2.47468267403821E-02 
448	 2.49974113005901E-02 
449	 2.52772824804197E-02 
450	 2.53118904903584E-02 
451	 2.54495465932734E-02 
452	 0.025647116615142 
453	 2.58388740885869E-02 
454	 2.60452063807595E-02 
455	 2.61135720561254E-02 
456	 2.61653968851561E-02 
457	 2.63679698365004E-02 
458	 2.65491202497837E-02 
459	 2.66825083255968E-02 
460	 2.67951260876076E-02 
461	 2.69530235529769E-02 
462	 2.70188719813041E-02 
463	 2.71176246246582E-02 
464	 2.73113276100494E-02 
465	 2.73336595549055E-02 
466	 2.74501508512919E-02 
467	 2.76340180216272E-02 
468	 2.77347961285635E-02 
469	 2.78435422714425E-02 
470	 2.79774026903094E-02 
471	 2.81422586636705E-02 
472	 2.83373938660241E-02 
473	 2.84799253669565E-02 
474	 2.85982749556487E-02 
475	 2.87421463530909E-02 
476	 2.89245167419277E-02 
477	 2.90371731773281E-02 
478	 0.029165349209186 
479	 2.94846354798861E-02 
480	 2.95904297876704E-02 
481	 2.96971051186953E-02 
482	 2.99488428936085E-02 
483	 3.01793959182971E-02 
484	 3.04201884650152E-02 
485	 3.06047000153044E-02 
486	 3.06925709562287E-02 
487	 3.09292895737573E-02 
488	 3.11827024047841E-02 
489	 3.14008193310742E-02 
490	 3.16293008795408E-02 
491	 3.18023145838662E-02 
492	 3.20173525492553E-02 
493	 3.23223176686829E-02 
494	 0.032549668488062 
495	 3.27999023285818E-02 
496	 0.033047769075525 
497	 3.32406566616763E-02 
498	 3.36583946117141E-02 
499	 3.39735310102027E-02 
500	 3.41026024165469E-02 
501	 3.44272401776511E-02 
502	 3.46856308304474E-02 
503	 3.49322350938019E-02 
504	 3.52630718195935E-02 
505	 3.55844822634688E-02 
506	 3.58442241458808E-02 
507	 3.60872840886144E-02 
508	 3.64187015732284E-02 
509	 3.66296764050474E-02 
510	 3.68351127169073E-02 
511	 3.71469514733766E-02 
512	 3.75744404684414E-02 
513	 0.037869699293751 
514	 0.038109193435586 
515	 3.84857277635265E-02 
516	 3.88565821473541E-02 
517	 3.92846814063945E-02 
518	 3.97298760988517E-02 
519	 4.00145321352052E-02 
520	 4.03734580846454E-02 
521	 4.07458735054478E-02 
522	 4.10592890377467E-02 
523	 4.14406455828346E-02 
524	 4.18235277389034E-02 
525	 4.21988541402484E-02 
526	 4.25997776597561E-02 
527	 4.30274513481376E-02 
528	 4.34338133014478E-02 
529	 4.38023667082917E-02 
530	 4.41904446358274E-02 
531	 4.45868414080546E-02 
532	 4.49827175755488E-02 
533	 4.53671902270983E-02 
534	 4.57279852467221E-02 
535	 0.046132203674221 
536	 4.65790470057667E-02 
537	 4.69856799113742E-02 
538	 4.73611379723323E-02 
539	 4.77617360327587E-02 
540	 4.82228546874613E-02 
541	 4.86827167503838E-02 
542	 4.90682914471101E-02 
543	 4.94267541927267E-02 
544	 4.98618857640026E-02 
545	 5.01881641377285E-02 
546	 5.05534245547965E-02 
547	 5.10082972220351E-02 
548	 5.13298711493023E-02 
549	 5.17411767733091E-02 
550	 5.21703667228684E-02 
551	 5.24965509467851E-02 
552	 5.29486461544873E-02 
553	 5.33588434538542E-02 
554	 5.36936768544213E-02 
555	 5.40917999142797E-02 
556	 5.45111033368785E-02 
557	 5.49178845721867E-02 
558	 5.52880694917278E-02 
559	 5.56431091382129E-02 
560	 5.60054698716368E-02 
561	 5.63427498727693E-02 
562	 5.66035464878149E-02 
563	 5.68989669338334E-02 
564	 5.72207960799658E-02 
565	 5.75280491662658E-02 
566	 5.77483908790124E-02 
567	 0.05796116360886 
568	 5.81875773184528E-02 
569	 5.84133969110128E-02 
570	 5.85566967131331E-02 
571	 5.87142804416614E-02 
572	 5.89039542762816E-02 
573	 5.90473333421108E-02 
574	 5.91302411065581E-02 
575	 5.91715100444919E-02 
576	 5.91923443533649E-02 
577	 5.91820445609498E-02 
578	 5.91999949304451E-02 
579	 5.92008976149581E-02 
580	 5.90824940003982E-02 
581	 5.88583099753556E-02 
582	 5.87257498527287E-02 
583	 5.86862943092969E-02 
584	 5.83342676071307E-02 
585	 5.80897540199396E-02 
586	 5.78408683276232E-02 
587	 5.73739266147015E-02 
588	 5.70716388611391E-02 
589	 5.68050579591881E-02 
590	 5.64554770723498E-02 
591	 5.59497027472435E-02 
592	 5.55827594552648E-02 
593	 5.51648407863297E-02 
594	 5.45322731813278E-02 
595	 5.38979533173015E-02 
596	 5.31104383957015E-02 
597	 0.052238046874864 
598	 5.14544455921224E-02 
599	 5.05755123103172E-02 
600	 4.97758715814861E-02 
601	 4.91808507640838E-02 
602	 4.87563970409374E-02 
603	 4.84344321376009E-02 
604	 4.82281954692227E-02 
605	 4.81484859130538E-02 
606	 4.80336986907832E-02 
607	 4.79266504108613E-02 
608	 4.78804136427423E-02 
609	 4.79377357058899E-02 
610	 4.78409507450792E-02 
611	 4.77185858663486E-02 
612	 0.047712954232638 
613	 0.047767490615612 
614	 4.77043971832342E-02 
615	 4.75965983290005E-02 
616	 0.047633101779671 
617	 4.75981331414699E-02 
618	 4.75550647596948E-02 
619	 4.75167795264289E-02 
620	 0.047360255531896 
621	 4.72733586064593E-02 
622	 4.72502119580321E-02 
623	 4.72211554678712E-02 
624	 4.71571139231667E-02 
625	 4.70439024535956E-02 
626	 4.69259082764879E-02 
627	 4.68951799061439E-02 
628	 4.68956009773766E-02 
629	 4.68347476540384E-02 
630	 4.66966136072722E-02 
631	 4.66818479801824E-02 
632	 4.66435625505056E-02 
633	 4.65581422797259E-02 
634	 4.64628031828825E-02 
635	 0.046373208777445 
636	 4.63456707800386E-02 
637	 4.63461128081448E-02 
638	 4.62090430485625E-02 
639	 4.60700488990118E-02 
640	 4.59706210449193E-02 
641	 4.59022837988132E-02 
642	 4.57722052153732E-02 
643	 4.56149012252976E-02 
644	 4.54702912551933E-02 
645	 4.53760037979027E-02 
646	 4.52587494881495E-02 
647	 4.51159438161785E-02 
648	 4.49539420966999E-02 
649	 4.47599324939836E-02 
650	 4.45946024137203E-02 
651	 4.43783505924733E-02 
652	 4.40188501529854E-02 
653	 0.043693230049565 
654	 0.043265444695991 
655	 4.26975437707865E-02 
656	 4.21944610406851E-02 
657	 4.17453898796223E-02 
658	 4.13389885505339E-02 
659	 4.09559252275605E-02 
660	 4.06032210506241E-02 
661	 4.02955938823565E-02 
662	 4.00544682905161E-02 
663	 3.98984975326321E-02 
664	 3.97259364853641E-02 
665	 0.039590995815051 
666	 3.95040055403325E-02 
667	 3.93633493413464E-02 
668	 3.92300480298611E-02 
669	 3.91169398155148E-02 
670	 3.90168096285232E-02 
671	 3.88980316313009E-02 
672	 0.038778665065871 
673	 0.03870973275174 
674	 3.87589478039826E-02 
675	 3.87580743925789E-02 
676	 3.86694235897092E-02 
677	 3.85390990496123E-02 
678	 0.038544589061921 
679	 3.86237980058083E-02 
680	 3.86634253155432E-02 
681	 3.85664817386533E-02 
682	 3.85628719688723E-02 
683	 3.84596146553824E-02 
684	 3.82793141414228E-02 
685	 3.83759683073785E-02 
686	 0.038296757281546 
687	 3.81333070927062E-02 
688	 3.80505032719455E-02 
689	 3.77431917375049E-02 
690	 3.74868527318839E-02 
691	 3.72358600518284E-02 
692	 3.67779748069237E-02 
693	 3.64025902204979E-02 
694	 3.59599636829036E-02 
695	 3.54185469752139E-02 
696	 3.49797503444833E-02 
697	 3.44558259045191E-02 
698	 3.38363430535846E-02 
699	 3.31916033777378E-02 
700	 3.25317427430972E-02 
701	 3.18225833064661E-02 
702	 3.10893431492723E-02 
703	 0.030377140516885 
704	 2.95614398681624E-02 
705	 2.87432118925482E-02 
706	 2.79996744216258E-02 
707	 2.72544519652048E-02 
708	 2.62882002631538E-02 
709	 2.52308455973275E-02 
710	 2.42908318384051E-02 
711	 0.023271149592803 
712	 2.22527675917705E-02 
713	 2.12304487345839E-02 
714	 2.00743295024119E-02 
715	 1.90382843350168E-02 
716	 1.79567779868067E-02 
717	 1.67571384258384E-02 
718	 1.58162531456935E-02 
719	 1.48519390310897E-02 
720	 1.39722402919528E-02 
721	 1.32178029349702E-02 
722	 1.24374303540302E-02 
723	 1.16137378538902E-02 
724	 1.08410425420966E-02 
725	 1.00900309148459E-02 
726	 9.39516022705254E-03 
727	 8.69428263307884E-03 
728	 7.9478003206725E-03 
729	 7.18203667693529E-03 
730	 6.47959040277549E-03 
731	 5.97021869009037E-03 
732	 5.69182717839239E-03 
733	 5.31134150645479E-03 
734	 4.97325004387111E-03 
735	 4.74804253185678E-03 
736	 4.55983858732065E-03 
737	 4.44442592262507E-03 
738	 4.37302791946556E-03 
739	 4.30912174603457E-03 
740	 4.2231730050847E-03 
741	 4.22360397179614E-03 
742	 4.25453404548745E-03 
743	 4.19421141969207E-03 
744	 4.15992608221856E-03 
745	 4.15447968761641E-03 
746	 4.15555791391113E-03 
747	 4.12331895286126E-03 
748	 4.13148731131255E-03 
749	 4.13107341710217E-03 
750	 4.08803545101794E-03 
751	 4.12962759605401E-03 
752	 4.11270211515409E-03 
753	 4.05660394645047E-03 
754	 4.05940322767505E-03 
755	 4.05920028339527E-03 
756	 4.02093084186899E-03 
757	 3.97643191104514E-03 
758	 4.07778775428713E-03 
759	 4.04368199482476E-03 
760	 3.98460514518623E-03 
761	 4.17390555303311E-03 
762	 4.26750150426479E-03 
763	 4.03789331318949E-03 
764	 3.90458060730815E-03 
765	 0.004193969124584 
766	 4.10544322620018E-03 
767	 4.03922764066198E-03 
768	 4.10306791249729E-03 
769	 4.11607160908086E-03 
770	 4.08794380693384E-03 
771	 4.07954371485643E-03 
772	 4.12598917636644E-03 
773	 4.15510065979712E-03 
774	 4.23190932069092E-03 
775	 4.29193577522591E-03 
776	 4.25380208028527E-03 
777	 4.29395824877297E-03 
778	 4.2644157520867E-03 
779	 4.21699133297744E-03 
780	 4.3988290212398E-03 
781	 4.45717172830041E-03 
782	 4.44245366021633E-03 
783	 4.47128165219542E-03 
784	 4.65160385194842E-03 
785	 4.64628097297062E-03 
786	 4.66157737948327E-03 
787	 4.9463821509336E-03 
788	 4.88165236060959E-03 
789	 4.85494536534073E-03 
790	 4.95573087442578E-03 
791	 5.00331215638697E-03 
792	 5.07284996838748E-03 
793	 5.20695057665102E-03 
794	 5.34701345803634E-03 
795	 5.27200807773238E-03 
796	 5.38975565851633E-03 
797	 5.4794549194934E-03 
798	 5.35185027456228E-03 
799	 5.54662531648017E-03 
800	 5.70192945280564E-03 
801	 5.76963189070251E-03 
802	 5.86894592897681E-03 
803	 5.90000960251239E-03 
804	 5.85820916006194E-03 
805	 5.79427211345893E-03 
806	 5.80221613484719E-03 
807	 5.84375878827828E-03 
808	 5.9199731257933E-03 
809	 5.99386136715326E-03 
810	 5.91056186691582E-03 
811	 5.87836566336583E-03 
812	 5.85234600194321E-03 
813	 5.71773039602573E-03 
814	 5.6315624651129E-03 
815	 5.54660437414072E-03 
816	 5.39138562590041E-03 
817	 5.14663278306872E-03 
818	 5.26734445094231E-03 
819	 5.31907543764746E-03 
820	 5.11084906569264E-03 
821	 4.84358127941132E-03 
822	 4.55500891318229E-03 
823	 4.31001939558542E-03 
824	 4.14420531258913E-03 
825	 4.04513721766947E-03 
826	 3.91787802157573E-03 
827	 3.68624802761731E-03 
828	 3.34899255190417E-03 
829	 3.15521810763064E-03 
830	 2.98452817767639E-03 
831	 2.90282644905785E-03 
832	 3.06356156331831E-03 
833	 2.9228343379619E-03 
834	 2.77516180842145E-03 
835	 2.78682910586491E-03 
836	 2.81738370727605E-03 
837	 2.66103076830581E-03 
838	 2.57987657323351E-03 
839	 2.72110286510588E-03 
840	 2.66306154383142E-03 
841	 2.63132421302129E-03 
842	 2.62753415669852E-03 
843	 2.59430944933557E-03 
844	 2.57839002963571E-03 
845	 2.6066199799235E-03 
846	 2.67644949542733E-03 
847	 2.73520688293652E-03 
848	 2.48090245262204E-03 
849	 2.34390569170716E-03 
850	 2.42328800606229E-03 
851	 2.30795422319925E-03 
852	 2.28192821541396E-03 
853	 2.36654011675179E-03 
854	 2.48479720155696E-03 
855	 2.47883192986991E-03 
856	 2.54285919485338E-03 
857	 2.52660878372844E-03 
858	 2.32255019518429E-03 
859	 2.30011824768968E-03 
860	 2.41968591654208E-03 
861	 2.51645357839873E-03 
862	 2.42380955061232E-03 
863	 2.38452610179478E-03 
864	 2.32657705389095E-03 
865	 2.25216327899427E-03 
866	 2.25281832458082E-03 
867	 2.45488899866367E-03 
868	 2.51890965252381E-03 
869	 2.32182592449347E-03 
870	 2.09860061808573E-03 
871	 2.07147089804546E-03 
872	 2.28681249398151E-03 
873	 2.55146430181153E-03 
874	 2.26034581661592E-03 
875	 2.20948821197797E-03 
876	 2.25600131228343E-03 
877	 2.12681582724151E-03 
878	 2.22497187525394E-03 
879	 2.27604962123957E-03 
880	 2.23188063652132E-03 
881	 2.15192993651228E-03 
882	 1.97759401255602E-03 
883	 1.99948336598362E-03 
884	 2.10434746756924E-03 
885	 1.9483177579485E-03 
886	 2.07738730750938E-03 
887	 2.11197254450207E-03 
888	 1.98097246299018E-03 
889	 2.04512486411727E-03 
890	 1.99688090907616E-03 
891	 1.94898841904471E-03 
892	 2.03409866029959E-03 
893	 2.28273851816698E-03 
894	 2.07638177436012E-03 
895	 1.74808855801315E-03 
896	 1.76094090723746E-03 
897	 1.97105300511682E-03 
898	 2.29014736503615E-03 
899	 2.17615075116566E-03 
900	 1.54442500514316E-03 
901	 2.14414715563156E-03 
902	 2.24293822246345E-03 
903	 1.68643209276756E-03 
904	 1.13964860765549E-03 
905	 1.88371465142531E-03 
906	 2.24972869973705E-03 
907	 1.87576269296266E-03 
908	 1.52139667632538E-03 
909	 1.90229877493895E-03 
910	 1.84094297712359E-03 
911	 1.50673193113333E-03 
912	 2.1834071103413E-03 
913	 2.33827848269895E-03 
914	 1.9785380033527E-03 
915	 1.54595104871159E-03 
916	 1.62058543315094E-03 
917	 1.50844121546978E-03 
918	 1.4219565139896E-03 
919	 1.53095026209708E-03 
920	 1.75886125556058E-03 
921	 1.75453580349988E-03 
922	 1.78980181863444E-03 
923	 2.02128542369636E-03 
924	 2.10836422911793E-03 
925	 1.83771689571759E-03 
926	 0.00146234857028 
927	 1.1807971614847E-03 
928	 3.23658729403203E-04 
929	 3.26721779716105E-04 
930	 6.81394894439375E-04 
931	 2.30489489872995E-04 
932	 1.90772193791481E-03 
933	 1.13974625213135E-03 
934	-7.10990972984325E-04 
935	-3.89019621652134E-04 
936	-2.8076300307154E-03 
937	-8.03281892044274E-04 
938	 1.72392165985484E-03 
939	 1.61044199104295E-04 
940	 4.94222998531502E-04 
941	 1.66067899098969E-03 
942	 1.81682609010048E-03 
943	-2.44271921873168E-04 
944	 4.70069550908444E-04 
945	 2.02499815835781E-04 
946	-6.68326085990797E-04 
947	 4.71579421860963E-04 
948	 1.66920387335061E-03 
949	 1.64228175142218E-03 
950	 2.69078681264748E-04 
951	-1.31569302056276E-03 
952	 6.66166214069597E-04 
953	 1.54999133004598E-03 
954	 7.38442282686212E-04 
955	 6.43369543626644E-04 
956	 1.73681514154737E-05 
957	-1.69035948571542E-03 
958	-1.95868422698207E-03 
959	 2.05652388230611E-03 
960	 2.00562178391789E-03 
961	-4.93363159500917E-04 
962	-1.64826772662785E-03 
963	 1.32404697697326E-03 
964	 3.51331678456535E-04 
965	 1.10378665204068E-03 
966	 3.29080541481962E-03 
967	 2.30133002271667E-03 
968	 2.13381632200276E-03 
969	 1.82345402722704E-03 
970	 1.07629040011333E-03 
971	 5.24183365244703E-04 
972	 3.9382069806276E-05 
973	 3.93885074978921E-04 
974	 1.14476511343091E-03 
975	 8.34394840652899E-04 
976	 4.37334143272474E-04 
977	 2.42287455679148E-04 
978	 4.5555953088254E-04 
979	 1.07912418481983E-03 
980	 9.30985563100233E-04 
981	 8.5360036265109E-04 
982	 1.17628118029121E-03 
983	 1.55052195673356E-03 
984	 1.36279898230483E-03 
985	 1.63276094219639E-03 
986	 2.17276110469575E-03 
987	 1.89893627750861E-03 
988	 1.39444431260775E-03 
989	 1.44479418991289E-03 
990	 1.80364369604236E-03 
991	 1.54057095245423E-03 
992	 8.52749554907967E-04 
993	 1.81885935267626E-04 
994	 3.85970519111426E-04 
995	 1.89230909370812E-03 
996	 1.55213059952848E-03 
997	 6.89960634824965E-04 
998	 5.28956359145324E-04 
999	 1.48653418259631E-03 
1000	 1.5974055258456E-03 
1001	 1.37207793552151E-03 
1002	 1.25664164444847E-03 
1003	 1.20015737161729E-03 
1004	 9.80526095834239E-04 
1005	 8.821313791946E-04 
1006	 7.59529794192581E-04 
1007	 9.99809457092773E-04 
1008	 1.09489968711741E-03 
1009	 1.07375512805485E-03 
1010	 1.39434737999686E-03 
1011	 1.66190973671965E-03 
1012	 1.9820895775563E-03 
1013	 2.29722234202787E-03 
1014	 2.43714091813503E-03 
1015	 2.44486813383976E-03 
1016	 2.30538269467347E-03 
1017	 1.99770821304164E-03 
1018	 1.73486328540473E-03 
1019	 1.2249721491806E-03 
1020	 1.05074343736501E-03 
1021	 1.06162859306641E-03 
1022	 9.41158373229747E-04 
1023	 1.38870231554828E-03 
1024	 1.56840035712909E-03 
1025	 1.29635931033833E-03 
1026	 1.44672835347977E-03 
1027	 1.42426863931841E-03 
1028	 1.05487493322754E-03 
1029	 1.07824381830635E-03 
1030	 1.40566065909698E-03 
1031	 1.53306243335234E-03 
1032	 1.80680136310296E-03 
1033	 1.8557624980396E-03 
1034	 1.78980944715072E-03 
1035	 1.66037671730262E-03 
1036	 1.25744164506627E-03 
1037	 9.95322321518746E-04 
1038	 6.25658166833781E-04 
1039	 4.99359923287165E-04 
1040	 4.40027012494309E-04 
1041	 7.86634186638165E-04 
1042	 1.06401549097193E-03 
1043	 1.66071489738942E-03 
1044	 1.85456071764509E-03 
1045	 2.03138614520466E-03 
1046	 1.95237247074704E-03 
1047	 1.42951567024849E-03 
1048	 1.3068983098518E-03 
1049	 1.2395318376113E-03 
1050	 1.14056012221166E-03 
1051	 1.16317420028015E-03 
1052	 1.21766254877811E-03 
1053	 1.27375354370695E-03 
1054	 1.28690131337477E-03 
1055	 1.34621427168862E-03 
1056	 1.44768283326199E-03 
1057	 1.53991920555191E-03 
1058	 1.60817238217602E-03 
1059	 1.50782154785829E-03 
1060	 1.32744299115923E-03 
1061	 1.31929420253871E-03 
1062	 1.15826197618925E-03 
1063	 1.16983092332552E-03 
1064	 1.58343426104287E-03 
1065	 1.63615614649503E-03 
1066	 1.41528833944717E-03 
1067	 1.37907856015214E-03 
1068	 1.21842427699244E-03 
1069	 1.25804736030322E-03 
1070	 1.70624779305036E-03 
1071	 1.79968429939141E-03 
1072	 1.69589566807328E-03 
1073	 1.80828917326118E-03 
1074	 1.59047073612075E-03 
1075	 7.9169808610019E-04 
1076	 9.10568043622882E-04 
1077	 1.55983941662978E-03 
1078	 1.61837766040686E-03 
1079	 1.90774246076522E-03 
1080	 1.95471499544426E-03 
1081	 1.31853916804941E-03 
1082	 1.18268270368252E-03 
1083	 1.49197720429009E-03 
1084	 1.57120261813278E-03 
1085	 1.60309328069277E-03 
1086	 1.5866909428549E-03 
1087	 1.36892610095073E-03 
1088	 1.34983092520531E-03 
1089	 1.43941089982173E-03 
1090	 1.61445534360364E-03 
1091	 1.55872647896237E-03 
1092	 1.50697748463398E-03 
1093	 1.49280921361209E-03 
1094	 1.23712696666372E-03 
1095	 1.25135583104195E-03 
1096	 1.56367927051044E-03 
1097	 1.67288248955916E-03 
1098	 1.79414288162481E-03 
1099	 1.73567372068684E-03 
1100	 1.50269401198765E-03 
1101	 1.44203395050658E-03 
1102	 1.21659546024584E-03 
1103	 1.16938761806225E-03 
1104	 1.50297734857215E-03 
1105	 1.50408174436548E-03 
1106	 1.25573931111086E-03 
1107	 1.51001598362769E-03 
1108	 1.66850613057137E-03 
1109	 1.35585244476716E-03 
1110	 1.2336430548128E-03 
1111	 1.22519284392034E-03 
1112	 1.1101128338017E-03 
1113	 4.72008577323268E-04 
1114	 7.85454583222791E-04 
1115	 2.62811038703341E-03 
1116	 2.95467298732861E-03 
1117	 2.7714309376491E-03 
1118	 2.54289631922684E-03 
1119	-2.9450404336704E-04 
1120	-1.9950829272123E-03 
1121	-4.74047888419781E-03 
1122	-9.78052256769214E-04 
1123	 3.12771789759699E-03 
1124	 8.08522110906034E-04 
1125	 2.55759652471663E-03 
1126	 5.41386718588167E-03 
1127	 4.85791550675327E-04 
1128	-5.91184721956997E-04 
1129	 3.87626588501881E-04 
1130	 1.03098369218028E-03 
1131	 3.37819330732086E-04 
1132	 3.06054717352399E-03 
1133	 3.20797988616333E-03 
1134	-7.52653383975213E-04 
1135	-8.54392185352856E-04 
1136	 2.00444659057218E-03 
1137	 2.08277944080543E-03 
1138	 1.5365464575618E-03 
1139	 1.36935215722788E-03 
1140	 1.16168087310125E-03 
1141	-8.52718004277581E-05 
1142	-9.50056320083271E-04 
1143	-7.95931405191907E-05 
1144	 1.46463007265131E-03 
1145	 1.77431640158069E-03 
1146	 1.44173689026741E-03 
1147	 2.11467201715555E-03 
1148	 2.50268583461242E-03 
1149	 1.5320055567905E-03 
1150	 1.12889915699129E-03 
1151	 1.82075500020554E-03 
1152	 1.76900165390472E-03 
1153	 5.80712173283746E-04 
1154	 8.37128359174673E-04 
1155	 2.20000025142817E-03 
1156	 1.81260113468741E-03 
1157	 1.62835653861161E-03 
1158	 1.72699406107276E-03 
1159	 9.58166561994807E-04 
1160	 9.32221457744097E-04 
1161	 1.23527545009438E-03 
1162	 1.22069459784647E-03 
1163	 1.47823839328105E-03 
1164	 1.75563934474986E-03 
1165	 1.4787414518168E-03 
1166	 0.001081283438052 
1167	 1.10344594976008E-03 
1168	 1.26574931398314E-03 
1169	 1.44357539648273E-03 
1170	 1.59782237252708E-03 
1171	 1.61746949985686E-03 
1172	 1.25442228769578E-03 
1173	 1.03096047261095E-03 
1174	 6.96036970448266E-04 
1175	 9.25874423179077E-04 
1176	 9.71020627505837E-04 
1177	 8.71329695683354E-04 
1178	 1.27032831614092E-03 
1179	 1.45446369419927E-03 
1180	 1.15515304195251E-03 
1181	 1.03794504504298E-03 
1182	 9.9427476095538E-04 
1183	 9.61499272370005E-04 
1184	 1.1867614522791E-03 
1185	 1.45589191154979E-03 
1186	 1.39686234130782E-03 
1187	 1.16486534084299E-03 
1188	 1.16867360774633E-03 
1189	 1.22476536970321E-03 
1190	 1.25778725897113E-03 
1191	 1.2491290587143E-03 
1192	 1.28091940266068E-03 
1193	 1.24235531572449E-03 
1194	 1.41368697880405E-03 
1195	 1.31720031827818E-03 
1196	 9.72814006182322E-04 
1197	 9.6720914763865E-04 
1198	 9.30917220769113E-04 
1199	 9.42507324805332E-04 
1200	 1.17827171784447E-03 
1201	 1.13388017444852E-03 
1202	 1.0425035422618E-03 
1203	 1.00812299398455E-03 
1204	 1.09649983355926E-03 
1205	 1.42862874211858E-03 
1206	 1.36579156945275E-03 
1207	 1.11895583771772E-03 
1208	 1.08620479161022E-03 
1209	 9.68263813193816E-04 
1210	 9.85808034233164E-04 
1211	 1.04771036158101E-03 
1212	 9.48194903890147E-04 
1213	 1.02017575422483E-03 
1214	 1.0862483060035E-03 
1215	 1.1291619459648E-03 
1216	 1.08786235675035E-03 
1217	 1.06504356696474E-03 
1218	 1.11514097568345E-03 
1219	 1.20137150548851E-03 
1220	 1.15234542980316E-03 
1221	 1.18872359908992E-03 
1222	 1.11532229165115E-03 
1223	 7.8563536018129E-04 
1224	 8.69896982703094E-04 
1225	 1.0751751956772E-03 
1226	 1.05991520815373E-03 
1227	 9.80657865937555E-04 
1228	 8.53589132303121E-04 
1229	 1.07037169963509E-03 
1230	 1.32644678885114E-03 
1231	 1.27371437680015E-03 
1232	 1.20866793359041E-03 
1233	 1.05967341968729E-03 
1234	 8.51335457474269E-04 
1235	 7.64567458532211E-04 
1236	 9.1323995506916E-04 
1237	 9.47385980714753E-04 
1238	 9.35606760141123E-04 
1239	 9.58231500512927E-04 
1240	 9.34701389250722E-04 
1241	 1.03902807374411E-03 
1242	 1.10194857181754E-03 
1243	 1.10671589846632E-03 
1244	 1.23323348292844E-03 
1245	 1.21236229614167E-03 
1246	 1.16740670664211E-03 
1247	 1.21599571408532E-03 
1248	 1.1667936813555E-03 
1249	 1.17595058440906E-03 
1250	 1.26177317236759E-03 
1251	 1.2663325180605E-03 
1252	 1.2794627551306E-03 
1253	 1.25623884973594E-03 
1254	 1.17825694563962E-03 
1255	 1.19558163778227E-03 
1256	 1.17411747291572E-03 
1257	 1.09794725439024E-03 
1258	 1.15188477821867E-03 
1259	 1.3789356257204E-03 
1260	 1.34335919902404E-03 
1261	 1.18971592451325E-03 
1262	 1.24639284469461E-03 
1263	 1.30136557584828E-03 
1264	 1.19296972507811E-03 
1265	 1.38271772814096E-03 
1266	 1.44195991410199E-03 
1267	 1.18652384473083E-03 
1268	 1.10230076095611E-03 
1269	 1.07960142334441E-03 
1270	 9.95007322443993E-04 
1271	 9.8894790173897E-04 
1272	 9.9741883511221E-04 
1273	 9.91533543053554E-04 
1274	 9.56400216732642E-04 
1275	 8.83876217029852E-04 
1276	 9.41744604326704E-04 
1277	 1.02316040878358E-03 
1278	 9.86845596956506E-04 
1279	 1.07374273086459E-03 
1280	 1.27919549555425E-03 
1281	 1.29576082194715E-03 
1282	 1.06969033283267E-03 
1283	 1.08288740954739E-03 
1284	 1.21382583482697E-03 
1285	 1.2292088065785E-03 
1286	 1.27206513761351E-03 
1287	 1.38160666457892E-03 
1288	 1.50860485800931E-03 
1289	 1.42925545002363E-03 
1290	 1.16622792996938E-03 
1291	 1.23662534519065E-03 
1292	 1.42340992963309E-03 
1293	 1.29894445306496E-03 
1294	 1.15636552412381E-03 
1295	 1.38759384569232E-03 
1296	 1.43818681146441E-03 
1297	 1.33887405327887E-03 
1298	 1.39152946946354E-03 
1299	 1.36202957758733E-03 
1300	 1.23856672046824E-03 
1301	 1.10627344679112E-03 
1302	 1.3102071643515E-03 
1303	 1.5619447756354E-03 
1304	 1.59863002263402E-03 
1305	 1.59301758560133E-03 
1306	 0.001519918074373 
1307	 1.30607343080721E-03 
1308	 1.37531273387722E-03 
1309	 1.56566721515295E-03 
1310	 1.46157187878406E-03 
1311	 1.40053701094054E-03 
1312	 1.3667285646301E-03 
1313	 9.74058642263884E-04 
1314	 8.88143088000817E-04 
1315	 1.2132712719911E-03 
1316	 1.35572345646899E-03 
1317	 1.3406049293068E-03 
1318	 1.37580402402881E-03 
1319	 1.53484771410677E-03 
1320	 1.62895822778258E-03 
1321	 1.53585390716513E-03 
1322	 1.85949824436761E-03 
1323	 1.72965788808424E-03 
1324	 1.30115058323332E-03 
1325	 1.14853848619181E-03 
1326	 9.99696656609862E-04 
1327	 1.36465727453031E-03 
1328	 1.71519743546075E-03 
1329	 1.48987559618104E-03 
1330	 1.6588304803418E-03 
1331	 2.14364479404621E-03 
1332	 2.17165539161321E-03 
1333	 1.60770966830669E-03 
1334	 1.23086956608317E-03 
1335	 1.36293441377468E-03 
1336	 1.49844921065954E-03 
1337	 1.71206597433586E-03 
1338	 2.94055114657836E-03 
1339	 3.19939202784099E-03 
1340	 2.49757525542403E-03 
1341	 2.35373439008222E-03 
1342	 2.54437999406384E-03 
1343	 2.34927634403231E-03 
1344	 1.15708251802696E-03 
1345	 1.22938633209866E-03 
1346	 3.07202614308665E-03 
1347	 3.14396426384217E-03 
1348	 2.35125175084946E-03 
1349	 3.43336974392317E-03 
1350	 4.47978359653774E-03 
1351	 3.24149905845747E-03 
1352	 2.39290852364296E-03 
1353	 6.29801714570827E-03 
1354	 1.25467673828765E-02 
1355	 8.34383031338859E-03 
1356	 6.13413776791977E-03 
1357	 2.97046702362709E-02 
1358	 8.94743814119052E-02 
1359	 0.117064464038536 
1360	 0.109300118581026 
1361	 0.141736706851129 
1362	 7.94572694956021E-02 
1363	-0.030424002282108 
1364	 7.09462616739727E-02 
1365	 0.189006668127864 
1366	 0.148787943255511 
1367	 0.131740729344354 
1368	 0.194332240017466 
1369	 0.382721510422599 
1370	 0.396592475376926 
1371	 0.342132988241967 
1372	 0.353082267612102 
1373	 0.276529940010294 
1374	 0.204232872502103 
1375	 0.307448867577112 
1376	 0.219699163255088 
1377	-0.238337709930027 
1378	-0.164062787783709 
1379	 0.444489504447125 
1380	 0.440270821772606 
1381	 0.236961637824082 
1382	 0.370516021251995 
1383	 0.341252067538429 
1384	 0.204709534460809 
1385	 0.394165272430947 
1386	 0.58008798817004 
1387	 0.235955520406037 
1388	-3.79702036296914E-02 
1389	 0.17237665197247 
1390	 0.364660397647287 
1391	 0.389384720461958 
1392	 0.123315428508785 
1393	 0.236825938442779 
1394	 0.604197024938969 
1395	 0.400157706420493 
1396	 3.71403629229212E-02 
1397	-7.78466007227143E-02 
1398	-8.09329039970067E-02 
1399	-4.56559355829793E-02 
1400	-7.22695956484448E-02 
1401	-2.43887390215022E-02 
1402	-2.05035074396211E-02 
1403	-5.79580610974228E-02 
1404	 1.92560513587574E-02 
1405	 5.47959088919266E-02 
1406	 7.72376263967702E-02 
1407	 0.065404998777948 
1408	 7.06238187136549E-02 
1409	 2.02155280736523E-02 
1410	-7.34658495462606E-02 
1411	-7.65950973795931E-02 
1412	-5.38811329677646E-02 
1413	-5.33395109852337E-02 
1414	-4.66937779593845E-02 
1415	-2.45609664000209E-02 
1416	-1.59420368468236E-02 
1417	-8.27620397628256E-03 
1418	 2.92364514989846E-02 
1419	 0.02941902431123 
1420	 4.10838551352303E-03 
1421	 3.90504737670403E-04 
1422	-2.66711546624355E-03 
1423	-1.40443041565355E-03 
1424	 3.17870070690416E-03 
1425	 5.59332098000988E-03 
1426	 0.014924334659379 
1427	 1.27901142634849E-02 
1428	-6.83380819637283E-04 
1429	-9.55883301806297E-04 
1430	 3.82053838916276E-03 
1431	 1.34405131446035E-03 
1432	-9.73468766612865E-04 
1433	 1.28838886707384E-03 
1434	 3.29530153935261E-03 
1435	 5.7708330573552E-04 
1436	-1.49799324696661E-03 
1437	-9.64734711233375E-04 
1438	-2.32443158376723E-03 
1439	-4.58176310470281E-03 
1440	 9.75993713964531E-04 
1441	 7.81538227880063E-03 
1442	 8.38902346218327E-03 
1443	 3.76765420517234E-03 
1444	-1.29167436311934E-03 
1445	 1.22497734501728E-04 
1446	 2.42222430757578E-03 
1447	 1.23826557821498E-03 
1448	 2.21458814484463E-03 
1449	 4.30939850468803E-03 
1450	 2.83098737415312E-03 
1451	 1.18534996297571E-03 
1452	 1.63806858773086E-03 
1453	 6.61295600060562E-04 
1454	 2.04689555201263E-04 
1455	 2.46992073935485E-04 
1456	 6.31185087429719E-04 
1457	 5.04454082776951E-04 
1458	 8.35459159473227E-04 
1459	 2.51440557948717E-03 
1460	 2.62178900808884E-03 
1461	 1.4853840303284E-03 
1462	 1.78488260633884E-03 
1463	 2.75755740649662E-03 
1464	 2.1830191172389E-03 
1465	 1.33376666050819E-03 
1466	 1.02410079996893E-03 
1467	-9.34108893051854E-04 
1468	-1.21462803755678E-03 
1469	 1.19704819592163E-03 
1470	 1.45637182603876E-03 
1471	 1.59922770065837E-04 
1472	 4.18727179166202E-04 
1473	 1.26897624139584E-03 
1474	 1.20654918512411E-03 
1475	 1.57963633150017E-03 
1476	 1.5944051293062E-03 
1477	 7.7529172262934E-04 
1478	 9.66628388455856E-05 
1479	-1.14432228452507E-03 
1480	-7.07836369832565E-04 
1481	 8.48741978656543E-04 
1482	 1.03741698080556E-03 
1483	 1.79204906188031E-03 
1484	 1.96331362572553E-03 
1485	 5.16328217298244E-04 
1486	 2.52064077154212E-04 
1487	 9.49989317195289E-04 
1488	 1.09451170428305E-03 
1489	 1.14453991210497E-03 
1490	 1.12907629878009E-03 
1491	 9.56625686334595E-04 
1492	 8.89400007081042E-04 
1493	 8.30174100499883E-04 
1494	 7.96274766880397E-04 
1495	 6.35588850320673E-04 
1496	 7.2477676487342E-04 
1497	 1.1351336210219E-03 
1498	 1.25694558738449E-03 
1499	 1.4454557241834E-03 
1500	 1.4206265210062E-03 
1501	 8.95762820613733E-04 
1502	 8.22597501372654E-04 
1503	 1.14804595536415E-03 
1504	 1.0974875382997E-03 
1505	 1.04013916630921E-03 
1506	 9.38557792062319E-04 
1507	 6.93735845808885E-04 
1508	 5.79299457685727E-04 
1509	 9.10937617741881E-04 
1510	 1.08820862804191E-03 
1511	 8.58724911788942E-04 
1512	 7.28705915562533E-04 
1513	 8.62767556434137E-04 
1514	 9.33303244254451E-04 
1515	 1.02903038966617E-03 
1516	 1.13460591337458E-03 
1517	 9.69384002909199E-04 
1518	 8.38965017995716E-04 
1519	 8.49576756883502E-04 
1520	 7.52352008614942E-04 
1521	 5.52358491274631E-04 
1522	 5.6357187633857E-04 
1523	 8.87075068210659E-04 
1524	 9.93021190876488E-04 
1525	 8.6492495952849E-04 
1526	 9.58866468597498E-04 
1527	 9.91531666407121E-04 
1528	 9.31750107967701E-04 
1529	 1.05823071700497E-03 
1530	 1.04814552340062E-03 
1531	 8.57100172466945E-04 
1532	 7.21777291443184E-04 
1533	 6.81323744298335E-04 
1534	 7.53307721328084E-04 
1535	 7.30529008208462E-04 
1536	 5.44954769512848E-04 
1537	 4.35316745624607E-04 
1538	 3.03872177715252E-04 
1539	 1.39032737725985E-04 
1540	 2.32179239258074E-04 
1541	 4.94205709768844E-04 
1542	 6.52546369797453E-04 
1543	 6.78602279440251E-04 
1544	 7.39081755702781E-04 
1545	 7.60349694416644E-04 
1546	 7.18354826261126E-04 
1547	 8.87504045751153E-04 
1548	 9.20649291225439E-04 
1549	 7.42647889044445E-04 
1550	 8.34862607529217E-04 
1551	 7.74929485133212E-04 
1552	 5.75175224963359E-04 
1553	 8.00532924753899E-04 
1554	 8.3904982008702E-04 
1555	 6.78377789821512E-04 
1556	 8.8578330616942E-04 
1557	 9.79454586516937E-04 
1558	 9.14024789573347E-04 
1559	 1.00020663300393E-03 
1560	 1.01144498599489E-03 
1561	 8.93140991361312E-04 
1562	 7.79274505644358E-04 
1563	 7.12371813516169E-04 
1564	 8.10130995755765E-04 
1565	 8.13430592283282E-04 
1566	 6.54507236053996E-04 
1567	 7.31282359127825E-04 
1568	 7.69203244935711E-04 
1569	 5.77929758157353E-04 
1570	 5.42638670934055E-04 
1571	 6.0265758112933E-04 
1572	 4.53462607292509E-04 
1573	 3.38120719830191E-04 
1574	 4.55165409567166E-04 
1575	 6.76654070805942E-04 
1576	 8.62352273151078E-04 
1577	 8.65888362465923E-04 
1578	 9.13003020190958E-04 
1579	 1.0877128767253E-03 
1580	 9.90880023679153E-04 
1581	 7.35600417166924E-04 
1582	 8.83658553270443E-04 
1583	 1.1438859911578E-03 
1584	 9.35717440364854E-04 
1585	 8.63958743337587E-04 
1586	 1.1071720859675E-03 
1587	 9.42438064869619E-04 
1588	 8.06853788986153E-04 
1589	 1.04338411906589E-03 
1590	 1.06145884129397E-03 
1591	 8.30742405415898E-04 
1592	 6.83422749677043E-04 
1593	 6.72545325677132E-04 
1594	 6.30002377260878E-04 
1595	 6.46220815554372E-04 
1596	 6.90267617411448E-04 
1597	 6.43951636278832E-04 
1598	 6.74809774344965E-04 
1599	 6.68726878654219E-04 
1600	 7.76442090603128E-04 
1601	 9.15867374966584E-04 
1602	 8.34391782364244E-04 
1603	 8.19001433923815E-04 
1604	 9.13697078483989E-04 
1605	 1.09262271908848E-03 
1606	 1.01361091312481E-03 
1607	 6.68001349439079E-04 
1608	 6.31652874166022E-04 
1609	 7.6182153925108E-04 
1610	 9.6348058295592E-04 
1611	 1.26554849537152E-03 
1612	 1.17003612264509E-03 
1613	 8.80693498346492E-04 
1614	 7.3594871318924E-04 
1615	 4.96527364814843E-04 
1616	 4.46280400958925E-04 
1617	 6.21564277980283E-04 
1618	 6.91909837899083E-04 
1619	 7.13729706060764E-04 
1620	 8.9257925628081E-04 
1621	 1.01033175499883E-03 
1622	 9.25372108516272E-04 
1623	 1.00434025732227E-03 
1624	 1.08888641111189E-03 
1625	 9.29222391165522E-04 
1626	 7.37863409112601E-04 
1627	 8.26566665726631E-04 
1628	 1.03226980174982E-03 
1629	 1.03081068290834E-03 
1630	 8.87178104520297E-04 
1631	 9.07083032867802E-04 
1632	 1.15914774400104E-03 
1633	 1.08688599488877E-03 
1634	 9.98337079398197E-04 
1635	 1.1426058787489E-03 
1636	 8.65560499336838E-04 
1637	 8.72919370056062E-04 
1638	 1.37890578505739E-03 
1639	 1.20594440565305E-03 
1640	 8.89438400079872E-04 
1641	 1.05693749926057E-03 
1642	 0.001030793770772 
1643	 9.36337424618956E-04 
1644	 1.13385817289556E-03 
1645	 1.22744887913778E-03 
1646	 1.09117679435523E-03 
1647	 1.0655340052691E-03 
1648	 1.10126694588466E-03 
1649	 9.84239103148332E-04 
1650	 8.19115481836999E-04 
1651	 1.03752292241956E-03 
1652	 1.18375579763099E-03 
1653	 8.15577292420818E-04 
1654	 8.34635954150514E-04 
1655	 8.74920107963241E-04 
1656	 8.08469960976663E-04 
1657	 9.85148999174748E-04 
1658	 1.00909237680604E-03 
1659	 7.33711310622546E-04 
1660	 7.72278645222701E-04 
1661	 1.06917786374725E-03 
1662	 1.01070272415129E-03 
1663	 7.77102022686621E-04 
1664	 8.07084498829248E-04 
1665	 8.8439130732932E-04 
1666	 8.67337269235386E-04 
1667	 9.25500171604609E-04 
1668	 9.63022563630078E-04 
1669	 1.11929873741338E-03 
1670	 1.10102417660502E-03 
1671	 9.96902594909209E-04 
1672	 1.06436118620943E-03 
1673	 9.6879267819956E-04 
1674	 9.45280292951015E-04 
1675	 1.06785180983025E-03 
1676	 8.79414359813575E-04 
1677	 8.60447528483383E-04 
1678	 1.08039578902857E-03 
1679	 9.77710801214693E-04 
1680	 7.18479288815923E-04 
1681	 5.03945757151474E-04 
1682	 4.3998591208502E-04 
1683	 6.72591808152133E-04 
1684	 9.96569541636944E-04 
1685	 1.07125786345411E-03 
1686	 7.89209326994989E-04 
1687	 6.21277559104232E-04 
1688	 9.35398181204256E-04 
1689	 1.07772261974632E-03 
1690	 8.55019382241689E-04 
1691	 9.11597371136385E-04 
1692	 9.49161943709247E-04 
1693	 9.71778577723963E-04 
1694	 1.17105739301992E-03 
1695	 7.71238293491543E-04 
1696	 4.19397922756669E-04 
1697	 6.1178650359389E-04 
1698	 6.86013267086307E-04 
1699	 1.01721808475848E-03 
1700	 1.39272055674269E-03 
1701	 1.2057102782222E-03 
1702	 1.04964185245613E-03 
1703	 1.10700436455951E-03 
1704	 9.94366545935481E-04 
1705	 7.78332483970449E-04 
1706	 7.00833229903045E-04 
1707	 7.72568829921657E-04 
1708	 6.36220637803636E-04 
1709	 5.47217089741829E-04 
1710	 9.16304830349872E-04 
1711	 1.14340575484917E-03 
1712	 9.9996632789999E-04 
1713	 1.18604233676843E-03 
1714	 1.1917663539755E-03 
1715	 1.06471074612724E-03 
1716	 1.48206554733692E-03 
1717	 1.23820794813465E-03 
1718	 6.28644906741343E-04 
1719	 7.63574246315604E-04 
1720	 1.11838709325615E-03 
1721	 8.5911999536274E-04 
1722	 7.53659599236175E-04 
1723	 1.30394305556906E-03 
1724	 7.97524415247563E-04 
1725	 1.17014009138181E-04 
1726	 7.02274838185187E-04 
1727	 3.80764627028138E-04 
1728	-2.45642033352247E-06 
1729	 1.04768087817315E-03 
1730	 1.25995025271086E-03 
1731	 8.6147721961628E-04 
1732	 1.07897067203071E-03 
1733	 7.04703392502879E-04 
1734	 3.94958329265085E-04 
1735	 9.27499803085171E-04 
1736	 9.57244058504838E-04 
1737	 4.5666987496908E-04 
1738	 5.69424998501869E-04 
1739	 8.20603187370001E-04 
1740	 1.19033365394704E-03 
1741	 2.24455160094398E-03 
1742	 2.31494386069759E-03 
1743	 1.3372953774296E-03 
1744	 8.08316079697671E-04 
1745	 7.14425917436007E-04 
1746	 1.83993307078776E-03 
1747	 2.01358122334236E-03 
1748	 1.45740183035236E-03 
1749	 1.43601631423913E-03 
1750	 1.15317430970943E-03 
1751	 9.84704092434607E-04 
1752	 1.73406487331293E-03 
1753	 1.85670685821766E-03 
1754	 1.03148514424285E-03 
1755	 1.00574823629967E-03 
1756	 1.32219222008856E-03 
1757	 1.65864329000335E-03 
1758	 2.46562369985862E-03 
1759	 2.2220869480618E-03 
1760	 1.2843580991132E-03 
1761	 3.23724163295217E-04 
1762	-6.05981487148537E-04 
1763	-3.18868608623241E-04 
1764	 5.75633349699627E-04 
1765	 1.22501282401686E-03 
1766	 1.5235178638238E-03 
1767	 1.1053327943428E-03 
1768	 1.03955357034681E-03 
1769	 1.63531494523158E-03 
1770	 1.71424791530276E-03 
1771	 1.5992037328898E-03 
1772	 1.75480871570438E-03 
1773	 1.78169098306271E-03 
1774	 1.75540123196725E-03 
1775	 2.08010928535853E-03 
1776	 1.92689589528099E-03 
1777	 2.95250183175687E-04 
1778	 9.38623182752035E-05 
1779	 1.35968458223524E-03 
1780	 1.45198823015244E-03 
1781	 1.64983708628519E-03 
1782	 1.64001943412064E-03 
1783	-2.51492215936276E-04 
1784	 2.18345596160782E-04 
1785	 3.57560754727587E-03 
1786	 3.98409441255719E-03 
1787	 3.86409309876405E-03 
1788	 3.21483516406311E-03 
1789	-9.13904437116438E-04 
1790	-1.03426557734591E-03 
1791	 6.00788481638902E-04 
1792	 1.07181057181702E-03 
1793	 2.56760221703713E-03 
1794	 3.18924844758516E-03 
1795	 2.7085964640109E-03 
1796	 4.61984753422696E-03 
1797	 3.87054041705943E-03 
1798	-6.33097287416249E-05 
1799	 8.17956459993819E-04 
1800	 8.61454862504463E-03 
1801	 1.06117506906654E-02 
1802	 0.013742390484194 
1803	 1.66716432212072E-02 
1804	 2.09919203719451E-03 
1805	 1.31949285613802E-03 
1806	 2.99554209973849E-02 
1807	 3.68433662669083E-02 
1808	 2.46815207218634E-02 
1809	 3.75940646868912E-02 
1810	 3.95665741218338E-02 
1811	 4.96543843172721E-02 
1812	 0.123490211577442 
1813	 0.144910211728565 
1814	 8.36330136853843E-02 
1815	 8.29088767104703E-02 
1816	 9.73286892669887E-02 
1817	 0.155598133631665 
1818	 0.126300971645612 
1819	-8.49264585708198E-02 
1820	-0.260449314742005 
1821	-0.63748093378743 
1822	-0.823366790034341 
1823	 0.309497242303761 
1824	 0.561767440242698 
1825	 0.535786531192266 
1826	 0.475075394199291 
1827	 5.49565220055739E-03 
1828	-0.181512223317923 
1829	-0.404326798252217 
1830	-0.412351509614948 
1831	 1.12081489100377 
1832	 1.30350073696516 
1833	 0.725196651342792 
1834	 0.606784671992812 
1835	 0.854869275990029 
1836	 0.924461824289551 
1837	 0.526587330719883 
1838	 0.420917987566829 
1839	 1.03952691297138 
1840	 0.62902112465808 
1841	 0.176002007215822 
1842	-5.14175429614399E-03 
1843	-0.27482400226086 
1844	 4.58595582478544 
1845	 3.45290703895525 
1846	-2.54990812765659 
1847	-0.989381440377608 
1848	 4.50018303428909E-02 
1849	-0.310943605195506 
1850	-3.51706234844639 
1851	-0.437879230566563 
1852	-0.228959030173096 
1853	 0.337268414204159 
1854	 0.446808987970695 
1855	 0.8353187115809 
1856	 1.42098184482382 
1857	 3.79294580264083 
1858	-5.06296665602586 
1859	-0.749947160625185 
1860	-1.61572024954938 
1861	-2.12074595759924 
1862	-1.89859802900239 
1863	-3.48600399396858 
1864	-2.57091474027794 
1865	-5.72190161629402 
1866	 1.02562160098277 
1867	 0.616477168070267 
1868	 0.222622922776655 
1869	 0.121380651627664 
1870	 9.80559802254119E-02 
1871	 1.48167140556996 
1872	 3.36127571289064 
1873	-6.4898869011507 
1874	 3.38227969004246 
1875	 0.362638331051427 
1876	-0.672975338202482 
1877	-1.31839157328389 
1878	-1.05757079061013 
1879	-2.40182860330949 
1880	-2.61924677894226 
1881	 1.88911685130654 
1882	 3.65436702445918 
1883	-2.93618626844176 
1884	 10.5689284597781 
1885	 1.0761061882039 
1886	-3.32698775070978 
1887	 2.77778605644154 
1888	 1.02035435502775 
1889	 1.11974347483597 
1890	 1.42721011114529 
1891	 1.27889375213333 
1892	 1.28151843680074 
1893	 3.50207552955713 
1894	 2.17022700864909 
1895	 0.516503407369657 
1896	 0.10825366661183 
1897	-0.359218946183057 
1898	-0.766356034612146 
1899	-0.550811039764569 
1900	-0.67971003810029 
1901	 0.578271034688887 
1902	 3.00158328209819 
1903	 0.7846087241835 
1904	-1.74240312263466 
1905	-7.34604359234992 
1906	-75.8886497997891 
1907	 10.2421128193348 
1908	 1.72709905280852 
1909	-0.73656302824691 
1910	-1.02714073257546 
1911	-3.20543081565676 
1912	-5.6175486415777 
1913	-2.50808682168864 
1914	-0.856944425990458 
1915	-0.316570738704541 
1916	 0.537664735097329 
1917	 0.649431123371163 
1918	 0.401010214412962 
1919	 0.598292254319725 
1920	 3.72121454243744 
1921	 1.15532078875786 
1922	 1.42565747802502 
1923	-18.2237216036818 
1924	-9.17629060995498 
1925	 5.7257212748298 
1926	 4.44789683405721 
1927	 0.519889091762964 
1928	-0.207596909798778 
1929	 0.355830396197554 
1930	-5.75188151535854E-02 
1931	-3.91794043494617E-02 
1932	 9.24424750288833E-02 
1933	-0.127054798473747 
1934	-0.212522838074409 
1935	-0.093094252108213 
1936	-7.07422725940509E-02 
1937	-0.122463920742389 
1938	-7.56602619786578E-02 
1939	-3.39775069997498E-02 
1940	-1.35561587039813E-02 
1941	-2.67946592307535E-02 
1942	 1.85831083296857E-02 
1943	 4.83549799229653E-02 
1944	 1.49114204807269E-02 
1945	-1.35520736795062E-02 
1946	-2.53436220150472E-02 
1947	-0.034112919950563 
1948	-4.12543039827658E-02 
1949	-1.99105135807464E-02 
1950	 2.03251932093246E-03 
1951	-1.99554989152624E-03 
1952	-7.59045956250808E-03 
1953	-1.15677343568076E-02 
1954	-2.60231150254297E-02 
1955	-3.03198749155876E-02 
1956	-2.45097012808392E-02 
1957	-1.57753933452382E-02 
1958	 5.61871503460533E-03 
1959	 1.66928270446181E-03 
1960	-9.74101876196222E-03 
1961	-4.74690397108702E-03 
1962	-6.04015403077571E-03 
1963	-3.28222501362194E-03 
1964	 2.92762891392072E-03 
1965	 2.06057320776914E-03 
1966	 3.13531101683487E-03 
1967	 4.5048374842129E-03 
1968	 4.05564648619201E-03 
1969	 2.60491927567057E-03 
1970	 2.5165136665165E-03 
1971	 1.08547686047104E-03 
1972	 8.92192442740009E-04 
1973	 6.80783802249735E-04 
1974	 1.08139061360135E-03 
1975	 1.85063966432088E-03 
1976	 6.93708316950379E-04 
1977	 1.28038267279362E-03 
1978	 2.29272067053198E-03 
1979	 2.1241119521637E-03 
1980	 9.77556469090738E-04 
1981	 1.13923242878213E-03 
1982	 1.32524815459973E-03 
1983	 9.38071981110877E-04 
1984	 9.31555859945757E-04 
1985	 1.24067798195203E-03 
1986	 8.48531321327296E-04 
1987	-2.11504576322299E-04 
1988	-3.79872756342029E-04 
1989	-3.52817083221163E-04 
1990	-4.28271043515526E-05 
1991	 0.001482770957772 
1992	 2.88886083520449E-03 
1993	 0.003588214072361 
1994	 3.64615646399072E-03 
1995	 2.92425718756514E-03 
1996	 6.41279000125113E-04 
1997	-4.46766037967572E-04 
1998	 9.36401946424677E-04 
1999	 2.57326474464757E-03 
2000	 4.75232804871434E-03 
2001	 6.13838500338493E-03 
2002	 5.27180865587986E-03 
2003	 2.98589982374681E-03 
2004	 3.6138093026336E-03 
2005	 7.7560961387801E-03 
2006	 7.21958799083674E-03 
2007	 4.9394598686083E-03 
2008	 5.11878813649535E-03 
2009	 4.47402906378069E-03 
2010	 4.3185952860863E-04 
2011	 7.08873718697851E-04 
2012	 4.61863449835586E-03 
2013	 6.59783109693782E-03 
2014	 5.90053763771277E-03 
2015	 2.80461477743162E-03 
2016	-2.27974228674543E-04 
2017	-1.63601961955844E-03 
2018	-2.19241253852616E-03 
2019	-9.45472188721579E-04 
2020	 4.91303752562186E-04 
2021	 5.12978477719143E-04 
2022	-2.36897425347518E-04 
2023	-3.80638686637046E-04 
2024	-3.14803660144055E-04 
2025	-4.97421459667535E-04 
2026	-5.94639365876949E-04 
2027	-5.00275974274791E-04 
2028	-1.14952763439626E-04 
2029	 3.7652897134214E-04 
2030	 8.71331661309579E-04 
2031	 1.26575925732725E-03 
2032	 1.84148015051577E-03 
2033	 1.85694631418816E-03 
2034	 1.29547887535573E-03 
2035	 1.11807678425142E-03 
2036	 1.71548692932054E-03 
2037	 1.84797258974569E-03 
2038	 1.30495896742658E-03 
2039	 1.37256757368649E-03 
2040	 1.85724489839314E-03 
2041	 1.46705263999816E-03 
2042	 7.85725158077926E-04 
2043	 6.07338159682575E-04 
2044	 2.22165561984215E-04 
2045	-6.56802576277368E-04 
2046	-6.67598117989927E-04 
2047	-3.63872443945876E-05 
2048	 1.53258740284211E-04 
2049	 5.31261992928148E-05 
2050	 3.23478687268953E-04 
2051	 1.04333847858714E-03 
2052	 2.16275359023974E-03 
2053	 2.28946628327593E-03 
2054	 1.67037762092458E-03 
2055	 1.23115976695456E-03 
2056	 9.08105935164366E-04 
2057	 9.04672548564524E-05 
2058	 3.3070817282399E-04 
2059	 1.44150883329954E-03 
2060	 1.81758934622987E-03 
2061	 2.72816986859816E-03 
2062	 2.34682360273541E-03 
2063	 5.75717348366229E-04 
2064	 2.74602274581396E-04 
2065	 1.45148890108746E-04 
2066	-3.92660175686744E-04 
2067	 4.7817609593789E-05 
2068	 4.76059928265133E-04 
2069	 7.16606892438685E-07 
2070	 2.05823388078931E-05 
2071	-4.40485358231501E-04 
2072	-8.94207160571799E-04 
2073	-8.2843018830727E-04 
2074	-1.2725049713395E-03 
2075	-8.46978271676957E-04 
2076	 1.19835583048042E-03 
2077	 1.89207876610198E-03 
2078	 2.4758149961991E-03 
2079	 2.78063527127851E-03 
2080	 2.78416416762057E-03 
2081	 1.83127049254852E-03 
2082	 9.96453545950328E-04 
2083	 3.83744674641521E-04 
2084	 4.80961970712721E-04 
2085	 4.82730198199476E-04 
2086	 6.344597980127E-04 
2087	 1.43313825510284E-03 
2088	 1.67123957956714E-03 
2089	 1.1152284190903E-03 
2090	 6.48489378551439E-04 
2091	 3.58397003943125E-04 
2092	 4.06074275248629E-04 
2093	 6.9590207877919E-04 
2094	 1.16631262919276E-03 
2095	 2.46444183803105E-03 
2096	 2.55129371364121E-03 
2097	 1.82541205071598E-03 
2098	 1.59674154337335E-03 
2099	 8.80036713026129E-04 
2100	 7.75369411101657E-04 
2101	 1.04996393889503E-03 
2102	 1.29219341433249E-03 
2103	 2.10872463902516E-03 
2104	 1.85272760993187E-03 
2105	 1.00351867991442E-03 
2106	 9.18443095819991E-04 
2107	 4.43667693228848E-04 
2108	-6.15545301903441E-05 
2109	 1.86201259186289E-05 
2110	-3.08186235445515E-04 
2111	-1.53687342111455E-03 
2112	-1.88065502916359E-03 
2113	-1.58431551001232E-03 
2114	-2.32113484206519E-04 
2115	 2.00463802135177E-04 
2116	 1.14912073476264E-03 
2117	 1.26817360680139E-03 
2118	-1.33400600137163E-04 
2119	-3.18140361349228E-04 
2120	-1.73834014348931E-04 
2121	 5.21167030009634E-04 
2122	 9.56926747138189E-04 
2123	 0.001325818101689 
2124	 1.32559911108072E-03 
2125	 2.3499209742823E-04 
2126	-8.36224967278662E-04 
2127	-1.05616309847592E-03 
2128	-1.54240528577984E-03 
2129	-1.66595375930053E-03 
2130	-1.07111416441211E-03 
2131	-6.59304152333574E-04 
2132	-2.03938215599465E-04 
2133	 3.35242455992224E-04 
2134	 5.09338999809148E-04 
2135	 4.55255641387473E-05 
2136	 1.36948049921575E-04 
2137	 4.43201358091502E-04 
2138	 5.80330170003455E-04 
2139	 1.04290760626441E-03 
2140	 1.16193485770394E-03 
2141	 6.19857083359919E-04 
2142	 5.84812073408834E-04 
2143	 7.72688288602938E-04 
2144	 1.08703675446701E-03 
2145	 3.56923291931225E-04 
2146	-3.25183455290754E-05 
2147	 2.57150249632015E-04 
2148	 3.54225380620805E-04 
2149	 1.20906595179496E-03 
2150	 1.99949479385315E-03 
2151	 1.86649161824438E-03 
2152	 1.14323323480478E-03 
2153	 5.53142203714424E-04 
2154	 5.45644889563385E-04 
2155	 4.35016832924298E-04 
2156	 7.17233653807446E-04 
2157	 5.26156778815425E-04 
2158	-4.8552750717728E-04 
2159	 1.0580159661416E-05 
2160	 1.40124903667106E-03 
2161	 2.01062771724356E-03 
2162	 4.14534293181636E-03 
2163	 4.25783843223394E-03 
2164	 1.59581811033199E-03 
2165	 1.11510535982975E-03 
2166	 1.10986362494001E-03 
2167	 8.39914805605535E-04 
2168	 2.12798750050478E-03 
2169	 2.24671498336164E-03 
2170	 9.83227101173312E-04 
2171	 1.93393699467215E-04 
2172	 5.24818733769375E-04 
2173	 3.52287318631056E-04 
2174	 6.5988917639051E-04 
2175	 1.19568569287611E-03 
2176	 1.86620211392849E-03 
2177	 2.18125815016534E-03 
2178	 1.61172984474757E-03 
2179	 1.53248227181077E-03 
2180	 1.40683362944195E-03 
2181	 1.61137172441113E-03 
2182	 2.4906015566067E-03 
2183	 2.60955832923867E-03 
2184	 1.91865978322642E-03 
2185	 5.99430504476151E-05 
2186	-5.98272585513561E-04 
2187	-1.00545650745857E-03 
2188	-8.93898258048976E-04 
2189	 2.16396299195351E-04 
2190	 1.02556927154336E-03 
2191	 2.12532341215938E-03 
2192	 2.46592460594088E-03 
2193	 2.56316649742147E-03 
2194	 2.70417241427736E-03 
2195	 2.45713947105462E-03 
2196	 2.01077044537596E-03 
2197	 1.30342370108904E-03 
2198	 1.13383546088459E-03 
2199	 1.10878608295686E-03 
2200	 1.63613806726698E-04 
2201	 1.25841207104662E-03 
2202	 1.59246894292326E-03 
2203	 9.96486242087045E-04 
2204	 1.97515610064833E-03 
2205	 1.30813777127516E-03 
2206	-1.41364546858616E-04 
2207	-1.23037853926383E-04 
2208	-1.20520504970601E-03 
2209	-3.45228855375771E-03 
2210	-3.41820109193097E-03 
2211	-2.51953841091421E-03 
2212	-1.4446304881761E-03 
2213	 4.73890087524138E-04 
2214	 9.251090432265E-04 
2215	 1.28412303323534E-03 
2216	 1.92319132370788E-03 
2217	 1.59101206685605E-03 
2218	 1.12440753381542E-03 
2219	 1.34742738719034E-03 
2220	 5.47233602385031E-04 
2221	 3.21367967303117E-04 
2222	 2.35962842996328E-03 
2223	 1.97466204056884E-03 
2224	-1.57803900294093E-03 
2225	-1.24949928279377E-03 
2226	 1.51348222314998E-03 
2227	 1.14435159347563E-03 
2228	 1.43642637225046E-03 
2229	 1.10380491238338E-03 
2230	-3.19935017787876E-03 
2231	-4.40469318735062E-03 
2232	-2.82916856896868E-03 
2233	-2.28852006325392E-03 
2234	-1.45104253719695E-03 
2235	-1.05042744920675E-03 
2236	-1.07533880937542E-03 
2237	-2.04673748890797E-04 
2238	 4.95190550893791E-04 
2239	 8.29159790184384E-04 
2240	-1.37632763337358E-04 
2241	-9.62981483862119E-06 
2242	 1.08039946423131E-03 
2243	 7.6396485933942E-04 
2244	 2.31438766668867E-03 
2245	 3.59033547141576E-03 
2246	 2.52248453688808E-03 
2247	 1.57549895495748E-03 
2248	 5.00395903889306E-04 
2249	-9.28231212474136E-04 
2250	-1.58746195720934E-03 
2251	-1.95067094354553E-03 
2252	-1.13349331739617E-03 
2253	 9.95315981683801E-04 
2254	 2.58275214701451E-04 
2255	-3.28226745011693E-04 
2256	-6.03850174724382E-04 
2257	-2.59716384422287E-03 
2258	-4.69150921307374E-04 
2259	 1.66158808365774E-03 
2260	 2.42909949348763E-03 
2261	 3.1567649831279E-03 
2262	 3.59308108859919E-03 
2263	 2.21723178902372E-03 
2264	 2.78214159998899E-03 
2265	 5.39244689400102E-03 
2266	 5.41000853363526E-03 
2267	 4.06467048363024E-03 
2268	 3.28593564273271E-03 
2269	 0.001120609616012 
2270	-2.12546677004376E-04 
2271	-8.30442490028155E-04 
2272	-5.83695318281957E-04 
2273	 7.48810533495286E-04 
2274	 1.08060198197654E-03 
2275	 2.0508912469033E-03 
2276	 2.20544336421642E-03 
2277	 2.19322434835163E-04 
2278	-1.00442135264736E-03 
2279	-1.82071993671627E-03 
2280	-2.11171979964579E-03 
2281	-3.12158556150305E-03 
2282	-9.85668496925773E-04 
2283	 1.8750036923914E-03 
2284	 2.8181080877466E-03 
2285	 3.06094121767253E-03 
2286	 1.89705379908962E-03 
2287	 2.20069399334847E-04 
2288	-7.13899514361348E-04 
2289	-4.97639125543509E-04 
2290	-8.75769410351557E-04 
2291	-2.85903407915764E-03 
2292	-3.59001331462853E-03 
2293	-1.80830903411897E-03 
2294	-2.4894421050156E-05 
2295	 2.09415854671402E-03 
2296	 3.35722408153154E-03 
2297	 3.86093181106916E-04 
2298	-1.56439204521435E-03 
2299	-8.77541187243379E-04 
2300	-1.65152330561648E-03 
2301	-2.22414114655834E-04 
2302	 9.4266674636459E-04 
2303	-6.34251761561718E-04 
2304	 2.32694359636106E-03 
2305	 4.61732488933284E-03 
2306	 0.004815073951711 
2307	 5.8026034090334E-03 
2308	 1.87490620217238E-03 
2309	-3.91292540587547E-04 
2310	 4.90212283373384E-04 
2311	-9.82919491454645E-04 
2312	-9.54325636371323E-04 
2313	 7.12127655604241E-04 
2314	 7.28031650017711E-04 
2315	-3.94049106097537E-04 
2316	 1.11983641411605E-03 
2317	 1.75193524162913E-03 
2318	-5.86833560682096E-05 
2319	-2.1143404780246E-04 
2320	-1.0022219696913E-03 
2321	-1.12853034737434E-03 
2322	-2.6089389588718E-03 
2323	-6.29031040213451E-03 
2324	-5.56095905743533E-03 
2325	-2.94038702554044E-03 
2326	-1.46890799350987E-03 
2327	 2.75599581121738E-03 
2328	 6.74335997940748E-03 
2329	 5.1124042938778E-03 
2330	 2.07782945716973E-03 
2331	-6.75575585778879E-04 
2332	-3.68692945828055E-03 
2333	-6.98138277468396E-03 
2334	-7.23625687966825E-03 
2335	-2.03276906500875E-03 
2336	-3.15257304370734E-03 
2337	-6.13300357158241E-03 
2338	-1.90493009947457E-03 
2339	-0.006108743104677 
2340	-0.008727783483245 
2341	 5.60195042033435E-03 
2342	 8.54931605847733E-03 
2343	 1.41066544183148E-03 
2344	 2.62086196931396E-03 
2345	-1.82819837105673E-04 
2346	-2.85503381677985E-03 
2347	 2.80096672632173E-03 
2348	 1.00720950437704E-02 
2349	 1.17303523545741E-02 
2350	 4.13231552963569E-03 
2351	-8.85437607110229E-03 
2352	-1.36647232153054E-02 
2353	-1.48774253983172E-02 
2354	-1.97134405481743E-02 
2355	-1.18183615980443E-02 
2356	-7.6149031712413E-03 
2357	-6.46853270319645E-03 
2358	 8.3885507429842E-04 
2359	-1.73324717991295E-03 
2360	-4.6980020935553E-03 
2361	-6.95686794733718E-03 
2362	-6.72688501078034E-03 
2363	-3.16770188826396E-03 
2364	-3.43116493513211E-03 
2365	-7.9767795556504E-03 
2366	-1.82387271389742E-02 
2367	-2.50377689190526E-02 
2368	-2.75916780206907E-02 
2369	-3.72350855858277E-02 
2370	-3.73996076187543E-02 
2371	-1.61160234682667E-02 
2372	-5.29863191992133E-03 
2373	 8.78344093619923E-04 
2374	 1.06252355083492E-02 
2375	 1.26443840593936E-03 
2376	-4.33385815877267E-03 
2377	 7.64933801479623E-03 
2378	 1.80950036895167E-02 
2379	 1.39889199148433E-02 
2380	 9.9494573607343E-03 
2381	 1.93504539991702E-02 
2382	 5.90089713496063E-03 
2383	-1.40872875675786E-02 
2384	-0.01132857296066 
2385	-2.70371684693882E-02 
2386	-3.34476745739698E-02 
2387	-1.62220838281163E-02 
2388	-1.72684223459375E-02 
2389	-2.36742789319955E-02 
2390	-1.13316653710566E-02 
2391	 1.55235065202908E-02 
2392	 2.71459696768062E-02 
2393	 0.029168274308759 
2394	 3.34042539288321E-02 
2395	 1.32960019015467E-02 
2396	-0.002023328750199 
2397	-8.35093833540569E-03 
2398	-2.06464313267385E-02 
2399	-3.45172815689821E-02 
2400	-6.05321578791369E-02 
2401	-6.13625444887462E-02 
2402	-5.77951561948568E-02 
2403	-7.79980664506104E-02 
2404	-5.52307534611292E-02 
2405	-4.22831028773254E-02 
2406	-4.92127177163893E-02 
2407	-2.77966020456263E-02 
2408	-3.50336290084278E-02 
2409	-3.05716528849474E-02 
2410	-1.11486768897271E-02 
2411	-0.043069574726495 
2412	-5.86765517378636E-02 
2413	-3.95717202631037E-02 
2414	-7.77756801531443E-02 
2415	-0.116900265141652 
2416	-7.09064630711021E-02 
2417	-0.062507632765973 
2418	-6.96457498600086E-02 
2419	-4.67595791023193E-02 
2420	-7.53637982225611E-02 
2421	-0.136832742783162 
2422	-0.160214998758778 
2423	-0.111855575919546 
2424	-5.34169515411569E-02 
2425	-4.77353553302306E-02 
2426	-5.22173914076797E-02 
2427	-6.62010233408379E-02 
2428	-8.00820266793562E-02 
2429	-3.45443616235976E-02 
2430	-2.51616319525663E-02 
2431	-4.89979078506903E-02 
2432	-0.030808967997682 
2433	-5.88932988154509E-02 
2434	-9.45481395688208E-02 
2435	-5.04420486650564E-02 
2436	-6.43434724974412E-02 
2437	-0.168707202904303 
2438	-0.164149937783554 
2439	-8.79825366859333E-02 
2440	-9.78401320489291E-02 
2441	-0.049719023852451 
2442	 3.49456635707353E-02 
2443	-2.78814290340135E-02 
2444	-6.77217779238328E-02 
2445	 8.76718861996954E-02 
2446	 0.123648717300318 
2447	 0.257500150980172 
2448	 0.252073194082247 
2449	 2.22476759444433E-02 
2450	-7.72114851011809E-03 
2451	 2.52479888989246E-02 
2452	-3.86949374398411E-03 
2453	-4.60019029614692E-02 
2454	 0.053137492734302 
2455	-0.124954280522829 
2456	-0.289817026969685 
2457	-0.159665629654425 
2458	-0.250497677510696 
2459	-0.287408682575234 
2460	-0.10917644041993 
2461	-8.28608872908393E-02 
2462	-0.189090076910388 
2463	-0.354599672544731 
2464	-0.60420154290188 
2465	-0.356114695777861 
2466	-0.431309870545816 
2467	-0.356403348488406 
2468	-3.46758561618677E-02 
2469	-0.396121337959446 
2470	-0.636306130942738 
2471	-0.309896436918697 
2472	-0.771435169325332 
2473	-1.04016315793086 
2474	-0.614116858992485 
2475	-0.811411203293059 
2476	-0.7675289424813 
2477	-0.218250621699083 
2478	-0.122709218988903 
2479	 0.115456701978032 
2480	 6.69092553580449E-02 
2481	-0.384955022410457 
2482	-1.04507152995538 
2483	-1.3390559791358 
2484	 74.6539748811726 
2485	-0.852391356572381 
2486	 1.81862155972135E-02 
2487	-0.408205252066421 
2488	-0.136869542168267 
2489	 6.83516984106923E-02 
2490	 0.118638913126185 
2491	 1.02410006724805E-02 
2492	-2.81350192057141 
2493	-0.254048635206918 
2494	 1.64445903549575 
2495	 43.2619406632107 
2496	-0.466249815916496 
2497	 6.04692086878686 
2498	 1.21949951826555 
2499	 1.5483094284417 
2500	 0.504440057035984 
