Wavelength	rt0718west_far00009.asd
350	 2.21785942617683E-02 
351	 0.021809517215254 
352	 2.25456166192973E-02 
353	 2.26867274016756E-02 
354	 2.16713288809073E-02 
355	 2.21811735061866E-02 
356	 2.22944938354462E-02 
357	 2.21984470404128E-02 
358	 2.24176238725547E-02 
359	 2.20092040358338E-02 
360	 2.21425909751642E-02 
361	 2.25981622685336E-02 
362	 2.23431517731531E-02 
363	 2.27376200748173E-02 
364	 2.27164090495312E-02 
365	 2.20802146434361E-02 
366	 2.23320159828503E-02 
367	 2.29260173912655E-02 
368	 2.30284136794915E-02 
369	 2.23692547784892E-02 
370	 2.29221332036945E-02 
371	 2.31709655932648E-02 
372	 2.29177636959151E-02 
373	 2.28046753074891E-02 
374	 2.32662278146651E-02 
375	 2.38459719317042E-02 
376	 2.40490559767653E-02 
377	 2.35108267774117E-02 
378	 2.38344336846063E-02 
379	 2.42925027317683E-02 
380	 2.41269522847741E-02 
381	 0.024320235872515 
382	 2.45200272714504E-02 
383	 2.45303226746039E-02 
384	 2.43616771856067E-02 
385	 2.48439254815484E-02 
386	 2.55130779219992E-02 
387	 0.025783894621678 
388	 2.51614449753106E-02 
389	 2.53066268659069E-02 
390	 2.55853482972927E-02 
391	 2.54518729778527E-02 
392	 0.025719369885405 
393	 2.60074375988411E-02 
394	 2.63856137516346E-02 
395	 2.69135827670178E-02 
396	 2.67204302132953E-02 
397	 2.67562717326808E-02 
398	 2.71203824741562E-02 
399	 2.71363192325732E-02 
400	 2.72298350067988E-02 
401	 2.73340283302881E-02 
402	 2.73833101014334E-02 
403	 0.027480077632462 
404	 2.75827928433165E-02 
405	 2.77511889986088E-02 
406	 2.80089790153156E-02 
407	 2.79580331607055E-02 
408	 0.028077787745348 
409	 0.028362101662672 
410	 2.83203705046972E-02 
411	 2.85601245034605E-02 
412	 2.88713340204135E-02 
413	 2.90171893648208E-02 
414	 2.90277065903503E-02 
415	 2.91794361447484E-02 
416	 2.94675680427771E-02 
417	 2.97510037988402E-02 
418	 2.98916162103389E-02 
419	 3.00314366569818E-02 
420	 3.02251431128069E-02 
421	 3.04110911401141E-02 
422	 3.05316255357567E-02 
423	 3.07783291378758E-02 
424	 3.12066730319278E-02 
425	 3.13548378108975E-02 
426	 3.15454702549255E-02 
427	 3.17838371894655E-02 
428	 3.19622634818179E-02 
429	 3.23296617835833E-02 
430	 3.26914480739004E-02 
431	 3.29846291608381E-02 
432	 3.33475911861426E-02 
433	 3.36580810926211E-02 
434	 3.39027547597338E-02 
435	 3.41398666452715E-02 
436	 3.45744346846722E-02 
437	 3.49379942574414E-02 
438	 3.51833123960598E-02 
439	 3.54081664957274E-02 
440	 3.57943279629423E-02 
441	 3.62028446104609E-02 
442	 3.65579892340986E-02 
443	 3.69351365498957E-02 
444	 3.71970639599938E-02 
445	 0.037469437082818 
446	 3.78592563183496E-02 
447	 3.81216284727104E-02 
448	 3.83305939915985E-02 
449	 3.85634689996627E-02 
450	 3.88790406235586E-02 
451	 3.91252139813555E-02 
452	 3.92916548947169E-02 
453	 3.94379017896901E-02 
454	 3.97195740259347E-02 
455	 3.99968208790145E-02 
456	 4.02167459199668E-02 
457	 4.03680679029419E-02 
458	 4.04793252475136E-02 
459	 4.05985644530588E-02 
460	 4.07521818608013E-02 
461	 4.09377347813195E-02 
462	 4.10209901219415E-02 
463	 4.11805623378507E-02 
464	 4.14869520721811E-02 
465	 4.15314923178561E-02 
466	 4.16696589712399E-02 
467	 4.18511525588076E-02 
468	 4.18916832703803E-02 
469	 4.21804184683584E-02 
470	 0.042469538167072 
471	 4.26370349887391E-02 
472	 4.28043227317582E-02 
473	 4.30672357581873E-02 
474	 4.33153215768959E-02 
475	 4.34516184329672E-02 
476	 4.36269877034288E-02 
477	 4.38644363527751E-02 
478	 4.41575184306769E-02 
479	 4.44699184529331E-02 
480	 4.46920510995829E-02 
481	 4.48892791543499E-02 
482	 4.51300285074898E-02 
483	 4.54452394228306E-02 
484	 0.045678110052704 
485	 4.58785922986331E-02 
486	 4.61781591150114E-02 
487	 4.66821509125421E-02 
488	 4.70588320919923E-02 
489	 4.72785810747538E-02 
490	 0.047617920276559 
491	 4.80213757759335E-02 
492	 4.84085516048118E-02 
493	 0.048738003481064 
494	 4.90906957582777E-02 
495	 4.95115661629168E-02 
496	 5.00036050365803E-02 
497	 5.05201278127038E-02 
498	 5.08262748451873E-02 
499	 5.12107971013243E-02 
500	 5.17686881902551E-02 
501	 5.22185585721786E-02 
502	 5.26928944579244E-02 
503	 5.32088465554405E-02 
504	 5.37400227699516E-02 
505	 0.054204020640615 
506	 5.46822455713655E-02 
507	 5.52010406588949E-02 
508	 5.57344726394559E-02 
509	 5.62174434274165E-02 
510	 5.66851942944482E-02 
511	 5.71832393983422E-02 
512	 5.77498130494717E-02 
513	 5.83050842657092E-02 
514	 5.88736196392797E-02 
515	 5.95089342631746E-02 
516	 6.01461605588093E-02 
517	 6.07869258086162E-02 
518	 6.14640121378502E-02 
519	 6.22407697570723E-02 
520	 6.27847269723392E-02 
521	 0.063329684029021 
522	 6.40934743580296E-02 
523	 6.47584533829665E-02 
524	 6.54104584852445E-02 
525	 6.60765885970973E-02 
526	 6.67510504202429E-02 
527	 6.75080080553329E-02 
528	 6.82951981704803E-02 
529	 6.90436782696877E-02 
530	 6.96760455415043E-02 
531	 7.04290701419322E-02 
532	 7.12211021359371E-02 
533	 0.07190685741191 
534	 7.27735892270476E-02 
535	 7.35731650294284E-02 
536	 7.42639253415896E-02 
537	 7.50645580939147E-02 
538	 7.58483462088323E-02 
539	 7.66253066566091E-02 
540	 7.74280925881485E-02 
541	 7.82681678568086E-02 
542	 7.90843884238723E-02 
543	 7.98601134884444E-02 
544	 8.06177166545496E-02 
545	 8.14330943083438E-02 
546	 8.22187749279033E-02 
547	 8.29525921049951E-02 
548	 8.37862386637043E-02 
549	 8.45581247735143E-02 
550	 8.52994579420551E-02 
551	 8.60927662971196E-02 
552	 8.68840609896937E-02 
553	 8.76655444050054E-02 
554	 8.84371885313088E-02 
555	 8.92007753980219E-02 
556	 8.99985848282221E-02 
557	 9.07972272891482E-02 
558	 9.15563749520235E-02 
559	 9.23120604244046E-02 
560	 9.30236224191754E-02 
561	 9.36748048760179E-02 
562	 9.42790258873478E-02 
563	 9.49286093498827E-02 
564	 9.55739279728407E-02 
565	 9.61645975297792E-02 
566	 9.66844542756189E-02 
567	 9.72235317715411E-02 
568	 9.77506658769989E-02 
569	 9.82082210781562E-02 
570	 0.098678866595112 
571	 9.91313924251122E-02 
572	 9.95333419698474E-02 
573	 9.98599595644523E-02 
574	 0.100178218945396 
575	 0.100460379618232 
576	 0.100685321311593 
577	 0.100945265065385 
578	 0.101093687666036 
579	 0.101137666900841 
580	 0.101180159043241 
581	 0.101237740279433 
582	 0.101168703058399 
583	 0.100967651453501 
584	 0.100921498520311 
585	 0.100764098393628 
586	 0.100467210083635 
587	 0.100093786690633 
588	 0.09972099974209 
589	 9.94245851245755E-02 
590	 9.91490508319629E-02 
591	 9.86989346100564E-02 
592	 9.82688401792841E-02 
593	 0.09776537507661 
594	 9.71012701584763E-02 
595	 9.63617783571871E-02 
596	 9.54689418427491E-02 
597	 9.44660324975185E-02 
598	 9.34681493207212E-02 
599	 9.24728476092774E-02 
600	 9.15937775707989E-02 
601	 9.08938317644896E-02 
602	 9.03236463316634E-02 
603	 8.99405743951822E-02 
604	 8.97049079357196E-02 
605	 8.95591193737833E-02 
606	 8.95288139762472E-02 
607	 8.94960069026532E-02 
608	 8.94521860953409E-02 
609	 8.95019604902329E-02 
610	 8.94988750938638E-02 
611	 8.94822439490954E-02 
612	 0.089489715041626 
613	 8.94189623393408E-02 
614	 0.089458618505503 
615	 8.95196468086232E-02 
616	 0.089391701084878 
617	 8.93102710152643E-02 
618	 8.93004862046239E-02 
619	 8.93116198855843E-02 
620	 8.92084942937665E-02 
621	 8.91801108754388E-02 
622	 8.91784619033796E-02 
623	 8.91182001265844E-02 
624	 8.91366691545685E-02 
625	 8.91310396126671E-02 
626	 8.90409393622398E-02 
627	 8.88687378854408E-02 
628	 8.88864633276504E-02 
629	 8.88949123868479E-02 
630	 8.87470816619095E-02 
631	 8.86759149472745E-02 
632	 0.088668696246536 
633	 8.86684161785209E-02 
634	 8.86004794718103E-02 
635	 8.84921774679573E-02 
636	 8.83932159437669E-02 
637	 0.088340294424096 
638	 8.83518014894132E-02 
639	 8.82414980722863E-02 
640	 8.81556689872214E-02 
641	 8.82171511090163E-02 
642	 8.80180610157886E-02 
643	 8.78915250999531E-02 
644	 8.78571346074717E-02 
645	 8.76794386365378E-02 
646	 8.74850658874107E-02 
647	 8.73272531650055E-02 
648	 8.72084208098658E-02 
649	 8.70481873515843E-02 
650	 8.67952465929445E-02 
651	 8.64889915821239E-02 
652	 8.61781005469323E-02 
653	 8.56446863471934E-02 
654	 8.50289429564177E-02 
655	 0.084365107498691 
656	 8.36038354734441E-02 
657	 8.29454276755979E-02 
658	 8.23683653556842E-02 
659	 8.18130819188546E-02 
660	 8.13195366429203E-02 
661	 8.09490671095003E-02 
662	 8.06292518269124E-02 
663	 8.02277803266869E-02 
664	 7.98736574045532E-02 
665	 7.96105736548217E-02 
666	 7.94091059416713E-02 
667	 7.91333595310037E-02 
668	 7.89627499626813E-02 
669	 7.88208060527839E-02 
670	 7.85972141309008E-02 
671	 7.84488565656283E-02 
672	 7.83811138954516E-02 
673	 7.83624121975002E-02 
674	 7.83373447700795E-02 
675	 7.83444447229829E-02 
676	 7.83511211921165E-02 
677	 7.83403855029147E-02 
678	 0.078360993883049 
679	 7.84289407923082E-02 
680	 7.85208370612821E-02 
681	 7.85962235954677E-02 
682	 7.86446604507417E-02 
683	 7.87600649847072E-02 
684	 7.89198557358946E-02 
685	 7.89423442373826E-02 
686	 7.90705104791453E-02 
687	 7.91093771414267E-02 
688	 7.88907034737092E-02 
689	 7.87786663312172E-02 
690	 0.078583406072053 
691	 7.82756966240422E-02 
692	 7.79100882199035E-02 
693	 7.74726712601743E-02 
694	 7.69161587459916E-02 
695	 7.62782374548654E-02 
696	 7.56680875570006E-02 
697	 7.49587987916071E-02 
698	 7.40907663128037E-02 
699	 7.31079278108634E-02 
700	 7.22048908301359E-02 
701	 7.12091677244431E-02 
702	 7.00798840274128E-02 
703	 6.88799433120964E-02 
704	 6.77753762024182E-02 
705	 6.65973802782448E-02 
706	 6.52641225253614E-02 
707	 6.39247409909204E-02 
708	 6.25156281735691E-02 
709	 6.09916429933593E-02 
710	 5.93167708203903E-02 
711	 5.75085984542162E-02 
712	 5.55903020411613E-02 
713	 5.36396346349889E-02 
714	 5.17399857172115E-02 
715	 4.99153949088756E-02 
716	 4.79497469922492E-02 
717	 4.57713419593086E-02 
718	 4.35529696752592E-02 
719	 4.13713211179858E-02 
720	 3.95565559589426E-02 
721	 0.03800318234927 
722	 3.64179117924105E-02 
723	 3.44678270950795E-02 
724	 3.24233530955891E-02 
725	 3.08191609270137E-02 
726	 2.88834562474846E-02 
727	 2.68218004729445E-02 
728	 2.49353532048468E-02 
729	 0.023025909953641 
730	 2.09962042419707E-02 
731	 1.91537615402885E-02 
732	 1.77946992434877E-02 
733	 1.66273584158413E-02 
734	 1.56331107135414E-02 
735	 1.48189758706367E-02 
736	 1.41693975390904E-02 
737	 0.013672276632695 
738	 1.32828313336171E-02 
739	 1.29791159587853E-02 
740	 1.28098807877395E-02 
741	 1.26731546612675E-02 
742	 1.25486258554243E-02 
743	 1.24670912939605E-02 
744	 1.24958892492626E-02 
745	 1.24702063892787E-02 
746	 1.23689151886667E-02 
747	 1.23911569081015E-02 
748	 1.23952376801014E-02 
749	 0.01234809361369 
750	 1.22747187750189E-02 
751	 1.22960432878944E-02 
752	 1.22941561330664E-02 
753	 1.22737391998578E-02 
754	 1.22898230861311E-02 
755	 1.21973984759912E-02 
756	 1.21581181761609E-02 
757	 1.22488360947111E-02 
758	 1.24325353010218E-02 
759	 1.25491065917354E-02 
760	 1.25360098562609E-02 
761	 1.24919167215153E-02 
762	 1.24283289739815E-02 
763	 1.24943409233519E-02 
764	 1.25024256949746E-02 
765	 1.23284710529554E-02 
766	 1.25362398701943E-02 
767	 1.26908822777574E-02 
768	 1.27206376536775E-02 
769	 1.28852879830931E-02 
770	 1.29756072842525E-02 
771	 1.30145498046672E-02 
772	 0.013063172705525 
773	 1.31397916003502E-02 
774	 1.33706275139133E-02 
775	 1.35992765223381E-02 
776	 1.36259534166087E-02 
777	 1.37859906486961E-02 
778	 1.40357836177313E-02 
779	 0.01426660897362 
780	 1.43532584474996E-02 
781	 1.45710254981584E-02 
782	 1.47907568515437E-02 
783	 0.014930045031795 
784	 0.015187151759931 
785	 1.54152625667739E-02 
786	 1.56137734475947E-02 
787	 1.58470918973194E-02 
788	 1.62343658794177E-02 
789	 0.016557696611094 
790	 1.67868425007521E-02 
791	 1.70568451746966E-02 
792	 1.73273199949995E-02 
793	 1.76120875218057E-02 
794	 1.79300736480585E-02 
795	 1.82962280368799E-02 
796	 1.85679892157198E-02 
797	 1.88137700123644E-02 
798	 1.91163415587515E-02 
799	 1.93601919834279E-02 
800	 1.95837195162862E-02 
801	 1.97564551334212E-02 
802	 1.98533630970967E-02 
803	 0.0201398109608 
804	 2.03709127928539E-02 
805	 0.020429536774677 
806	 2.03996003124324E-02 
807	 2.04818161141936E-02 
808	 2.05109564525301E-02 
809	 2.03739118510345E-02 
810	 2.02871138395354E-02 
811	 2.01852842870658E-02 
812	 2.00426612324573E-02 
813	 1.98254740706081E-02 
814	 1.93949271577264E-02 
815	 1.91568220985837E-02 
816	 1.90443985916297E-02 
817	 1.86194279756636E-02 
818	 1.80571655746687E-02 
819	 0.017610151505058 
820	 1.72433060610449E-02 
821	 1.65990327735187E-02 
822	 1.58758576956774E-02 
823	 1.50408416217673E-02 
824	 1.41233858740492E-02 
825	 1.33348007374387E-02 
826	 1.23916547858821E-02 
827	 1.14050622657664E-02 
828	 1.06368317056115E-02 
829	 9.87278533270604E-03 
830	 9.1238847040542E-03 
831	 8.48612776224687E-03 
832	 8.11585612596703E-03 
833	 8.11560157866059E-03 
834	 7.80825749316029E-03 
835	 7.17284305377754E-03 
836	 7.1169556834865E-03 
837	 7.09836776386323E-03 
838	 7.06173707781857E-03 
839	 6.99858169491685E-03 
840	 6.73543308497837E-03 
841	 6.57366853349649E-03 
842	 6.53589985704459E-03 
843	 6.53293039340005E-03 
844	 6.54733581876398E-03 
845	 6.33029634920236E-03 
846	 6.1036228878818E-03 
847	 6.30264639987092E-03 
848	 6.15019580696057E-03 
849	 5.97032538128913E-03 
850	 5.90328326825733E-03 
851	 5.70648818937198E-03 
852	 5.64407940397466E-03 
853	 5.71932582252278E-03 
854	 5.80896649672736E-03 
855	 5.65745312920011E-03 
856	 5.68635850163808E-03 
857	 5.75492617132224E-03 
858	 5.66075613301268E-03 
859	 5.58835180491088E-03 
860	 5.39420016984628E-03 
861	 5.23395729539473E-03 
862	 5.32435581176291E-03 
863	 5.29663878266442E-03 
864	 5.16353109949664E-03 
865	 5.06448360345793E-03 
866	 5.18008303926598E-03 
867	 5.17332111087626E-03 
868	 4.98530712941747E-03 
869	 4.80363439753811E-03 
870	 5.03905018365725E-03 
871	 4.97556539709293E-03 
872	 4.85003299384565E-03 
873	 4.86282991323946E-03 
874	 4.63930483076101E-03 
875	 4.65875578018445E-03 
876	 4.8171109404173E-03 
877	 4.86530193328447E-03 
878	 4.78504150362065E-03 
879	 4.44080155500352E-03 
880	 4.23940549816046E-03 
881	 4.5870211124512E-03 
882	 4.46388020804895E-03 
883	 4.15214925286962E-03 
884	 3.9307320455006E-03 
885	 3.99679776830679E-03 
886	 4.43117802218739E-03 
887	 4.34119919536551E-03 
888	 3.79504665223325E-03 
889	 3.95671955598735E-03 
890	 3.85276343642283E-03 
891	 3.84382511418129E-03 
892	 4.11724792098402E-03 
893	 4.12073872159159E-03 
894	 4.22426363799891E-03 
895	 4.06988146625323E-03 
896	 3.59764782153044E-03 
897	 4.26363411487644E-03 
898	 4.35195274430332E-03 
899	 4.14941335197684E-03 
900	 4.31834635255909E-03 
901	 4.11177574963024E-03 
902	 3.65308344698145E-03 
903	 3.51937388442435E-03 
904	 4.09967938381675E-03 
905	 4.06301091868924E-03 
906	 4.04596188085402E-03 
907	 3.97877733421695E-03 
908	 3.47068479513944E-03 
909	 3.9739017714526E-03 
910	 3.75257786107866E-03 
911	 3.02418872945333E-03 
912	 3.68291868812242E-03 
913	 3.75551131372354E-03 
914	 3.72687903225086E-03 
915	 3.92452971711529E-03 
916	 4.1069415877612E-03 
917	 3.61954801273502E-03 
918	 3.38027422550757E-03 
919	 3.7055506063842E-03 
920	 3.83566035901728E-03 
921	 3.85572062421607E-03 
922	 3.34302592577447E-03 
923	 2.67195492788742E-03 
924	 4.02565043605941E-03 
925	 4.10154245151348E-03 
926	 3.69019214874973E-03 
927	 4.03389597738566E-03 
928	 3.04095711063047E-03 
929	 3.63795707804764E-03 
930	 4.47169074949235E-03 
931	 2.61173789533557E-03 
932	 3.02148496895273E-03 
933	 3.06194401397773E-03 
934	 3.78453821188481E-03 
935	 6.43467030119843E-03 
936	 6.04189803117764E-03 
937	 4.73210163427357E-03 
938	 3.93274348492741E-03 
939	 4.15585164719739E-03 
940	 4.29378147598107E-03 
941	 2.98171791392133E-03 
942	 1.7052592159794E-03 
943	 2.64433710858992E-03 
944	 2.32506296597569E-03 
945	 2.24460255790015E-03 
946	 2.7902172926207E-03 
947	 0.003546314960014 
948	 5.15836578417591E-03 
949	 5.91217685520348E-03 
950	 4.50305563800292E-03 
951	 1.22150753390256E-03 
952	 2.93485509207523E-03 
953	 3.98553646399108E-03 
954	 4.21360759631925E-03 
955	 6.86386114435581E-03 
956	 6.35958212945085E-03 
957	 5.77419859586157E-03 
958	 5.31836658870854E-03 
959	 3.34750763289161E-03 
960	 3.83955352505758E-03 
961	 4.28070743170102E-03 
962	 4.1198502180202E-03 
963	 4.36335224549161E-03 
964	 2.83683460918232E-03 
965	 2.61174088400821E-03 
966	 3.89796016023934E-03 
967	 4.58710841629925E-03 
968	 4.3373555739646E-03 
969	 3.19378099129225E-03 
970	 2.78009045934037E-03 
971	 5.08815585162798E-03 
972	 4.33048742455147E-03 
973	 3.24841152932222E-03 
974	 2.86384722082908E-03 
975	 1.94978594236923E-03 
976	 3.72500154011016E-03 
977	 4.19042911105835E-03 
978	 3.0805230272968E-03 
979	 3.63054803190917E-03 
980	 3.57892694583355E-03 
981	 3.98599598828418E-03 
982	 4.69715626309548E-03 
983	 4.4099931261129E-03 
984	 2.81495761282392E-03 
985	 2.26309086333626E-03 
986	 2.81152779610191E-03 
987	 2.71208231715587E-03 
988	 2.93202882090569E-03 
989	 3.09285793462765E-03 
990	 3.21928054258758E-03 
991	 3.74915002693713E-03 
992	 5.3796973397761E-03 
993	 4.78593652414507E-03 
994	 3.15838977528008E-03 
995	 3.99598279733155E-03 
996	 3.00942470335195E-03 
997	 2.51852624973225E-03 
998	 2.74424476217257E-03 
999	 2.65651787252165E-03 
1000	 3.90117273395018E-03 
1001	 2.86724641685495E-03 
1002	 3.02213347274609E-03 
1003	 3.10302944916448E-03 
1004	 2.87214532517186E-03 
1005	 3.02689915137766E-03 
1006	 3.53671085726213E-03 
1007	 3.97383850552081E-03 
1008	 4.29786682800921E-03 
1009	 0.004372239660784 
1010	 4.17436512375228E-03 
1011	 3.87861591379838E-03 
1012	 3.45516284134032E-03 
1013	 2.99668673886053E-03 
1014	 2.86932598907548E-03 
1015	 2.85719633461901E-03 
1016	 2.93231749081806E-03 
1017	 3.42609726381071E-03 
1018	 3.63594015022144E-03 
1019	 3.82890293754157E-03 
1020	 3.86158671507791E-03 
1021	 3.74517801021613E-03 
1022	 3.60555872901429E-03 
1023	 3.46199106470454E-03 
1024	 3.16592655605553E-03 
1025	 3.16328620161902E-03 
1026	 3.21536060286459E-03 
1027	 3.20204515218308E-03 
1028	 3.27586431010215E-03 
1029	 3.16017919874906E-03 
1030	 2.81637081559575E-03 
1031	 2.76739667284613E-03 
1032	 2.73488061205418E-03 
1033	 2.83115657099608E-03 
1034	 3.30823411379853E-03 
1035	 3.41849190323311E-03 
1036	 3.2640473935632E-03 
1037	 3.28161376122256E-03 
1038	 3.31506325123242E-03 
1039	 3.25266117113466E-03 
1040	 3.18560166354038E-03 
1041	 3.46317230951001E-03 
1042	 3.45179955748281E-03 
1043	 3.21890343571917E-03 
1044	 3.27200686142571E-03 
1045	 3.48622882881384E-03 
1046	 3.48586345529843E-03 
1047	 3.48985395308597E-03 
1048	 3.45684223777078E-03 
1049	 3.18141604317972E-03 
1050	 3.1570969151211E-03 
1051	 3.37395174439126E-03 
1052	 3.45218222592939E-03 
1053	 3.58554512261229E-03 
1054	 3.60020288213542E-03 
1055	 3.50472943248108E-03 
1056	 3.39318449403117E-03 
1057	 3.24400225512142E-03 
1058	 2.99999870838188E-03 
1059	 2.90504313097595E-03 
1060	 2.73506322333793E-03 
1061	 2.82446310878816E-03 
1062	 3.18342837819701E-03 
1063	 3.35465528020619E-03 
1064	 3.74560416344378E-03 
1065	 3.76607035400902E-03 
1066	 3.3886898997164E-03 
1067	 3.29177994910256E-03 
1068	 3.11387428874738E-03 
1069	 3.04682629666436E-03 
1070	 3.1461823924115E-03 
1071	 3.26377047110653E-03 
1072	 3.50133633591238E-03 
1073	 3.65470185955882E-03 
1074	 3.58790534880124E-03 
1075	 3.43862419486846E-03 
1076	 3.39274103261333E-03 
1077	 3.06744381762637E-03 
1078	 3.04633606919922E-03 
1079	 3.47708920322024E-03 
1080	 3.44546464387798E-03 
1081	 3.14374545160212E-03 
1082	 3.03658714640838E-03 
1083	 2.71579397850999E-03 
1084	 2.67345164817075E-03 
1085	 2.92629257696614E-03 
1086	 3.10989772934995E-03 
1087	 3.62315134775799E-03 
1088	 3.72111658144956E-03 
1089	 3.53017175520047E-03 
1090	 3.30857792354214E-03 
1091	 3.28045348010444E-03 
1092	 3.14502071280203E-03 
1093	 3.01662491273327E-03 
1094	 3.14296197490066E-03 
1095	 3.21234008325912E-03 
1096	 2.82907068291598E-03 
1097	 2.88805417585825E-03 
1098	 3.59768178260181E-03 
1099	 3.7418174011354E-03 
1100	 3.94965055668976E-03 
1101	 3.9564020070225E-03 
1102	 3.21248434540694E-03 
1103	 2.85695929964907E-03 
1104	 2.43691613601004E-03 
1105	 2.3605772962426E-03 
1106	 2.18497181970452E-03 
1107	 2.84733547966896E-03 
1108	 3.91012133354643E-03 
1109	 3.9590267811055E-03 
1110	 3.86819271196598E-03 
1111	 3.36672900809474E-03 
1112	 3.31037365358189E-03 
1113	 2.60852494397272E-03 
1114	 2.61252854568245E-03 
1115	 4.01834894085922E-03 
1116	 4.33134109168037E-03 
1117	 4.18296888395589E-03 
1118	 4.1826783367009E-03 
1119	 3.08522588907588E-03 
1120	 2.77302838753145E-03 
1121	 4.17370534090495E-03 
1122	 2.67270860530676E-03 
1123	 1.12841833591679E-03 
1124	 3.32476685515691E-03 
1125	 2.80817724841545E-03 
1126	 1.81427836148106E-03 
1127	 4.29960676738271E-03 
1128	 6.39969704693487E-03 
1129	 6.23113432547956E-03 
1130	 5.24019050156912E-03 
1131	 5.23769610721047E-03 
1132	 3.71958710024002E-03 
1133	 3.02322910658831E-03 
1134	 4.36877663701542E-03 
1135	 4.35607392742703E-03 
1136	 2.63773882837107E-03 
1137	 2.4339967347458E-03 
1138	 2.96195505323708E-03 
1139	 2.70538051854119E-03 
1140	 2.70120899879561E-03 
1141	 3.65684118361825E-03 
1142	 3.63581679250394E-03 
1143	 3.10024329470009E-03 
1144	 4.27012720309632E-03 
1145	 5.2301429048414E-03 
1146	 5.05479721669664E-03 
1147	 4.54410364943866E-03 
1148	 3.21726159004051E-03 
1149	 2.68459014987327E-03 
1150	 2.59654534837445E-03 
1151	 3.4883301745859E-03 
1152	 3.55452916671225E-03 
1153	 3.10991569629404E-03 
1154	 3.19431106248587E-03 
1155	 3.0832110254327E-03 
1156	 4.04881460343916E-03 
1157	 4.12998940221144E-03 
1158	 3.24568829370969E-03 
1159	 2.95061363566753E-03 
1160	 2.83026539147624E-03 
1161	 2.44473435334023E-03 
1162	 2.91455350749464E-03 
1163	 3.52285201728107E-03 
1164	 2.85121572338625E-03 
1165	 2.38243236169317E-03 
1166	 2.66523978546567E-03 
1167	 2.42311751841296E-03 
1168	 2.41083423474082E-03 
1169	 2.93639511245852E-03 
1170	 2.96943775376177E-03 
1171	 3.00238181362574E-03 
1172	 3.06720095622027E-03 
1173	 3.02463217129875E-03 
1174	 2.78533959557137E-03 
1175	 2.60909707333025E-03 
1176	 2.59383009537514E-03 
1177	 2.65140573944638E-03 
1178	 2.85155486372866E-03 
1179	 3.09717158080656E-03 
1180	 3.32446738093382E-03 
1181	 3.19991242599642E-03 
1182	 2.65825361723928E-03 
1183	 2.55193630938143E-03 
1184	 2.79601456898375E-03 
1185	 2.80451896740417E-03 
1186	 2.85783261446585E-03 
1187	 2.81530935366037E-03 
1188	 2.47236343092003E-03 
1189	 2.36327828553157E-03 
1190	 2.53153959642998E-03 
1191	 2.57015667418359E-03 
1192	 2.74385810958321E-03 
1193	 3.0643604777246E-03 
1194	 3.29782729070862E-03 
1195	 3.08138623011447E-03 
1196	 2.86664090445045E-03 
1197	 2.71469729241248E-03 
1198	 2.63678540730436E-03 
1199	 2.66631933821703E-03 
1200	 2.79358691742919E-03 
1201	 2.89407533416811E-03 
1202	 2.67730121449641E-03 
1203	 2.5603644997857E-03 
1204	 2.60898717893699E-03 
1205	 2.67370041146202E-03 
1206	 2.78994909928718E-03 
1207	 2.60211049696004E-03 
1208	 2.4790406545423E-03 
1209	 2.62294479923637E-03 
1210	 2.66646026480578E-03 
1211	 2.72338545808578E-03 
1212	 2.7290513381533E-03 
1213	 2.68506034629162E-03 
1214	 2.66409804161872E-03 
1215	 2.52573788676016E-03 
1216	 2.38099716833542E-03 
1217	 2.42083367734981E-03 
1218	 2.5191191656211E-03 
1219	 2.53591991827362E-03 
1220	 2.61261853528316E-03 
1221	 2.67408469313393E-03 
1222	 2.65456773593287E-03 
1223	 2.54031849532427E-03 
1224	 2.38697364533889E-03 
1225	 2.46987236654072E-03 
1226	 2.63092817874095E-03 
1227	 2.47485449495689E-03 
1228	 2.32291987164155E-03 
1229	 2.53298774586879E-03 
1230	 2.58943710376187E-03 
1231	 2.38297617376365E-03 
1232	 2.41690215617144E-03 
1233	 2.36804710988822E-03 
1234	 2.07452155022691E-03 
1235	 2.02450322369091E-03 
1236	 2.36076858533123E-03 
1237	 2.4666371588631E-03 
1238	 2.49361567972055E-03 
1239	 2.5608041680618E-03 
1240	 2.61134971145459E-03 
1241	 2.46382021685547E-03 
1242	 2.36612386211924E-03 
1243	 2.47431833310413E-03 
1244	 2.64155291402378E-03 
1245	 2.67895363043242E-03 
1246	 2.59177190079652E-03 
1247	 2.5015647508194E-03 
1248	 2.47238864029342E-03 
1249	 2.5189442507521E-03 
1250	 2.60677513856943E-03 
1251	 2.70251154352264E-03 
1252	 2.60218745355294E-03 
1253	 2.42334526866377E-03 
1254	 2.5233088741491E-03 
1255	 2.66679396829768E-03 
1256	 2.65675784898392E-03 
1257	 2.53706215695099E-03 
1258	 2.6158763510537E-03 
1259	 2.74313073073745E-03 
1260	 2.70745623531514E-03 
1261	 2.71676311323127E-03 
1262	 2.75549442232693E-03 
1263	 2.65952385922689E-03 
1264	 2.57842804096156E-03 
1265	 2.66233750215138E-03 
1266	 2.76639975959004E-03 
1267	 2.70299970539411E-03 
1268	 2.49656326398474E-03 
1269	 2.34524461577355E-03 
1270	 2.39433798881409E-03 
1271	 2.55261592178918E-03 
1272	 2.65730667792233E-03 
1273	 2.7161916942308E-03 
1274	 2.75028989961235E-03 
1275	 2.67970985954635E-03 
1276	 2.52817511358272E-03 
1277	 2.5535087278768E-03 
1278	 2.75763451452086E-03 
1279	 2.9207987917353E-03 
1280	 2.91634793059049E-03 
1281	 2.88222819223287E-03 
1282	 2.75066037813386E-03 
1283	 2.7200434859251E-03 
1284	 2.57774800787732E-03 
1285	 2.55251852693045E-03 
1286	 2.74961139293171E-03 
1287	 2.7202645669275E-03 
1288	 2.57712616258674E-03 
1289	 2.56948260498793E-03 
1290	 2.58167653423564E-03 
1291	 2.46837475615955E-03 
1292	 2.61592836738421E-03 
1293	 2.65253588915629E-03 
1294	 2.49002999240078E-03 
1295	 2.4064323463143E-03 
1296	 2.47534004141362E-03 
1297	 2.58765062309734E-03 
1298	 2.63703233274062E-03 
1299	 2.67706515543828E-03 
1300	 2.7493183951501E-03 
1301	 2.74169424626526E-03 
1302	 2.79639913811242E-03 
1303	 2.92167386471141E-03 
1304	 2.82438713839497E-03 
1305	 2.66752574544817E-03 
1306	 2.59297677855897E-03 
1307	 2.72726458249353E-03 
1308	 2.87532288900439E-03 
1309	 3.12283086708333E-03 
1310	 3.07238197021709E-03 
1311	 2.83056305820001E-03 
1312	 2.72746730253739E-03 
1313	 2.51872325746474E-03 
1314	 2.34175954469236E-03 
1315	 2.27481770302349E-03 
1316	 2.31571375428931E-03 
1317	 2.31764249329215E-03 
1318	 2.2828828875111E-03 
1319	 2.45442857810318E-03 
1320	 2.59138373727718E-03 
1321	 2.82966067262039E-03 
1322	 2.54263370994534E-03 
1323	 2.01731235076407E-03 
1324	 2.46696459488805E-03 
1325	 3.04999812695255E-03 
1326	 2.6925797283825E-03 
1327	 2.80917473860544E-03 
1328	 3.13899916095099E-03 
1329	 2.90761537490385E-03 
1330	 2.74848351436997E-03 
1331	 2.94073506959991E-03 
1332	 3.18501745269972E-03 
1333	 2.55787175427097E-03 
1334	 2.16211174968637E-03 
1335	 2.46097527356032E-03 
1336	 3.13534562731766E-03 
1337	 2.93140871884042E-03 
1338	 2.89974061791604E-03 
1339	 3.15496244320068E-03 
1340	 2.47790639229282E-03 
1341	 2.43497913704143E-03 
1342	 4.26117993334724E-03 
1343	 4.76841886699097E-03 
1344	 3.8296138073909E-03 
1345	 3.18674774657805E-03 
1346	 1.17046218255286E-03 
1347	 1.39165111651322E-03 
1348	 5.63599638367887E-03 
1349	 6.48433745899364E-03 
1350	 6.97348769727697E-03 
1351	 8.25987612711554E-03 
1352	-5.01385835685107E-03 
1353	-1.05523592574692E-02 
1354	 5.66409375565246E-03 
1355	 3.71644375488593E-02 
1356	 2.86320119528933E-02 
1357	 4.50796772939123E-02 
1358	 0.120676052119033 
1359	 0.129746292831051 
1360	 4.48764819688256E-02 
1361	-2.94398753670804E-02 
1362	-2.30321819286197E-02 
1363	 2.28339607292525E-02 
1364	 0.151901952724105 
1365	 0.374559545184406 
1366	 0.363629739373744 
1367	 3.54483858772371E-02 
1368	-5.59549398355882E-02 
1369	 6.15637594487479E-02 
1370	 0.134041626673374 
1371	 0.237788107913608 
1372	 0.286271844511197 
1373	 0.625501777776472 
1374	 0.63026972845046 
1375	 9.07089580489693E-02 
1376	 9.25118801913086E-02 
1377	 0.450602031163807 
1378	 0.278236214667751 
1379	-0.138476503773836 
1380	-0.147911224845485 
1381	-0.121891302230963 
1382	-0.131063463707999 
1383	 0.256929229752076 
1384	 0.490172383801296 
1385	 0.297188499314537 
1386	 0.1874904071848 
1387	 0.062474358303215 
1388	 0.101468367817401 
1389	 0.220887665228553 
1390	 0.137355640643499 
1391	 0.252387829881746 
1392	-7.56682638956112E-03 
1393	-0.152465468114442 
1394	 4.30505077058583E-02 
1395	 0.205774229480881 
1396	 0.250205771929488 
1397	 0.22653236555663 
1398	 9.51458669311825E-02 
1399	-9.18448362866834E-02 
1400	-0.030967030565078 
1401	 0.188965683817971 
1402	 0.414742367853204 
1403	 0.366925673222914 
1404	 0.439858058378999 
1405	 0.461712528006209 
1406	 0.296400866528452 
1407	 0.157775260011538 
1408	 9.62507392676306E-02 
1409	 0.110213873146026 
1410	 8.65342467598765E-02 
1411	 0.054793464371665 
1412	 9.77530754981641E-02 
1413	 0.104232328578373 
1414	 6.13827934821493E-02 
1415	 2.82610659411574E-02 
1416	-4.21699271320364E-04 
1417	 1.34513840623626E-02 
1418	 3.83002392772903E-02 
1419	 2.86563822648204E-02 
1420	 2.83752780075819E-02 
1421	 2.78646801073044E-02 
1422	 9.9374403456422E-03 
1423	 6.98676536494642E-04 
1424	-4.47110469802499E-03 
1425	 2.83280622358709E-03 
1426	 2.14240587401724E-02 
1427	 0.017196688856621 
1428	 4.87719526855219E-03 
1429	 6.57841625898275E-03 
1430	 4.1614361646822E-03 
1431	-7.9451365114682E-04 
1432	 1.60001025061523E-03 
1433	 6.97086267326412E-03 
1434	 1.12574259412031E-02 
1435	 7.93435308740152E-03 
1436	 3.5038495966888E-03 
1437	 6.86104532092578E-03 
1438	 7.34027154535387E-03 
1439	 4.98103537045627E-04 
1440	 5.61100991936669E-04 
1441	 7.21781168556721E-03 
1442	 9.80529947452551E-03 
1443	 7.88458811736155E-03 
1444	 3.83293213152074E-03 
1445	 3.00242758571688E-03 
1446	 5.86093561738089E-03 
1447	 6.98892952652207E-03 
1448	 5.16787093099103E-03 
1449	 4.16531039613735E-03 
1450	 6.60057035216709E-03 
1451	 5.68403843137079E-03 
1452	 1.68249065995274E-03 
1453	 2.57568710235822E-03 
1454	 3.49473088084097E-03 
1455	 2.15340996799278E-03 
1456	 1.14498295076751E-03 
1457	 2.72813335678561E-03 
1458	 3.25545266252825E-03 
1459	 1.3453251012547E-03 
1460	 8.79508650551793E-04 
1461	 0.002746212004242 
1462	 3.23080093517234E-03 
1463	 2.21293445634569E-03 
1464	 1.68138041365223E-03 
1465	 1.86404118984407E-03 
1466	 1.91131002769984E-03 
1467	 5.62123286892366E-04 
1468	 6.0540544974187E-04 
1469	 2.89592583162176E-03 
1470	 3.1228937182276E-03 
1471	 1.96861294457975E-03 
1472	 2.39392234863282E-03 
1473	 3.19979393917461E-03 
1474	 2.98240647321509E-03 
1475	 3.15445529870272E-03 
1476	 3.13444986379982E-03 
1477	 1.92053719035451E-03 
1478	 1.69318116099194E-03 
1479	 2.46283092592996E-03 
1480	 0.002642831368606 
1481	 2.26706200728637E-03 
1482	 2.36932668074649E-03 
1483	 3.26295476154929E-03 
1484	 3.05749000690655E-03 
1485	 2.07393175445408E-03 
1486	 2.02361202294801E-03 
1487	 2.07322239626497E-03 
1488	 1.84259516715095E-03 
1489	 1.84387388547504E-03 
1490	 1.89986228408468E-03 
1491	 1.83240104833845E-03 
1492	 1.67265844151752E-03 
1493	 1.52731960850343E-03 
1494	 1.65743656158631E-03 
1495	 1.78298966045942E-03 
1496	 1.72607278500196E-03 
1497	 1.81234715506952E-03 
1498	 1.94888214988797E-03 
1499	 2.06792846821691E-03 
1500	 1.95331993462886E-03 
1501	 1.57988486048609E-03 
1502	 1.62382850053536E-03 
1503	 1.9050812383311E-03 
1504	 1.81540580604095E-03 
1505	 1.65687207221901E-03 
1506	 1.8170352047655E-03 
1507	 1.93506036124778E-03 
1508	 1.82274924028169E-03 
1509	 1.9380148404875E-03 
1510	 2.16033978458667E-03 
1511	 2.02268292318135E-03 
1512	 1.63768356719532E-03 
1513	 1.31656262231021E-03 
1514	 1.41847573576668E-03 
1515	 1.88352826160169E-03 
1516	 1.88394065206233E-03 
1517	 1.62042095780691E-03 
1518	 1.75842287238874E-03 
1519	 1.61360824749027E-03 
1520	 1.35411612615593E-03 
1521	 1.58234460632595E-03 
1522	 1.74431743678247E-03 
1523	 1.86244118051398E-03 
1524	 1.98941392985653E-03 
1525	 1.84378882452968E-03 
1526	 1.69484559848396E-03 
1527	 1.56709164450196E-03 
1528	 1.49259958899582E-03 
1529	 1.64188214055428E-03 
1530	 1.72183609881552E-03 
1531	 1.5857082807051E-03 
1532	 1.58075994277399E-03 
1533	 1.72241868542338E-03 
1534	 1.66069222554722E-03 
1535	 1.49661753018811E-03 
1536	 1.45181572769286E-03 
1537	 1.6107946556571E-03 
1538	 1.82031791198731E-03 
1539	 1.84774836526287E-03 
1540	 1.94116189103448E-03 
1541	 2.01658003866511E-03 
1542	 1.7597625402969E-03 
1543	 1.51578031988719E-03 
1544	 1.46473740294376E-03 
1545	 1.50043189579326E-03 
1546	 1.64880011307612E-03 
1547	 1.83262865946425E-03 
1548	 1.96326919235279E-03 
1549	 1.85972338827926E-03 
1550	 1.66897686635687E-03 
1551	 1.63737356789446E-03 
1552	 1.53469341411828E-03 
1553	 1.48238402445623E-03 
1554	 1.66098040574678E-03 
1555	 2.01838658000355E-03 
1556	 2.29870732196979E-03 
1557	 2.08421588394119E-03 
1558	 1.86653187290139E-03 
1559	 1.95690069125153E-03 
1560	 1.91949968869189E-03 
1561	 1.93002929083887E-03 
1562	 2.07174062970306E-03 
1563	 2.02335492001205E-03 
1564	 2.04085900607977E-03 
1565	 2.13469029913202E-03 
1566	 2.08345866351899E-03 
1567	 2.03932646468546E-03 
1568	 1.93559928601147E-03 
1569	 1.90953297890068E-03 
1570	 2.03674557901245E-03 
1571	 2.02094515736033E-03 
1572	 1.95365676603166E-03 
1573	 1.93771634924577E-03 
1574	 1.89666342691795E-03 
1575	 1.91066848645366E-03 
1576	 1.90563736106672E-03 
1577	 1.82186215484089E-03 
1578	 1.82046332712409E-03 
1579	 1.95030153720631E-03 
1580	 1.99829534262651E-03 
1581	 1.87210767865518E-03 
1582	 1.65466844249605E-03 
1583	 1.50138931867702E-03 
1584	 1.70289836659288E-03 
1585	 1.86465941993174E-03 
1586	 1.73828594109884E-03 
1587	 1.7722856482635E-03 
1588	 1.79024003164648E-03 
1589	 1.76798870148684E-03 
1590	 1.91404807002805E-03 
1591	 1.97751760366396E-03 
1592	 1.82672105285771E-03 
1593	 1.70339985824079E-03 
1594	 1.83601659539868E-03 
1595	 2.0503048675791E-03 
1596	 2.21569926563836E-03 
1597	 2.07289790240107E-03 
1598	 1.81006725788176E-03 
1599	 1.86041274902825E-03 
1600	 1.72672386154257E-03 
1601	 1.56494236810775E-03 
1602	 1.82785832963414E-03 
1603	 2.16712426538504E-03 
1604	 2.15187580158941E-03 
1605	 2.00223900002935E-03 
1606	 2.37870827271528E-03 
1607	 2.42250972906081E-03 
1608	 1.89106906841002E-03 
1609	 1.8959097770469E-03 
1610	 1.98735103180442E-03 
1611	 1.82827744873446E-03 
1612	 1.8398328457567E-03 
1613	 1.89004004983166E-03 
1614	 1.86512272327583E-03 
1615	 1.68815239532169E-03 
1616	 1.68930320093319E-03 
1617	 2.03829214839235E-03 
1618	 0.001911384187775 
1619	 1.60243361117542E-03 
1620	 1.77064301551018E-03 
1621	 1.84661840153958E-03 
1622	 1.7479110311528E-03 
1623	 1.91114903790004E-03 
1624	 2.00489549368989E-03 
1625	 1.64945569808238E-03 
1626	 1.42805672984205E-03 
1627	 1.55393632853021E-03 
1628	 1.64703639860475E-03 
1629	 1.72665171448573E-03 
1630	 1.93160641549324E-03 
1631	 1.96671112018292E-03 
1632	 1.68394292101324E-03 
1633	 1.49281044327524E-03 
1634	 1.50559874828101E-03 
1635	 1.77257988228229E-03 
1636	 1.89204595365941E-03 
1637	 1.67026507794618E-03 
1638	 1.72785903734665E-03 
1639	 1.77222586718982E-03 
1640	 1.71810866557266E-03 
1641	 1.8924694734201E-03 
1642	 1.92302857986497E-03 
1643	 1.74386696002735E-03 
1644	 1.66984457499627E-03 
1645	 1.72110468120189E-03 
1646	 1.7147233388033E-03 
1647	 1.6448504912389E-03 
1648	 1.72354699454848E-03 
1649	 1.91844991648285E-03 
1650	 1.90598843299746E-03 
1651	 1.62395566537091E-03 
1652	 1.31096888529105E-03 
1653	 1.84586348387163E-03 
1654	 1.95336298404616E-03 
1655	 2.0240796627747E-03 
1656	 2.1348967125831E-03 
1657	 1.93074945193281E-03 
1658	 1.71843516918597E-03 
1659	 1.6775753040603E-03 
1660	 1.77714103783696E-03 
1661	 1.74984755852443E-03 
1662	 1.7052155829062E-03 
1663	 1.8530445952339E-03 
1664	 1.87859844117105E-03 
1665	 1.7979345968329E-03 
1666	 1.87788827390165E-03 
1667	 2.01048957277644E-03 
1668	 1.87617345333881E-03 
1669	 1.94393258800997E-03 
1670	 1.88168094054114E-03 
1671	 1.76621218805598E-03 
1672	 1.82693017806162E-03 
1673	 2.00658970106415E-03 
1674	 1.6548398164533E-03 
1675	 1.34623171223672E-03 
1676	 1.92759716674608E-03 
1677	 2.17853191583725E-03 
1678	 1.84009060451804E-03 
1679	 1.82606428566145E-03 
1680	 1.71188726266734E-03 
1681	 1.55870275627491E-03 
1682	 2.03897523355259E-03 
1683	 2.34671085015629E-03 
1684	 1.85951995696764E-03 
1685	 0.001414433523246 
1686	 1.52266639734645E-03 
1687	 1.79222551853431E-03 
1688	 1.86276757153451E-03 
1689	 1.75594906534853E-03 
1690	 1.49683476008575E-03 
1691	 0.001525028701386 
1692	 2.05414016931195E-03 
1693	 2.29943387109827E-03 
1694	 1.92662654150599E-03 
1695	 1.62556077588505E-03 
1696	 1.73813708388133E-03 
1697	 1.9164237108933E-03 
1698	 2.02875474755728E-03 
1699	 1.91446979043987E-03 
1700	 1.64584149026248E-03 
1701	 1.74705816960116E-03 
1702	 2.2264224982725E-03 
1703	 2.44753920664459E-03 
1704	 2.08846441917678E-03 
1705	 1.61205132804684E-03 
1706	 1.54351869668047E-03 
1707	 1.80799218027286E-03 
1708	 1.9018715625196E-03 
1709	 1.82739871147541E-03 
1710	 1.79722879384261E-03 
1711	 1.74942804752977E-03 
1712	 1.81723398031157E-03 
1713	 1.94331277515045E-03 
1714	 1.9486025936469E-03 
1715	 1.42803620542004E-03 
1716	 1.49360922099221E-03 
1717	 1.52065892307062E-03 
1718	 1.51392734517097E-03 
1719	 1.77581829914859E-03 
1720	 1.64810145323289E-03 
1721	 1.47704075234602E-03 
1722	 1.77845100692979E-03 
1723	 1.6784136759471E-03 
1724	 1.74560761080575E-03 
1725	 2.12662401772297E-03 
1726	 1.62876147248394E-03 
1727	 1.22445303361409E-03 
1728	 1.47804303178912E-03 
1729	 1.50936129246039E-03 
1730	 1.55460333441738E-03 
1731	 2.19277068864855E-03 
1732	 2.81932677041976E-03 
1733	 2.63366071350363E-03 
1734	 2.19611090424059E-03 
1735	 1.93624861825695E-03 
1736	 1.33092626171552E-03 
1737	 1.35551356252461E-03 
1738	 2.1044015204157E-03 
1739	 1.99786576619931E-03 
1740	 1.74283225712853E-03 
1741	 1.74526097028235E-03 
1742	 1.85844108244131E-03 
1743	 1.94673689468887E-03 
1744	 1.59139258286824E-03 
1745	 2.09845047663092E-03 
1746	 2.06029306468746E-03 
1747	 1.80250294634742E-03 
1748	 1.68866264258403E-03 
1749	 1.76891570605093E-03 
1750	 2.06579923381984E-03 
1751	 2.15765206533412E-03 
1752	 2.23237915528071E-03 
1753	 2.10650812278306E-03 
1754	 1.32773839707246E-03 
1755	 1.2668628276398E-03 
1756	 1.94943709597972E-03 
1757	 2.03108603709453E-03 
1758	 1.84467893412651E-03 
1759	 1.22566403440043E-03 
1760	 1.19301548074967E-03 
1761	 1.83227959965204E-03 
1762	 2.42904663406989E-03 
1763	 2.66075206628289E-03 
1764	 2.43383634504148E-03 
1765	 1.65223613388707E-03 
1766	 1.18234346460039E-03 
1767	 1.42309592612617E-03 
1768	 1.48308807678032E-03 
1769	 2.11916686060272E-03 
1770	 2.25829991719768E-03 
1771	 1.73331125440805E-03 
1772	 2.51630892761248E-03 
1773	 2.50856632098608E-03 
1774	 2.01679403024519E-03 
1775	 2.28540922249209E-03 
1776	 2.15820827940575E-03 
1777	 2.33273213656845E-03 
1778	 2.31152549078351E-03 
1779	 1.25085025082521E-03 
1780	 1.22232362089194E-03 
1781	 2.29179437728063E-03 
1782	 2.31697683196732E-03 
1783	 2.54543117627552E-03 
1784	 3.18242237950326E-03 
1785	 2.95554992838127E-03 
1786	 2.93331698928608E-03 
1787	 3.77001595727741E-03 
1788	 2.94555334864364E-03 
1789	 6.28049102367358E-04 
1790	 9.36108443037208E-04 
1791	 3.64525183452329E-04 
1792	 2.25520091834652E-03 
1793	 3.92387602723399E-03 
1794	 3.08828648229931E-03 
1795	 5.98817556995024E-03 
1796	 8.03966997552998E-03 
1797	 4.79789853828619E-03 
1798	 4.36191653025317E-05 
1799	-7.61073569981857E-03 
1800	-4.98803430339182E-03 
1801	-3.62164261363361E-03 
1802	 1.33136700319975E-02 
1803	 1.96881159971827E-02 
1804	 1.08925407329779E-03 
1805	-3.36992816779715E-03 
1806	-8.94937613600677E-03 
1807	-1.47058595082892E-02 
1808	 9.92527447973418E-03 
1809	 2.78665937541976E-02 
1810	 4.04998728785992E-02 
1811	 4.13228550934853E-02 
1812	 1.52979893810093E-02 
1813	 1.91117050296251E-03 
1814	-6.09864570273652E-02 
1815	-1.55861151497023E-02 
1816	 0.172741978748754 
1817	 0.344670373566594 
1818	 0.396634953952906 
1819	 0.232214994466327 
1820	-8.07812581696247E-02 
1821	-0.364467523756289 
1822	-0.497040604919377 
1823	-0.193420995516579 
1824	 8.67096660968391E-02 
1825	 0.84764694003865 
1826	 1.01621791995541 
1827	 0.432028699509814 
1828	 0.303300768038971 
1829	-7.54268565689883E-02 
1830	-0.176134259713216 
1831	-6.49115593879232 
1832	 4.93997514324522 
1833	 2.07324267863447 
1834	 1.66407816810156 
1835	 0.798907342490643 
1836	 0.200448020701779 
1837	-0.145228969875658 
1838	-0.870351818683827 
1839	 2.85606978771146 
1840	 0.758059587338397 
1841	 1.20474481244872 
1842	 1.50551211468472 
1843	 1.06092237372815 
1844	 0.53792765022118 
1845	 0.461488064507164 
1846	 0.221955387303498 
1847	-0.222372836734973 
1848	-0.323681647130708 
1849	-0.650849146280888 
1850	-0.577021715833382 
1851	-0.221828351050079 
1852	 0.351546884050591 
1853	-6.32857473007628 
1854	-0.951813718709911 
1855	 0.862525508382144 
1856	 1.03906288416601 
1857	 0.970993580638962 
1858	 1.12774651762172 
1859	-10.2991850314518 
1860	-3.44788743686263 
1861	 0.421536758371576 
1862	 0.271330417780973 
1863	 0.455652207094342 
1864	 41.53967665755 
1865	 2.37017959796953 
1866	-0.457385041189984 
1867	-0.391589589763788 
1868	-0.15154885189986 
1869	-0.192109521140628 
1870	-5.36202313546028E-02 
1871	 1.31115642890724 
1872	 0.559099943035893 
1873	 1.03758004002413E-02 
1874	 0.041613135937602 
1875	 0.774953451080861 
1876	 1.24354180010048 
1877	 1.86762824465977 
1878	 1.62854326281022 
1879	 0.528151643485147 
1880	 0.124635988959574 
1881	-0.415077305763151 
1882	-0.459831715174715 
1883	-0.131680732175812 
1884	 1.0970778811238 
1885	-2.21238830851712 
1886	-11.3587488184716 
1887	 4.83480673275288 
1888	 2.30185860082921 
1889	 2.27923131950795 
1890	 0.956256377691902 
1891	 6.22845725687034E-02 
1892	-0.934566460357518 
1893	 11.7620822704051 
1894	 4.96858156132303 
1895	 5.07102695720206 
1896	-3.40920579405281E-02 
1897	-0.330933191750004 
1898	 0.747328852820848 
1899	 0.666578670483124 
1900	 0.480670527935182 
1901	 9.36045049626617E-02 
1902	 0.130190414552782 
1903	-4.37495677247382E-02 
1904	-7.40880070273045 
1905	-1.00413850318553 
1906	-3.23326923731743 
1907	-1.57858628617012 
1908	-1.58994805606864 
1909	 2.14378777452066 
1910	 4.64120398108653 
1911	 0.479293525792933 
1912	-1.44166314688394 
1913	-3.87418202043722 
1914	 3.24425019330284 
1915	 5.22029821775505 
1916	 0.54815468414558 
1917	 0.422874472063546 
1918	-0.506957362621492 
1919	-1.28862921782608 
1920	-2.84576163088638 
1921	-1.91410231466957 
1922	-1.45404108029181 
1923	-30.6974141713745 
1924	 0.972585680245497 
1925	-6.72635843529109E-02 
1926	 0.329818311103947 
1927	 0.869677229652269 
1928	 0.823003826238199 
1929	 1.19424701258038 
1930	 1.37742122636407 
1931	 0.767368364395245 
1932	 0.461841850674662 
1933	 7.56900511949088E-02 
1934	-3.69776644141538E-03 
1935	 0.160360520513668 
1936	 0.111086225493633 
1937	 8.03947437239164E-02 
1938	 0.14352489242403 
1939	 0.155927376680456 
1940	 0.133524562316921 
1941	 0.119383239427257 
1942	 0.112611195229172 
1943	 9.38440779119796E-02 
1944	 5.51812317296508E-02 
1945	 0.028959152541525 
1946	 3.18198971428841E-02 
1947	 1.63254492457728E-02 
1948	-9.26620224117479E-03 
1949	-1.21593959139103E-02 
1950	-9.16927804398556E-03 
1951	-2.36241814254316E-02 
1952	-2.39780019303832E-02 
1953	-1.69791103079664E-02 
1954	-4.64214733001776E-03 
1955	 9.70768531549582E-04 
1956	 1.86602353147477E-02 
1957	 2.59008424650746E-02 
1958	 2.53540740045896E-02 
1959	 2.02546630592492E-02 
1960	 6.43124814537492E-03 
1961	 2.10881634307148E-03 
1962	 2.02031087823743E-04 
1963	-2.12930818766022E-03 
1964	 3.48828355967597E-04 
1965	-1.35978977622468E-03 
1966	-8.94493956967926E-04 
1967	-8.8219032058075E-04 
1968	 2.28690047528004E-03 
1969	 2.31902077321735E-03 
1970	 2.81268943870826E-03 
1971	 3.70948457247315E-03 
1972	 1.92752724318915E-03 
1973	 1.43767892591069E-03 
1974	 2.46174722873099E-03 
1975	 2.57597387610408E-03 
1976	 1.59192138229546E-03 
1977	 5.08419019608296E-04 
1978	 2.66056267175633E-04 
1979	 5.36132123296658E-04 
1980	 9.78298663471233E-04 
1981	 2.14140547730079E-03 
1982	 2.79704565634176E-03 
1983	 2.93219668782095E-03 
1984	 2.74115391253817E-03 
1985	 2.20004991714676E-03 
1986	 2.62842888458313E-03 
1987	 2.22138434726122E-03 
1988	 1.34622191627526E-03 
1989	 9.68355828553798E-04 
1990	 6.46811456841172E-04 
1991	 1.42843432786237E-03 
1992	 2.38974941113174E-03 
1993	 2.87980795627836E-03 
1994	 3.17319336299724E-03 
1995	 2.96132758696148E-03 
1996	 2.80823524213376E-03 
1997	 3.04160182211665E-03 
1998	 2.81719018416734E-03 
1999	 3.77008341379517E-03 
2000	 3.8033788307949E-03 
2001	-2.48557191207214E-05 
2002	-9.41133547612309E-04 
2003	 1.22984572984482E-03 
2004	 7.53553714269775E-04 
2005	 1.68246502463606E-03 
2006	 4.79999422072569E-03 
2007	 5.67428932447821E-03 
2008	 4.81973763183723E-03 
2009	 4.83539101255087E-03 
2010	 7.55468910419203E-03 
2011	 7.74325594280168E-03 
2012	 5.94189143541714E-03 
2013	 4.16278752817973E-03 
2014	 3.69942635348512E-03 
2015	 3.90866097775019E-03 
2016	 3.27074215344292E-03 
2017	 3.34986139372568E-03 
2018	 2.38731152386399E-03 
2019	 4.63067908064321E-05 
2020	 9.70286844648335E-04 
2021	 3.67410213162528E-03 
2022	 3.98620921179653E-03 
2023	 5.14207088538773E-03 
2024	 5.3350503052299E-03 
2025	 2.91873611087182E-03 
2026	 2.09121197131412E-03 
2027	 2.22115965495139E-03 
2028	 2.2294453044217E-03 
2029	 1.93392089420565E-03 
2030	 2.53276525158295E-03 
2031	 2.30229392359696E-03 
2032	 1.57194938369942E-03 
2033	 1.32597032148065E-03 
2034	 1.48440498154374E-03 
2035	 1.56452587971986E-03 
2036	 1.58301049574505E-03 
2037	 1.01348848850946E-03 
2038	 1.55258468813993E-05 
2039	-1.65567856012081E-05 
2040	 8.64434191483937E-04 
2041	 1.0981547926959E-03 
2042	 1.74103352241661E-03 
2043	 2.09498156756649E-03 
2044	 1.76510381452948E-03 
2045	 1.68229311918051E-03 
2046	 2.57104303285426E-03 
2047	 3.01847694646729E-03 
2048	 0.003178838634598 
2049	 2.87770565264419E-03 
2050	 2.68272916405382E-03 
2051	 2.96068478398388E-03 
2052	 3.09112416800831E-03 
2053	 3.45835020482127E-03 
2054	 2.58169284436755E-03 
2055	 1.84992010469745E-03 
2056	 1.53943613487469E-03 
2057	 7.12751509461801E-04 
2058	 6.15357898753107E-04 
2059	 2.13705704806899E-03 
2060	 2.28034979902055E-03 
2061	 1.39101562673059E-03 
2062	 2.32987530791674E-03 
2063	 2.89271856082198E-03 
2064	 1.20802235304421E-03 
2065	 1.04637940542403E-03 
2066	 2.12361277596943E-03 
2067	 1.40997060767269E-03 
2068	 1.58652009863446E-03 
2069	 2.24431129716177E-03 
2070	 1.03441573375935E-03 
2071	 5.61270247567904E-04 
2072	 1.40936448370862E-03 
2073	 1.69207197872229E-03 
2074	 1.67880874625516E-03 
2075	 1.75259140461532E-03 
2076	 2.10567016328737E-03 
2077	 2.18844140311478E-03 
2078	 1.90757245967135E-03 
2079	 2.12371633796932E-03 
2080	 2.82824192186141E-03 
2081	 2.74030030220753E-03 
2082	 2.43673253201309E-03 
2083	 2.52848666247465E-03 
2084	 2.56448122341519E-03 
2085	 2.41471253840553E-03 
2086	 0.002793357821 
2087	 3.2058462649063E-03 
2088	 2.82229926887673E-03 
2089	 2.85713835409345E-03 
2090	 2.99857640872328E-03 
2091	 2.59187964837555E-03 
2092	 2.27323362270611E-03 
2093	 1.64640574935644E-03 
2094	 1.78987165739977E-03 
2095	 2.75043619727208E-03 
2096	 2.65656050604545E-03 
2097	 2.23147549384367E-03 
2098	 2.32529850215696E-03 
2099	 2.08762180781698E-03 
2100	 1.49167548521219E-03 
2101	 1.97139908363831E-03 
2102	 2.57117410048185E-03 
2103	 2.21898871845687E-03 
2104	 1.65393640335813E-03 
2105	 1.86011837271812E-03 
2106	 2.83927498675028E-03 
2107	 2.50523607832417E-03 
2108	 2.22436592093457E-03 
2109	 2.5357774714154E-03 
2110	 2.29056400989252E-03 
2111	 2.24810329814665E-03 
2112	 2.41840949740945E-03 
2113	 2.61945665632944E-03 
2114	 2.58853893432483E-03 
2115	 2.15420415263171E-03 
2116	 1.69718991123408E-03 
2117	 1.63895852191366E-03 
2118	 1.29403754603547E-03 
2119	 8.40943115043785E-04 
2120	 8.05927250599284E-04 
2121	 4.75304651927859E-04 
2122	 2.36738133219147E-04 
2123	 5.38049073240221E-04 
2124	 1.28836380336779E-03 
2125	 2.81853955793707E-03 
2126	 3.07071917693538E-03 
2127	 2.33717702235933E-03 
2128	 2.24647214970232E-03 
2129	 1.66652779922323E-03 
2130	 1.3392366666301E-03 
2131	 1.58623246308667E-03 
2132	 1.96486630426314E-03 
2133	 2.43018549706352E-03 
2134	 2.28896246372938E-03 
2135	 1.98241446307301E-03 
2136	 1.91075201000003E-03 
2137	 1.02303420996274E-03 
2138	 5.46738583913698E-04 
2139	 5.54839594026561E-04 
2140	 8.72930358743245E-04 
2141	 1.6352256096349E-03 
2142	 2.00165680931789E-03 
2143	 2.81402012905045E-03 
2144	 3.01931413775262E-03 
2145	 2.31218416309793E-03 
2146	 2.28164862236333E-03 
2147	 3.18787775919426E-03 
2148	 3.23198301825949E-03 
2149	 2.94304652557857E-03 
2150	 2.22976913949526E-03 
2151	 2.28853154842806E-03 
2152	 0.002869400229715 
2153	 2.26114632096025E-03 
2154	 1.76990020214582E-03 
2155	 1.44809376496804E-03 
2156	 5.78942424036255E-04 
2157	 2.15993090983396E-04 
2158	 1.15957203363559E-03 
2159	 1.33775386037966E-03 
2160	 6.10545273437373E-04 
2161	 5.18138909865172E-04 
2162	 7.62974364367004E-04 
2163	 1.38283965046193E-03 
2164	 2.77619433110306E-03 
2165	 3.26790451034925E-03 
2166	 3.90441315584458E-03 
2167	 3.75057535449522E-03 
2168	 2.09674146165328E-03 
2169	 1.45474494966427E-03 
2170	 6.49862121660823E-04 
2171	 9.41533860701543E-04 
2172	 1.4228233635789E-03 
2173	 1.39594913551288E-03 
2174	 2.62578107217234E-03 
2175	 3.57920267688575E-03 
2176	 3.1346691469399E-03 
2177	 3.44340659322507E-03 
2178	 3.64608364234458E-03 
2179	 2.04155816481379E-03 
2180	 1.79153568900283E-03 
2181	 2.78381347804365E-03 
2182	 3.23088525407812E-03 
2183	 4.66174705748806E-03 
2184	 5.50464365355919E-03 
2185	 4.71142351490914E-03 
2186	 4.22042448902127E-03 
2187	 2.14226424841053E-03 
2188	 1.81096953166829E-03 
2189	 2.73883136559825E-03 
2190	 3.17329550843757E-03 
2191	 4.24969176677349E-03 
2192	 4.62055957583743E-03 
2193	 4.38609584817736E-03 
2194	 4.02592013991433E-03 
2195	 3.75581351667264E-03 
2196	 3.25632812818367E-03 
2197	 1.75722539424449E-03 
2198	 1.21974346096702E-03 
2199	 1.39740472380492E-03 
2200	 2.73566354055279E-04 
2201	 1.37849936708748E-03 
2202	 2.38886425629293E-03 
2203	 2.75099343247694E-03 
2204	 2.86756132478214E-03 
2205	-2.80316066576557E-04 
2206	-1.60129883079401E-03 
2207	-1.60809366264228E-03 
2208	-1.47779607968861E-03 
2209	 1.1108202223263E-03 
2210	 2.47060119657038E-03 
2211	 2.39501375539263E-03 
2212	 3.44140707001512E-03 
2213	 4.81654179720494E-03 
2214	 5.59783399133439E-03 
2215	 5.28437185684671E-03 
2216	 3.69614447559569E-03 
2217	 3.08456342662151E-03 
2218	 1.76828091015653E-03 
2219	 1.11755560710145E-03 
2220	 8.64386716686208E-04 
2221	 1.33334210016364E-03 
2222	 2.40632365766677E-03 
2223	 2.53679147332486E-03 
2224	 3.84006968667648E-03 
2225	 4.26623055048358E-03 
2226	 2.57216673990544E-03 
2227	 1.90662362979865E-03 
2228	 1.77954066039221E-03 
2229	 1.93187208564142E-03 
2230	 3.03769168465651E-03 
2231	 2.92845584583603E-03 
2232	 1.46395466324125E-03 
2233	 1.48926389541199E-03 
2234	 2.35654875521935E-03 
2235	 1.6221164737396E-03 
2236	 2.05243390449739E-04 
2237	 2.28361625002442E-03 
2238	 3.42372633980351E-03 
2239	 2.3926254333084E-03 
2240	 3.50746795567907E-03 
2241	 3.55977052550368E-03 
2242	 1.15972503653402E-03 
2243	-9.94969019964754E-05 
2244	-6.13477598025392E-04 
2245	-6.58939668674021E-04 
2246	 1.04920168752241E-04 
2247	 8.56054776786977E-04 
2248	 1.67533113617491E-03 
2249	 2.06030247407769E-03 
2250	 2.45327115623808E-03 
2251	 3.39445794577485E-03 
2252	 3.68289292726341E-03 
2253	 4.16022330139002E-03 
2254	 3.48231717702059E-03 
2255	 1.38931708850669E-03 
2256	 1.91595048825377E-03 
2257	 1.95531050994459E-03 
2258	-1.53861683818731E-04 
2259	 1.24644327743077E-03 
2260	 1.74326756850147E-03 
2261	 9.93437710124927E-04 
2262	 5.42466420744018E-04 
2263	 1.33500393795093E-03 
2264	 1.36494793521881E-03 
2265	 9.81987321597075E-04 
2266	 4.23216968863502E-04 
2267	-5.42834110478336E-04 
2268	-1.06461416503186E-03 
2269	-2.14925865445566E-03 
2270	-1.65303678205092E-03 
2271	 7.14605298679377E-04 
2272	 1.46386108002136E-03 
2273	 9.53265509792606E-04 
2274	 2.19655991652073E-03 
2275	 5.49946056964145E-03 
2276	 6.39918008920615E-03 
2277	 7.05505513487452E-03 
2278	 6.40124501797268E-03 
2279	 1.93286125709597E-03 
2280	-2.00026374714129E-05 
2281	-1.23060917085297E-03 
2282	-5.83302861609256E-04 
2283	-9.80970651752155E-04 
2284	-8.3397825150426E-04 
2285	 3.07372057678925E-03 
2286	 5.89467815358428E-03 
2287	 5.10662914362284E-03 
2288	 5.61642698256512E-03 
2289	 3.6200038019703E-03 
2290	 1.26034432259297E-03 
2291	 3.09614803308476E-03 
2292	 5.29332236788584E-03 
2293	 5.6175435691477E-03 
2294	 5.52936460707967E-03 
2295	 7.05420265722771E-03 
2296	 7.47840596987648E-03 
2297	 8.08473481244594E-03 
2298	 7.1878863017157E-03 
2299	 3.26248831620545E-03 
2300	 1.54592315555403E-03 
2301	 3.66561344437858E-04 
2302	 1.13896175236973E-03 
2303	 3.03095878638376E-03 
2304	 5.01471108535895E-04 
2305	-1.13804508784097E-03 
2306	-1.04281109734079E-03 
2307	-3.97911172986268E-03 
2308	-1.07156076505661E-03 
2309	 3.46293972068993E-03 
2310	-4.6816912062964E-05 
2311	 1.77539654427943E-03 
2312	 7.26386987703105E-03 
2313	 5.26724267372641E-03 
2314	 1.29018654339778E-03 
2315	-2.52283331931355E-03 
2316	-6.35752098895256E-03 
2317	-3.55934056580017E-03 
2318	 3.41733109600921E-03 
2319	 8.47993231147699E-03 
2320	 1.03740264186881E-02 
2321	 8.70779962965654E-03 
2322	 6.6516544306546E-03 
2323	 7.25562830931427E-03 
2324	 1.14126280445911E-02 
2325	 0.010929886130003 
2326	 7.59140566805239E-03 
2327	 5.39980835417066E-03 
2328	-2.63227553908824E-03 
2329	-8.85222441471559E-03 
2330	-7.9841216300608E-03 
2331	-0.005088300241497 
2332	-3.40028235897666E-03 
2333	-5.87160592083362E-03 
2334	-7.36810261342975E-03 
2335	-3.94875255605598E-03 
2336	-8.92951042670066E-04 
2337	 4.06297578433026E-03 
2338	 1.27940387463133E-02 
2339	 1.12060518348226E-02 
2340	 4.09727634259935E-03 
2341	 5.21395478387798E-03 
2342	 6.09854874998852E-04 
2343	-2.63627491536092E-03 
2344	 3.06099635323713E-03 
2345	 2.75549469396764E-03 
2346	 5.31591042121003E-03 
2347	 6.86387248494546E-03 
2348	-3.2982420041989E-04 
2349	-1.70808578617682E-03 
2350	 1.50809033157098E-03 
2351	 8.421417710956E-04 
2352	 1.59873656138106E-03 
2353	 1.51680078448544E-03 
2354	-7.37768003582985E-03 
2355	-8.68924248424101E-03 
2356	-3.96482763640649E-04 
2357	-2.91187598887188E-04 
2358	-7.65097071435925E-04 
2359	-1.80701510402252E-03 
2360	-6.06196461262755E-03 
2361	-1.74689216909522E-03 
2362	 2.40586482763714E-03 
2363	-2.40791925234063E-03 
2364	-4.72024172219692E-03 
2365	-1.53827361092959E-04 
2366	-1.70742021279979E-03 
2367	-4.42280810347123E-03 
2368	 8.85107087771575E-03 
2369	 2.16345016001545E-02 
2370	 1.32347654461365E-02 
2371	 7.59012230368535E-03 
2372	 1.23619176813124E-02 
2373	-1.57164812233121E-04 
2374	 7.54176373508436E-03 
2375	 2.58300914399438E-02 
2376	 8.81972154460311E-04 
2377	-1.46247244403275E-02 
2378	-9.89005612001354E-03 
2379	-1.91708773548885E-02 
2380	-1.56471098070736E-02 
2381	-3.30433861656788E-02 
2382	-7.54554787885817E-02 
2383	-6.51074543368799E-02 
2384	-4.56118629138779E-02 
2385	-3.97119483549693E-02 
2386	-3.53796412342579E-03 
2387	 2.17965760283447E-03 
2388	-1.52017117994098E-02 
2389	-1.42583053121872E-02 
2390	-1.84219450505672E-02 
2391	-1.33155927642284E-02 
2392	-1.89311284298477E-02 
2393	-0.013417271460885 
2394	 8.54336582369317E-03 
2395	-1.29385243172597E-02 
2396	-0.020017650384722 
2397	 2.31411780807144E-03 
2398	 9.01190745599827E-03 
2399	 3.87261900496029E-03 
2400	 5.8500360942976E-03 
2401	 1.13076303720376E-02 
2402	 4.53880983889239E-03 
2403	 3.60924111155587E-02 
2404	 8.21031523513835E-02 
2405	 6.36655318627827E-02 
2406	 1.84906767751143E-02 
2407	-3.28671672977445E-03 
2408	-3.50311345621035E-02 
2409	-5.43236751860181E-02 
2410	-7.37571964080515E-03 
2411	-3.05023562691861E-03 
2412	-3.46804236717898E-02 
2413	-2.21425357462673E-02 
2414	-2.95497715241454E-02 
2415	-6.74649247828554E-02 
2416	-4.70167866914291E-02 
2417	 4.16489304209722E-02 
2418	 0.126585521996812 
2419	 0.117778694564823 
2420	 4.97399937638792E-02 
2421	 2.66600843998949E-02 
2422	-3.51096934348249E-03 
2423	-7.50179218866603E-03 
2424	 7.21808331931238E-02 
2425	 0.110555544407861 
2426	 9.22865194662597E-02 
2427	 7.40994287877677E-02 
2428	 8.90610244552397E-02 
2429	 0.108515380932444 
2430	 6.56470940297505E-02 
2431	 5.11117101682399E-02 
2432	 5.97045055689941E-02 
2433	-1.62364578028919E-02 
2434	-5.84325838295708E-02 
2435	-4.78148811795767E-02 
2436	-5.73035806899745E-02 
2437	-8.59478904197733E-02 
2438	-0.147622940124172 
2439	-0.154384586353064 
2440	-0.172366566291039 
2441	-0.203923859270971 
2442	-0.198996372626901 
2443	-0.213107683264057 
2444	-0.187256292603952 
2445	-6.79977927358426E-02 
2446	 0.122749823769875 
2447	 0.273315856903439 
2448	 0.338817366740288 
2449	 0.198937336385896 
2450	 0.10779354550977 
2451	-0.37021284509752 
2452	-0.310270638715041 
2453	-0.771104205108034 
2454	-1.2921446424911 
2455	-1.00131680229972 
2456	-0.621663554190858 
2457	-0.256387089862692 
2458	-6.36214364967357E-02 
2459	-9.36476090968806E-02 
2460	-4.03824749930805E-02 
2461	-6.86373252289262E-02 
2462	-0.138180511693352 
2463	 1.33717815439286E-02 
2464	 0.173702598739203 
2465	 0.276075165050509 
2466	 0.319696522931436 
2467	 0.535748699474944 
2468	 2.32560647360281 
2469	 2.32326491347044 
2470	 0.729606044747501 
2471	 1.36827451277917 
2472	 0.661725164072196 
2473	 0.641862590713826 
2474	 0.945171952266732 
2475	 0.518469879399113 
2476	 0.752419200538683 
2477	 0.237439893075555 
2478	 6.20704294947549E-02 
2479	-1.74603659917641 
2480	 0.312685903543347 
2481	 0.192713441696296 
2482	 7.96975671308318E-02 
2483	 0.437803724840123 
2484	 0.373980899896959 
2485	-2.04984043952822E-02 
2486	-0.454492870128109 
2487	-1.5184738428258 
2488	-1.15023727368196 
2489	-0.251179349314008 
2490	 0.153025212957329 
2491	 0.246496902011753 
2492	 5.21417008919748E-02 
2493	-1.18051166862322 
2494	-0.839042898215906 
2495	-1.23135384929506 
2496	-1.80267638864537 
2497	-0.587364972520413 
2498	-0.566868778618164 
2499	-0.650669022833197 
2500	-0.650691167536456 
