Wavelength	rt0718close00008.asd
350	 1.17664134853444E-02 
351	 1.12346079996305E-02 
352	 1.10617003687626E-02 
353	 0.011431387462318 
354	 1.20743984820563E-02 
355	 1.20470682543366E-02 
356	 1.22184332195832E-02 
357	 1.24321338614685E-02 
358	 1.23957173523994E-02 
359	 1.26780897404514E-02 
360	 1.26211604300139E-02 
361	 1.22806046530582E-02 
362	 1.22087901857761E-02 
363	 1.25614024998014E-02 
364	 1.26838500471856E-02 
365	 1.24846187174085E-02 
366	 1.28572696285355E-02 
367	 1.30273758433125E-02 
368	 1.29913517397464E-02 
369	 1.29494350095996E-02 
370	 1.30685395431899E-02 
371	 1.30926978364877E-02 
372	 1.30398157787742E-02 
373	 1.30875947296225E-02 
374	 1.32220674395597E-02 
375	 1.34770572280461E-02 
376	 1.38462524878423E-02 
377	 1.42660309572044E-02 
378	 1.37867879526812E-02 
379	 1.35270802328398E-02 
380	 1.43182129552511E-02 
381	 0.014610410619861 
382	 0.014506168043073 
383	 0.014205801375782 
384	 1.40837525274365E-02 
385	 1.50601439674974E-02 
386	 1.56885490877914E-02 
387	 0.015521352009059 
388	 1.54274169148625E-02 
389	 1.54642484818901E-02 
390	 1.54581274956235E-02 
391	 1.53505487570371E-02 
392	 0.015482189520407 
393	 1.58764070724598E-02 
394	 1.64094627246849E-02 
395	 1.68276179706194E-02 
396	 1.65131799559534E-02 
397	 1.64630165841378E-02 
398	 1.68252070016209E-02 
399	 1.69700684578895E-02 
400	 1.69789746784835E-02 
401	 1.69888588061941E-02 
402	 1.70844567859366E-02 
403	 0.017209279012745 
404	 1.74082070673571E-02 
405	 0.017588617136141 
406	 1.76576909348744E-02 
407	 1.78197306793695E-02 
408	 0.017991363041524 
409	 1.80732854632531E-02 
410	 1.79938163183814E-02 
411	 1.83061860726768E-02 
412	 1.85888910202634E-02 
413	 1.85613272192408E-02 
414	 1.86864741455076E-02 
415	 1.88966466213056E-02 
416	 1.91188848193926E-02 
417	 1.92821806354189E-02 
418	 1.94023087352195E-02 
419	 0.019583909276062 
420	 1.98371760759061E-02 
421	 2.00663653937038E-02 
422	 2.01585144661332E-02 
423	 2.02794896565192E-02 
424	 2.05183642677652E-02 
425	 2.05645417549923E-02 
426	 2.07595688995012E-02 
427	 2.10706631647351E-02 
428	 2.13015567419479E-02 
429	 2.15276011658889E-02 
430	 2.17697326912086E-02 
431	 2.20085962720966E-02 
432	 2.21846889783294E-02 
433	 2.24291604843037E-02 
434	 2.27191833679675E-02 
435	 2.29970986606497E-02 
436	 2.32111659769218E-02 
437	 2.34257423777478E-02 
438	 2.37063374544715E-02 
439	 0.024077039144978 
440	 2.42296169367304E-02 
441	 2.44108149362098E-02 
442	 2.47304583466407E-02 
443	 2.50137267394593E-02 
444	 2.52129608885797E-02 
445	 2.53970684376757E-02 
446	 2.56328093223338E-02 
447	 2.58183667092307E-02 
448	 2.60837736323039E-02 
449	 2.63719194160207E-02 
450	 2.65026084625032E-02 
451	 2.65888863558128E-02 
452	 2.67670216015934E-02 
453	 2.70385098510972E-02 
454	 2.71246142307116E-02 
455	 2.72480821121218E-02 
456	 2.73840223386793E-02 
457	 2.74598479768867E-02 
458	 2.76374747828278E-02 
459	 2.77919145047564E-02 
460	 0.027906643786959 
461	 2.80827142995546E-02 
462	 0.028264153428711 
463	 0.028360693468979 
464	 2.83646102058039E-02 
465	 2.85034482303664E-02 
466	 2.86761158291776E-02 
467	 2.87911153611298E-02 
468	 2.88043861312396E-02 
469	 2.90038429707569E-02 
470	 0.029159299263196 
471	 2.92051080549579E-02 
472	 2.93549936691949E-02 
473	 2.95709256202975E-02 
474	 2.97307127513192E-02 
475	 2.97801715495499E-02 
476	 2.99955357952943E-02 
477	 3.01626554744164E-02 
478	 3.03058309107783E-02 
479	 0.03058983044138 
480	 3.07825463830792E-02 
481	 3.09013233684945E-02 
482	 3.10227070616478E-02 
483	 3.12701423371898E-02 
484	 3.15805529220613E-02 
485	 0.031802158085684 
486	 3.18481184620522E-02 
487	 3.21454066671909E-02 
488	 3.24186447997409E-02 
489	 3.26210997769401E-02 
490	 3.29518911298194E-02 
491	 3.31763213692085E-02 
492	 3.33500864813837E-02 
493	 3.35738617094479E-02 
494	 3.39223729935573E-02 
495	 3.42528600851601E-02 
496	 3.45194699427686E-02 
497	 3.47512238219479E-02 
498	 3.51278345678081E-02 
499	 3.54752262393771E-02 
500	 0.035736453231976 
501	 0.036091635371133 
502	 3.63811162851539E-02 
503	 3.66473478242396E-02 
504	 3.69757686695375E-02 
505	 3.73976447697358E-02 
506	 3.76814252098433E-02 
507	 3.79120272546168E-02 
508	 3.83931492292219E-02 
509	 3.86686861349541E-02 
510	 3.89257315806984E-02 
511	 0.039331955458201 
512	 3.97848606461761E-02 
513	 4.01404959622172E-02 
514	 4.04515975680597E-02 
515	 4.08512663867542E-02 
516	 4.13076663281523E-02 
517	 4.18169939540793E-02 
518	 4.22864791941854E-02 
519	 4.25253992901825E-02 
520	 4.29065355043944E-02 
521	 4.33664497744052E-02 
522	 4.37894248516008E-02 
523	 0.044251765160661 
524	 4.47387995204318E-02 
525	 4.52008522467771E-02 
526	 0.045585034553865 
527	 4.60761114181812E-02 
528	 4.65853347112632E-02 
529	 4.70295579034355E-02 
530	 4.74086953428388E-02 
531	 4.78100859586519E-02 
532	 4.82886655166922E-02 
533	 4.88465290864078E-02 
534	 4.92918076891892E-02 
535	 4.97665692094761E-02 
536	 5.03022172376729E-02 
537	 5.07800384020144E-02 
538	 5.12847994399062E-02 
539	 5.18050123873436E-02 
540	 5.23207974958598E-02 
541	 5.28663192536728E-02 
542	 5.33788410481121E-02 
543	 5.38762362548307E-02 
544	 0.054412447105204 
545	 5.48172441726889E-02 
546	 5.52638915139805E-02 
547	 5.58191244037628E-02 
548	 5.62583329231788E-02 
549	 5.67813621569712E-02 
550	 5.73142122123066E-02 
551	 0.057738426034323 
552	 5.82563283179377E-02 
553	 5.87404632091478E-02 
554	 5.91900824862827E-02 
555	 5.97605012608044E-02 
556	 6.02741373003351E-02 
557	 6.07529997810235E-02 
558	 6.12435925402757E-02 
559	 0.061725740630534 
560	 0.06219359573707 
561	 6.26362303747652E-02 
562	 6.30445947667796E-02 
563	 6.34211153016749E-02 
564	 6.38376903928223E-02 
565	 6.42889442426051E-02 
566	 6.46053953066602E-02 
567	 6.49066465193684E-02 
568	 6.52359123341691E-02 
569	 6.55892474587648E-02 
570	 0.065860075935584 
571	 6.61252571000713E-02 
572	 6.64069810742635E-02 
573	 6.66566741420389E-02 
574	 6.68795314241145E-02 
575	 6.70525532455728E-02 
576	 6.71834864540409E-02 
577	 6.74031753389098E-02 
578	 6.75694592676174E-02 
579	 6.76639069989251E-02 
580	 6.77453144417514E-02 
581	 6.77868498302868E-02 
582	 6.78669577125317E-02 
583	 6.79724717022263E-02 
584	 6.78962898282967E-02 
585	 6.78334788787357E-02 
586	 6.77558386132808E-02 
587	 6.75860223542095E-02 
588	 6.74458743285881E-02 
589	 6.73556985801972E-02 
590	 6.72558980639299E-02 
591	 0.067018748831704 
592	 6.68868809509733E-02 
593	 6.66854404723638E-02 
594	 6.62786473777454E-02 
595	 6.59065819121583E-02 
596	 6.54434653245038E-02 
597	 6.49120873604152E-02 
598	 6.44091538343812E-02 
599	 6.38314901872457E-02 
600	 6.33335342620513E-02 
601	 0.06299351237368 
602	 0.062705045665738 
603	 6.24888218896106E-02 
604	 6.23614919989062E-02 
605	 6.23297755144502E-02 
606	 6.23430314621851E-02 
607	 6.23530470213982E-02 
608	 6.23627383680463E-02 
609	 6.24229058894534E-02 
610	 6.24120870999941E-02 
611	 6.24322369700632E-02 
612	 6.25417726561056E-02 
613	 6.25347620621973E-02 
614	 6.24769039130312E-02 
615	 6.24351169457011E-02 
616	 6.24708572441792E-02 
617	 6.25554725346894E-02 
618	 6.25794174713836E-02 
619	 0.062514173111185 
620	 6.24648544236538E-02 
621	 6.24744257615711E-02 
622	 0.062511205142089 
623	 6.25212993508785E-02 
624	 6.25127712967787E-02 
625	 6.24256230718058E-02 
626	 6.23150995696916E-02 
627	 6.23337889715126E-02 
628	 0.062295695212066 
629	 6.22820347909574E-02 
630	 6.23503785276725E-02 
631	 6.23674530281772E-02 
632	 6.23532223254851E-02 
633	 6.22988060940371E-02 
634	 0.062208577050713 
635	 6.22621542958918E-02 
636	 6.22988424381963E-02 
637	 6.22449514373208E-02 
638	 6.21963314034331E-02 
639	 6.21486625297035E-02 
640	 6.21170417255282E-02 
641	 6.21054519152633E-02 
642	 6.20738764830066E-02 
643	 6.19732494229466E-02 
644	 6.18269592512215E-02 
645	 0.0617180540324 
646	 0.061661952185121 
647	 6.16071886713465E-02 
648	 6.15159953199328E-02 
649	 0.061415501212978 
650	 6.13034204657853E-02 
651	 6.11234113930728E-02 
652	 6.08372424523255E-02 
653	 6.06400403657607E-02 
654	 6.03647409048963E-02 
655	 5.99353234565049E-02 
656	 5.95010285572858E-02 
657	 5.92072468110016E-02 
658	 5.89245943308378E-02 
659	 5.85608120624392E-02 
660	 5.83532814083153E-02 
661	 5.81374325965786E-02 
662	 5.79119551239627E-02 
663	 5.77749369668008E-02 
664	 5.76784831043787E-02 
665	 5.75951265731593E-02 
666	 5.75022370127954E-02 
667	 5.73785188188496E-02 
668	 0.057324804956154 
669	 5.72980166685509E-02 
670	 5.72280600861261E-02 
671	 0.057173367263706 
672	 5.71403955666944E-02 
673	 5.71255432780673E-02 
674	 5.71185770813871E-02 
675	 5.71316650641404E-02 
676	 0.057140896455618 
677	 5.71370606910286E-02 
678	 5.71676683851366E-02 
679	 5.71659286343069E-02 
680	 5.71776089309409E-02 
681	 5.72720265086178E-02 
682	 0.0573102143293 
683	 5.72648423043831E-02 
684	 5.71776470815391E-02 
685	 5.71637280742066E-02 
686	 0.057119863928821 
687	 5.70605624192129E-02 
688	 5.69925135692718E-02 
689	 5.67430505738631E-02 
690	 0.056549255337998 
691	 5.63978195244942E-02 
692	 5.61300434411445E-02 
693	 5.57983255288699E-02 
694	 5.54804706752034E-02 
695	 5.51767360545561E-02 
696	 5.47271071717878E-02 
697	 0.054210528319273 
698	 5.36624711029965E-02 
699	 5.31224058750978E-02 
700	 5.25367058674469E-02 
701	 5.18509166433974E-02 
702	 5.11538094409065E-02 
703	 5.05982660146631E-02 
704	 4.98766638006735E-02 
705	 4.90296871171271E-02 
706	 4.81681050905891E-02 
707	 4.74008985374719E-02 
708	 4.64110915980379E-02 
709	 4.53640456582099E-02 
710	 0.044490070486303 
711	 0.043293078903682 
712	 4.20350249363921E-02 
713	 4.08294760155088E-02 
714	 3.95574471464646E-02 
715	 3.82499645998076E-02 
716	 3.68748519634625E-02 
717	 3.54761532499515E-02 
718	 3.39739223257281E-02 
719	 3.26149158637446E-02 
720	 3.14345673830296E-02 
721	 3.01707399027925E-02 
722	 2.89559897058482E-02 
723	 2.76321061601258E-02 
724	 2.63129272174164E-02 
725	 2.50967804873412E-02 
726	 2.36915446250413E-02 
727	 2.22626656831875E-02 
728	 0.020937267805868 
729	 0.019320800541961 
730	 1.77725526005399E-02 
731	 1.64918159904248E-02 
732	 1.54606842781039E-02 
733	 1.44298890737271E-02 
734	 1.35645529821432E-02 
735	 1.29352022751411E-02 
736	 1.24320358220897E-02 
737	 1.20682600372582E-02 
738	 0.011732978904727 
739	 1.13873544636901E-02 
740	 1.12698037130712E-02 
741	 0.011200221228888 
742	 0.011154120519939 
743	 1.11681813597435E-02 
744	 0.011056428166125 
745	 1.09718963817839E-02 
746	 1.09826481083959E-02 
747	 1.09958336242445E-02 
748	 1.09687735124364E-02 
749	 1.09453716947977E-02 
750	 1.09665965059401E-02 
751	 0.010987346234283 
752	 1.09227516509189E-02 
753	 1.08416399126574E-02 
754	 1.08808452002096E-02 
755	 0.010977800214553 
756	 1.09865839813547E-02 
757	 1.09061923274781E-02 
758	 1.09654869721185E-02 
759	 1.08427109926281E-02 
760	 1.06606198996081E-02 
761	 1.08155761112335E-02 
762	 1.09442346339767E-02 
763	 1.10289687390655E-02 
764	 1.11134598941905E-02 
765	 1.12331476415253E-02 
766	 1.12353544284129E-02 
767	 1.13305979959704E-02 
768	 1.14840999453373E-02 
769	 1.14316607358091E-02 
770	 1.15366648884949E-02 
771	 1.16858108519611E-02 
772	 1.17506802853566E-02 
773	 1.18214360262293E-02 
774	 1.20048619569205E-02 
775	 1.22125126956239E-02 
776	 1.23011685652188E-02 
777	 1.23780818847513E-02 
778	 1.24776325487108E-02 
779	 1.26195092482872E-02 
780	 1.28103989989531E-02 
781	 1.30502313403457E-02 
782	 1.32253281186434E-02 
783	 0.013311242229025 
784	 1.35217095134273E-02 
785	 1.37687436346871E-02 
786	 0.014021705503116 
787	 1.42539947233547E-02 
788	 1.43734172483635E-02 
789	 1.46311485758471E-02 
790	 1.49468824640677E-02 
791	 1.50204383561539E-02 
792	 1.53458871864387E-02 
793	 0.015709044916465 
794	 1.59387245424843E-02 
795	 1.60885096349473E-02 
796	 1.63708256773637E-02 
797	 1.66282270801842E-02 
798	 1.67250644624213E-02 
799	 1.69537890008557E-02 
800	 1.71637936862973E-02 
801	 1.73511629219775E-02 
802	 1.75730568367815E-02 
803	 1.76711892622766E-02 
804	 1.77484813008376E-02 
805	 1.78217012019902E-02 
806	 1.77940984651995E-02 
807	 1.78065518716704E-02 
808	 1.78388904152942E-02 
809	 1.78212870521779E-02 
810	 1.76372203108903E-02 
811	 1.74603933702986E-02 
812	 1.73211246405827E-02 
813	 1.71819840356444E-02 
814	 0.016987271001025 
815	 1.67266082414182E-02 
816	 1.64164273515785E-02 
817	 1.60917547008096E-02 
818	 1.57695844616228E-02 
819	 1.55958240974005E-02 
820	 1.53762418982248E-02 
821	 1.44885877827954E-02 
822	 1.39731812975753E-02 
823	 1.34606218642157E-02 
824	 1.26183379657166E-02 
825	 1.20554770357905E-02 
826	 1.13010400575457E-02 
827	 1.03486673171388E-02 
828	 9.44567292740011E-03 
829	 8.78313814064067E-03 
830	 8.30759836917385E-03 
831	 7.87125731775435E-03 
832	 7.33105227990147E-03 
833	 6.97529447874272E-03 
834	 6.76510334207857E-03 
835	 6.63298792409661E-03 
836	 6.53832280041268E-03 
837	 6.23509177800314E-03 
838	 5.98635806915795E-03 
839	 5.99184338874697E-03 
840	 6.01848231407755E-03 
841	 5.86263400225827E-03 
842	 5.72020398602704E-03 
843	 5.78332735221998E-03 
844	 5.40358366700263E-03 
845	 5.25190533609114E-03 
846	 5.41468578231958E-03 
847	 5.52020187321611E-03 
848	 5.35914795901203E-03 
849	 5.10064279833689E-03 
850	 4.90341295430853E-03 
851	 4.83198897786591E-03 
852	 4.92149862209212E-03 
853	 4.87271806811775E-03 
854	 4.61750908101977E-03 
855	 4.70411642603099E-03 
856	 4.77606859309286E-03 
857	 4.68494212095657E-03 
858	 4.45572722495371E-03 
859	 4.48962106426954E-03 
860	 4.51826028903475E-03 
861	 4.5062903895251E-03 
862	 4.52773159213371E-03 
863	 4.5381181990383E-03 
864	 4.38576205432599E-03 
865	 4.19472958609016E-03 
866	 4.28752531271328E-03 
867	 4.28434126726125E-03 
868	 4.14301885768924E-03 
869	 3.94866966532438E-03 
870	 3.87437221358282E-03 
871	 3.86731142795575E-03 
872	 3.97283963934867E-03 
873	 4.07775992933054E-03 
874	 3.66970696967915E-03 
875	 3.55678606487749E-03 
876	 3.6388947395229E-03 
877	 3.60293947428659E-03 
878	 3.50204761276189E-03 
879	 3.5468096680667E-03 
880	 3.4999136635579E-03 
881	 3.08782836156818E-03 
882	 3.05415814562755E-03 
883	 3.19935082734657E-03 
884	 3.17657036709381E-03 
885	 2.72914437483316E-03 
886	 2.90185496029481E-03 
887	 3.11229322969542E-03 
888	 3.11844773340764E-03 
889	 3.23913293558205E-03 
890	 2.89151711788139E-03 
891	 2.69565806480222E-03 
892	 2.92614152046658E-03 
893	 2.82386927595533E-03 
894	 2.80250946319397E-03 
895	 2.86789168280076E-03 
896	 2.85031174638523E-03 
897	 2.37426965093358E-03 
898	 2.68337281820634E-03 
899	 2.81422357687026E-03 
900	 1.94531387836969E-03 
901	 2.44512742469954E-03 
902	 2.76289298099308E-03 
903	 2.46606339275957E-03 
904	 1.83153174247092E-03 
905	 2.14889514099828E-03 
906	 2.19000398181712E-03 
907	 1.96740703027968E-03 
908	 2.29349231544906E-03 
909	 2.34224220283169E-03 
910	 2.15951212883056E-03 
911	 2.0831734563688E-03 
912	 2.50208717278003E-03 
913	 2.65758724006387E-03 
914	 2.50566805179649E-03 
915	 2.27376849749828E-03 
916	 2.29193748164763E-03 
917	 1.73017651334654E-03 
918	 1.54445943559867E-03 
919	 1.9325176691962E-03 
920	 1.81005994233284E-03 
921	 1.50480415153393E-03 
922	 1.60044757347665E-03 
923	 2.10393601431868E-03 
924	 1.72231538562445E-03 
925	 1.74105508269864E-03 
926	 1.95630449391861E-03 
927	 1.71145681334966E-03 
928	 3.61963187383182E-04 
929	 6.67828672894842E-04 
930	 1.27598825856416E-03 
931	-5.78832941304348E-04 
932	 9.19220957603464E-04 
933	 9.49886012257838E-04 
934	 3.99282230811908E-05 
935	 3.4575779121944E-04 
936	-3.61111262402011E-03 
937	-0.001644705139546 
938	 2.14909308596603E-03 
939	 1.46806734383008E-03 
940	-8.1243537337383E-04 
941	-1.82951329748125E-04 
942	 8.13703903948115E-04 
943	-2.08278518765532E-03 
944	 1.10966834440904E-04 
945	 8.38633566595672E-04 
946	-1.66543569613699E-03 
947	-4.40337255236529E-03 
948	-8.22381815414454E-04 
949	 8.41475714328405E-04 
950	-1.10073176516575E-03 
951	-2.83485113162512E-03 
952	 1.61147222083077E-03 
953	 2.18554435504521E-03 
954	-2.36885183470769E-04 
955	 1.88248035054629E-03 
956	 7.16282191077703E-04 
957	-4.25235123323866E-04 
958	 2.32891579604987E-04 
959	 1.92638188583314E-03 
960	 7.67312349509322E-05 
961	-1.34228632307138E-03 
962	-1.01976681095989E-03 
963	-3.65324489873774E-04 
964	-2.60917898516115E-04 
965	 8.51276043045361E-04 
966	 2.21684074348835E-03 
967	 1.7410752765159E-03 
968	 1.38735868914476E-03 
969	 9.59798404681631E-04 
970	 1.08530947819642E-03 
971	 2.65312055607345E-03 
972	 1.11968259320155E-03 
973	 3.15905926271279E-04 
974	 1.13465342362663E-03 
975	 8.73634374904039E-04 
976	 2.31117909412805E-04 
977	 8.12096733147145E-04 
978	 1.39087325878176E-03 
979	-7.0382821335257E-04 
980	 4.85439030441295E-04 
981	 2.03530175034798E-03 
982	 0.001874291853249 
983	 5.38857138111438E-05 
984	 3.76758960374454E-05 
985	 6.87698504498454E-04 
986	 1.23759516364576E-03 
987	 1.62152925832001E-03 
988	 1.52710251432562E-03 
989	 1.1890758609834E-03 
990	 1.39366384073875E-03 
991	 2.64324481214319E-03 
992	 1.50422215452216E-03 
993	-1.21543129018588E-04 
994	-9.69957554940033E-05 
995	 2.30638499155023E-03 
996	 1.56314343833306E-03 
997	 1.24446501252377E-03 
998	 1.41792987406596E-03 
999	 2.31605356056578E-04 
1000	 3.34981735624477E-04 
1001	 1.75134763414079E-03 
1002	 1.63704782383179E-03 
1003	 1.68711579422828E-03 
1004	 2.15505617991543E-03 
1005	 2.08804387505403E-03 
1006	 1.64913687217973E-03 
1007	 1.55227565318864E-03 
1008	 1.18715948725923E-03 
1009	 9.10421677387797E-04 
1010	 9.13400840385644E-04 
1011	 8.26367926928875E-04 
1012	 1.15668669743346E-03 
1013	 1.41605997366336E-03 
1014	 1.61038167471427E-03 
1015	 2.10529347033025E-03 
1016	 2.22249314164651E-03 
1017	 2.01432919214854E-03 
1018	 1.8963555494839E-03 
1019	 1.6909666396775E-03 
1020	 1.56661919976388E-03 
1021	 1.44436664669785E-03 
1022	 1.13201014163101E-03 
1023	 1.38166490112096E-03 
1024	 1.66322445458852E-03 
1025	 1.72417517059375E-03 
1026	 1.75489687891396E-03 
1027	 1.65500835403156E-03 
1028	 1.06865227567974E-03 
1029	 1.03947482954263E-03 
1030	 1.26079863707546E-03 
1031	 1.47976528669788E-03 
1032	 2.11590890854027E-03 
1033	 2.2233402597855E-03 
1034	 2.10435363178804E-03 
1035	 1.99554724763072E-03 
1036	 1.30598892548405E-03 
1037	 1.22609390306523E-03 
1038	 1.55602258634184E-03 
1039	 1.86711640657762E-03 
1040	 2.08829855618386E-03 
1041	 2.10621626756238E-03 
1042	 2.0619866147195E-03 
1043	 1.58864867332951E-03 
1044	 1.50277048229238E-03 
1045	 1.55123496941619E-03 
1046	 1.69172996590859E-03 
1047	 2.09405033784069E-03 
1048	 2.09433044415326E-03 
1049	 1.91510980848454E-03 
1050	 1.94545952160177E-03 
1051	 1.94204229422345E-03 
1052	 1.79324379837348E-03 
1053	 1.64525901974198E-03 
1054	 1.64647239922051E-03 
1055	 1.44692244970619E-03 
1056	 1.3583563081447E-03 
1057	 1.39968369645298E-03 
1058	 1.84787971633137E-03 
1059	 1.89432821140947E-03 
1060	 1.69810889389943E-03 
1061	 1.7506973493582E-03 
1062	 1.77751847075866E-03 
1063	 1.94805613096542E-03 
1064	 2.54692285166945E-03 
1065	 2.57735814304996E-03 
1066	 2.23752906510816E-03 
1067	 2.1742186995673E-03 
1068	 1.81612680578139E-03 
1069	 1.73815957473567E-03 
1070	 2.34625733591842E-03 
1071	 2.39934348761798E-03 
1072	 2.29933873034574E-03 
1073	 1.79240361038243E-03 
1074	 1.69496889222046E-03 
1075	 1.32240052746837E-03 
1076	 1.45591720387791E-03 
1077	 2.35177714157938E-03 
1078	 2.37314330720719E-03 
1079	 1.93759742310074E-03 
1080	 1.9484682729367E-03 
1081	 1.73922988255766E-03 
1082	 1.71173667158028E-03 
1083	 2.34558268960446E-03 
1084	 2.47440496898309E-03 
1085	 2.05337616071862E-03 
1086	 1.96878134633576E-03 
1087	 1.9639123168322E-03 
1088	 1.88477057929267E-03 
1089	 1.71657333548573E-03 
1090	 2.06698927617759E-03 
1091	 1.99984474475691E-03 
1092	 1.66049027563026E-03 
1093	 1.6421523386667E-03 
1094	 1.63068007978948E-03 
1095	 1.67915070789298E-03 
1096	 2.13432678756292E-03 
1097	 2.1658594924539E-03 
1098	 1.79179815292115E-03 
1099	 1.75899405971498E-03 
1100	 1.66157559524011E-03 
1101	 1.60871911543284E-03 
1102	 2.12630455469447E-03 
1103	 2.25507141562552E-03 
1104	 2.24445875459855E-03 
1105	 1.70657483649221E-03 
1106	 1.38247523618123E-03 
1107	 1.12989291777836E-03 
1108	 1.78600586958642E-03 
1109	 2.65333292001464E-03 
1110	 2.58529518011223E-03 
1111	 1.82538406100725E-03 
1112	 1.95314670886421E-03 
1113	 1.84778088571799E-03 
1114	 1.74253415631714E-03 
1115	 3.10997305016412E-03 
1116	 3.38615075920908E-03 
1117	 8.95020569488948E-04 
1118	 2.87413874256862E-04 
1119	 2.26399167561787E-03 
1120	 3.10172425842781E-03 
1121	 4.90682379726975E-03 
1122	 4.48579789378567E-03 
1123	 5.52311042687913E-03 
1124	 4.40253269931708E-03 
1125	 7.86123079755814E-04 
1126	 1.42735542489456E-03 
1127	 3.25507898914215E-03 
1128	 2.03768255106495E-03 
1129	 1.54515025042942E-03 
1130	 3.67040183520417E-03 
1131	 3.19562015478557E-03 
1132	-8.36709276444947E-04 
1133	-6.36505178275727E-04 
1134	 2.38847272931884E-03 
1135	 2.29194059010241E-03 
1136	 1.43233915894237E-03 
1137	 1.41512260789042E-03 
1138	 2.37479836181625E-04 
1139	 4.65268320786032E-05 
1140	 2.0813806417088E-03 
1141	 3.40723774688745E-03 
1142	 2.50392909086834E-03 
1143	 1.57379276099529E-03 
1144	 5.58072481408111E-04 
1145	 7.46980696127186E-04 
1146	 3.6412783236549E-03 
1147	 4.87374794403937E-03 
1148	 3.18121715408478E-03 
1149	 2.72008203530606E-03 
1150	 0.002605436762798 
1151	 1.88666641153118E-03 
1152	 1.74770149982687E-03 
1153	 2.7672448404084E-03 
1154	 2.50094161566594E-03 
1155	 1.33611817719148E-03 
1156	 1.55354334796654E-03 
1157	 1.21892286842367E-03 
1158	 5.74615494765204E-04 
1159	 1.24323066900606E-03 
1160	 1.58329827327866E-03 
1161	 1.45398589873081E-03 
1162	 1.79680572445088E-03 
1163	 1.68050579217375E-03 
1164	 1.15250049147871E-03 
1165	 9.12260532869053E-04 
1166	 1.10809109466223E-03 
1167	 1.40513265194844E-03 
1168	 1.23019351062093E-03 
1169	 1.25051480872082E-03 
1170	 1.77157401505328E-03 
1171	 1.83252153389449E-03 
1172	 1.54659483799584E-03 
1173	 1.50534553660664E-03 
1174	 1.49549354130216E-03 
1175	 1.34836731766146E-03 
1176	 1.11907020298613E-03 
1177	 1.26220518539386E-03 
1178	 1.58190027514627E-03 
1179	 1.69925349807107E-03 
1180	 1.78935825316198E-03 
1181	 1.63660245713856E-03 
1182	 1.15428878751718E-03 
1183	 8.4370009072275E-04 
1184	 8.72375212646406E-04 
1185	 1.22972681364205E-03 
1186	 1.54885825385865E-03 
1187	 1.34507094910064E-03 
1188	 1.08842972594546E-03 
1189	 1.14301136442022E-03 
1190	 1.27138631617486E-03 
1191	 1.42914205814701E-03 
1192	 1.53039062332959E-03 
1193	 1.60289860416967E-03 
1194	 1.46362858290605E-03 
1195	 1.34653005754111E-03 
1196	 1.4829966627926E-03 
1197	 1.5723871460007E-03 
1198	 1.41567359177374E-03 
1199	 1.29742678176961E-03 
1200	 1.27459507950618E-03 
1201	 1.18348427918554E-03 
1202	 1.26173377564935E-03 
1203	 1.70445361774771E-03 
1204	 1.74596221912953E-03 
1205	 1.50853894417599E-03 
1206	 1.65337592774462E-03 
1207	 1.61730616322399E-03 
1208	 1.45069605424024E-03 
1209	 1.4688267835744E-03 
1210	 1.46737106170544E-03 
1211	 1.27518380105662E-03 
1212	 1.14450855190457E-03 
1213	 1.38561284811804E-03 
1214	 1.41470101484057E-03 
1215	 1.28823024137938E-03 
1216	 1.17654070480651E-03 
1217	 1.46440544557287E-03 
1218	 1.44617722184963E-03 
1219	 1.34699251381292E-03 
1220	 1.5405307664949E-03 
1221	 1.50986486419021E-03 
1222	 1.31157716465359E-03 
1223	 1.32224133913816E-03 
1224	 1.37362842699856E-03 
1225	 1.34923440597958E-03 
1226	 1.45839445824427E-03 
1227	 1.56438175954519E-03 
1228	 1.41888842531147E-03 
1229	 1.39269872153036E-03 
1230	 1.52425092300079E-03 
1231	 1.49003242160099E-03 
1232	 1.60916638980493E-03 
1233	 1.6806014529063E-03 
1234	 1.4005132050537E-03 
1235	 1.35542529965999E-03 
1236	 1.50698153531603E-03 
1237	 1.5258672697621E-03 
1238	 1.52437652211291E-03 
1239	 1.63665872951547E-03 
1240	 1.52261143207737E-03 
1241	 1.31536366547559E-03 
1242	 1.41016903770987E-03 
1243	 1.62813278971174E-03 
1244	 1.71584795419471E-03 
1245	 1.53388093607586E-03 
1246	 1.31828967397363E-03 
1247	 1.22917197523623E-03 
1248	 1.14967588927461E-03 
1249	 1.32970908062602E-03 
1250	 1.55632064928415E-03 
1251	 1.36300523844512E-03 
1252	 1.15107047389124E-03 
1253	 1.22324792159494E-03 
1254	 1.32432752350712E-03 
1255	 1.41556420632147E-03 
1256	 1.46816832783924E-03 
1257	 1.63411142720226E-03 
1258	 1.59557581171305E-03 
1259	 1.29394987802495E-03 
1260	 1.19998801789926E-03 
1261	 1.17481926652041E-03 
1262	 1.11917152073056E-03 
1263	 1.05694647528175E-03 
1264	 0.001143742564253 
1265	 1.32621034595487E-03 
1266	 1.43975714902998E-03 
1267	 1.61499170818499E-03 
1268	 1.72403048447101E-03 
1269	 1.5744969180083E-03 
1270	 1.29623684954768E-03 
1271	 1.1522075641021E-03 
1272	 1.25766009531938E-03 
1273	 1.37128680461103E-03 
1274	 1.28224309431263E-03 
1275	 1.26117121898063E-03 
1276	 1.23542589619375E-03 
1277	 1.11234080738113E-03 
1278	 1.27643366604822E-03 
1279	 1.47863625584748E-03 
1280	 1.51745192910664E-03 
1281	 1.50333354439063E-03 
1282	 1.42247791204275E-03 
1283	 1.33058346271917E-03 
1284	 1.03804027911926E-03 
1285	 1.02524707502793E-03 
1286	 1.2287965083671E-03 
1287	 1.25258776523905E-03 
1288	 1.31061004625486E-03 
1289	 1.44843585216704E-03 
1290	 1.61324720164583E-03 
1291	 1.55215562948486E-03 
1292	 1.47636720886096E-03 
1293	 1.42976999108626E-03 
1294	 1.35768883207442E-03 
1295	 1.30867241309177E-03 
1296	 1.25388240764326E-03 
1297	 1.4174774325815E-03 
1298	 1.42959155531801E-03 
1299	 1.0770305643075E-03 
1300	 1.21041646552379E-03 
1301	 1.54426205569175E-03 
1302	 1.46820955054487E-03 
1303	 1.40320051933835E-03 
1304	 1.55268365562828E-03 
1305	 1.58849128205893E-03 
1306	 1.4775540119935E-03 
1307	 1.15783905831916E-03 
1308	 1.23832312290229E-03 
1309	 1.4312378398696E-03 
1310	 1.40101411414213E-03 
1311	 1.55276632070281E-03 
1312	 1.76087094480249E-03 
1313	 1.9196585252457E-03 
1314	 1.7484571572047E-03 
1315	 1.32757607334809E-03 
1316	 1.3102595832889E-03 
1317	 1.29742286608865E-03 
1318	 1.13075951897535E-03 
1319	 1.17242728095366E-03 
1320	 1.37202631938783E-03 
1321	 1.59689133513362E-03 
1322	 1.29297260467191E-03 
1323	 1.13340665945457E-03 
1324	 1.59736382082306E-03 
1325	 1.70896959922707E-03 
1326	 1.23927945862278E-03 
1327	 1.33976180898871E-03 
1328	 2.02472487335705E-03 
1329	 2.08119469265028E-03 
1330	 1.75877531110468E-03 
1331	 1.55371008672628E-03 
1332	 1.24747574608725E-03 
1333	 1.06460384356297E-03 
1334	 1.06279954058142E-03 
1335	 0.001184132403212 
1336	 1.76644736843913E-03 
1337	 1.92146737352428E-03 
1338	 1.90541526678283E-03 
1339	 1.96864447835306E-03 
1340	 2.02883090061672E-03 
1341	 1.83125654274413E-03 
1342	 1.21268528629333E-03 
1343	 1.23840268935975E-03 
1344	 1.42422707147131E-03 
1345	 1.4424095067219E-03 
1346	 2.38546676895275E-03 
1347	 3.07362023962308E-03 
1348	 3.31715540911045E-03 
1349	 3.35644930648361E-03 
1350	 2.68961290127669E-03 
1351	 2.65840676748567E-03 
1352	 2.28239688369794E-03 
1353	 1.16919420020562E-03 
1354	-1.03739950300799E-04 
1355	 3.56500986132772E-03 
1356	 5.1352730256696E-03 
1357	-1.63274737474875E-02 
1358	-2.46799927941716E-02 
1359	-3.76399756439522E-02 
1360	-6.65867829075206E-02 
1361	-8.71934879893055E-03 
1362	 0.11545827144767 
1363	 0.182614180108972 
1364	 0.172090778986306 
1365	 0.102384847170215 
1366	 2.40406808645013E-02 
1367	 5.61116022192902E-02 
1368	 9.64330922390974E-02 
1369	 0.305972856836166 
1370	 0.328558972966041 
1371	 0.17444796778025 
1372	 0.205447133849802 
1373	 0.394854984138506 
1374	 0.344133970368825 
1375	 0.117301960394352 
1376	 0.185088192272778 
1377	 0.245945431333633 
1378	 8.67502731789609E-02 
1379	-5.28036103371809E-02 
1380	 4.28323565632963E-02 
1381	 0.114207599511397 
1382	-5.69646093610271E-02 
1383	-0.149881597376473 
1384	-2.18968864911667E-02 
1385	-5.79254384692321E-02 
1386	-0.202232276428805 
1387	 0.122145233604115 
1388	 0.481719474581608 
1389	 0.243727252609429 
1390	 8.95829540986555E-02 
1391	 0.172801781925042 
1392	 0.794225071361872 
1393	 0.568182626930281 
1394	 0.290669888876518 
1395	 0.330301793571082 
1396	 0.212518526631732 
1397	 0.119074659914714 
1398	 9.71050983040054E-02 
1399	 7.98567505341639E-03 
1400	 0.176416513836726 
1401	 0.653426610671512 
1402	 0.621746972838779 
1403	 0.289614594355217 
1404	 0.10538045939428 
1405	 7.70178121008384E-02 
1406	 1.08901107217792E-02 
1407	-0.014087836318808 
1408	 9.73847067007183E-02 
1409	 7.61210204084379E-02 
1410	-6.35229121380969E-02 
1411	-2.89837610994936E-02 
1412	 0.113105985905867 
1413	 0.101299423995953 
1414	 7.19165850645374E-02 
1415	 6.46915961854964E-02 
1416	 6.61807669930632E-03 
1417	-4.73812495015479E-03 
1418	 2.74813787919988E-02 
1419	 0.028461091874907 
1420	 8.26209384614504E-03 
1421	 0.011906705811061 
1422	 3.20447141112089E-02 
1423	 2.81634969573417E-02 
1424	 1.57487231878706E-02 
1425	 1.42891682740933E-02 
1426	 0.011254729823739 
1427	 8.62890249659661E-03 
1428	 1.11006537968964E-02 
1429	 1.08359486920821E-02 
1430	 5.59355745529294E-03 
1431	 2.57628043207619E-03 
1432	 2.85281878925417E-03 
1433	 2.82083565351312E-03 
1434	-1.96017078943989E-04 
1435	 8.09502242324846E-05 
1436	 3.27451023991893E-03 
1437	 5.24055084798435E-03 
1438	 4.07242559541876E-03 
1439	 5.15358118804421E-03 
1440	 2.66524269300321E-03 
1441	-2.91362017572943E-03 
1442	-9.62880914208717E-04 
1443	 4.80687315964817E-03 
1444	 3.26224480287453E-03 
1445	 1.09972598828496E-03 
1446	 3.74161888423807E-03 
1447	 3.26080043428861E-03 
1448	 5.30666113280994E-04 
1449	 1.33025324190325E-03 
1450	 1.81476865820457E-03 
1451	-4.56730556325069E-04 
1452	-3.96996716235726E-04 
1453	 2.74459688249625E-03 
1454	 3.18885722510661E-03 
1455	 2.13728956787428E-03 
1456	 1.91660086721855E-03 
1457	 1.89389740688536E-03 
1458	 1.93425659603348E-03 
1459	 2.13640720243919E-03 
1460	 2.11397661920047E-03 
1461	 1.65208561379445E-03 
1462	 2.23541421928033E-03 
1463	 3.97972156707705E-03 
1464	 3.4999419010856E-03 
1465	 1.88271271816672E-03 
1466	 2.35097515035254E-03 
1467	 2.46385026406013E-03 
1468	 1.89749426201133E-03 
1469	 3.44512690090923E-03 
1470	 3.87260028425603E-03 
1471	 1.77889359637557E-03 
1472	 6.51813378737909E-04 
1473	 3.24254356991493E-04 
1474	 8.97775804111911E-04 
1475	 1.91095654380497E-03 
1476	 1.38989287778797E-03 
1477	 1.10871472799469E-03 
1478	 1.38700730568804E-03 
1479	 3.82919556812517E-04 
1480	-2.13200530883671E-05 
1481	 9.76209750266679E-04 
1482	 1.54649710075988E-03 
1483	 1.61195489942587E-03 
1484	 1.28952718184554E-03 
1485	 8.51719118941673E-04 
1486	 1.10493867837403E-03 
1487	 1.70025382493181E-03 
1488	 1.27996925136841E-03 
1489	 4.60902674323552E-04 
1490	 5.90658795053197E-04 
1491	 6.30326515668187E-04 
1492	 4.05032458019802E-04 
1493	 7.27875662408863E-04 
1494	 9.95861056810351E-04 
1495	 8.89153408070988E-04 
1496	 6.22887843648673E-04 
1497	 4.52486871472703E-04 
1498	 5.46472005116203E-04 
1499	 3.82946077716065E-04 
1500	 3.0834288176863E-04 
1501	 7.96505419954568E-04 
1502	 9.74163629016121E-04 
1503	 7.42317371149507E-04 
1504	 6.61001846627564E-04 
1505	 6.43968560575108E-04 
1506	 6.58114652304602E-04 
1507	 6.00710394215568E-04 
1508	 5.81082973428334E-04 
1509	 7.80697680244687E-04 
1510	 1.00933329416463E-03 
1511	 1.12637663929385E-03 
1512	 1.16603724266169E-03 
1513	 1.05865507851933E-03 
1514	 9.3739266697151E-04 
1515	 9.77674065016028E-04 
1516	 1.08015668357739E-03 
1517	 9.86996227022326E-04 
1518	 8.48588610767923E-04 
1519	 8.29864406542987E-04 
1520	 7.13069413528595E-04 
1521	 4.82635612485784E-04 
1522	 4.12661905628422E-04 
1523	 5.63898921178088E-04 
1524	 5.759318364427E-04 
1525	 6.71248760548825E-04 
1526	 9.59965958619439E-04 
1527	 8.82046326169712E-04 
1528	 8.96492016873347E-04 
1529	 1.07461418603655E-03 
1530	 8.91294764938339E-04 
1531	 7.91421117721165E-04 
1532	 8.76381606905113E-04 
1533	 8.69127180323421E-04 
1534	 9.40511936422721E-04 
1535	 1.07372207677067E-03 
1536	 9.33031659915589E-04 
1537	 8.00504013547725E-04 
1538	 9.06016921254294E-04 
1539	 8.52631241980272E-04 
1540	 8.03666706517628E-04 
1541	 9.06207787623953E-04 
1542	 9.12989239663798E-04 
1543	 7.8429914856929E-04 
1544	 7.23545577701386E-04 
1545	 9.30383730704356E-04 
1546	 1.00404538742331E-03 
1547	 7.8239967068629E-04 
1548	 7.79973382197414E-04 
1549	 1.07726008178671E-03 
1550	 0.001238949863645 
1551	 1.24102726675189E-03 
1552	 1.26273122987857E-03 
1553	 1.08831998895424E-03 
1554	 8.89608976873956E-04 
1555	 9.78942509188169E-04 
1556	 1.12868585556127E-03 
1557	 1.1471299062275E-03 
1558	 1.01885593816251E-03 
1559	 7.94905287951562E-04 
1560	 6.79414701710682E-04 
1561	 7.90275053363937E-04 
1562	 8.07143364573272E-04 
1563	 8.34829737341493E-04 
1564	 1.14802404011422E-03 
1565	 1.1608346693234E-03 
1566	 9.82242849556521E-04 
1567	 9.32662174013892E-04 
1568	 9.09615749225369E-04 
1569	 8.90369004422207E-04 
1570	 7.53930616003029E-04 
1571	 8.32435220362902E-04 
1572	 1.00496050309028E-03 
1573	 9.75415432048553E-04 
1574	 7.5721872203744E-04 
1575	 6.68006589261681E-04 
1576	 8.21591259000345E-04 
1577	 8.10336484190494E-04 
1578	 9.12898326094546E-04 
1579	 1.18112540831458E-03 
1580	 1.33463531039799E-03 
1581	 1.43308989586816E-03 
1582	 1.30614752801985E-03 
1583	 9.56581540770274E-04 
1584	 8.06260174357055E-04 
1585	 9.72318417737119E-04 
1586	 1.11479754661505E-03 
1587	 1.22342907333418E-03 
1588	 1.26057445675508E-03 
1589	 9.80757581753469E-04 
1590	 8.10016625660005E-04 
1591	 1.00581627829305E-03 
1592	 1.16382031107596E-03 
1593	 1.03924786928425E-03 
1594	 9.44474602249698E-04 
1595	 1.12137941700409E-03 
1596	 1.07711629655561E-03 
1597	 7.72103749803497E-04 
1598	 8.61194701790086E-04 
1599	 1.07142127288598E-03 
1600	 9.1316748105259E-04 
1601	 8.40314123867917E-04 
1602	 1.00886405666547E-03 
1603	 9.41417210200251E-04 
1604	 8.68224531409432E-04 
1605	 1.2758433321801E-03 
1606	 1.57018804628347E-03 
1607	 1.30683264005314E-03 
1608	 1.01383201127508E-03 
1609	 9.93261734420689E-04 
1610	 9.62548030676081E-04 
1611	 9.87777689059481E-04 
1612	 1.15385033648468E-03 
1613	 1.04904734188591E-03 
1614	 8.61877075567427E-04 
1615	 8.26701489287539E-04 
1616	 8.8018569890826E-04 
1617	 1.02714112275656E-03 
1618	 9.99136434382499E-04 
1619	 9.07230616196266E-04 
1620	 9.41484203203876E-04 
1621	 9.57817173334777E-04 
1622	 9.19045851866757E-04 
1623	 8.94314753700012E-04 
1624	 9.60669097379135E-04 
1625	 9.46038987193972E-04 
1626	 9.4502016359798E-04 
1627	 1.20125155034064E-03 
1628	 1.22993477082332E-03 
1629	 1.06137001783984E-03 
1630	 1.14799651996382E-03 
1631	 1.21439090271233E-03 
1632	 1.20107907693588E-03 
1633	 1.32046837142427E-03 
1634	 1.39953236551892E-03 
1635	 1.27575192457083E-03 
1636	 1.22318433761038E-03 
1637	 1.30468938768479E-03 
1638	 1.20083412497668E-03 
1639	 1.08906702235592E-03 
1640	 1.12923610197603E-03 
1641	 1.01321372581526E-03 
1642	 9.02965510731833E-04 
1643	 9.70473544303635E-04 
1644	 1.0183953213912E-03 
1645	 1.01695295814708E-03 
1646	 9.53957740064543E-04 
1647	 1.03034627381913E-03 
1648	 1.19969452765858E-03 
1649	 1.18781546993091E-03 
1650	 1.19772761633644E-03 
1651	 1.1751606017322E-03 
1652	 8.45815237163812E-04 
1653	 6.23884851476365E-04 
1654	 5.98011058539941E-04 
1655	 3.93790661738865E-04 
1656	 3.89511727699921E-04 
1657	 7.663927649349E-04 
1658	 8.75561582245743E-04 
1659	 9.93204459530115E-04 
1660	 1.18620239845578E-03 
1661	 1.22705252450014E-03 
1662	 1.1829244135631E-03 
1663	 1.27845078161211E-03 
1664	 0.001246070922881 
1665	 8.68603676575294E-04 
1666	 8.69898793211553E-04 
1667	 1.2636351709471E-03 
1668	 7.88788650887976E-04 
1669	 4.32718599033579E-04 
1670	 7.30268746707524E-04 
1671	 7.7155232880476E-04 
1672	 5.26718612042963E-04 
1673	 8.30870748865158E-04 
1674	 1.22495576390283E-03 
1675	 1.25216310077675E-03 
1676	 1.27824596580137E-03 
1677	 1.10013951107195E-03 
1678	 7.34406005022233E-04 
1679	 4.0688874939432E-04 
1680	 3.43715422688358E-04 
1681	 6.81972464239483E-04 
1682	 9.4563760394522E-04 
1683	 1.06703055967132E-03 
1684	 0.001068659812491 
1685	 8.76543860778206E-04 
1686	 9.04657135583524E-04 
1687	 9.17814262223601E-04 
1688	 8.50350134324879E-04 
1689	 1.22989022764336E-03 
1690	 1.33560419651409E-03 
1691	 1.13636833714209E-03 
1692	 1.47599478393102E-03 
1693	 1.62796982483482E-03 
1694	 1.26536329269708E-03 
1695	 1.15339103778867E-03 
1696	 1.03398376956399E-03 
1697	 1.08003855786073E-03 
1698	 1.81060919951294E-03 
1699	 1.83285732141812E-03 
1700	 1.05470611431793E-03 
1701	 7.91112640943999E-04 
1702	 7.99287173590179E-04 
1703	 9.20643219498993E-04 
1704	 1.42791586470246E-03 
1705	 1.52058180607506E-03 
1706	 9.49765339774484E-04 
1707	 9.32585684860377E-04 
1708	 1.2251989853385E-03 
1709	 9.89092219050299E-04 
1710	 8.0182784499362E-04 
1711	 8.02593920647447E-04 
1712	 7.33715596892246E-04 
1713	 1.0312416124906E-03 
1714	 1.02103021020013E-03 
1715	 0.000574966280207 
1716	 6.76243405851417E-04 
1717	 8.31245908758328E-04 
1718	 1.06128953618298E-03 
1719	 1.10474779582661E-03 
1720	 9.10702593795879E-04 
1721	 1.01769438393778E-03 
1722	 1.06593654614304E-03 
1723	 1.00575916403933E-03 
1724	 9.39162287262553E-04 
1725	 7.50741103301358E-04 
1726	 8.01224098460681E-04 
1727	 9.15986158756506E-04 
1728	 1.13976625702285E-03 
1729	 1.49579240858443E-03 
1730	 1.27860789405756E-03 
1731	 9.50902470468993E-04 
1732	 1.03135695398733E-03 
1733	 7.68880170800865E-04 
1734	 3.95529074802241E-04 
1735	 6.94258346817196E-04 
1736	 9.59707339247289E-04 
1737	 7.7604398425966E-04 
1738	 9.25159749000703E-04 
1739	 8.78963215901889E-04 
1740	 3.92216355208899E-04 
1741	 6.11921418211969E-04 
1742	 1.16591893438025E-03 
1743	 1.35267843391419E-03 
1744	 1.13632979357141E-03 
1745	 6.42631216593237E-04 
1746	 6.39662044067631E-04 
1747	 7.34381278547242E-04 
1748	 1.46903790867771E-03 
1749	 1.74687537203665E-03 
1750	 1.56154204044287E-03 
1751	 1.52906746766876E-03 
1752	 1.69770994701841E-03 
1753	 1.59602339965654E-03 
1754	 9.91485342367327E-04 
1755	 8.94538001432971E-04 
1756	 1.1403649793314E-03 
1757	 1.55123895327756E-03 
1758	 1.47709694591457E-03 
1759	 1.20123842487052E-03 
1760	 9.72834492175753E-04 
1761	 1.10261806588482E-03 
1762	 1.69909849913539E-03 
1763	 1.82386991424561E-03 
1764	 1.16835746011914E-03 
1765	 8.89233580905671E-04 
1766	 1.2037278875831E-03 
1767	 1.82613362859574E-03 
1768	 2.46682353400997E-03 
1769	 2.35776912584353E-03 
1770	 1.89524850188084E-03 
1771	 1.41661359265714E-03 
1772	 1.48027393631153E-03 
1773	 2.28951920878952E-03 
1774	 2.00366658216441E-03 
1775	 1.80108757074489E-03 
1776	 1.90580889091872E-03 
1777	 1.53054305359169E-03 
1778	 1.83849249570393E-03 
1779	 3.13106983406674E-03 
1780	 2.92607280061556E-03 
1781	 1.62380839747213E-03 
1782	 1.79129563131371E-03 
1783	 2.51829882419438E-03 
1784	 2.65681026874511E-03 
1785	 3.69102671124844E-03 
1786	 3.18731218452077E-03 
1787	 4.26864304353201E-05 
1788	 3.44902136170081E-05 
1789	 1.77362103284437E-03 
1790	 3.74911487882657E-03 
1791	 4.92957685378494E-03 
1792	 1.86956990822823E-03 
1793	 1.03941121808572E-03 
1794	 2.71913998181594E-03 
1795	 3.07798188595816E-03 
1796	 8.04438382904828E-03 
1797	 1.05194895603557E-02 
1798	-4.04764535282044E-04 
1799	-6.02496135161166E-03 
1800	-5.12259699675935E-03 
1801	-6.10501043621024E-03 
1802	 8.91984751376397E-03 
1803	 1.70518976703871E-02 
1804	 1.37315781083698E-02 
1805	 1.79476875636831E-02 
1806	 2.83468781669332E-02 
1807	 3.09188643135113E-02 
1808	 2.16110863924607E-02 
1809	 5.70531833836376E-03 
1810	-3.58888837089805E-02 
1811	-3.81462351415538E-02 
1812	 8.34742003542604E-03 
1813	 1.95408956669486E-02 
1814	 6.14991567837689E-02 
1815	 8.77109493685711E-02 
1816	 7.10145979512667E-03 
1817	 1.68497040518931E-02 
1818	 0.048554959694357 
1819	 0.148834875817245 
1820	 0.274893314952222 
1821	 0.571889460144953 
1822	 0.705547473897927 
1823	-0.271364831449482 
1824	-0.411405142002946 
1825	-0.151302387418404 
1826	-0.109165586466211 
1827	 0.182327986861191 
1828	 0.287200177754598 
1829	 5.56042738943919E-02 
1830	 6.68030302445487E-02 
1831	-0.845759645849903 
1832	-1.1138961777238 
1833	-0.934930071807472 
1834	-0.973750930662245 
1835	-0.991694381819325 
1836	-1.05698326419634 
1837	-1.56175996998911 
1838	-1.60696191000647 
1839	-1.33200180667052 
1840	-1.11454618912534 
1841	-0.796483005948375 
1842	-0.9919187318759 
1843	-1.08912931011177 
1844	 0.492781950394576 
1845	 0.244870808120702 
1846	-3.78485536333271 
1847	-1.90238964301246 
1848	-0.351963654526896 
1849	 0.10207041633785 
1850	 6.82804452844411 
1851	 1.6897742377939 
1852	 0.956489953090147 
1853	 5.05895862607119E-02 
1854	-0.133500418008788 
1855	-0.19096301637138 
1856	-0.299982685649267 
1857	 1.38006823217416 
1858	-0.739274751967248 
1859	 0.88607537306616 
1860	 1.21485376867443 
1861	 1.81177183889039 
1862	 2.09888401691407 
1863	 1.78205473562826 
1864	-0.303570759119441 
1865	-1.29516180523405 
1866	-0.692027364067343 
1867	-0.679942488086744 
1868	-0.8358090015571 
1869	-0.877276171457177 
1870	-0.962499683083031 
1871	-1.47253004905595 
1872	-3.32107445094175 
1873	 12.9018541871063 
1874	-2.17848541353257 
1875	-0.628380097750821 
1876	-0.302452536113953 
1877	 0.3832437846154 
1878	 0.662774510152747 
1879	 1.28130108663779 
1880	 2.26890660276403 
1881	 2.91433262590925 
1882	 1.92608821225781 
1883	-1.22465989477602 
1884	-4.40015531816666 
1885	-2.60248974700163 
1886	 10.8767933066401 
1887	-3.21495136381519 
1888	-0.991741449744132 
1889	-0.861335206624549 
1890	-0.318875625584261 
1891	-0.199816374793182 
1892	-0.990935820090081 
1893	-2.77108110739611 
1894	-6.13361970425005E-02 
1895	 0.068798124782638 
1896	-6.23756884978851E-02 
1897	 0.380287728287288 
1898	 0.335044103899458 
1899	-0.10899552690954 
1900	-0.645492084297104 
1901	-1.21957843616261 
1902	-3.25969835795656 
1903	-1.44300057325689 
1904	 0.753565625045129 
1905	 4.04410241866516 
1906	 26.3407244278472 
1907	 2.60586985622994 
1908	 15.1285557479058 
1909	 2.35247167062931 
1910	-0.474582796924485 
1911	-5.13568829113438 
1912	-8.9674531287411 
1913	-5.26879630766492 
1914	-1.58072982788377 
1915	-0.974271334985134 
1916	-0.281751434118537 
1917	-0.390645205300099 
1918	-0.821642195486934 
1919	-1.40824457135881 
1920	 1.83896381444538 
1921	 0.43692293606727 
1922	-0.108492190737107 
1923	 0.202168106189173 
1924	-3.96096442084203 
1925	 0.775601127038207 
1926	-0.599002785988577 
1927	-2.24709404294745 
1928	-0.905690675630867 
1929	-0.473420189081155 
1930	-0.527174969205009 
1931	-0.10135009731209 
1932	 6.28028630415923E-02 
1933	-0.117578681309009 
1934	-4.45161345857547E-02 
1935	 0.100680895032456 
1936	 5.0440053235496E-03 
1937	-3.01492958884412E-02 
1938	-6.25027012265412E-03 
1939	-2.17024556845206E-02 
1940	-6.05805411193112E-02 
1941	-7.18757183338183E-02 
1942	-5.23300425840627E-02 
1943	-3.60867114160142E-02 
1944	-0.030745679030991 
1945	-5.38163330252539E-03 
1946	 2.48386870381069E-02 
1947	 1.89553616549086E-02 
1948	 9.52809309504233E-03 
1949	 3.4994712510731E-03 
1950	-4.99851792007617E-03 
1951	 3.02303150697233E-03 
1952	 3.21219033330231E-03 
1953	 4.8302281618977E-03 
1954	 9.78080758364215E-03 
1955	 2.20040068962004E-02 
1956	 1.59595811418175E-02 
1957	 0.010476093716233 
1958	 1.52937655870474E-02 
1959	 8.95220446304455E-03 
1960	 3.66035780921142E-03 
1961	 3.27418699579741E-03 
1962	-1.51115141983473E-03 
1963	-3.97583328459718E-03 
1964	-2.05020482618205E-03 
1965	-9.84310712066994E-04 
1966	-1.14436600003118E-03 
1967	-1.52722322917352E-03 
1968	-4.80752654842255E-04 
1969	 1.00251877058842E-03 
1970	 2.00278918837045E-03 
1971	 2.41583675905029E-03 
1972	 1.45658414380062E-03 
1973	-4.48090722169511E-04 
1974	-1.93805245825948E-03 
1975	-2.07641073502781E-03 
1976	-1.60454287961812E-03 
1977	-7.31901304908618E-04 
1978	-9.2618411441859E-04 
1979	-4.66080287558714E-04 
1980	 5.13557288791779E-04 
1981	 2.53522985685864E-03 
1982	 2.58167881722544E-03 
1983	 2.1192770978637E-03 
1984	 1.67128663141338E-03 
1985	 5.65811451116865E-04 
1986	 4.33431814315308E-04 
1987	 8.1752395456635E-04 
1988	 1.0744355596344E-03 
1989	 1.58541441896038E-03 
1990	 6.96705723501953E-04 
1991	-7.60427269981606E-04 
1992	-3.53380484670417E-04 
1993	-9.3730018089234E-05 
1994	-1.16033887613736E-04 
1995	-6.60021866815546E-05 
1996	 1.3544964888252E-03 
1997	 1.93116407114678E-03 
1998	 1.61132867636697E-03 
1999	 1.13766624577754E-03 
2000	 1.13120937872249E-03 
2001	 3.85684201705393E-05 
2002	-3.94347195716885E-03 
2003	-3.78543775733966E-03 
2004	-1.23931941088362E-03 
2005	-2.82278427645037E-03 
2006	 2.29029230957454E-03 
2007	 7.9523824918282E-03 
2008	 4.77440720076357E-03 
2009	 3.2611067871017E-03 
2010	 1.85734801890345E-03 
2011	-1.95897975933614E-04 
2012	-5.81046958305109E-03 
2013	-4.96548052747346E-03 
2014	-2.46720529828783E-03 
2015	-2.58040332795151E-03 
2016	-3.39321892214325E-03 
2017	-2.02210954946695E-03 
2018	-4.63027811954008E-05 
2019	 3.59439706068015E-04 
2020	 2.06154116399704E-03 
2021	 3.40459283076696E-03 
2022	 2.26837834514285E-03 
2023	 1.09388858013504E-03 
2024	 3.92642884734702E-04 
2025	-6.57312225379519E-04 
2026	-1.02385146580686E-03 
2027	-1.35730977447337E-03 
2028	-7.21955935266719E-04 
2029	 3.88901681405669E-04 
2030	 1.01121450959894E-04 
2031	-1.16539961880438E-04 
2032	 1.95896092600851E-04 
2033	-3.5906510335902E-04 
2034	-2.60625777319496E-04 
2035	 9.13328480685357E-04 
2036	 1.27692277565725E-03 
2037	 1.03240144313663E-03 
2038	 1.29983085647895E-03 
2039	 1.29154484099823E-03 
2040	 3.10827457150978E-04 
2041	 1.1582507655493E-04 
2042	 6.00874794623256E-04 
2043	 6.15553033915185E-04 
2044	 4.31528168612015E-04 
2045	 5.65031266194022E-04 
2046	 5.77165998296493E-04 
2047	 6.75969097569219E-05 
2048	-9.82081000182313E-04 
2049	-1.20781950289774E-03 
2050	-4.88547045016234E-04 
2051	-1.94204044375309E-04 
2052	-2.28978649593834E-04 
2053	 5.74379572919139E-05 
2054	 4.69964210908427E-05 
2055	 2.36443870945818E-05 
2056	 2.27627405311666E-04 
2057	 1.55104354926829E-03 
2058	 2.13592200823719E-03 
2059	 2.24406587163867E-03 
2060	 2.18796792673188E-03 
2061	 2.49519852922911E-03 
2062	 1.77882667492964E-03 
2063	 4.09226487958204E-04 
2064	-7.9600249522724E-04 
2065	-2.2885209284794E-04 
2066	 3.56287134515292E-04 
2067	-5.84572979699292E-04 
2068	-4.91570908370293E-05 
2069	 8.15147417660599E-04 
2070	 6.81995270295868E-04 
2071	 1.12431028174887E-03 
2072	 1.27238164939934E-03 
2073	 1.33425597080118E-03 
2074	 6.34109934008552E-04 
2075	 2.2515438307038E-04 
2076	 1.66561512273309E-04 
2077	 3.1013589529546E-05 
2078	-7.29846104166957E-04 
2079	-1.03962892796267E-03 
2080	-8.77630318566024E-04 
2081	-8.73379610376597E-04 
2082	-6.98651383471517E-04 
2083	-4.02169823942484E-04 
2084	-2.67429823804912E-04 
2085	 2.49551170776299E-04 
2086	 3.96822752647927E-05 
2087	-4.7417164422176E-04 
2088	-5.44316733959086E-04 
2089	-4.95789236028729E-04 
2090	-3.47342667756483E-04 
2091	-3.22227743444118E-04 
2092	 2.30913581630506E-05 
2093	 3.33851333198577E-04 
2094	 4.64034465357737E-04 
2095	 1.30950326923946E-03 
2096	 1.61986153038509E-03 
2097	 1.04611407204442E-03 
2098	 1.2642888696817E-03 
2099	 2.14235679511638E-03 
2100	 1.89636893725863E-03 
2101	 1.96851555783364E-03 
2102	 1.53853978621515E-03 
2103	 8.50529376439151E-04 
2104	 8.32645570321491E-04 
2105	 4.46101607174921E-04 
2106	 7.89073463127688E-04 
2107	 1.18389787167588E-03 
2108	 2.50303923718499E-04 
2109	-3.73200969704376E-04 
2110	-9.95024166298848E-04 
2111	-1.70295024000182E-03 
2112	-1.39574308289047E-03 
2113	-1.50503978107398E-03 
2114	-1.77064238806595E-03 
2115	-1.46813709956096E-03 
2116	-8.19357779245431E-04 
2117	-6.56733089998726E-04 
2118	-1.97461472830077E-04 
2119	 2.00698497108429E-04 
2120	 3.65455614542165E-04 
2121	 3.19233660080637E-04 
2122	 2.42980591699736E-04 
2123	 1.90864923528525E-04 
2124	-4.90704504711379E-04 
2125	-8.63438382227851E-04 
2126	 7.63718737413106E-05 
2127	 3.12571806202783E-04 
2128	 1.26862532096433E-04 
2129	 2.54967938402757E-04 
2130	-3.08576420415667E-04 
2131	-6.99482038333625E-04 
2132	-4.02891051504834E-04 
2133	 3.08175586606626E-04 
2134	 5.34456091418864E-04 
2135	 4.95769179132767E-04 
2136	 5.21791090221915E-04 
2137	 2.23089421469402E-04 
2138	 2.45277023561613E-04 
2139	 6.84509395154514E-04 
2140	 7.39851574872585E-04 
2141	 7.59301384635937E-04 
2142	 7.22599469274944E-04 
2143	 5.19297341232247E-05 
2144	 3.09825118025923E-04 
2145	 9.04884091770927E-04 
2146	 1.10030334657454E-03 
2147	 1.26650898799281E-03 
2148	 9.65621235551409E-04 
2149	 1.98802060479569E-04 
2150	-4.19896596351223E-04 
2151	-5.35631225310297E-04 
2152	-5.41290209424132E-04 
2153	 3.01071845508453E-04 
2154	 3.30405124279413E-04 
2155	-3.46209829216301E-04 
2156	 4.13444984364248E-05 
2157	-1.97682877520146E-05 
2158	-8.3089755259995E-04 
2159	-1.68604195549112E-04 
2160	 1.58772897465295E-03 
2161	 1.87644560489228E-03 
2162	 2.29729445803121E-03 
2163	 2.15619302349943E-03 
2164	 9.24833438440265E-04 
2165	 6.30126010606153E-04 
2166	 4.7244332941014E-04 
2167	 2.95216742654781E-04 
2168	 2.91973479534465E-04 
2169	 1.58226441145993E-04 
2170	-3.06090887273293E-04 
2171	 2.64919374010185E-04 
2172	 9.83880206095181E-04 
2173	 2.91267970838247E-04 
2174	-1.00452858073262E-03 
2175	-1.48086604657829E-03 
2176	-1.44870685287058E-03 
2177	-1.10921058188774E-03 
2178	 9.41293274530673E-05 
2179	 1.42884229228839E-03 
2180	 2.02294683423167E-03 
2181	 2.39616345773468E-03 
2182	 1.64191737764303E-03 
2183	 7.51631495261915E-04 
2184	-1.43483598605933E-04 
2185	-1.38701578261145E-03 
2186	-1.63776256204229E-03 
2187	-4.12883103118597E-04 
2188	-4.32867502230661E-04 
2189	-5.26412882400879E-04 
2190	-5.94892064278057E-04 
2191	-1.50196603255907E-03 
2192	-2.12255800766006E-03 
2193	-2.53478288117037E-03 
2194	-2.70604401337352E-03 
2195	-2.66728856661777E-03 
2196	-2.26467163337453E-03 
2197	-1.37290381819347E-03 
2198	-2.94004969859077E-04 
2199	 1.7199443187858E-03 
2200	 1.54439729430977E-03 
2201	 2.13756850176955E-03 
2202	 2.27545852713734E-03 
2203	 7.69807588622184E-05 
2204	-7.35165341221746E-04 
2205	-1.27465591824951E-03 
2206	-2.10095861179695E-03 
2207	-1.30207867359773E-03 
2208	-1.11850109561975E-03 
2209	-6.6782561211191E-04 
2210	-2.8335639511935E-05 
2211	 2.84670801004074E-04 
2212	 1.1926114876396E-04 
2213	-1.18424862289027E-04 
2214	 4.79029936982012E-05 
2215	-1.01840561237539E-03 
2216	-4.81633909144284E-04 
2217	-1.91421371018465E-04 
2218	 5.32808029652286E-04 
2219	 5.48121418500128E-04 
2220	 7.84710552966535E-05 
2221	-5.71891086426283E-04 
2222	-1.41599793711013E-03 
2223	-1.8951724712155E-03 
2224	-2.4998251634089E-03 
2225	-1.61189972736624E-03 
2226	 4.17100509313626E-04 
2227	 4.59963114752254E-04 
2228	-2.4364339522282E-07 
2229	 2.05074591449342E-04 
2230	 1.77856284164195E-04 
2231	 3.75132956822022E-04 
2232	 9.28657625708121E-04 
2233	 1.60490435296873E-03 
2234	 2.38447098598508E-03 
2235	 1.89875553795694E-03 
2236	 1.90125576859473E-03 
2237	 3.24765278045688E-03 
2238	 1.48240508086363E-03 
2239	-5.08669702130856E-04 
2240	-9.56236532446971E-04 
2241	-2.52790114021591E-03 
2242	-1.67165829467227E-03 
2243	-1.08511643924195E-03 
2244	-2.58809186299584E-03 
2245	-1.61545561546025E-03 
2246	-3.93275176983135E-05 
2247	-1.60971358317386E-06 
2248	-4.98887074666838E-04 
2249	-3.67378154643665E-04 
2250	-3.39741452489635E-04 
2251	-5.40249675443061E-04 
2252	-5.15875567032755E-05 
2253	-1.80651268446215E-04 
2254	-1.82275993207262E-03 
2255	-2.85517740828446E-03 
2256	-5.41657256901599E-04 
2257	 1.05645642525468E-03 
2258	 5.82556853349285E-04 
2259	 9.7632868541591E-04 
2260	 1.09118243190664E-03 
2261	 4.95886376971187E-05 
2262	-6.73113423812197E-04 
2263	-9.6001924147263E-04 
2264	-1.07060818286662E-03 
2265	-0.002391357204775 
2266	-1.47000282104104E-03 
2267	 2.38206294236482E-03 
2268	 3.05454756818813E-03 
2269	 2.71380164980503E-03 
2270	 2.62150852574503E-03 
2271	 7.2862323873337E-04 
2272	 4.26735359687279E-04 
2273	 2.37443755580752E-03 
2274	 1.78258960198007E-03 
2275	-3.39468243049056E-04 
2276	-4.3358778004496E-04 
2277	-7.35632773657707E-04 
2278	-1.20346609690661E-03 
2279	-1.20896637682945E-03 
2280	-2.03797663438945E-03 
2281	-4.59775310836934E-03 
2282	-3.54312127119239E-03 
2283	-4.75069847339186E-03 
2284	-5.32530765140042E-03 
2285	-4.53820706327339E-03 
2286	-6.32085023065417E-03 
2287	-6.17991313874732E-03 
2288	-0.002375166560105 
2289	-3.0661408202686E-03 
2290	-4.95119250781117E-03 
2291	-5.24936791099236E-03 
2292	-6.35807542213194E-03 
2293	-3.11294452217673E-03 
2294	-4.38605232060964E-04 
2295	-7.07415248947832E-04 
2296	-5.89460305014726E-04 
2297	-1.97302702521678E-03 
2298	-3.77067165274158E-03 
2299	-5.92999461196252E-03 
2300	-0.006335962369097 
2301	-7.73575783794082E-03 
2302	-9.87913918884466E-03 
2303	-8.39816971017728E-03 
2304	-6.01105006115342E-03 
2305	-2.93391398078611E-03 
2306	-2.93961088256871E-03 
2307	-3.32772735146899E-03 
2308	-2.23474041725052E-03 
2309	-2.42950723481165E-03 
2310	-9.96444389991692E-04 
2311	 9.60389442223698E-04 
2312	 2.65949844816357E-03 
2313	 2.30860165666223E-03 
2314	 1.6063354642176E-03 
2315	 2.17808842275055E-03 
2316	 6.15690379750924E-04 
2317	-1.62211767505831E-03 
2318	-4.64809849105976E-03 
2319	-7.78642346261332E-03 
2320	-5.39452344240647E-03 
2321	-2.37123399072895E-03 
2322	-2.07033549498825E-03 
2323	-2.48103704891753E-04 
2324	-3.56854712609819E-03 
2325	-7.06483398320139E-03 
2326	-3.00187366268747E-03 
2327	-2.76097581108617E-03 
2328	-6.09465169255384E-03 
2329	-9.17166235856961E-03 
2330	-0.011799826524448 
2331	-7.28654297378217E-03 
2332	-1.60519309876775E-03 
2333	-2.25612133373935E-04 
2334	 3.10672622705514E-03 
2335	 2.91348328903143E-03 
2336	-1.56014234489206E-03 
2337	 5.73560693089841E-04 
2338	 2.55814691297016E-03 
2339	 2.56103571366466E-03 
2340	 1.03253297035109E-03 
2341	-7.33587209624907E-03 
2342	-0.011888060365626 
2343	-1.26653177754869E-02 
2344	-8.40132387452807E-03 
2345	 4.24284140637267E-03 
2346	 1.11307436798223E-02 
2347	 6.68984332051967E-03 
2348	-3.79969779757594E-03 
2349	-1.36556152883426E-02 
2350	-1.97255441118526E-02 
2351	-2.53051659748467E-02 
2352	-0.024669814072791 
2353	-1.76903709591171E-02 
2354	-1.89866342872419E-02 
2355	-2.30071771520076E-02 
2356	-2.30383102635593E-02 
2357	-1.79993577425357E-02 
2358	-5.86139229893997E-03 
2359	 2.19401159532645E-03 
2360	 5.03893912514967E-03 
2361	 1.51326334378193E-03 
2362	-6.60784285181782E-03 
2363	-1.25157881035257E-02 
2364	-0.019407893311976 
2365	-2.59061380244359E-02 
2366	-3.06323494971674E-02 
2367	-2.60707458413798E-02 
2368	-1.38540875508043E-02 
2369	-1.17716282898432E-02 
2370	-1.15329199148009E-02 
2371	-1.40911829977187E-02 
2372	-2.31830205801652E-02 
2373	 7.3552983096821E-04 
2374	 2.53904265242031E-02 
2375	 1.98108693400228E-02 
2376	 2.70646328037049E-02 
2377	 2.47424674023402E-02 
2378	 0.012181318952414 
2379	 9.12266407327756E-03 
2380	-1.8865939344899E-03 
2381	-1.64819285689603E-02 
2382	-3.63410099168686E-02 
2383	-4.10141068128102E-02 
2384	-1.80996910413183E-02 
2385	-2.34071339630378E-03 
2386	 7.04532020448871E-03 
2387	 4.12835405926668E-03 
2388	-1.98881032411921E-02 
2389	-3.85733907099516E-02 
2390	-4.30778403603933E-02 
2391	-3.30994029496001E-02 
2392	-1.89871361627239E-02 
2393	-2.17764685995048E-02 
2394	-1.73931634631924E-02 
2395	-3.05702787529458E-03 
2396	-6.19214997037729E-03 
2397	 1.09794082997201E-02 
2398	 1.66219488956324E-02 
2399	-9.02281262572457E-03 
2400	-3.55496327384477E-03 
2401	-8.67551777865584E-03 
2402	-1.93045425891023E-03 
2403	 4.56626744358894E-02 
2404	 0.070495966288296 
2405	 7.12984053886068E-02 
2406	 5.65940426404584E-02 
2407	 5.39026592163031E-02 
2408	 2.13840080309707E-02 
2409	-2.71857799620953E-02 
2410	 3.15639655804322E-03 
2411	 1.13352396687388E-03 
2412	-0.022524825076396 
2413	-3.13710840827159E-03 
2414	-2.94098517006887E-02 
2415	-9.00994309812553E-02 
2416	-0.108802037797832 
2417	-8.16193946917232E-02 
2418	-6.55218284321008E-03 
2419	 4.25126988729586E-02 
2420	 3.83643808017433E-02 
2421	 2.21195923212874E-02 
2422	-4.13852340837902E-02 
2423	-0.12333087008672 
2424	-0.14980736932054 
2425	-0.101804204603298 
2426	-5.57213639115164E-03 
2427	 0.034820850264664 
2428	 4.64686736948908E-02 
2429	 3.30645277838369E-02 
2430	-6.37002267945358E-02 
2431	-0.101254873142331 
2432	-6.33825481432187E-02 
2433	-0.080072154579346 
2434	-9.13437412064948E-02 
2435	-5.30741469842611E-02 
2436	-5.98122000252436E-02 
2437	-6.37968503031415E-02 
2438	-1.71944487876555E-02 
2439	-0.050997019098072 
2440	-0.041815975608535 
2441	 6.80788169457016E-02 
2442	 6.58168804396687E-02 
2443	-2.60903143426083E-02 
2444	-0.037129585237166 
2445	 5.10239604406543E-02 
2446	 0.131261453665465 
2447	 0.245526120351189 
2448	 0.209900543906897 
2449	-0.259458195597562 
2450	-0.354724861798709 
2451	-0.2368556647411 
2452	-0.158277823160947 
2453	-7.10640104471596E-02 
2454	-0.248491359881955 
2455	-0.321275892018427 
2456	-0.348993030984319 
2457	-0.390684010891034 
2458	-0.258152282430827 
2459	-0.12884879862287 
2460	-7.31585978665938E-02 
2461	-0.177654204883204 
2462	-0.365542952508221 
2463	-0.662284889492824 
2464	-0.963166400894783 
2465	-0.307092890426979 
2466	-0.128114371355015 
2467	-0.346743935096212 
2468	-0.351768112117989 
2469	-0.395264331904173 
2470	-0.814760076026607 
2471	-0.534143375792848 
2472	-0.200515311179362 
2473	-0.688047373716352 
2474	-1.3826102818099 
2475	-1.07889093828709 
2476	-0.549909738960816 
2477	-0.490338406163734 
2478	-0.282096488534492 
2479	-0.219159885892657 
2480	-0.613063266476332 
2481	-1.30968063827685 
2482	-2.65258447679811 
2483	-2.33749127346211 
2484	 92.3884923023596 
2485	-3.37514474323599 
2486	-1.12986017363567 
2487	-1.61755222385068 
2488	-1.06238804240301 
2489	 1.53284811232797 
2490	-0.161795290065284 
2491	-1.37403370718555 
2492	-3.97850084868752 
2493	 0.481209951785096 
2494	-4.61178869907299 
2495	-104.813836004535 
2496	-16.325802439607 
2497	 12.4546808370428 
2498	 1.10949790628766 
2499	-0.265252985777396 
2500	-0.309864482745613 
