Wavelength	rt0718west_algea00000.asd
350	 3.47263127804922E-02 
351	 3.47395842621873E-02 
352	 3.54154046620743E-02 
353	 3.57391021978486E-02 
354	 0.035397327257492 
355	 0.035979847100419 
356	 0.036443045721374 
357	 3.64090195771922E-02 
358	 3.60675545406721E-02 
359	 0.037079159886367 
360	 3.73025992704314E-02 
361	 3.69168650677102E-02 
362	 3.75533747361602E-02 
363	 0.037758829916995 
364	 3.78095013218934E-02 
365	 3.78954632987825E-02 
366	 3.77467696844337E-02 
367	 3.78377420432281E-02 
368	 0.038169540299809 
369	 3.85571001535341E-02 
370	 3.86875942877182E-02 
371	 0.038728819607765 
372	 3.89139612191024E-02 
373	 3.94197631012069E-02 
374	 3.97251898782681E-02 
375	 3.95761845570228E-02 
376	 3.92686717775604E-02 
377	 3.97449917240692E-02 
378	 3.97368224064797E-02 
379	 3.98274797131638E-02 
380	 4.05342877134102E-02 
381	 4.08009658973101E-02 
382	 4.11245829045056E-02 
383	 0.041228320819092 
384	 4.07570025315336E-02 
385	 4.13880214588979E-02 
386	 4.18161390231587E-02 
387	 4.16950423429369E-02 
388	 4.19858382711405E-02 
389	 4.23268148219199E-02 
390	 4.25074233382723E-02 
391	 4.25545327162442E-02 
392	 4.30176116275945E-02 
393	 4.32846336110291E-02 
394	 0.043206956389079 
395	 4.29301831222795E-02 
396	 4.29587610533384E-02 
397	 4.32622351526674E-02 
398	 4.35430306116691E-02 
399	 4.33736326621415E-02 
400	 4.34578983389458E-02 
401	 4.36330397508058E-02 
402	 4.37073799164789E-02 
403	 4.37362236650585E-02 
404	 4.37472233977999E-02 
405	 4.38508538088593E-02 
406	 4.41261023741933E-02 
407	 4.43528172378613E-02 
408	 4.43779456703074E-02 
409	 4.43035669910688E-02 
410	 4.44474019018858E-02 
411	 4.45620538322772E-02 
412	 0.044560941099291 
413	 4.45386947486211E-02 
414	 0.044986220303039 
415	 4.52063181596307E-02 
416	 0.045204692181665 
417	 0.045246993779872 
418	 4.52061450135365E-02 
419	 4.53192101891938E-02 
420	 4.55780471826382E-02 
421	 4.57031933168435E-02 
422	 4.59403551273859E-02 
423	 4.61925174598153E-02 
424	 4.63629942755068E-02 
425	 4.65602004021283E-02 
426	 4.66416703259394E-02 
427	 4.67730619316773E-02 
428	 4.71973528663921E-02 
429	 4.75890137488778E-02 
430	 4.79395703392265E-02 
431	 4.82587461566596E-02 
432	 4.85430639293341E-02 
433	 4.87869550867143E-02 
434	 4.90523587758204E-02 
435	 4.93684609967038E-02 
436	 4.96248167291696E-02 
437	 4.99355859861083E-02 
438	 5.02668094978258E-02 
439	 5.05183815283242E-02 
440	 5.07988773784825E-02 
441	 0.051014002205654 
442	 5.11779685698202E-02 
443	 5.14930144774139E-02 
444	 5.18073621968928E-02 
445	 5.20479735815112E-02 
446	 0.052199999674179 
447	 5.23742839277178E-02 
448	 5.25602336668962E-02 
449	 5.27513020973617E-02 
450	 5.29354222583087E-02 
451	 5.29677005811722E-02 
452	 5.30277853567695E-02 
453	 5.32123151230428E-02 
454	 5.33648508451015E-02 
455	 5.34055661716535E-02 
456	 5.34623687477468E-02 
457	 5.36588486387057E-02 
458	 5.36236289290904E-02 
459	 5.36799471089516E-02 
460	 5.38650523936548E-02 
461	 0.053906461763492 
462	 0.053980574213565 
463	 5.40691876282004E-02 
464	 5.41267594057678E-02 
465	 5.41283686081757E-02 
466	 5.41569578866577E-02 
467	 5.42277161896801E-02 
468	 5.43259394603026E-02 
469	 5.45185419870286E-02 
470	 5.46061873913663E-02 
471	 5.45870261004532E-02 
472	 5.47464800175541E-02 
473	 5.48876558890203E-02 
474	 5.50051390428454E-02 
475	 5.51214099480084E-02 
476	 5.51697573707383E-02 
477	 5.52847931089756E-02 
478	 5.54459993201666E-02 
479	 0.055541737252948 
480	 0.055736857954138 
481	 5.59098692825576E-02 
482	 5.60324536777239E-02 
483	 5.63452424238703E-02 
484	 5.66487021471299E-02 
485	 5.68647679813767E-02 
486	 5.70055552307365E-02 
487	 5.72872913776673E-02 
488	 5.75631346845653E-02 
489	 5.78133252527557E-02 
490	 5.81552515328164E-02 
491	 5.85146139479005E-02 
492	 5.88311854297709E-02 
493	 5.91208261525299E-02 
494	 5.96248868918094E-02 
495	 5.99753811092233E-02 
496	 0.060213448950355 
497	 6.05700108171221E-02 
498	 6.09218977313776E-02 
499	 6.12929547521342E-02 
500	 6.17132577239719E-02 
501	 6.22081182722475E-02 
502	 6.25229300084327E-02 
503	 6.28396714194493E-02 
504	 6.33532753537293E-02 
505	 6.37665567707092E-02 
506	 6.41636475659579E-02 
507	 0.064587849367743 
508	 6.50338195450948E-02 
509	 6.53712587763151E-02 
510	 6.57355865671569E-02 
511	 6.62154129649149E-02 
512	 6.66969010019161E-02 
513	 6.71981598601755E-02 
514	 6.77332022094028E-02 
515	 6.83042282342925E-02 
516	 6.88508730250165E-02 
517	 6.94093482108295E-02 
518	 7.00004121015875E-02 
519	 7.06161276502009E-02 
520	 7.11512977304166E-02 
521	 7.17379090365812E-02 
522	 0.072480338610173 
523	 7.31990146609755E-02 
524	 7.38362937334943E-02 
525	 7.44703991607575E-02 
526	 7.52637182115529E-02 
527	 7.61287779408553E-02 
528	 7.68821650089845E-02 
529	 7.75123339108004E-02 
530	 7.83738561297646E-02 
531	 7.91883968264913E-02 
532	 8.00041556992947E-02 
533	 8.09428454688248E-02 
534	 8.18427590631936E-02 
535	 8.27460860258453E-02 
536	 8.36801236883674E-02 
537	 0.084633997983415 
538	 8.55539296514069E-02 
539	 8.65205509820922E-02 
540	 8.75588467014314E-02 
541	 8.84083019547276E-02 
542	 8.92651521395567E-02 
543	 9.01748433937289E-02 
544	 9.10884401349243E-02 
545	 9.20128265586806E-02 
546	 9.28713083055017E-02 
547	 9.36595211488441E-02 
548	 9.45317525646504E-02 
549	 0.095365710966316 
550	 9.61854671773343E-02 
551	 9.70417447576051E-02 
552	 9.78230148325812E-02 
553	 9.85874465655559E-02 
554	 9.93616807824509E-02 
555	 0.100122296356958 
556	 0.100962927877489 
557	 0.101797556718925 
558	 0.102536783829689 
559	 0.103250191742721 
560	 0.103999937288825 
561	 0.104750374411943 
562	 0.10541478586685 
563	 0.106035998365127 
564	 0.106667620368351 
565	 0.107321252067183 
566	 0.107930708488163 
567	 0.108507084011393 
568	 0.109017840273265 
569	 0.109448262393495 
570	 0.109966207803634 
571	 0.110418647546133 
572	 0.110777949441872 
573	 0.111167701115161 
574	 0.111483245379211 
575	 0.111764462982557 
576	 0.112046692767484 
577	 0.112246744740088 
578	 0.112458188119562 
579	 0.112631485808475 
580	 0.112659808265233 
581	 0.112801772017226 
582	 0.112903334159873 
583	 0.112856431491569 
584	 0.112713332041994 
585	 0.112693396095076 
586	 0.112676481905992 
587	 0.112471579639529 
588	 0.112311818894045 
589	 0.112129411776315 
590	 0.111892130608067 
591	 0.11161125215085 
592	 0.111261114322696 
593	 0.110840707590531 
594	 0.110349532144254 
595	 0.109746973742529 
596	 0.109054134384477 
597	 0.108254741198453 
598	 0.107342822489277 
599	 0.106557815545735 
600	 0.10589125267791 
601	 0.105322924463908 
602	 0.104867722206791 
603	 0.104564646525784 
604	 0.10441190814198 
605	 0.104363300035277 
606	 0.104215464467603 
607	 0.104210317716353 
608	 0.104348677151958 
609	 0.10436584939316 
610	 0.10430723281058 
611	 0.104298403334955 
612	 0.104372966578817 
613	 0.10421369833814 
614	 0.104213120831781 
615	 0.104303837860076 
616	 0.104196765405461 
617	 0.104163736827914 
618	 0.104138313602164 
619	 0.104087344233278 
620	 0.104093500157841 
621	 0.104060943748845 
622	 0.103982922620992 
623	 0.103904581238726 
624	 0.10398145026077 
625	 0.103874578190837 
626	 0.103684798346117 
627	 0.103898154766287 
628	 0.103702483024167 
629	 0.103567712959382 
630	 0.103802239924806 
631	 0.1036293507898 
632	 0.10348794920906 
633	 0.103490367673314 
634	 0.103561993939597 
635	 0.103431312695711 
636	 0.103298892481678 
637	 0.103273347169051 
638	 0.103268581849034 
639	 0.103126033714099 
640	 0.102998345883731 
641	 0.103033242838408 
642	 0.102941163744275 
643	 0.102887666547265 
644	 0.102839311420767 
645	 0.102618309878451 
646	 0.102556520491766 
647	 0.102495697915834 
648	 0.102307623876586 
649	 0.102129896946766 
650	 0.102076252143618 
651	 0.101885081474894 
652	 0.101284244707901 
653	 0.100940724037937 
654	 0.100494235786239 
655	 9.98230557610061E-02 
656	 9.93159105899122E-02 
657	 9.86893390524951E-02 
658	 9.80942066858578E-02 
659	 9.76651362067139E-02 
660	 0.097309898116936 
661	 9.69244500911549E-02 
662	 9.65499390811936E-02 
663	 9.63061099065872E-02 
664	 9.60178457385196E-02 
665	 9.56926630996841E-02 
666	 9.53935038190322E-02 
667	 9.52485483583598E-02 
668	 9.51433562323229E-02 
669	 9.50002768053831E-02 
670	 9.47937667397048E-02 
671	 9.46738582797416E-02 
672	 9.46382113997178E-02 
673	 9.46341598698636E-02 
674	 0.094578763546871 
675	 9.45973508149102E-02 
676	 9.46009343725908E-02 
677	 9.45422129950628E-02 
678	 9.45751472075489E-02 
679	 9.46632616025611E-02 
680	 9.47904331110926E-02 
681	 9.49269676451618E-02 
682	 9.49030458801938E-02 
683	 9.50294494224756E-02 
684	 9.52882816194573E-02 
685	 9.51756766037229E-02 
686	 9.52627947754719E-02 
687	 9.53998776275157E-02 
688	 9.52918432254502E-02 
689	 9.50143582162646E-02 
690	 9.48922331270191E-02 
691	 9.48317063505274E-02 
692	 9.45103902003028E-02 
693	 9.41603352227282E-02 
694	 9.37128524132998E-02 
695	 9.31572547389035E-02 
696	 9.25693420922058E-02 
697	 9.19740995169537E-02 
698	 9.13542022623561E-02 
699	 9.06822353147204E-02 
700	 8.97741511672602E-02 
701	 8.88863217756646E-02 
702	 8.80424317539049E-02 
703	 0.08704732115537 
704	 8.60219234641934E-02 
705	 8.49561365054459E-02 
706	 8.38576186393015E-02 
707	 0.082757174900788 
708	 8.15435449879309E-02 
709	 8.02048933157187E-02 
710	 0.078758258107363 
711	 7.71417851122217E-02 
712	 7.55581449600111E-02 
713	 7.40184879373972E-02 
714	 0.072289702607142 
715	 7.07367808615516E-02 
716	 6.90949177537245E-02 
717	 6.72051679664715E-02 
718	 6.55298233464335E-02 
719	 0.063437363263249 
720	 6.14932617730449E-02 
721	 6.00600992369041E-02 
722	 5.84783066653356E-02 
723	 0.056827967977332 
724	 5.52496781830202E-02 
725	 5.33782540571486E-02 
726	 5.16069207969033E-02 
727	 4.97309605442692E-02 
728	 4.76494370122309E-02 
729	 4.58735994531116E-02 
730	 4.38712378759488E-02 
731	 4.18587838463698E-02 
732	 4.02313068828936E-02 
733	 3.88142498426384E-02 
734	 3.77071300561143E-02 
735	 3.69095238532881E-02 
736	 3.62320322390964E-02 
737	 0.035587925562328 
738	 3.51103904852479E-02 
739	 3.48812530816653E-02 
740	 3.46180650490114E-02 
741	 3.44093137012065E-02 
742	 3.42989062144999E-02 
743	 3.42803240508247E-02 
744	 0.034165595418268 
745	 3.41091875143064E-02 
746	 3.41325236049525E-02 
747	 3.40332778914411E-02 
748	 3.39191789134508E-02 
749	 3.39011368750595E-02 
750	 3.39935046106305E-02 
751	 3.38893000228918E-02 
752	 3.38682118141348E-02 
753	 3.39390823589498E-02 
754	 3.39564648468993E-02 
755	 0.033871305254905 
756	 3.37841141026972E-02 
757	 3.37897906500141E-02 
758	 3.40171274381612E-02 
759	 3.39214000666372E-02 
760	 3.37036359415871E-02 
761	 3.39944823643957E-02 
762	 0.034043212232906 
763	 3.39279186217197E-02 
764	 3.38826598775831E-02 
765	 3.40548340249615E-02 
766	 3.41525883755509E-02 
767	 3.42251457969212E-02 
768	 3.43213262922161E-02 
769	 3.44725985430919E-02 
770	 3.44916376945132E-02 
771	 3.45027340514699E-02 
772	 3.46349689670753E-02 
773	 3.48715998459272E-02 
774	 3.49604893166896E-02 
775	 3.50533643148119E-02 
776	 3.53867187546604E-02 
777	 3.55088273340355E-02 
778	 3.56605771554009E-02 
779	 3.58942276525693E-02 
780	 3.60343068398402E-02 
781	 3.61815542288469E-02 
782	 3.64330238617087E-02 
783	 3.67766916860651E-02 
784	 3.69536847163014E-02 
785	 3.72230539849354E-02 
786	 3.75408458598166E-02 
787	 3.77880919651043E-02 
788	 3.80601001720569E-02 
789	 3.83735912177276E-02 
790	 3.87243959728483E-02 
791	 3.90745999663583E-02 
792	 3.91268748001944E-02 
793	 3.94053758388566E-02 
794	 3.99986666394326E-02 
795	 4.01018463885289E-02 
796	 4.04822510880138E-02 
797	 4.08681486430032E-02 
798	 4.09601678299302E-02 
799	 4.13565603628396E-02 
800	 4.15042827306401E-02 
801	 4.15178837876113E-02 
802	 4.18295981196378E-02 
803	 4.21524105662385E-02 
804	 0.042278699133821 
805	 4.22530627477846E-02 
806	 4.23684455187582E-02 
807	 4.23875184222785E-02 
808	 4.22853063727361E-02 
809	 4.21249797732198E-02 
810	 4.20842978964203E-02 
811	 4.20445718396562E-02 
812	 4.19076417460118E-02 
813	 4.16154094659418E-02 
814	 4.13303232077905E-02 
815	 4.11870318608999E-02 
816	 4.09685063117147E-02 
817	 4.03041215673026E-02 
818	 0.039899369708061 
819	 3.94025600704171E-02 
820	 3.87154851693169E-02 
821	 3.82199908413187E-02 
822	 3.74698423276244E-02 
823	 3.63594249974782E-02 
824	 3.51276011222525E-02 
825	 3.43923998958322E-02 
826	 0.033512893487798 
827	 3.23729483636612E-02 
828	 3.11750268278323E-02 
829	 3.02448280544529E-02 
830	 2.93338967390129E-02 
831	 2.85137632552083E-02 
832	 2.80896258397415E-02 
833	 2.78301705954226E-02 
834	 2.73732449000873E-02 
835	 2.67804448371915E-02 
836	 2.66493186019619E-02 
837	 2.65039879182521E-02 
838	 2.63057706209594E-02 
839	 2.60898976685444E-02 
840	 2.58002911657851E-02 
841	 0.025752606791608 
842	 2.57356958359518E-02 
843	 2.54693528386972E-02 
844	 2.53631750276479E-02 
845	 2.52587517549845E-02 
846	 2.51158582976319E-02 
847	 2.49906601578952E-02 
848	 2.49026964717127E-02 
849	 2.48762885712611E-02 
850	 2.47989095617364E-02 
851	 2.44302100952213E-02 
852	 2.46169483939942E-02 
853	 2.46549182995549E-02 
854	 2.41541191916856E-02 
855	 2.40764961211998E-02 
856	 2.41190112356315E-02 
857	 2.40780082815741E-02 
858	 2.38646139152089E-02 
859	 2.37045797454815E-02 
860	 2.36254782918675E-02 
861	 0.023627715335268 
862	 2.36525348424923E-02 
863	 2.34162146512223E-02 
864	 0.023386257064247 
865	 2.34182743958974E-02 
866	 2.29143121159012E-02 
867	 2.30890773546333E-02 
868	 2.31560206913316E-02 
869	 2.28307435336992E-02 
870	 2.28093488409869E-02 
871	 2.25316296540711E-02 
872	 2.23628241042486E-02 
873	 2.25393196093369E-02 
874	 2.26119398804314E-02 
875	 0.022192108852092 
876	 2.18803440539773E-02 
877	 2.21854435951318E-02 
878	 2.20944071959799E-02 
879	 2.19759240163997E-02 
880	 2.18685367116799E-02 
881	 2.16940687518968E-02 
882	 2.16391065060854E-02 
883	 2.15400047785322E-02 
884	 2.13733548507764E-02 
885	 2.12613804193642E-02 
886	 2.15125170630841E-02 
887	 2.13390444634601E-02 
888	 2.08515051244828E-02 
889	 2.11887590356491E-02 
890	 0.021222477313958 
891	 2.10397969248785E-02 
892	 2.08510023804536E-02 
893	 2.06965730026215E-02 
894	 0.020953740163568 
895	 2.08682842446673E-02 
896	 2.01159369083437E-02 
897	 2.07972037296312E-02 
898	 2.02069345582376E-02 
899	 1.96902019200596E-02 
900	 2.07708187370483E-02 
901	 2.05031750714881E-02 
902	 2.06620659199226E-02 
903	 2.07609095387944E-02 
904	 1.98899885311985E-02 
905	 1.95387160341674E-02 
906	 1.98243469423838E-02 
907	 1.99476966730314E-02 
908	 1.89142471391616E-02 
909	 1.93766231005852E-02 
910	 0.019911240891292 
911	 1.98074265316561E-02 
912	 1.94422617033285E-02 
913	 1.92267741752997E-02 
914	 1.95508211257456E-02 
915	 1.99889832527898E-02 
916	 1.94442900412882E-02 
917	 1.92081718231548E-02 
918	 1.92287697334112E-02 
919	 1.91042664325308E-02 
920	 1.83355334687361E-02 
921	 1.86535157633405E-02 
922	 1.90121077585504E-02 
923	 1.87282420150791E-02 
924	 1.90160045499607E-02 
925	 1.93620974039689E-02 
926	 1.93939829747675E-02 
927	 1.91110201903746E-02 
928	 1.98842874982239E-02 
929	 1.90759769285715E-02 
930	 1.77737711694911E-02 
931	 1.85864249342976E-02 
932	 1.74944560069891E-02 
933	 1.75787227285859E-02 
934	 1.77966487623674E-02 
935	 1.63081486720025E-02 
936	 1.76250439891294E-02 
937	 1.76569514675086E-02 
938	 1.74574537290008E-02 
939	 1.86762726033178E-02 
940	 1.84216577307125E-02 
941	 1.96187869757737E-02 
942	 2.04606064000528E-02 
943	 1.77744039447765E-02 
944	 1.55138967773067E-02 
945	 0.017160068317902 
946	 0.019493843115547 
947	 1.71194256554952E-02 
948	 1.61432383854567E-02 
949	 1.62235592333327E-02 
950	 1.71669784820184E-02 
951	 1.85360093465628E-02 
952	 1.69155872670482E-02 
953	 1.47043671932489E-02 
954	 1.40397378122377E-02 
955	 0.015658919156316 
956	 1.65601309909989E-02 
957	 1.69132572005776E-02 
958	 1.60890496918947E-02 
959	 1.37222958269565E-02 
960	 1.61324479801425E-02 
961	 1.72195505403932E-02 
962	 1.60390098967967E-02 
963	 1.59543767566212E-02 
964	 1.64950508893982E-02 
965	 1.75266573867679E-02 
966	 1.78951696994791E-02 
967	 1.63400757307809E-02 
968	 1.59906138470635E-02 
969	 1.70513959275994E-02 
970	 1.78084752513565E-02 
971	 1.59079594547316E-02 
972	 1.51016978134789E-02 
973	 1.57260252201854E-02 
974	 1.66040775859817E-02 
975	 1.59544480948998E-02 
976	 1.60781791315457E-02 
977	 1.63369206961548E-02 
978	 1.61374308029023E-02 
979	 1.54850186150911E-02 
980	 1.58365871830702E-02 
981	 1.65653214178687E-02 
982	 1.70749042735565E-02 
983	 1.71451514506071E-02 
984	 0.017483635546473 
985	 1.69794349957693E-02 
986	 1.60269861447558E-02 
987	 1.59864192665209E-02 
988	 1.49488717050979E-02 
989	 1.65260831755563E-02 
990	 1.85567436656277E-02 
991	 1.58504849239453E-02 
992	 1.53655360745865E-02 
993	 1.46312474367129E-02 
994	 1.42800011111161E-02 
995	 1.65457247859538E-02 
996	 0.016908383189284 
997	 1.64260167655089E-02 
998	 1.59152178950094E-02 
999	 1.59285539071018E-02 
1000	 1.78826206288653E-02 
1001	 1.42697822717762E-02 
1002	 1.36136791145979E-02 
1003	 0.013524878989674 
1004	 0.013887721002712 
1005	 1.40203353218083E-02 
1006	 1.42716311119056E-02 
1007	 1.44968444021672E-02 
1008	 1.44877240698849E-02 
1009	 1.45967344822019E-02 
1010	 1.45293688536933E-02 
1011	 1.45953664921749E-02 
1012	 1.47828264267161E-02 
1013	 1.45006751310245E-02 
1014	 1.44738984266366E-02 
1015	 1.44469316181482E-02 
1016	 1.44891262792129E-02 
1017	 0.014703244800361 
1018	 1.48475437990747E-02 
1019	 1.50135894691185E-02 
1020	 1.50952219209054E-02 
1021	 1.51522147214442E-02 
1022	 1.50947864157566E-02 
1023	 0.014895852856454 
1024	 1.48577633508626E-02 
1025	 1.49101690922387E-02 
1026	 1.47891206389005E-02 
1027	 1.47449812224014E-02 
1028	 1.47769044860755E-02 
1029	 1.46885192436292E-02 
1030	 1.44653471272413E-02 
1031	 1.44324053881773E-02 
1032	 0.014499461188001 
1033	 0.014504005047861 
1034	 1.46082673734036E-02 
1035	 0.014613565555678 
1036	 1.43644488709534E-02 
1037	 1.43877765683546E-02 
1038	 1.45595709630462E-02 
1039	 0.01472744851303 
1040	 1.50289391358418E-02 
1041	 1.51833424831665E-02 
1042	 1.52543210858532E-02 
1043	 1.52519648025287E-02 
1044	 1.50974198689616E-02 
1045	 1.47263904584763E-02 
1046	 0.014586147302121 
1047	 1.42720644972894E-02 
1048	 0.014284441109546 
1049	 1.46696106522136E-02 
1050	 1.48514135606857E-02 
1051	 1.52826761657169E-02 
1052	 1.53158964399881E-02 
1053	 0.014972924881169 
1054	 1.48135340409835E-02 
1055	 1.43365507633259E-02 
1056	 1.41762230889513E-02 
1057	 1.41909590395741E-02 
1058	 1.44986887223004E-02 
1059	 1.46256538767644E-02 
1060	 1.48366707266916E-02 
1061	 1.50451466358157E-02 
1062	 1.52869517868796E-02 
1063	 1.53915881212646E-02 
1064	 1.56442542437531E-02 
1065	 1.55565419459396E-02 
1066	 1.50060809844053E-02 
1067	 1.47859870541761E-02 
1068	 1.43993627797745E-02 
1069	 1.43245637775749E-02 
1070	 1.46617553467288E-02 
1071	 0.014845112680053 
1072	 1.53614644647041E-02 
1073	 1.54564981163092E-02 
1074	 1.53512614174928E-02 
1075	 1.49158989499193E-02 
1076	 1.48165073752104E-02 
1077	 1.45574562391773E-02 
1078	 1.44898445878024E-02 
1079	 1.48007838593566E-02 
1080	 1.47585858250398E-02 
1081	 1.43135591311271E-02 
1082	 1.43436605188281E-02 
1083	 1.47851712393217E-02 
1084	 1.47947161356499E-02 
1085	 1.47695232721009E-02 
1086	 1.48005353161626E-02 
1087	 1.43226241503897E-02 
1088	 1.41967447420676E-02 
1089	 1.43931991496468E-02 
1090	 1.48746603954043E-02 
1091	 1.49442200102631E-02 
1092	 1.49316422828221E-02 
1093	 1.49109484472596E-02 
1094	 1.46960653926883E-02 
1095	 1.45328829843988E-02 
1096	 1.42595891438309E-02 
1097	 1.43483107303385E-02 
1098	 1.47054318678871E-02 
1099	 0.014721029275839 
1100	 1.49819682109463E-02 
1101	 1.49770721832599E-02 
1102	 1.41803761131459E-02 
1103	 0.014050503312205 
1104	 0.014599086151335 
1105	 1.45197809344808E-02 
1106	 1.44368594712387E-02 
1107	 1.46394791966214E-02 
1108	 1.40014832985985E-02 
1109	 1.33882390444869E-02 
1110	 1.35813278848043E-02 
1111	 1.48911457904003E-02 
1112	 1.48698549648614E-02 
1113	 1.45944692524394E-02 
1114	 1.46864776991537E-02 
1115	 1.35833164758937E-02 
1116	 1.31488056129503E-02 
1117	 1.45635290590359E-02 
1118	 1.52587391842164E-02 
1119	 1.41038262325722E-02 
1120	 1.43897095753913E-02 
1121	 1.70914697309232E-02 
1122	 1.89720134881588E-02 
1123	 1.54492710541412E-02 
1124	 1.38660469085981E-02 
1125	 1.06198852323321E-02 
1126	 8.58612493175535E-03 
1127	 1.29419973869149E-02 
1128	 1.61371625830079E-02 
1129	 1.67006205364816E-02 
1130	 1.48843023420697E-02 
1131	 1.42687856540115E-02 
1132	 1.32420473684468E-02 
1133	 1.36181602238357E-02 
1134	 1.48166613447602E-02 
1135	 1.46658227065711E-02 
1136	 1.43116978331621E-02 
1137	 1.38394840407141E-02 
1138	 1.14895319940176E-02 
1139	 1.27875129242511E-02 
1140	 0.015984096126142 
1141	 1.54059524814955E-02 
1142	 1.43946746655814E-02 
1143	 1.38281488232313E-02 
1144	 1.18024688903395E-02 
1145	 1.15765077425212E-02 
1146	 0.013712675967753 
1147	 1.45884966400618E-02 
1148	 1.27844806388476E-02 
1149	 0.011019538310468 
1150	 1.10515589140574E-02 
1151	 1.16545645771037E-02 
1152	 1.19341907812911E-02 
1153	 1.37593595506171E-02 
1154	 1.36169974634024E-02 
1155	 1.23952489804113E-02 
1156	 1.09807173095256E-02 
1157	 1.08134815176789E-02 
1158	 1.15678292038477E-02 
1159	 1.21962238374517E-02 
1160	 1.27452312505083E-02 
1161	 0.012452325197638 
1162	 1.15293734073833E-02 
1163	 1.17178074753255E-02 
1164	 1.23507684849023E-02 
1165	 1.23126031743374E-02 
1166	 1.23660947582652E-02 
1167	 0.01240513405304 
1168	 1.21128022381516E-02 
1169	 0.012111870976463 
1170	 1.23559719927746E-02 
1171	 1.23728762437862E-02 
1172	 1.19332767673321E-02 
1173	 1.19084573451526E-02 
1174	 1.20387357579673E-02 
1175	 1.22272224482225E-02 
1176	 1.23735921115332E-02 
1177	 1.22400923134932E-02 
1178	 1.17831650747044E-02 
1179	 1.18584568986626E-02 
1180	 0.012091288405504 
1181	 1.19262149219608E-02 
1182	 1.20204608491373E-02 
1183	 1.21637185475328E-02 
1184	 1.19546091783883E-02 
1185	 0.011967342695357 
1186	 1.21083601556125E-02 
1187	 1.20385318478432E-02 
1188	 1.20318589989412E-02 
1189	 1.20270936844594E-02 
1190	 1.19010101951202E-02 
1191	 1.18326498924421E-02 
1192	 1.18225232585888E-02 
1193	 0.011789830901111 
1194	 1.18559991428189E-02 
1195	 1.19641971219366E-02 
1196	 0.011920937439323 
1197	 1.16972143073932E-02 
1198	 1.16190932300946E-02 
1199	 1.17806725743891E-02 
1200	 1.17381252937759E-02 
1201	 1.16633566287079E-02 
1202	 1.18367584579136E-02 
1203	 1.20103737589726E-02 
1204	 1.21235531590759E-02 
1205	 1.21406735273042E-02 
1206	 1.20783041281708E-02 
1207	 1.20615187164475E-02 
1208	 1.20633317711197E-02 
1209	 1.19199433057418E-02 
1210	 1.17556505820682E-02 
1211	 1.17773611186662E-02 
1212	 1.18210644524439E-02 
1213	 1.18832888226407E-02 
1214	 1.18986359178482E-02 
1215	 1.19959002503554E-02 
1216	 1.17817318563133E-02 
1217	 1.16514603658211E-02 
1218	 1.18345792324124E-02 
1219	 1.19066801347276E-02 
1220	 1.19007004195031E-02 
1221	 1.19809907775579E-02 
1222	 1.19624678681278E-02 
1223	 0.01201726102577 
1224	 1.22038546843622E-02 
1225	 1.20955573298707E-02 
1226	 1.18259147374908E-02 
1227	 1.18685354763326E-02 
1228	 1.19396538209994E-02 
1229	 1.18453698192934E-02 
1230	 1.18726106692013E-02 
1231	 1.18614612922414E-02 
1232	 1.17847209064554E-02 
1233	 1.18430011826828E-02 
1234	 1.19149746496171E-02 
1235	 1.19874999813497E-02 
1236	 0.012074934771937 
1237	 0.012033721227179 
1238	 1.19208940536709E-02 
1239	 1.19197405558386E-02 
1240	 1.18099049767755E-02 
1241	 1.17334048739535E-02 
1242	 1.19269392409224E-02 
1243	 1.20694867480163E-02 
1244	 1.19665853796205E-02 
1245	 1.18486810065177E-02 
1246	 1.18848400739634E-02 
1247	 1.19102612623536E-02 
1248	 1.19628886346047E-02 
1249	 1.20165386216232E-02 
1250	 1.19821257593136E-02 
1251	 0.011925387122997 
1252	 1.17755289580016E-02 
1253	 1.16898680752166E-02 
1254	 1.18708219872073E-02 
1255	 1.20998457540731E-02 
1256	 1.21063803034813E-02 
1257	 1.21777791282125E-02 
1258	 1.22685117580237E-02 
1259	 1.21161241369658E-02 
1260	 1.18764648973254E-02 
1261	 1.15890029323831E-02 
1262	 1.16682780476765E-02 
1263	 1.18100730418542E-02 
1264	 1.18854645649832E-02 
1265	 1.18917752494707E-02 
1266	 1.19913817584205E-02 
1267	 1.18935753137573E-02 
1268	 1.16553300117509E-02 
1269	 1.19074690918479E-02 
1270	 1.21943671608516E-02 
1271	 1.19478245535298E-02 
1272	 1.16746844765285E-02 
1273	 1.17534669396945E-02 
1274	 1.18552726846128E-02 
1275	 1.17925366991346E-02 
1276	 1.16439427074635E-02 
1277	 1.15675260320197E-02 
1278	 1.15611123868275E-02 
1279	 1.16750090271787E-02 
1280	 1.19433027689769E-02 
1281	 1.19521503698045E-02 
1282	 0.011651315655976 
1283	 1.16209391578293E-02 
1284	 1.16088447487835E-02 
1285	 0.011625338778782 
1286	 1.18835813546745E-02 
1287	 1.19074318107824E-02 
1288	 1.17063914872192E-02 
1289	 1.16957510475032E-02 
1290	 1.17546794963824E-02 
1291	 1.17152985099937E-02 
1292	 1.16937374725814E-02 
1293	 1.15426110051643E-02 
1294	 1.13567241068948E-02 
1295	 0.011542210104782 
1296	 1.18425074759985E-02 
1297	 1.17736039598877E-02 
1298	 1.14653505180426E-02 
1299	 1.12107124506437E-02 
1300	 1.10831138413515E-02 
1301	 1.11759412881204E-02 
1302	 1.15099280981286E-02 
1303	 1.15067666670635E-02 
1304	 0.011108656148185 
1305	 1.11806775892476E-02 
1306	 1.10963408466982E-02 
1307	 1.07861945787297E-02 
1308	 1.08220988511177E-02 
1309	 1.12438245483016E-02 
1310	 1.12148357287621E-02 
1311	 1.10656549243414E-02 
1312	 1.11659186207965E-02 
1313	 1.13279325263934E-02 
1314	 1.11287126664552E-02 
1315	 0.010753687773474 
1316	 1.07144598196751E-02 
1317	 1.04641351603081E-02 
1318	 1.02928996185124E-02 
1319	 1.06630287831794E-02 
1320	 1.08769955286213E-02 
1321	 1.11358202154484E-02 
1322	 1.07442137729701E-02 
1323	 0.010150380921524 
1324	 9.92604430215688E-03 
1325	 9.93295519336767E-03 
1326	 9.92234599871425E-03 
1327	 1.01523622461684E-02 
1328	 1.02930233649416E-02 
1329	 9.74893502604791E-03 
1330	 9.22365142295173E-03 
1331	 9.51318729453885E-03 
1332	 9.86501912244533E-03 
1333	 9.78297239982332E-03 
1334	 9.70406698158341E-03 
1335	 9.89890196949745E-03 
1336	 1.00942015640206E-02 
1337	 0.010111579421327 
1338	 1.05102727104912E-02 
1339	 1.04785060738322E-02 
1340	 9.58756619345544E-03 
1341	 9.48785139998695E-03 
1342	 1.01379545076975E-02 
1343	 1.00101319070275E-02 
1344	 9.27840838742445E-03 
1345	 9.35369675041466E-03 
1346	 9.57715900270783E-03 
1347	 9.68139439043103E-03 
1348	 1.14680843984577E-02 
1349	 1.19371310010032E-02 
1350	 8.98726057971702E-03 
1351	 8.10212088525504E-03 
1352	 1.11191066881898E-02 
1353	 0.011488357997875 
1354	 1.45310680043073E-02 
1355	 1.40001583179878E-03 
1356	-1.17702263624412E-04 
1357	 9.42260135891687E-03 
1358	-3.76101921351586E-02 
1359	-4.80025081656895E-02 
1360	 4.34904014418867E-02 
1361	 5.77900111013673E-02 
1362	 8.30373397409208E-02 
1363	 0.137373135339051 
1364	 4.14453614912958E-02 
1365	-8.89412647288131E-02 
1366	-0.108951131555365 
1367	-1.67327830934405E-02 
1368	 1.08294840263976E-02 
1369	-2.69348041146651E-02 
1370	-6.37856637645243E-02 
1371	-0.115310891720772 
1372	-0.102211789094566 
1373	-1.58182566985914E-02 
1374	-1.21229273354983E-02 
1375	-6.60573771812068E-02 
1376	-4.97146304387733E-02 
1377	-5.01630823902184E-02 
1378	-0.129243187798155 
1379	-0.226063652143511 
1380	-0.08381026676471 
1381	 0.349112736439925 
1382	 0.296959596769256 
1383	-2.03295492859963E-02 
1384	 6.86028660305647E-02 
1385	-5.67219363563412E-03 
1386	-0.218903278129284 
1387	-0.120262202843713 
1388	-7.26341916200065E-02 
1389	-0.355083721742954 
1390	-0.445760884771999 
1391	-0.208561312619231 
1392	 1.68745204487468E-02 
1393	-4.42510405037154E-02 
1394	-0.188728917721774 
1395	-0.240328766667298 
1396	-0.129804603482758 
1397	 0.026325662797654 
1398	 4.64264216555534E-03 
1399	-0.311804237391389 
1400	-0.366812864120557 
1401	-0.334915403107065 
1402	-0.425779902690409 
1403	-0.232287612433735 
1404	-4.33006714263158E-02 
1405	 3.10845305828836E-02 
1406	 0.099651766721739 
1407	 3.31356248665217E-02 
1408	-0.154133839478737 
1409	-0.109265985094845 
1410	-3.51780880578098E-02 
1411	-0.040853703028401 
1412	 1.65693855262177E-02 
1413	 3.68719874572695E-02 
1414	-2.61612724730529E-02 
1415	-2.62817804391834E-02 
1416	 0.044252852902719 
1417	 4.42264832479904E-02 
1418	 9.45155790337881E-04 
1419	-4.76806085704503E-03 
1420	-3.00004745660353E-04 
1421	-3.65017064064835E-03 
1422	-3.49101731714209E-03 
1423	-3.82401635230657E-03 
1424	-1.50213171198245E-02 
1425	-0.010210591833475 
1426	 1.25814862109255E-02 
1427	 1.30120951748917E-02 
1428	 2.64673381237758E-03 
1429	 5.25162739987924E-03 
1430	 8.62781814373715E-03 
1431	 5.5134886301234E-03 
1432	 5.24893639954687E-03 
1433	 9.33832232989584E-03 
1434	 8.98291632378547E-03 
1435	 5.39855241524667E-03 
1436	 6.75951982358877E-03 
1437	 8.83477818745344E-03 
1438	 4.20276783219769E-03 
1439	 3.81105579899892E-03 
1440	 5.93933578782776E-03 
1441	 8.50670931490432E-03 
1442	 8.78766864047871E-03 
1443	 5.41337815766922E-03 
1444	 4.40493067928265E-03 
1445	 4.39320523452575E-03 
1446	 4.34563631982106E-04 
1447	-5.95551042896151E-04 
1448	 1.61470362213538E-03 
1449	 6.85694943575779E-04 
1450	 3.01415452466018E-03 
1451	 5.39505931082368E-03 
1452	 2.84751965660086E-03 
1453	 2.73353345252277E-03 
1454	 2.95685322826743E-03 
1455	 2.07038438978737E-03 
1456	 0.002172072531 
1457	 4.28946751735686E-03 
1458	 4.46781857396772E-03 
1459	 3.11573880324151E-03 
1460	 3.12627671663189E-03 
1461	 3.68151281682703E-03 
1462	 3.90963194190263E-03 
1463	 4.81459525372534E-03 
1464	 4.60115179070826E-03 
1465	 2.9628119528008E-03 
1466	 3.06637220145029E-03 
1467	 3.63961101255014E-03 
1468	 3.67991165356991E-03 
1469	 4.91553124998556E-03 
1470	 5.18495676959475E-03 
1471	 3.89531500890146E-03 
1472	 3.88146657607476E-03 
1473	 5.04321587696644E-03 
1474	 5.03265099935715E-03 
1475	 4.62228090375617E-03 
1476	 4.02975335777284E-03 
1477	 2.47858380307536E-03 
1478	 2.25505801559252E-03 
1479	 2.9297609911998E-03 
1480	 2.77895918099248E-03 
1481	 2.32536349235889E-03 
1482	 2.87111521548916E-03 
1483	 3.66966745567755E-03 
1484	 3.66267098146567E-03 
1485	 4.15377443432651E-03 
1486	 4.3634092217281E-03 
1487	 3.79703728415545E-03 
1488	 3.49272294481177E-03 
1489	 3.2861550901214E-03 
1490	 3.43083978227802E-03 
1491	 3.70953005361838E-03 
1492	 3.61693473782533E-03 
1493	 3.54515146209355E-03 
1494	 3.73099670766782E-03 
1495	 3.84412563282661E-03 
1496	 3.85771144242513E-03 
1497	 4.18622570813795E-03 
1498	 4.25375121147622E-03 
1499	 3.73026039488064E-03 
1500	 3.70152828878045E-03 
1501	 4.17570231667344E-03 
1502	 4.27120034671463E-03 
1503	 4.22683947241052E-03 
1504	 4.27198033045397E-03 
1505	 4.21442364062121E-03 
1506	 4.14871640988761E-03 
1507	 4.12887770067224E-03 
1508	 4.26754377103208E-03 
1509	 4.22639835326756E-03 
1510	 3.95747182767321E-03 
1511	 3.94463420913408E-03 
1512	 4.16928398657707E-03 
1513	 4.26662704195565E-03 
1514	 4.29769526869637E-03 
1515	 4.27558507892236E-03 
1516	 4.1131770943087E-03 
1517	 3.98244800759461E-03 
1518	 4.08501321670981E-03 
1519	 4.4075538788917E-03 
1520	 4.58644855604946E-03 
1521	 4.53961991273302E-03 
1522	 4.52535610076518E-03 
1523	 4.53095965909439E-03 
1524	 4.42577545124662E-03 
1525	 4.24661680161223E-03 
1526	 4.29858812644677E-03 
1527	 4.41859943955125E-03 
1528	 4.34319994434983E-03 
1529	 4.36889952014894E-03 
1530	 4.46851411702917E-03 
1531	 4.46996576386953E-03 
1532	 4.57885606241204E-03 
1533	 4.73595300240545E-03 
1534	 4.67051483480061E-03 
1535	 4.44605443445058E-03 
1536	 4.34140308729287E-03 
1537	 4.50789028596581E-03 
1538	 4.67630214242597E-03 
1539	 4.73147048505098E-03 
1540	 4.79317020846207E-03 
1541	 4.83441484289844E-03 
1542	 4.83178278244603E-03 
1543	 4.76474192061272E-03 
1544	 4.8111239243186E-03 
1545	 4.92858675478613E-03 
1546	 4.86500920794863E-03 
1547	 4.86090554845764E-03 
1548	 5.05637578895844E-03 
1549	 5.22140892234273E-03 
1550	 5.15505832944665E-03 
1551	 4.91886040085842E-03 
1552	 4.85563956259477E-03 
1553	 4.98733190733577E-03 
1554	 5.10946504276387E-03 
1555	 5.31811681627503E-03 
1556	 5.4768673433816E-03 
1557	 5.22236428780567E-03 
1558	 5.14621128188669E-03 
1559	 5.45437425797355E-03 
1560	 5.45287450797677E-03 
1561	 5.36925263973062E-03 
1562	 5.26911600206334E-03 
1563	 5.1138459195382E-03 
1564	 5.31843036359086E-03 
1565	 5.50915476744712E-03 
1566	 5.4147349085917E-03 
1567	 5.36958662551989E-03 
1568	 5.33019979609222E-03 
1569	 5.2600583827135E-03 
1570	 5.45967752203417E-03 
1571	 5.69402831286608E-03 
1572	 5.65383585072751E-03 
1573	 5.59618840188159E-03 
1574	 5.62233493093982E-03 
1575	 5.52779066936796E-03 
1576	 5.46242039290952E-03 
1577	 5.50165806032519E-03 
1578	 5.43797056578313E-03 
1579	 5.61316901362486E-03 
1580	 5.85388018256753E-03 
1581	 5.75693355265483E-03 
1582	 5.77162198981128E-03 
1583	 5.78609117410651E-03 
1584	 5.63250545216467E-03 
1585	 5.59693935267812E-03 
1586	 5.71022913204068E-03 
1587	 5.82136454265821E-03 
1588	 5.74374126017147E-03 
1589	 5.8053933861544E-03 
1590	 5.97996045404643E-03 
1591	 5.89251516013725E-03 
1592	 5.8571033808899E-03 
1593	 6.08300107266134E-03 
1594	 6.28738482951927E-03 
1595	 6.23366527049305E-03 
1596	 6.10294150452045E-03 
1597	 6.01952523449099E-03 
1598	 5.84332796785636E-03 
1599	 5.69168338739938E-03 
1600	 5.78740906279958E-03 
1601	 5.92496008231848E-03 
1602	 5.81527254201825E-03 
1603	 5.81654054721351E-03 
1604	 6.11503209684441E-03 
1605	 6.18184404552191E-03 
1606	 6.09420693370284E-03 
1607	 6.17106155241486E-03 
1608	 6.20424518907523E-03 
1609	 6.13577094489966E-03 
1610	 5.88621430001039E-03 
1611	 5.82685183041605E-03 
1612	 6.1044609891167E-03 
1613	 6.3296773997307E-03 
1614	 6.4726557906968E-03 
1615	 6.38265110389505E-03 
1616	 6.17665345321089E-03 
1617	 6.15030438347836E-03 
1618	 6.34612871688533E-03 
1619	 6.52814098431358E-03 
1620	 6.43083741769533E-03 
1621	 6.35410415192632E-03 
1622	 6.48818196939458E-03 
1623	 6.56190565767597E-03 
1624	 6.45436655517071E-03 
1625	 6.19840364066678E-03 
1626	 6.09043570814375E-03 
1627	 6.29030337917635E-03 
1628	 6.4304825803295E-03 
1629	 6.51058747558193E-03 
1630	 6.53002938750723E-03 
1631	 6.31145238476803E-03 
1632	 6.29783858277097E-03 
1633	 6.50700367713377E-03 
1634	 6.34161213075141E-03 
1635	 6.11643843851745E-03 
1636	 6.19905015212718E-03 
1637	 6.23491437758692E-03 
1638	 6.40599531087297E-03 
1639	 6.75662367696565E-03 
1640	 6.80178016107289E-03 
1641	 6.54501244486355E-03 
1642	 6.38491666005767E-03 
1643	 6.44088377536809E-03 
1644	 6.41974169984008E-03 
1645	 6.41847565758629E-03 
1646	 6.53846181718676E-03 
1647	 6.31975705375834E-03 
1648	 6.15363272421511E-03 
1649	 6.44194524309917E-03 
1650	 6.55646322393083E-03 
1651	 6.59931067124272E-03 
1652	 6.78062051829302E-03 
1653	 6.76318484517549E-03 
1654	 6.5993791745663E-03 
1655	 6.05740461256316E-03 
1656	 6.06000031954274E-03 
1657	 6.3902285902462E-03 
1658	 6.48990664718489E-03 
1659	 6.82558267084509E-03 
1660	 6.93847528748716E-03 
1661	 6.76059363853172E-03 
1662	 6.68156081007741E-03 
1663	 6.57505304652769E-03 
1664	 6.57096544814673E-03 
1665	 6.60026111522913E-03 
1666	 6.63196394415049E-03 
1667	 6.76273945705342E-03 
1668	 6.73098249908466E-03 
1669	 6.68045372704447E-03 
1670	 6.55752662745285E-03 
1671	 6.41787368630989E-03 
1672	 6.50583122048738E-03 
1673	 6.77763712778619E-03 
1674	 6.43421277722468E-03 
1675	 6.21309266165678E-03 
1676	 6.53412862827805E-03 
1677	 6.33684457422614E-03 
1678	 6.06475266883036E-03 
1679	 6.12468551069412E-03 
1680	 5.95345966782208E-03 
1681	 6.12544360499783E-03 
1682	 6.53294616396703E-03 
1683	 6.31972560040513E-03 
1684	 6.28954658547405E-03 
1685	 6.69300790590131E-03 
1686	 6.87505750815481E-03 
1687	 6.94381300554124E-03 
1688	 7.28488181072619E-03 
1689	 7.14500213823129E-03 
1690	 6.13583210564405E-03 
1691	 6.19110115514631E-03 
1692	 6.9110468076874E-03 
1693	 6.51674947710844E-03 
1694	 6.36043215348152E-03 
1695	 6.58878842835473E-03 
1696	 6.19454498673599E-03 
1697	 6.12408110704858E-03 
1698	 6.49679114825058E-03 
1699	 0.006771228549979 
1700	 6.77666009371315E-03 
1701	 6.50682501199442E-03 
1702	 6.33310128080003E-03 
1703	 6.10811699103165E-03 
1704	 5.94313947546748E-03 
1705	 6.18910834648476E-03 
1706	 6.56947445531446E-03 
1707	 6.66958575824337E-03 
1708	 6.52797923065989E-03 
1709	 6.29812962109831E-03 
1710	 5.97690365233731E-03 
1711	 6.01698624533357E-03 
1712	 6.27227674997249E-03 
1713	 6.29370773382124E-03 
1714	 6.31997512874069E-03 
1715	 6.37531375425245E-03 
1716	 6.11373785121323E-03 
1717	 5.87748177677365E-03 
1718	 5.96617154819174E-03 
1719	 6.06182257156224E-03 
1720	 5.87146352408029E-03 
1721	 5.7692124362772E-03 
1722	 5.63639648804683E-03 
1723	 5.64711824002518E-03 
1724	 5.85542258533702E-03 
1725	 5.99891934228218E-03 
1726	 6.17722277957754E-03 
1727	 6.04801805084132E-03 
1728	 5.97147377263997E-03 
1729	 6.17055584897022E-03 
1730	 5.77828290945958E-03 
1731	 5.55674380731729E-03 
1732	 5.92231532814082E-03 
1733	 5.75160483020064E-03 
1734	 5.71178219106326E-03 
1735	 6.13662979328029E-03 
1736	 6.21088380785689E-03 
1737	 6.07301594042916E-03 
1738	 5.90548440289725E-03 
1739	 5.53003544800798E-03 
1740	 5.30947829560266E-03 
1741	 5.56964801748448E-03 
1742	 5.66240012603889E-03 
1743	 5.77338567311467E-03 
1744	 5.61733217237953E-03 
1745	 5.09475779068421E-03 
1746	 5.28262017826965E-03 
1747	 5.27358572336245E-03 
1748	 5.35778792621469E-03 
1749	 5.61481107721687E-03 
1750	 6.08167828112376E-03 
1751	 6.02510386227047E-03 
1752	 5.41864158157237E-03 
1753	 5.38922866684249E-03 
1754	 5.54492369882394E-03 
1755	 5.45513311374981E-03 
1756	 5.75600567398086E-03 
1757	 5.64124810238945E-03 
1758	 5.02369492412187E-03 
1759	 4.84665124572903E-03 
1760	 5.19014271908574E-03 
1761	 5.3549149638363E-03 
1762	 5.66097363342166E-03 
1763	 6.14593182222253E-03 
1764	 5.87858831243347E-03 
1765	 5.80476801491678E-03 
1766	 6.0826377220247E-03 
1767	 6.1907708493074E-03 
1768	 6.86140049221304E-03 
1769	 6.79590932112492E-03 
1770	 6.04892172213914E-03 
1771	 5.89528296339654E-03 
1772	 5.81497853386704E-03 
1773	 5.78895524455464E-03 
1774	 5.68219645936687E-03 
1775	 5.17512370069467E-03 
1776	 5.30803986306802E-03 
1777	 6.97921295140277E-03 
1778	 7.12267182705046E-03 
1779	 5.7293032899019E-03 
1780	 5.69739513441948E-03 
1781	 5.44695174072831E-03 
1782	 5.17564381285799E-03 
1783	 6.94379281700603E-03 
1784	 7.38846490937072E-03 
1785	 5.77942334882776E-03 
1786	 5.7716546811416E-03 
1787	 6.79240698111072E-03 
1788	 6.09785498473118E-03 
1789	 4.97704488049425E-03 
1790	 4.2278823482097E-03 
1791	 3.25214105700433E-03 
1792	 5.27108763324525E-03 
1793	 3.86283037830578E-03 
1794	 3.54939794977488E-03 
1795	 6.58995064704287E-03 
1796	 6.36488792943826E-03 
1797	 1.14087858584559E-02 
1798	 1.43878140666945E-02 
1799	 1.12053020299316E-02 
1800	 3.6146676092237E-03 
1801	 1.00871298950111E-03 
1802	 8.69179787433267E-04 
1803	 1.89937809630248E-03 
1804	 2.29779385898007E-02 
1805	 2.80879201156949E-02 
1806	 6.35119758974542E-03 
1807	 1.59812193192008E-03 
1808	-1.42439527906378E-02 
1809	-2.22549301089621E-02 
1810	 1.87047909345491E-02 
1811	 2.61558414593007E-02 
1812	-1.83743747369286E-03 
1813	 1.41877953135533E-03 
1814	 1.34086394766114E-02 
1815	 2.97551080085963E-02 
1816	 7.76864272913826E-02 
1817	 8.21975139334014E-02 
1818	 0.082919024818673 
1819	-7.03260090902775E-02 
1820	-3.77271435989516E-02 
1821	-3.81826554602856E-02 
1822	-0.16689237200328 
1823	-0.593940853927767 
1824	-0.762023770394902 
1825	-0.626970684890311 
1826	-0.559969086789483 
1827	-9.49400094662173E-02 
1828	 0.172564493640602 
1829	 0.217903075679151 
1830	 0.355446875987512 
1831	 0.562412731325963 
1832	-1.04741488526752E-02 
1833	 2.35012821841126 
1834	 2.07717140440832 
1835	 0.270524748049611 
1836	-0.205907001606651 
1837	-1.21715202217607 
1838	-12.791384457364 
1839	 1.65058808805512 
1840	 5.36886894397282 
1841	 3.21746731968442 
1842	 0.859020365583088 
1843	 1.2834875639422 
1844	-0.404932605458607 
1845	-0.235166157347523 
1846	-0.59362502433497 
1847	-1.07255105638665 
1848	 51.1878263844655 
1849	 0.692463768983926 
1850	 0.408425249115322 
1851	 0.233192130634876 
1852	 0.190426770760945 
1853	 0.229834524389986 
1854	 0.38525445317836 
1855	 0.244417500786945 
1856	 8.26175517828434E-02 
1857	-0.839622285675775 
1858	 7.51265154850906 
1859	-8.50651772129811 
1860	-18.0561402615768 
1861	 11.4296295017191 
1862	 13.5560178834993 
1863	 2.55864856545088 
1864	 0.152713049346112 
1865	 0.199025980520097 
1866	-2.45446292071098 
1867	-4.0517835728727 
1868	 5.42849386320442 
1869	 4.86778126378302 
1870	 2.22819772507629 
1871	 1.71527928743099 
1872	-5.94564769440302 
1873	-0.111125296074709 
1874	 1.37376169649417 
1875	 5.80043334503485 
1876	 38.4547619835473 
1877	 5.17560454412611E-02 
1878	 0.655498882038632 
1879	-4.64197690276314 
1880	-2.92413684077963 
1881	-2.36419556900981 
1882	-0.244311208578036 
1883	-1.74768172645268 
1884	 3.52589319903484E-02 
1885	 5.36897551069095 
1886	 6.73274474413005 
1887	 4.09532209850001 
1888	 5.58348882599101 
1889	 3.5366917261349 
1890	 1.05156431012726 
1891	 0.660448035602133 
1892	 9.40414748218365E-02 
1893	 9.71121805602906E-02 
1894	 0.640626528922397 
1895	 8.91400778311094 
1896	-7.3031494926578 
1897	 0.836928347102538 
1898	-0.849723016796937 
1899	-3.86128302889012 
1900	-6.51461763249158 
1901	-1.61816619279041 
1902	-0.463100607113951 
1903	-3.82729606233242 
1904	-2.77734268821146 
1905	 8.38799919503663 
1906	-7.50412143570235 
1907	 3.8412295102321 
1908	-6.35615352770093E-02 
1909	 0.239993525265813 
1910	 0.644955212877497 
1911	 0.48401617816915 
1912	 0.663189240729588 
1913	 0.729959414121071 
1914	 0.405004676204049 
1915	 0.223377893036802 
1916	-0.747116824299616 
1917	 0.158264119124969 
1918	 4.17410389521405E-02 
1919	 0.13928939294115 
1920	 0.78197393890955 
1921	 0.657853229660258 
1922	 0.445667850697876 
1923	 0.031978071898539 
1924	-1.01134406172402 
1925	-0.407821546018642 
1926	-0.538746371789413 
1927	-0.814825039544229 
1928	 1.45775363222414 
1929	 0.601188891460808 
1930	 0.102896499758005 
1931	 0.103176695220605 
1932	 8.28571455169759E-02 
1933	-7.26929955835012E-02 
1934	-3.84215808691534E-02 
1935	 3.72999841975951E-02 
1936	 1.60944955581205E-04 
1937	 2.58291411946649E-02 
1938	 4.72045756261533E-03 
1939	-1.68708387158469E-02 
1940	-0.073618642243904 
1941	-4.04465365768809E-02 
1942	-9.12739028635641E-03 
1943	-4.30334506645302E-03 
1944	 0.01812176739314 
1945	 0.014092303373815 
1946	-3.75957039085098E-03 
1947	-7.36464131084892E-03 
1948	-4.91599978171706E-03 
1949	 6.93236182309244E-03 
1950	 0.02937721811174 
1951	 0.041935253992263 
1952	 4.71858588306992E-02 
1953	 4.87755891642531E-02 
1954	 4.95322352737563E-02 
1955	 3.65924756737747E-02 
1956	 2.60960806816483E-02 
1957	 2.47931762575762E-02 
1958	 1.86529183939427E-02 
1959	 1.64243108568702E-02 
1960	 1.96520103114354E-02 
1961	 1.57842941227074E-02 
1962	 1.26725868644894E-02 
1963	 1.21723771851334E-02 
1964	 4.81200218541278E-03 
1965	-5.23509574714885E-04 
1966	-9.54036296059292E-04 
1967	 1.20892705350559E-04 
1968	 3.71774841489822E-04 
1969	 1.00297930652511E-03 
1970	 2.35399180893583E-03 
1971	 2.96871601825424E-03 
1972	 1.19255227692412E-03 
1973	 4.66867905894892E-04 
1974	 1.75353791732373E-03 
1975	 1.96477017769475E-03 
1976	 2.02536836247196E-03 
1977	 1.66769004284483E-03 
1978	 1.67726498906717E-03 
1979	 2.07327104704727E-03 
1980	 2.26240383556525E-03 
1981	 1.82448912938235E-03 
1982	 3.11775045061114E-03 
1983	 3.96417703348378E-03 
1984	 3.68902312319803E-03 
1985	 3.45676945606466E-03 
1986	 2.26368704400451E-03 
1987	 2.14457100380112E-03 
1988	 1.85071607283234E-03 
1989	 1.45806179062011E-03 
1990	 2.77156024796968E-03 
1991	 2.95649942807163E-03 
1992	 2.5488715867532E-03 
1993	 2.56587392114788E-03 
1994	 2.7370722658812E-03 
1995	 2.77363932776158E-03 
1996	 3.60214580458294E-03 
1997	 3.59246287587386E-03 
1998	 4.9698204058743E-03 
1999	 8.03381700001718E-03 
2000	 7.2656295852912E-03 
2001	 7.26374783877017E-03 
2002	 7.12407118769521E-03 
2003	 4.68763719003126E-03 
2004	 6.65068737097125E-03 
2005	 8.37316944398948E-03 
2006	 8.4980725587762E-03 
2007	 0.010518732819797 
2008	 9.37987898588173E-03 
2009	 7.62295060018831E-03 
2010	 5.90812419190037E-03 
2011	 5.51730505309049E-03 
2012	 4.11505720143392E-03 
2013	 2.36927175227869E-03 
2014	 3.26269633025483E-03 
2015	 3.41101628387907E-03 
2016	 2.49483717492062E-03 
2017	 2.73263929272898E-03 
2018	 5.36882522769957E-03 
2019	 6.58458770289522E-03 
2020	 6.67406889258089E-03 
2021	 6.2778860099441E-03 
2022	 5.66737003191878E-03 
2023	 5.7277875007674E-03 
2024	 4.86879959232874E-03 
2025	 3.61952859575747E-03 
2026	 3.64934949794773E-03 
2027	 4.06551829174152E-03 
2028	 2.93487390217702E-03 
2029	 2.83001080629305E-03 
2030	 3.12322944742597E-03 
2031	 2.32908599707074E-03 
2032	 1.76112414242217E-03 
2033	 1.63062201948881E-03 
2034	 1.52092428022437E-03 
2035	 1.35372435062412E-03 
2036	 1.42953556082021E-03 
2037	 1.95797935679153E-03 
2038	 2.64363211691249E-03 
2039	 3.10145256699851E-03 
2040	 3.61919117346233E-03 
2041	 3.63055073894436E-03 
2042	 3.15811356979074E-03 
2043	 3.03966849262796E-03 
2044	 2.81933357734095E-03 
2045	 2.33264419577036E-03 
2046	 2.10949999836039E-03 
2047	 2.49587046158791E-03 
2048	 2.22996061028069E-03 
2049	 1.94443932565703E-03 
2050	 2.72508223393424E-03 
2051	 3.52091508437857E-03 
2052	 0.00340237162521 
2053	 3.31186050107036E-03 
2054	 3.48122911903547E-03 
2055	 2.94013878644333E-03 
2056	 2.90073773364006E-03 
2057	 3.48309188510349E-03 
2058	 4.09002800656979E-03 
2059	 4.86311165408995E-03 
2060	 5.29079627228529E-03 
2061	 5.87573986350436E-03 
2062	 6.27943142179095E-03 
2063	 5.2859535599993E-03 
2064	 4.9811605372865E-03 
2065	 4.9510809402577E-03 
2066	 3.86562161192726E-03 
2067	 3.42860278999304E-03 
2068	 3.1089441239204E-03 
2069	 2.68941196988931E-03 
2070	 2.32716697159592E-03 
2071	 1.5533209053498E-03 
2072	 1.91195000739018E-03 
2073	 2.5025093875339E-03 
2074	 3.52268579895995E-03 
2075	 3.75833747048218E-03 
2076	 4.27278858086544E-03 
2077	 4.10797471751834E-03 
2078	 0.002563891179648 
2079	 2.47633854607987E-03 
2080	 3.11906410371916E-03 
2081	 3.90778025540727E-03 
2082	 3.94580768529994E-03 
2083	 3.72026708617254E-03 
2084	 3.70942631183075E-03 
2085	 3.05867945328152E-03 
2086	 3.39585184718158E-03 
2087	 4.39299769277782E-03 
2088	 3.38817061106598E-03 
2089	 2.30619359401013E-03 
2090	 2.63812223614923E-03 
2091	 2.41446325934215E-03 
2092	 2.25701692501511E-03 
2093	 3.31809247032818E-03 
2094	 3.43123943392491E-03 
2095	 2.41685191649744E-03 
2096	 1.92481862091579E-03 
2097	 1.31348023619669E-03 
2098	 1.13382884350135E-03 
2099	 9.26142203494842E-04 
2100	 1.34708431971632E-03 
2101	 2.4203552659413E-03 
2102	 3.19034493266345E-03 
2103	 3.41125205798558E-03 
2104	 3.89695914274769E-03 
2105	 3.98722678466744E-03 
2106	 3.79483654784635E-03 
2107	 3.9735512719126E-03 
2108	 3.73449468400518E-03 
2109	 3.55788453247211E-03 
2110	 2.97197773127325E-03 
2111	 2.74542809742147E-03 
2112	 3.56982341283952E-03 
2113	 3.75659532310948E-03 
2114	 3.8308618397895E-03 
2115	 4.08074666430224E-03 
2116	 4.27752422766675E-03 
2117	 4.26593679620404E-03 
2118	 4.06951858823594E-03 
2119	 4.09462919987399E-03 
2120	 4.46789254272965E-03 
2121	 4.09445825164518E-03 
2122	 3.41536879901648E-03 
2123	 3.90612367922298E-03 
2124	 3.84360837041206E-03 
2125	 2.99793661574715E-03 
2126	 2.39822928971259E-03 
2127	 2.61319840843736E-03 
2128	 3.06562997014168E-03 
2129	 2.84291956840142E-03 
2130	 3.14813157296467E-03 
2131	 3.61336542476441E-03 
2132	 3.64959595537439E-03 
2133	 4.62544094789572E-03 
2134	 4.82217759574748E-03 
2135	 4.60086685197893E-03 
2136	 4.38290947851725E-03 
2137	 4.00340957777221E-03 
2138	 3.56999451746606E-03 
2139	 3.07853608673985E-03 
2140	 2.90622342498316E-03 
2141	 2.27931654506353E-03 
2142	 1.93376588689313E-03 
2143	 1.86284274889022E-03 
2144	 2.47707562046023E-03 
2145	 2.67014271160618E-03 
2146	 3.65863861646013E-03 
2147	 4.29481952378831E-03 
2148	 4.94411129990993E-03 
2149	 4.97330342596372E-03 
2150	 4.10380497020144E-03 
2151	 4.48294297475817E-03 
2152	 4.75501851536201E-03 
2153	 4.8427710967069E-03 
2154	 5.08798391469603E-03 
2155	 4.26510848080497E-03 
2156	 3.4329153285521E-03 
2157	 3.06290327578987E-03 
2158	 2.8987754347517E-03 
2159	 3.2446244799495E-03 
2160	 4.12001103404855E-03 
2161	 4.28602238075328E-03 
2162	 4.70235924926297E-03 
2163	 4.89661978295844E-03 
2164	 4.19884350804276E-03 
2165	 4.64541616622003E-03 
2166	 6.5995888698821E-03 
2167	 6.45269425804852E-03 
2168	 5.42994938780994E-03 
2169	 4.95971156056313E-03 
2170	 3.33742272144713E-03 
2171	 2.02110748929533E-03 
2172	 3.06586965428148E-03 
2173	 3.82950813017547E-03 
2174	 4.03756161467056E-03 
2175	 4.2819327392045E-03 
2176	 3.63604177771849E-03 
2177	 2.89316735690627E-03 
2178	 2.64445333627859E-03 
2179	 2.74497490871492E-03 
2180	 3.33792911577701E-03 
2181	 4.11462894671733E-03 
2182	 5.39028090567401E-03 
2183	 6.11995502835381E-03 
2184	 5.98134836500071E-03 
2185	 6.86177743797746E-03 
2186	 6.52666401743262E-03 
2187	 4.51477461584715E-03 
2188	 4.30946035800913E-03 
2189	 4.68771121831865E-03 
2190	 4.45220614084189E-03 
2191	 5.11033862569379E-03 
2192	 4.96963127578022E-03 
2193	 3.10894811949709E-03 
2194	 2.93367041284094E-03 
2195	 4.68183317210592E-03 
2196	 4.95500287872401E-03 
2197	 4.75404265737611E-03 
2198	 4.82206281876428E-03 
2199	 4.26888968548878E-03 
2200	 3.01961450978019E-03 
2201	 3.64608756783286E-03 
2202	 3.9974929815777E-03 
2203	 3.82382021606431E-03 
2204	 4.20006549540056E-03 
2205	 4.79111396315835E-03 
2206	 6.02914883001018E-03 
2207	 4.34499225627076E-03 
2208	 3.0154785147683E-03 
2209	 2.60234841217077E-03 
2210	 1.19272532775542E-03 
2211	 2.86667928002589E-03 
2212	 3.85543216055361E-03 
2213	 3.40820678925562E-03 
2214	 3.21316213971978E-03 
2215	 1.67555820595473E-03 
2216	 3.63360059561547E-04 
2217	-2.45891377141078E-04 
2218	-8.02704445717449E-04 
2219	-9.88043100491425E-04 
2220	-3.86958624757744E-04 
2221	 7.12867997411628E-04 
2222	 2.27955552758438E-03 
2223	 2.69112199703482E-03 
2224	 3.53652155611603E-03 
2225	 3.47980943716981E-03 
2226	 1.89395694479471E-03 
2227	 1.68405574169926E-03 
2228	 1.95338439841529E-03 
2229	 2.18456952414114E-03 
2230	 2.10984466831466E-03 
2231	 2.47034992273925E-03 
2232	 4.56068321142269E-03 
2233	 5.09745358235768E-03 
2234	 4.9389758654071E-03 
2235	 4.30763609358832E-03 
2236	 5.24968581111653E-03 
2237	 4.28198690248254E-03 
2238	 3.62633398343694E-03 
2239	 5.45715777745959E-03 
2240	 4.60211666662872E-03 
2241	 2.60259409677265E-03 
2242	 2.31788149034691E-03 
2243	 1.21001179487867E-03 
2244	 9.1673545414667E-05 
2245	-7.02087183446244E-04 
2246	 5.09110680805026E-05 
2247	 2.23372947992381E-03 
2248	 4.85918266117366E-03 
2249	 6.00074675311297E-03 
2250	 4.53223351001435E-03 
2251	 4.00600170814063E-03 
2252	 3.19147006634331E-03 
2253	 3.58954300593482E-03 
2254	 4.68109155570487E-03 
2255	 3.99300917440639E-03 
2256	 3.54851483112827E-03 
2257	 2.24412576377986E-03 
2258	 2.50257736895352E-03 
2259	 4.91384753232517E-03 
2260	 5.39649227548832E-03 
2261	 5.79331910138109E-03 
2262	 6.28634663854442E-03 
2263	 5.46356718425011E-03 
2264	 4.86286175832705E-03 
2265	 5.91399137040601E-03 
2266	 5.39027321103419E-03 
2267	 1.59235543230808E-03 
2268	 1.83237824080108E-03 
2269	 4.27034513755444E-03 
2270	 4.82143318501022E-03 
2271	 8.07538133499199E-03 
2272	 8.86600168955974E-03 
2273	 4.67675874359851E-03 
2274	 4.93236424647145E-03 
2275	 8.77073429946744E-03 
2276	 9.11364061293896E-03 
2277	 9.59402125031737E-03 
2278	 9.61580319765428E-03 
2279	 6.36693706932116E-03 
2280	 5.49763153299816E-03 
2281	 5.86007709324179E-03 
2282	 6.93582948970908E-03 
2283	 8.88251927262842E-03 
2284	 7.89286178628756E-03 
2285	 5.13514575387356E-03 
2286	 4.64162733764062E-03 
2287	 3.9827143319165E-03 
2288	 2.47670093219952E-03 
2289	 3.04087403808277E-03 
2290	 2.19514412368783E-03 
2291	-5.29466254372141E-04 
2292	-1.05998508824893E-03 
2293	 3.4623621751276E-04 
2294	 1.72420005382963E-03 
2295	 2.82459150058088E-03 
2296	 3.19778878220922E-03 
2297	 2.89861008152775E-03 
2298	 3.27402002120881E-03 
2299	 3.64674200329847E-03 
2300	 3.85200644038766E-03 
2301	 1.23166035453963E-03 
2302	-2.55117912850192E-03 
2303	-2.58653993584203E-03 
2304	-3.48555421033619E-04 
2305	 3.05747345543364E-03 
2306	 3.90831095600286E-03 
2307	 2.84186366130785E-03 
2308	 3.91220635817441E-03 
2309	 4.8229067523543E-03 
2310	 6.53946369356618E-03 
2311	 8.49203647135539E-03 
2312	 5.15437917320836E-03 
2313	-1.45041723703189E-03 
2314	-8.82660373678903E-04 
2315	 2.59557249894761E-03 
2316	 1.35315495089713E-03 
2317	 1.97248725592818E-03 
2318	 8.17152408713278E-04 
2319	-2.49814017796705E-03 
2320	-1.52401608425613E-03 
2321	 3.28635054683428E-04 
2322	 2.28956630412122E-03 
2323	 3.44019087151064E-03 
2324	 2.21861429150704E-03 
2325	 2.18567121738376E-03 
2326	 1.23974080876823E-04 
2327	-1.30759346263678E-03 
2328	 1.2618384349728E-05 
2329	-4.09744296687112E-04 
2330	 3.35936975285181E-03 
2331	 3.72784988528577E-03 
2332	-9.94128454809403E-05 
2333	 2.54048422245026E-03 
2334	 4.14689969657546E-03 
2335	 2.39276547239419E-03 
2336	 4.89725059503973E-03 
2337	 8.59577792161629E-03 
2338	 6.14478916504114E-03 
2339	 4.99909312114554E-03 
2340	 7.97859725548952E-03 
2341	 5.52796446977093E-03 
2342	 1.66973315854108E-03 
2343	 7.09501957624168E-03 
2344	 1.12387897436438E-02 
2345	 1.11571942773241E-02 
2346	 1.30889661087846E-02 
2347	 6.79598472185923E-03 
2348	-5.12467305099546E-03 
2349	-1.81150229796434E-02 
2350	-2.13593703036483E-02 
2351	-1.05066701729259E-02 
2352	 8.44555754855177E-04 
2353	 1.16770700728768E-02 
2354	 1.50354294180083E-02 
2355	 9.70251585138498E-03 
2356	 2.32422991141334E-04 
2357	-7.6511799384461E-03 
2358	-9.5132702778066E-03 
2359	-1.14480729799457E-02 
2360	-9.9150386325667E-03 
2361	 9.53867755349122E-05 
2362	 8.29162052756801E-03 
2363	 6.15162855771297E-03 
2364	 2.50217108150555E-03 
2365	 2.88084075755558E-03 
2366	 1.88896869833522E-03 
2367	-1.21958929640036E-03 
2368	-2.30285788426328E-03 
2369	-1.18218929452877E-03 
2370	-1.25139252313869E-03 
2371	-7.42807864565189E-03 
2372	-3.65980824734332E-03 
2373	 7.6183022107682E-03 
2374	 9.9059378015648E-03 
2375	 2.97228891284267E-02 
2376	 4.33338604238782E-02 
2377	 3.13868538804575E-02 
2378	 9.15539264352191E-03 
2379	-0.026773920879228 
2380	-3.15764156588622E-02 
2381	-2.47705236384198E-02 
2382	-3.64028218078517E-02 
2383	-2.47507424069661E-02 
2384	-0.018185304442375 
2385	-2.78549461294938E-02 
2386	-2.44860288546983E-02 
2387	-0.02897586877175 
2388	-3.38681468346571E-02 
2389	-3.07967739215117E-02 
2390	-0.049887802573933 
2391	-5.28141935112055E-02 
2392	-0.039458640959374 
2393	-5.72114412875612E-02 
2394	-4.59579137685736E-02 
2395	-1.26122668096813E-02 
2396	-1.49971720643385E-02 
2397	-2.26172877846853E-03 
2398	 0.014219930473216 
2399	-5.42423023378701E-03 
2400	-0.012852105949246 
2401	-1.66524329077955E-02 
2402	-1.55446345368946E-02 
2403	 2.44167167465086E-02 
2404	 2.34451605101771E-02 
2405	 4.61010877270734E-03 
2406	-5.31404743959326E-04 
2407	-6.42036601971745E-02 
2408	-9.73266763524488E-02 
2409	-8.74823675580768E-02 
2410	-8.44960613635947E-02 
2411	-1.90321728181625E-02 
2412	 3.62977490169289E-02 
2413	 0.045785913542092 
2414	 3.08887955773704E-02 
2415	-3.15555449808851E-02 
2416	-5.26423061358563E-03 
2417	 6.28649760277947E-03 
2418	-2.88736850014597E-02 
2419	-5.96395956809588E-02 
2420	-0.143572046504594 
2421	-0.133686208613255 
2422	-4.84511143584943E-02 
2423	-1.41570175746079E-02 
2424	-6.53365318585609E-03 
2425	-3.65971726021596E-02 
2426	-4.84867623994765E-02 
2427	 0.025255035180871 
2428	 7.91696974775565E-02 
2429	 2.85572761983283E-02 
2430	-3.56506785133625E-02 
2431	-8.36902740538886E-02 
2432	-0.119836526828244 
2433	-9.83707737444629E-02 
2434	-7.10414470182353E-02 
2435	-0.144439066318111 
2436	-0.188638545593519 
2437	-0.194071299329224 
2438	-0.227539440502035 
2439	-0.128671937317177 
2440	-3.89178881735665E-02 
2441	-4.41310292892726E-02 
2442	-2.81316056554564E-02 
2443	-3.97415838218285E-02 
2444	-0.037525326817282 
2445	-7.11995704226294E-02 
2446	-0.172832425495322 
2447	-0.291353561871831 
2448	-0.299760271775351 
2449	-8.50703430093773E-02 
2450	 2.27672675283034E-02 
2451	 0.124283552071691 
2452	-0.199597500575973 
2453	-0.206376567950278 
2454	-0.194774153300678 
2455	-0.17952946747045 
2456	 5.84241808012273E-02 
2457	 0.216333038396311 
2458	 0.349724183547281 
2459	 0.154758879682237 
2460	-8.91315527727321E-02 
2461	-0.235898966100852 
2462	-0.367612161782146 
2463	-0.28867660653005 
2464	-1.41237536749829E-02 
2465	 0.709986266821602 
2466	 0.926630258859849 
2467	 0.519552938306735 
2468	 0.881086298477652 
2469	-0.16940243417404 
2470	-0.506870609993334 
2471	-0.781521460620019 
2472	 12.9454827970568 
2473	 66.6184291050362 
2474	 1.71064845675538 
2475	-17.2355058988527 
2476	-2.34005541621823 
2477	 9.58624097734105 
2478	 1.39079003995281 
2479	-1.61017789491363 
2480	-0.645429735340749 
2481	-2.24819192307134 
2482	-2.30562645729978 
2483	 1.20924417247624 
2484	 0.582473998536844 
2485	 0.599863049478893 
2486	 0.729814557102636 
2487	 0.899870757223779 
2488	 0.68726455869138 
2489	 0.268771700272402 
2490	-0.667256497688221 
2491	 0.27808854147822 
2492	 21.2486057899732 
2493	 16.0146764057966 
2494	 9.66985575617133 
2495	 13.6452362456101 
2496	 1.99088282883677 
2497	-0.224560787368931 
2498	-6.45232971206357 
2499	 3.02099668415348 
2500	 0.429061421934901 
