Wavelength	rt0718west_close00003.asd
350	 2.22752530431441E-02 
351	 2.28195855324906E-02 
352	 2.33230263477141E-02 
353	 2.31155759180866E-02 
354	 2.24071086133349E-02 
355	 2.30698520881627E-02 
356	 2.35758193263881E-02 
357	 2.35518790527447E-02 
358	 2.31815669257383E-02 
359	 2.32898997056328E-02 
360	 2.34791628533492E-02 
361	 0.023506475947461 
362	 2.33655316463698E-02 
363	 2.40906916060365E-02 
364	 2.40691301066119E-02 
365	 2.31486974715733E-02 
366	 2.38057692324818E-02 
367	 2.43847556309219E-02 
368	 2.44780388173405E-02 
369	 2.42626831680551E-02 
370	 2.47946965798308E-02 
371	 2.49388415638601E-02 
372	 0.024590597569979 
373	 2.43369717260706E-02 
374	 2.48205386452345E-02 
375	 2.54060552017166E-02 
376	 2.56199069345857E-02 
377	 0.025430023221334 
378	 2.57808629348484E-02 
379	 0.026061517338928 
380	 2.57863454791592E-02 
381	 2.60379478950589E-02 
382	 2.64381914038936E-02 
383	 2.66566179195696E-02 
384	 2.65790510061806E-02 
385	 2.73817656114191E-02 
386	 2.81631985033193E-02 
387	 2.82697910837485E-02 
388	 2.76033843964579E-02 
389	 2.77132646362859E-02 
390	 2.81770039920236E-02 
391	 2.84151520386098E-02 
392	 2.84777917216037E-02 
393	 2.88759967084556E-02 
394	 0.029506282564906 
395	 2.99696038459052E-02 
396	 2.96809046173647E-02 
397	 2.96536987539036E-02 
398	 3.00352872691799E-02 
399	 3.01878096308467E-02 
400	 3.05263900987989E-02 
401	 3.07137384560702E-02 
402	 3.06053881768279E-02 
403	 0.030686150816498 
404	 3.08897130206814E-02 
405	 3.11545436555665E-02 
406	 3.13943932278655E-02 
407	 3.14501766771495E-02 
408	 3.15542054119424E-02 
409	 3.17703553692332E-02 
410	 3.19805048063922E-02 
411	 3.23391983027931E-02 
412	 0.032671042468592 
413	 3.28528346862661E-02 
414	 3.29993730204557E-02 
415	 3.32201673806456E-02 
416	 3.35193548916827E-02 
417	 3.38359257302037E-02 
418	 3.40604961253017E-02 
419	 3.42108605982504E-02 
420	 3.43919296740325E-02 
421	 0.034776099802426 
422	 3.50431172423739E-02 
423	 3.53459418836289E-02 
424	 3.57922485462639E-02 
425	 3.60892782891811E-02 
426	 3.63615618913231E-02 
427	 0.036647796033343 
428	 3.69604626416572E-02 
429	 3.74227911385147E-02 
430	 3.78509729586914E-02 
431	 3.81924544223716E-02 
432	 3.85807104194691E-02 
433	 3.90040631353171E-02 
434	 3.94122337776678E-02 
435	 3.97786680694356E-02 
436	 4.01751077286566E-02 
437	 4.05732871448405E-02 
438	 4.09602093764521E-02 
439	 4.13365862605496E-02 
440	 4.17571441208615E-02 
441	 4.21919264966201E-02 
442	 4.26159529857683E-02 
443	 4.30287186609823E-02 
444	 4.33687502669146E-02 
445	 4.37066025583965E-02 
446	 4.40957512135029E-02 
447	 4.43754948186574E-02 
448	 4.46701901126409E-02 
449	 4.49772819295899E-02 
450	 4.52111579165187E-02 
451	 0.045523599166066 
452	 4.58071057986805E-02 
453	 4.60128900113971E-02 
454	 4.62926067140163E-02 
455	 4.64744243450907E-02 
456	 4.66154365867722E-02 
457	 4.68307015436812E-02 
458	 4.70703329256527E-02 
459	 4.73003658919193E-02 
460	 4.74517284229964E-02 
461	 4.74382352409651E-02 
462	 4.76250721533166E-02 
463	 4.78839959182341E-02 
464	 0.048048449791133 
465	 4.81219196862578E-02 
466	 4.83148678264671E-02 
467	 4.85650781457136E-02 
468	 4.86988693628591E-02 
469	 4.88404878874802E-02 
470	 4.90328777003913E-02 
471	 0.049265361240584 
472	 4.94658008444408E-02 
473	 4.97578738757115E-02 
474	 0.050032347226918 
475	 5.01851841478213E-02 
476	 5.03367064246655E-02 
477	 5.05402555237466E-02 
478	 5.08193303870312E-02 
479	 5.11617683910645E-02 
480	 5.14367497230042E-02 
481	 5.16842749065095E-02 
482	 5.19658278896788E-02 
483	 5.23457149701329E-02 
484	 5.25942604611051E-02 
485	 5.27977637603687E-02 
486	 5.31559877279055E-02 
487	 5.37778426929163E-02 
488	 0.054216633730872 
489	 5.44265893103928E-02 
490	 5.47709744910549E-02 
491	 5.52943451592163E-02 
492	 5.58156835465523E-02 
493	 5.62115355341567E-02 
494	 0.056653679824413 
495	 5.71099708528133E-02 
496	 0.057590213576614 
497	 5.81129120514561E-02 
498	 5.85996415554144E-02 
499	 5.91356481260057E-02 
500	 5.97245036545919E-02 
501	 6.02202199544878E-02 
502	 6.07681504315652E-02 
503	 6.13657951778361E-02 
504	 6.19621192018241E-02 
505	 6.24842376063541E-02 
506	 6.30507706935276E-02 
507	 6.36742982824814E-02 
508	 6.42800494790917E-02 
509	 6.48723042300317E-02 
510	 6.54933504767996E-02 
511	 6.61494486516836E-02 
512	 6.67473174976176E-02 
513	 6.73989968468111E-02 
514	 6.80712239104564E-02 
515	 0.068693913937135 
516	 6.94505235761522E-02 
517	 7.02344457427411E-02 
518	 7.10050957946872E-02 
519	 0.071837359621242 
520	 7.25774598271243E-02 
521	 7.32677289227754E-02 
522	 7.39912422463514E-02 
523	 7.47907216942539E-02 
524	 7.55490983593665E-02 
525	 7.62865801491291E-02 
526	 7.71170669289082E-02 
527	 7.79515756127158E-02 
528	 0.078849944912318 
529	 7.98018774219969E-02 
530	 8.06209915102818E-02 
531	 8.14897512605725E-02 
532	 8.23826333283855E-02 
533	 8.32278560279989E-02 
534	 8.41783907771369E-02 
535	 8.51235098804439E-02 
536	 8.60123765719598E-02 
537	 8.68747402359615E-02 
538	 8.78178790977624E-02 
539	 8.88295337641873E-02 
540	 8.98512636123685E-02 
541	 9.07955017001116E-02 
542	 9.17234914976148E-02 
543	 9.26799246014455E-02 
544	 9.36910732573658E-02 
545	 9.46890437194537E-02 
546	 9.56314285720058E-02 
547	 9.65458426360236E-02 
548	 9.75977934578173E-02 
549	 9.85261057116118E-02 
550	 9.94426832168371E-02 
551	 0.100522531106523 
552	 0.101479398914246 
553	 0.102371549085228 
554	 0.10327297336125 
555	 0.104244164381217 
556	 0.105242389548951 
557	 0.106243532869037 
558	 0.107219866181068 
559	 0.108160766784938 
560	 0.109067058835732 
561	 0.109909481836473 
562	 0.110666447998152 
563	 0.111539958648184 
564	 0.112358930996422 
565	 0.113041436243155 
566	 0.11377133570778 
567	 0.114538420255946 
568	 0.115259564238472 
569	 0.115867730250293 
570	 0.116589358009021 
571	 0.117309252289303 
572	 0.117953228966434 
573	 0.118516802168182 
574	 0.119062584727694 
575	 0.11960272895711 
576	 0.120111769697287 
577	 0.120495992484726 
578	 0.120883670822662 
579	 0.121270527970018 
580	 0.121583631479092 
581	 0.121969954645153 
582	 0.122256476328953 
583	 0.122392445302197 
584	 0.122618780724824 
585	 0.122771854772759 
586	 0.122843339961238 
587	 0.122877212630221 
588	 0.122888913865606 
589	 0.122927463665514 
590	 0.122986206580704 
591	 0.123002261721245 
592	 0.122944382036392 
593	 0.122794789535442 
594	 0.122574600723608 
595	 0.122410566323909 
596	 0.122125021546602 
597	 0.121691634067723 
598	 0.121193411114849 
599	 0.120799913832441 
600	 0.120437534065943 
601	 0.120099040651733 
602	 0.119947367558849 
603	 0.119908447835343 
604	 0.119902298754047 
605	 0.119878864968575 
606	 0.119957886678225 
607	 0.120069993504651 
608	 0.120200474217784 
609	 0.120392426606182 
610	 0.120458837901711 
611	 0.120540559920231 
612	 0.120728697860584 
613	 0.120741925877642 
614	 0.120855861812377 
615	 0.121018760590913 
616	 0.121016150557465 
617	 0.120974986868934 
618	 0.12100171956034 
619	 0.12110749733603 
620	 0.12115697287409 
621	 0.121259296307539 
622	 0.121370320480464 
623	 0.121422465146731 
624	 0.12148221422278 
625	 0.121556721741935 
626	 0.121600617384015 
627	 0.121534288243657 
628	 0.121596174772108 
629	 0.121663693659825 
630	 0.121649916862546 
631	 0.121766946616636 
632	 0.121765008622889 
633	 0.121751459760698 
634	 0.121941364257812 
635	 0.121951972141622 
636	 0.121954459641982 
637	 0.122032763226964 
638	 0.12207248512218 
639	 0.122050252910393 
640	 0.122085886609078 
641	 0.122238962506397 
642	 0.122134208916597 
643	 0.122140899418107 
644	 0.122233608466347 
645	 0.122078283249312 
646	 0.121975461249628 
647	 0.12200560204245 
648	 0.122118175132674 
649	 0.122068378959223 
650	 0.121925481787381 
651	 0.121798590000544 
652	 0.121752696302685 
653	 0.121400733539795 
654	 0.121033053800126 
655	 0.120754651450215 
656	 0.120389934917536 
657	 0.120019417983204 
658	 0.119664385491119 
659	 0.119345374004674 
660	 0.119176893273711 
661	 0.118975879612641 
662	 0.118750786284562 
663	 0.118624385626757 
664	 0.118512596974358 
665	 0.11840531628672 
666	 0.118313771053907 
667	 0.118275105084423 
668	 0.118229979013029 
669	 0.118193181260639 
670	 0.118188040704887 
671	 0.11813527894109 
672	 0.118184015332273 
673	 0.118307834581757 
674	 0.118324164635815 
675	 0.118482846414093 
676	 0.11863635897411 
677	 0.118682122692899 
678	 0.118817523403318 
679	 0.118965208113266 
680	 0.119099378635549 
681	 0.119223262614536 
682	 0.119385252552704 
683	 0.119599124977736 
684	 0.119789946968268 
685	 0.119774936526679 
686	 0.119860411378886 
687	 0.119936628884948 
688	 0.119868475856569 
689	 0.119935423514986 
690	 0.119863302916219 
691	 0.119630438382086 
692	 0.11936070363501 
693	 0.119085796979584 
694	 0.11877677282215 
695	 0.118446770915659 
696	 0.118167588492189 
697	 0.117717711546465 
698	 0.117051672470771 
699	 0.116267044183174 
700	 0.115675501492898 
701	 0.114981163193386 
702	 0.114171832655358 
703	 0.113449734796412 
704	 0.112639444085517 
705	 0.111753205495349 
706	 0.110810296024938 
707	 0.109729696812203 
708	 0.108534665452772 
709	 0.107260027035876 
710	 0.105916587264648 
711	 0.10437500629253 
712	 0.102682741994392 
713	 0.10092903145985 
714	 9.91858178454831E-02 
715	 9.73776008487586E-02 
716	 9.52929072401765E-02 
717	 9.29462458882632E-02 
718	 9.08030768248948E-02 
719	 8.85989116384348E-02 
720	 8.67189649807321E-02 
721	 0.085174293864259 
722	 8.31613681820928E-02 
723	 8.07749999065139E-02 
724	 7.84401828892004E-02 
725	 7.62536706902441E-02 
726	 7.37187208346343E-02 
727	 0.07095178674835 
728	 6.81555344304924E-02 
729	 6.52030172478343E-02 
730	 6.20624743688107E-02 
731	 5.90791965071777E-02 
732	 5.65389534061193E-02 
733	 5.42316236446747E-02 
734	 5.22470542303192E-02 
735	 5.06291757204722E-02 
736	 4.92921620451458E-02 
737	 4.82208011878978E-02 
738	 4.74243237162097E-02 
739	 4.68961190788607E-02 
740	 4.65144439168517E-02 
741	 4.62603733742677E-02 
742	 0.046051860671676 
743	 4.58181208885704E-02 
744	 4.58687171352997E-02 
745	 4.58501548065083E-02 
746	 4.56978236950484E-02 
747	 0.045818444657811 
748	 4.57804664318664E-02 
749	 4.57138640630132E-02 
750	 4.57693621635759E-02 
751	 4.56629770517308E-02 
752	 4.56914062198336E-02 
753	 4.58009626516194E-02 
754	 4.57752855454148E-02 
755	 4.57969217727152E-02 
756	 4.58678350130003E-02 
757	 4.59551645363411E-02 
758	 4.60040100994158E-02 
759	 4.59855800681438E-02 
760	 4.60335871842669E-02 
761	 4.62440589874136E-02 
762	 0.046274998989316 
763	 4.64673645785438E-02 
764	 4.67115932891427E-02 
765	 4.68428213315534E-02 
766	 0.047068466780938 
767	 0.047342860356899 
768	 4.76105386528002E-02 
769	 4.77996692671506E-02 
770	 0.048071175717249 
771	 4.83406265311566E-02 
772	 4.85538517895193E-02 
773	 4.88675607072378E-02 
774	 4.93035367110888E-02 
775	 4.97061402856383E-02 
776	 4.99296926627315E-02 
777	 5.03582132737903E-02 
778	 5.09212771507026E-02 
779	 5.14418861030796E-02 
780	 5.17124585498298E-02 
781	 5.22834552549152E-02 
782	 5.28533205195786E-02 
783	 5.32174092617381E-02 
784	 5.37534444203901E-02 
785	 5.42513743054675E-02 
786	 0.054748060529444 
787	 5.53327020481828E-02 
788	 5.59213288457959E-02 
789	 5.65124579562607E-02 
790	 5.71319497534539E-02 
791	 5.78132610270089E-02 
792	 5.83859901458766E-02 
793	 5.89384072866021E-02 
794	 5.95306870923382E-02 
795	 6.01039731465283E-02 
796	 6.06487115766005E-02 
797	 6.11604162391908E-02 
798	 6.16655269679837E-02 
799	 6.22412424745715E-02 
800	 6.26878732798625E-02 
801	 6.29932634259141E-02 
802	 6.32858998780742E-02 
803	 6.37600407549237E-02 
804	 6.41020434180083E-02 
805	 0.06420812785157 
806	 0.064256929906931 
807	 6.42839597699061E-02 
808	 6.42525003283868E-02 
809	 6.41158773622778E-02 
810	 6.38438108943629E-02 
811	 6.35561445568851E-02 
812	 6.32293561120967E-02 
813	 6.27484741455746E-02 
814	 0.061845034262904 
815	 6.13517990443013E-02 
816	 6.11081428103558E-02 
817	 6.02198667484075E-02 
818	 5.94664607831854E-02 
819	 5.87696032264459E-02 
820	 5.78620913425491E-02 
821	 5.63904866608986E-02 
822	 5.50010678899143E-02 
823	 0.053333450895439 
824	 0.051235120944562 
825	 4.94437493042376E-02 
826	 4.73618821035807E-02 
827	 4.49462768485019E-02 
828	 4.24913004118488E-02 
829	 3.99658564548294E-02 
830	 3.78589244064663E-02 
831	 3.61826834336507E-02 
832	 3.46584210412548E-02 
833	 3.36753883808582E-02 
834	 3.25450157527454E-02 
835	 3.12768039850643E-02 
836	 3.09144754453573E-02 
837	 3.03968428529821E-02 
838	 2.98142831072405E-02 
839	 0.029384587600664 
840	 2.89799255599242E-02 
841	 2.85842701600234E-02 
842	 2.81854079341208E-02 
843	 2.77928936615837E-02 
844	 2.75028529214612E-02 
845	 0.026957052417241 
846	 0.02645081659114 
847	 2.65653805453304E-02 
848	 2.60829061935304E-02 
849	 2.56005319402235E-02 
850	 2.53578378910455E-02 
851	 2.48888641044938E-02 
852	 2.45818556523315E-02 
853	 2.42284334368799E-02 
854	 2.37725073591229E-02 
855	 2.37097206913629E-02 
856	 2.37024533456678E-02 
857	 2.35280384745428E-02 
858	 2.31324795965462E-02 
859	 2.29191216290945E-02 
860	 2.25340200969694E-02 
861	 2.20774060649563E-02 
862	 2.18407226516673E-02 
863	 2.17461350835152E-02 
864	 2.16645971941434E-02 
865	 2.14214628510413E-02 
866	 2.08882700605921E-02 
867	 2.06542527004483E-02 
868	 2.02872686374572E-02 
869	 1.97633788125348E-02 
870	 1.97322684040175E-02 
871	 1.91996247684749E-02 
872	 1.87873396555577E-02 
873	 1.88398721863854E-02 
874	 1.82975266848607E-02 
875	 1.78013000910665E-02 
876	 1.74942006637562E-02 
877	 1.73149282608034E-02 
878	 1.70934982601378E-02 
879	 1.65800863280286E-02 
880	 1.60400020041441E-02 
881	 1.58299246740855E-02 
882	 1.53067531244682E-02 
883	 1.48631356280741E-02 
884	 1.45434619344513E-02 
885	 1.41465517242228E-02 
886	 0.0141199150295 
887	 1.38628809214257E-02 
888	 1.33254845719524E-02 
889	 1.31443043773765E-02 
890	 1.25514802847149E-02 
891	 1.23422824295845E-02 
892	 1.27621571471722E-02 
893	 1.25429897184312E-02 
894	 1.21775220873153E-02 
895	 1.17043723762595E-02 
896	 1.12717679565653E-02 
897	 1.16541276861648E-02 
898	 1.15016037601069E-02 
899	 1.09620685762561E-02 
900	 0.010666239323023 
901	 1.07806369583863E-02 
902	 1.00294010130621E-02 
903	 9.28973261596711E-03 
904	 9.75592439721101E-03 
905	 9.84948230970358E-03 
906	 9.47562060159188E-03 
907	 8.57812663364525E-03 
908	 7.41735350529824E-03 
909	 7.96776140483565E-03 
910	 7.96758663810449E-03 
911	 7.08970621173527E-03 
912	 6.94954930106507E-03 
913	 6.44145798286634E-03 
914	 6.04853756851052E-03 
915	 6.11535500462003E-03 
916	 6.48400579131937E-03 
917	 5.75088107331565E-03 
918	 5.07967767392293E-03 
919	 5.00304583187023E-03 
920	 4.72230599012074E-03 
921	 4.74914269123703E-03 
922	 4.28927126724196E-03 
923	 3.23350356012807E-03 
924	 3.37050477620722E-03 
925	 3.49689176391499E-03 
926	 3.64339567770794E-03 
927	 3.95825719518141E-03 
928	 3.71654130142745E-03 
929	 2.9987728876115E-03 
930	 2.10339790984297E-03 
931	 1.87755721798222E-03 
932	 4.52677739823903E-03 
933	 4.14389304909555E-03 
934	 1.51326487406479E-03 
935	 1.49288545909142E-03 
936	 5.21271069260353E-03 
937	 3.4067379695762E-03 
938	 9.55610431172092E-04 
939	 3.52487400498472E-03 
940	 2.08547563533661E-03 
941	-4.91725590959465E-04 
942	-1.18780289607181E-03 
943	 1.57788761561448E-03 
944	 5.30804814216756E-04 
945	-2.55460068634925E-04 
946	 8.68514793064417E-04 
947	 2.76174467962563E-03 
948	 1.64603993053645E-03 
949	 1.80576561823011E-03 
950	 2.50544626422709E-03 
951	 6.35465584306761E-04 
952	 8.91941854582414E-04 
953	 6.611103283888E-04 
954	 4.37738579282261E-04 
955	 2.38693324988797E-03 
956	 2.67629192230809E-03 
957	 2.56426381279661E-03 
958	 2.51237942937896E-03 
959	 2.2203318601838E-03 
960	 2.65687886242607E-03 
961	 2.76976051442714E-03 
962	 2.03480356463251E-03 
963	 7.09456087690186E-04 
964	 3.56971723807392E-05 
965	 6.43478602580446E-04 
966	 1.60768709702623E-03 
967	 1.4124171479013E-03 
968	 2.5324018785823E-03 
969	 1.17880408941771E-03 
970	-4.17953048375367E-04 
971	 0.003762676166805 
972	 2.72471638779265E-03 
973	 1.1436607156251E-03 
974	 1.07369851891337E-03 
975	 4.69542723799726E-04 
976	 6.71992713984699E-04 
977	 1.46343435053929E-03 
978	 1.96491172207282E-03 
979	 1.3643088649659E-03 
980	 2.19048681704045E-03 
981	 1.87878420626902E-03 
982	 6.39456082749249E-04 
983	 9.36671753702273E-04 
984	 1.02929184714152E-03 
985	 1.11232336005004E-03 
986	 1.35242346192661E-03 
987	 1.65600256880331E-03 
988	 1.25067015443986E-03 
989	 1.2642350115155E-03 
990	 1.4710506086417E-03 
991	 9.56015685609602E-04 
992	 2.46767558719368E-03 
993	 2.51528462664226E-03 
994	 1.2748375075838E-03 
995	 1.35627900863728E-03 
996	 9.80128189247993E-04 
997	 1.18854045609413E-03 
998	 1.57500875373743E-03 
999	 1.26179479729623E-03 
1000	 2.61487635157419E-03 
1001	 1.58850087663587E-03 
1002	 1.4444790206153E-03 
1003	 1.35325131648245E-03 
1004	 8.84778233055038E-04 
1005	 7.92209730745378E-04 
1006	 9.42571042959911E-04 
1007	 1.27295383356111E-03 
1008	 1.60479011674117E-03 
1009	 1.78894082656974E-03 
1010	 1.54805130888559E-03 
1011	 1.44479636142861E-03 
1012	 1.64396909817063E-03 
1013	 1.52317884886416E-03 
1014	 1.62103661483738E-03 
1015	 2.32267580473991E-03 
1016	 2.31700109413925E-03 
1017	 1.87114472780103E-03 
1018	 1.56062705375918E-03 
1019	 9.14786830694131E-04 
1020	 5.26106126437995E-04 
1021	 3.6728629849375E-05 
1022	 9.27793125504746E-07 
1023	 3.29016004418446E-04 
1024	 4.13509691339261E-04 
1025	 9.35260410492321E-04 
1026	 1.38981222946397E-03 
1027	 1.36503875134654E-03 
1028	 9.38699803071745E-04 
1029	 9.09674726403589E-04 
1030	 7.08474014860708E-04 
1031	 5.84125383741634E-04 
1032	 6.6451914661284E-04 
1033	 7.65254241671757E-04 
1034	 7.88301915555779E-04 
1035	 8.33833424034809E-04 
1036	 1.14124658930301E-03 
1037	 1.2852236129155E-03 
1038	 1.17695801938725E-03 
1039	 1.19380704067755E-03 
1040	 1.54291149884217E-03 
1041	 1.52098595280184E-03 
1042	 1.37786797270329E-03 
1043	 1.08313267835021E-03 
1044	 9.08683755945935E-04 
1045	 3.3418240423974E-04 
1046	 4.25905851501039E-04 
1047	 1.12843476018709E-03 
1048	 1.33090728675175E-03 
1049	 1.71010695510107E-03 
1050	 1.78788150498772E-03 
1051	 1.40862844237321E-03 
1052	 1.22494044446519E-03 
1053	 8.75375342257746E-04 
1054	 8.16461343291872E-04 
1055	 9.74035743852109E-04 
1056	 1.05522074587487E-03 
1057	 1.20174751600785E-03 
1058	 1.68205420820785E-03 
1059	 1.64836218727692E-03 
1060	 1.24605594750764E-03 
1061	 1.20269757564781E-03 
1062	 1.19447247788268E-03 
1063	 1.03321705264994E-03 
1064	 8.76518568542313E-04 
1065	 8.66813889438977E-04 
1066	 6.3668512956064E-04 
1067	 6.66129263655699E-04 
1068	 1.29792101006843E-03 
1069	 1.43857886776981E-03 
1070	 1.32364723702361E-03 
1071	 1.26404954781596E-03 
1072	 9.09906485069304E-04 
1073	 6.28490288208029E-04 
1074	 8.24539447319215E-04 
1075	 1.44346860841581E-03 
1076	 1.61672613410939E-03 
1077	 2.07378062860676E-03 
1078	 2.07187246083008E-03 
1079	 1.42911916638107E-03 
1080	 1.24129230974429E-03 
1081	 1.22113530815846E-03 
1082	 1.08530839239048E-03 
1083	 8.93469896274603E-04 
1084	 8.83278223974648E-04 
1085	 7.63570059227781E-04 
1086	 8.65205545687952E-04 
1087	 1.66833873223645E-03 
1088	 1.84120946826191E-03 
1089	 1.73871734725721E-03 
1090	 1.48336483747775E-03 
1091	 1.45776807203421E-03 
1092	 1.13554699145042E-03 
1093	 1.11713410854754E-03 
1094	 0.001680076092512 
1095	 1.62301186916411E-03 
1096	 8.56457240233326E-04 
1097	 8.23150485897793E-04 
1098	 1.2413757969598E-03 
1099	 1.25254997730335E-03 
1100	 1.48256971717084E-03 
1101	 1.50597469818162E-03 
1102	 8.22361194207306E-04 
1103	 6.52630985308608E-04 
1104	 6.27884244445746E-04 
1105	 1.15592474637197E-03 
1106	 1.95162100675802E-03 
1107	 1.49374610732736E-03 
1108	 9.0279240064561E-04 
1109	 1.47477878597001E-03 
1110	 1.41161919503862E-03 
1111	 9.93638877586912E-04 
1112	 1.04093241252566E-03 
1113	 1.42057121476663E-03 
1114	 1.08981386409543E-03 
1115	 4.14538777741345E-04 
1116	 5.38188259518901E-04 
1117	 4.58951282327139E-04 
1118	 3.24135133860301E-04 
1119	 1.89784590611599E-03 
1120	 2.61163788785436E-03 
1121	 2.0075917569576E-03 
1122	 1.18439292870511E-03 
1123	 1.00716512787494E-03 
1124	 9.31479082814112E-04 
1125	 1.10803125712788E-03 
1126	 7.34428639730346E-04 
1127	 2.55256860698172E-04 
1128	 2.18308968338477E-03 
1129	 2.55514444378192E-03 
1130	 2.21924590696551E-03 
1131	 1.23448872791356E-03 
1132	-6.44804685913329E-04 
1133	-6.38691443549966E-04 
1134	 5.34519524414269E-04 
1135	 8.32668335970483E-04 
1136	 1.25331687702754E-03 
1137	 1.32973525112851E-03 
1138	 2.11273996102278E-04 
1139	 1.69448002108685E-04 
1140	 1.68965259124138E-03 
1141	 2.22173860649345E-03 
1142	 1.51204210816144E-03 
1143	 1.1262759551689E-03 
1144	 4.38831963883613E-04 
1145	-1.73741465497747E-04 
1146	 3.92807138603145E-04 
1147	 1.62811384928028E-05 
1148	-3.47604270625793E-04 
1149	 1.58851901258672E-03 
1150	 2.03478378457478E-03 
1151	 2.44292108501766E-03 
1152	 2.25222055027272E-03 
1153	 1.20960699227315E-03 
1154	 5.85582501130075E-04 
1155	-3.78849310336843E-04 
1156	 1.31868399451151E-04 
1157	 7.06065469503882E-04 
1158	 7.66992534308306E-04 
1159	 1.08490162216742E-03 
1160	 9.85984196814979E-04 
1161	 2.87793281509693E-04 
1162	 2.22206145326679E-04 
1163	 7.85978582962021E-04 
1164	 9.20523597225534E-04 
1165	 9.09144043681295E-04 
1166	 9.04996805067505E-04 
1167	 1.13426941377694E-04 
1168	-9.41605225536364E-05 
1169	 8.72821935508694E-04 
1170	 1.21458346622064E-03 
1171	 1.23128180463034E-03 
1172	 1.19962315240789E-03 
1173	 1.14986384687232E-03 
1174	 5.31578349484674E-04 
1175	 3.98263777060372E-04 
1176	 7.35229623031975E-04 
1177	 6.59069569959755E-04 
1178	 6.83270248052103E-04 
1179	 7.5551477206174E-04 
1180	 4.77596214513515E-04 
1181	 7.81170543185198E-04 
1182	 0.001292883831663 
1183	 1.05724010663534E-03 
1184	 8.1283363359173E-04 
1185	 9.19510546177368E-04 
1186	 8.21104796066427E-04 
1187	 7.19483834542053E-04 
1188	 1.10607539789527E-03 
1189	 1.18409359245803E-03 
1190	 6.466700048065E-04 
1191	 6.36844181033009E-04 
1192	 6.94295053306089E-04 
1193	 9.06342561245053E-04 
1194	 7.30589273364943E-04 
1195	 8.34945975844388E-04 
1196	 9.49171816627498E-04 
1197	 8.28091037894369E-04 
1198	 1.06726269935809E-03 
1199	 1.4083641681694E-03 
1200	 1.0746094316885E-03 
1201	 4.17659041218909E-04 
1202	 4.5701862303231E-04 
1203	 9.35764802504755E-04 
1204	 9.85671813179667E-04 
1205	 1.01627926437726E-03 
1206	 1.05169136249365E-03 
1207	 5.72444915654246E-04 
1208	 3.28377031518674E-04 
1209	 6.84519095337435E-04 
1210	 8.5448995648852E-04 
1211	 4.87394423188082E-04 
1212	 4.1926515680895E-04 
1213	 8.82408594073908E-04 
1214	 9.44458793255089E-04 
1215	 7.94924218476219E-04 
1216	 6.93665866007461E-04 
1217	 8.54768132344152E-04 
1218	 7.83406710912987E-04 
1219	 7.18306602964638E-04 
1220	 9.72641309288406E-04 
1221	 0.001047479145068 
1222	 7.31315792321693E-04 
1223	 7.95632019695042E-04 
1224	 9.50504503322477E-04 
1225	 7.07881871587903E-04 
1226	 6.98767018908648E-04 
1227	 8.03409969586416E-04 
1228	 6.52868996798495E-04 
1229	 7.39824615544033E-04 
1230	 9.91634394142929E-04 
1231	 8.04397268634008E-04 
1232	 5.98429228620075E-04 
1233	 8.04200539190869E-04 
1234	 8.48102426579037E-04 
1235	 7.98949791404353E-04 
1236	 7.62885472572329E-04 
1237	 8.40357913121873E-04 
1238	 8.95889853188992E-04 
1239	 7.52211057785162E-04 
1240	 7.38860120980569E-04 
1241	 7.73370416473881E-04 
1242	 6.64271816886969E-04 
1243	 5.8399096043861E-04 
1244	 7.49902166724404E-04 
1245	 9.49604841033947E-04 
1246	 7.98963055557586E-04 
1247	 6.85688826986637E-04 
1248	 8.40706447795823E-04 
1249	 8.38833407415424E-04 
1250	 8.63381395395794E-04 
1251	 1.03485545310723E-03 
1252	 9.57880203744046E-04 
1253	 7.48210290934092E-04 
1254	 8.12188146310466E-04 
1255	 9.49808430188857E-04 
1256	 8.51414098244508E-04 
1257	 5.07870365569761E-04 
1258	 4.985328583912E-04 
1259	 5.59652296302718E-04 
1260	 4.97183017599555E-04 
1261	 5.72693370260909E-04 
1262	 6.86498100889404E-04 
1263	 7.60409186176968E-04 
1264	 5.98239411815884E-04 
1265	 5.41551056206591E-04 
1266	 7.62529916211138E-04 
1267	 8.8644896418647E-04 
1268	 7.76025277493368E-04 
1269	 6.57995238900262E-04 
1270	 7.72452990532516E-04 
1271	 7.32806994749309E-04 
1272	 5.8525312344453E-04 
1273	 6.11525664205861E-04 
1274	 5.77721861327134E-04 
1275	 5.1811041905314E-04 
1276	 5.013032552332E-04 
1277	 6.7454081923852E-04 
1278	 7.76927215689829E-04 
1279	 6.22854501332371E-04 
1280	 6.76364264095409E-04 
1281	 7.30841797826382E-04 
1282	 8.4162326125194E-04 
1283	 8.34587626224682E-04 
1284	 8.56771556303452E-04 
1285	 8.1772583643142E-04 
1286	 6.02646627332411E-04 
1287	 5.95525695954865E-04 
1288	 7.44859031357069E-04 
1289	 7.25370059878024E-04 
1290	 6.7923848674762E-04 
1291	 6.63512974251908E-04 
1292	 5.33008616656372E-04 
1293	 5.44561244938598E-04 
1294	 5.74866602631734E-04 
1295	 6.05406310493543E-04 
1296	 9.46225077205749E-04 
1297	 9.07778552614958E-04 
1298	 6.605730034482E-04 
1299	 9.3918625115617E-04 
1300	 8.84255609555649E-04 
1301	 4.93278067694193E-04 
1302	 6.24465568629598E-04 
1303	 8.41669031665082E-04 
1304	 7.1764465807875E-04 
1305	 6.98191422514891E-04 
1306	 7.19538268625623E-04 
1307	 6.46417918588926E-04 
1308	 4.88573406447688E-04 
1309	 3.1097746362339E-04 
1310	 4.1671024283062E-04 
1311	 6.61688560555479E-04 
1312	 6.61873796852122E-04 
1313	 7.66303072955236E-04 
1314	 8.63728559424996E-04 
1315	 7.19142556956842E-04 
1316	 5.2666631141222E-04 
1317	 4.46143776104173E-04 
1318	 4.49324027794589E-04 
1319	 2.17728328593832E-04 
1320	 1.25665945316697E-04 
1321	 3.16094553878161E-04 
1322	 4.49940221768327E-04 
1323	 3.37958948559926E-04 
1324	 1.98175219571008E-04 
1325	 4.20576827736627E-04 
1326	 7.84492864792098E-04 
1327	 5.09375937852533E-04 
1328	 4.47311896068346E-04 
1329	 1.06150998603089E-03 
1330	 9.85884622152106E-04 
1331	 4.50588795404339E-04 
1332	 6.9420258331282E-04 
1333	 8.57085563233451E-04 
1334	 2.12345112672511E-04 
1335	 4.96552747479207E-05 
1336	 9.42589410986006E-04 
1337	 1.26374689729009E-03 
1338	 1.03475387669301E-03 
1339	 7.710674561784E-04 
1340	 4.02094858538363E-04 
1341	 6.82404784464552E-04 
1342	 1.23053110620147E-03 
1343	 1.20915404639358E-03 
1344	 1.66872489492829E-03 
1345	 2.15761299356933E-03 
1346	 1.07151203596028E-03 
1347	 7.72916485000944E-04 
1348	 2.97010996847054E-03 
1349	 4.80733118779479E-03 
1350	 7.47602261940711E-03 
1351	 8.53826903431674E-03 
1352	 3.58171817741218E-03 
1353	 3.92317900518325E-03 
1354	 1.10842687364525E-02 
1355	 4.66105616184481E-03 
1356	-1.41721182412281E-02 
1357	-2.58206086841026E-02 
1358	-4.87206926024374E-02 
1359	-5.52315345586055E-02 
1360	-3.77626995150767E-02 
1361	 1.84922435492019E-02 
1362	 8.76603802947429E-02 
1363	 6.23065402876693E-02 
1364	 0.148336195341178 
1365	 0.277474133186558 
1366	 0.213416767561466 
1367	 7.46249017081313E-02 
1368	 9.26358368161333E-03 
1369	-0.052910933034895 
1370	-6.07999944563019E-02 
1371	-1.42985959993376E-02 
1372	 3.08113380248364E-02 
1373	 0.522287814301155 
1374	 0.433462423068667 
1375	-0.16686431583726 
1376	-0.123662049808606 
1377	-2.51307807715658E-02 
1378	-8.11193911077192E-02 
1379	 8.60664806897385E-02 
1380	 0.289502258153298 
1381	 0.546262909712891 
1382	 0.32880142723958 
1383	-0.139179850285936 
1384	-5.93821001072352E-02 
1385	 0.106544678739658 
1386	-3.17430479800856E-02 
1387	 3.03625508143736E-02 
1388	 0.106619263049234 
1389	-0.313102007716176 
1390	-0.458216939035575 
1391	-0.210198247289916 
1392	-2.13450477205126E-02 
1393	-1.85743493726644E-02 
1394	-0.195228601900028 
1395	 5.88343211906161E-02 
1396	 0.263846582101339 
1397	 0.124585701401722 
1398	 0.223902071623749 
1399	 0.211294214944663 
1400	 1.10755547957158E-02 
1401	-5.19711049604676E-02 
1402	-3.50980705680499E-02 
1403	-0.147906604509866 
1404	-0.299748896291022 
1405	-0.219627464376996 
1406	-2.84520008666132E-02 
1407	 5.56651069663239E-03 
1408	 2.87958126123755E-02 
1409	 8.07482907115632E-02 
1410	 0.140322900272381 
1411	 0.120370884058244 
1412	 9.68183505700113E-02 
1413	 8.67521429683118E-02 
1414	 4.94348834668966E-02 
1415	 3.01506984555924E-02 
1416	 2.04241029281322E-02 
1417	 2.40465649672823E-02 
1418	 3.97401167198429E-02 
1419	 1.95791765146103E-02 
1420	-0.012160738880638 
1421	-5.93399555985601E-03 
1422	 1.63999110842429E-03 
1423	-3.34663170208053E-03 
1424	 3.3368209051047E-03 
1425	 9.92286226779388E-03 
1426	 4.6499188665139E-03 
1427	 1.80098001963887E-03 
1428	 8.53968646189832E-03 
1429	 9.38165215653928E-03 
1430	 3.43463434257859E-03 
1431	 3.33282316589358E-05 
1432	-3.04853488158881E-03 
1433	-3.08662407028648E-03 
1434	-3.22366446230628E-03 
1435	-3.04784285115802E-03 
1436	 1.67130201461007E-03 
1437	 0.005029379743089 
1438	 2.5835259651349E-04 
1439	-5.31863613473327E-03 
1440	-5.05280064503326E-03 
1441	-2.30354195138627E-03 
1442	-1.15421843829239E-03 
1443	-8.77478764553743E-04 
1444	 1.7023230059533E-03 
1445	 3.09080755333447E-03 
1446	 1.33624001635718E-03 
1447	 2.01168983017435E-03 
1448	 2.43809088076377E-03 
1449	 1.44361001578114E-04 
1450	-3.41823159724772E-04 
1451	 8.78739259879749E-04 
1452	 6.41054823253827E-04 
1453	-0.001065830249427 
1454	-6.55375145404959E-04 
1455	 1.28783760103267E-03 
1456	 0.00160389545664 
1457	 2.00367484168372E-03 
1458	 1.92765995347263E-03 
1459	 9.1196232799119E-04 
1460	 4.12468609036846E-04 
1461	-4.55829221065147E-04 
1462	-2.18589482724311E-04 
1463	 1.39016699936375E-03 
1464	 1.25058846097619E-03 
1465	 2.41422541311582E-04 
1466	 7.88015342533177E-04 
1467	 1.45744413932705E-03 
1468	 1.03744511159989E-03 
1469	 1.16366777060878E-03 
1470	 1.98811892939764E-03 
1471	 2.04239571782174E-03 
1472	 1.51885184174215E-03 
1473	 2.26026124400153E-03 
1474	 2.48070484208896E-03 
1475	 3.10866447478774E-04 
1476	 1.74993510825721E-04 
1477	 2.3570518184491E-03 
1478	 2.49681238790771E-03 
1479	 1.93709262516048E-03 
1480	 1.56574407605917E-03 
1481	 2.65093168048378E-04 
1482	 1.15819497050858E-04 
1483	 8.77151709655679E-04 
1484	 9.22134949633241E-04 
1485	 9.9109452994076E-04 
1486	 1.01373705075582E-03 
1487	 7.5284204077193E-04 
1488	 5.30482645042077E-04 
1489	 2.13084032507414E-04 
1490	 2.23422226141899E-04 
1491	 5.86895908761186E-04 
1492	 5.02836808999126E-04 
1493	 1.7136019063602E-04 
1494	 2.22114448013796E-04 
1495	 2.76788170332772E-04 
1496	 2.33494119337088E-04 
1497	 2.76917808431938E-04 
1498	 5.02329441688623E-04 
1499	 8.60526635141881E-04 
1500	 9.08817513717547E-04 
1501	 9.79640136372739E-04 
1502	 1.02311894444336E-03 
1503	 9.25763010907986E-04 
1504	 6.59951316726962E-04 
1505	 1.90076300651693E-04 
1506	-3.6584198103472E-05 
1507	 3.45669532568187E-04 
1508	 5.18017044954873E-04 
1509	 3.79752752592449E-04 
1510	 5.86625355696584E-04 
1511	 8.59036416270943E-04 
1512	 6.94423165459848E-04 
1513	 6.93233638341756E-04 
1514	 9.20958840990655E-04 
1515	 6.29308203707058E-04 
1516	 2.66960957486036E-04 
1517	 2.89850230665085E-04 
1518	 5.35621792226326E-04 
1519	 7.38468052590117E-04 
1520	 6.43413594782417E-04 
1521	 5.57217881818859E-04 
1522	 6.3645638059143E-04 
1523	 7.29171126507105E-04 
1524	 7.15937845485461E-04 
1525	 6.51226120148706E-04 
1526	 5.82831050284472E-04 
1527	 3.375778096605E-04 
1528	 3.12408965931764E-04 
1529	 5.16545580635238E-04 
1530	 5.7618685355754E-04 
1531	 8.18880392055262E-04 
1532	 8.96972047821228E-04 
1533	 6.64315026867848E-04 
1534	 6.43111092114979E-04 
1535	 5.57522220604448E-04 
1536	 3.53265189024779E-04 
1537	 2.79885742111354E-04 
1538	 3.87667897537408E-04 
1539	 6.4996558062097E-04 
1540	 7.67287699779818E-04 
1541	 8.04324574940813E-04 
1542	 8.45729077432729E-04 
1543	 6.17912393180607E-04 
1544	 2.99041147303416E-04 
1545	 3.3175031589014E-04 
1546	 4.89672677779831E-04 
1547	 4.42865462402234E-04 
1548	 5.39204975685992E-04 
1549	 7.20501158645334E-04 
1550	 6.14838897050071E-04 
1551	 4.39474997683468E-04 
1552	 5.40015076453382E-04 
1553	 6.70617767052017E-04 
1554	 5.43952614185649E-04 
1555	 6.14120394838816E-04 
1556	 6.67520132671028E-04 
1557	 3.2595815514089E-04 
1558	 3.40735103327239E-04 
1559	 5.71717698709732E-04 
1560	 4.28113524937917E-04 
1561	 3.50223028860849E-04 
1562	 3.03949500047633E-04 
1563	 2.10945226208601E-04 
1564	 4.34823095967757E-04 
1565	 6.31721153589723E-04 
1566	 5.84230375413534E-04 
1567	 5.8257954601806E-04 
1568	 5.27115191164019E-04 
1569	 4.62051453425712E-04 
1570	 5.97798491752601E-04 
1571	 6.94424184854541E-04 
1572	 6.92280946945776E-04 
1573	 6.78614531196459E-04 
1574	 6.39933665329682E-04 
1575	 5.34711109322215E-04 
1576	 4.27601226507093E-04 
1577	 3.21186873774023E-04 
1578	 3.01138177880207E-04 
1579	 5.46116962419217E-04 
1580	 6.98367865199398E-04 
1581	 7.25976054893892E-04 
1582	 7.96507075357231E-04 
1583	 8.11831884778751E-04 
1584	 7.68204147244631E-04 
1585	 6.19023529116917E-04 
1586	 4.45657568244972E-04 
1587	 3.61255635940439E-04 
1588	 2.80911538505305E-04 
1589	 3.79964520385411E-04 
1590	 6.87630340593451E-04 
1591	 6.09825111071331E-04 
1592	 4.44572287970947E-04 
1593	 6.2296220927499E-04 
1594	 6.64170360723954E-04 
1595	 6.04150156001823E-04 
1596	 5.33252752355168E-04 
1597	 4.54729522962705E-04 
1598	 4.61063370633563E-04 
1599	 2.794830855211E-04 
1600	 2.77319344274105E-04 
1601	 4.53299221223125E-04 
1602	 2.73061015064357E-04 
1603	 2.25488686561135E-04 
1604	 3.20718318576615E-04 
1605	 2.6919348990214E-04 
1606	 4.06281967202478E-04 
1607	 7.21778318649125E-04 
1608	 9.31555599360174E-04 
1609	 8.67015889452972E-04 
1610	 6.87821869244798E-04 
1611	 6.48071854855537E-04 
1612	 5.85506059739689E-04 
1613	 5.37377996089348E-04 
1614	 7.21563142754122E-04 
1615	 6.07936303701916E-04 
1616	 1.91046964026682E-04 
1617	 6.38077716109436E-05 
1618	 1.4013888180487E-04 
1619	 2.62521873991782E-04 
1620	 3.86628773126275E-04 
1621	 5.00636604838387E-04 
1622	 4.95274208015398E-04 
1623	 4.67297956307332E-04 
1624	 6.9481388501461E-04 
1625	 7.30152049255854E-04 
1626	 4.2415697311426E-04 
1627	 2.23612033270245E-04 
1628	 3.03465823939206E-04 
1629	 5.49259576354828E-04 
1630	 6.1665777583832E-04 
1631	 3.83074664069915E-04 
1632	 1.33516324355073E-04 
1633	 1.13253490106004E-04 
1634	 1.45359933861896E-04 
1635	 1.50934280035779E-04 
1636	 1.99727136056072E-04 
1637	 1.48905558976846E-04 
1638	 9.70529889164805E-05 
1639	 2.353280185985E-04 
1640	 4.9807280472937E-04 
1641	 4.51009376537235E-04 
1642	 1.76534052102478E-04 
1643	 3.45841368363537E-04 
1644	 4.56552417446775E-04 
1645	 1.88219005050841E-04 
1646	 3.26224874775144E-04 
1647	 6.15139120893132E-04 
1648	 3.91852362962006E-04 
1649	 2.78082705920828E-04 
1650	 5.76212122822384E-04 
1651	 4.92417644328105E-04 
1652	 4.54212677247361E-04 
1653	 1.19736864095126E-03 
1654	 1.20972655303786E-03 
1655	 7.39901853946596E-04 
1656	 7.16649326748185E-04 
1657	 4.70691210787849E-04 
1658	 3.30538522879576E-04 
1659	 6.73610278485127E-04 
1660	 7.02146689027402E-04 
1661	 4.09255280940783E-04 
1662	 5.28486040933309E-04 
1663	 9.00494595863268E-04 
1664	 6.19985256259644E-04 
1665	 1.05815689917295E-04 
1666	 3.38037990316591E-04 
1667	 5.78737857818106E-04 
1668	 5.21563321888192E-04 
1669	 6.39334182122075E-04 
1670	 1.88394637513904E-04 
1671	-9.29268433392947E-05 
1672	 5.2473699045979E-04 
1673	 8.88856409976422E-04 
1674	 3.59040941796491E-04 
1675	-3.99929332548562E-05 
1676	 1.30625010686678E-04 
1677	 3.40130117855655E-04 
1678	 3.3501001805895E-04 
1679	 2.37018910759157E-04 
1680	 2.81612668846067E-04 
1681	 4.0151984191043E-04 
1682	 3.20514645601452E-04 
1683	 3.70421470729773E-04 
1684	 6.93500602780127E-04 
1685	 6.87715494146469E-04 
1686	 5.70406676069336E-04 
1687	 5.70523249807961E-04 
1688	 1.47874848647865E-04 
1689	-2.4463602161345E-04 
1690	-1.6244390374972E-04 
1691	 2.73906454697606E-04 
1692	 5.60713638203009E-04 
1693	 2.7100724561475E-04 
1694	 1.67509041224256E-04 
1695	 4.77002181663578E-04 
1696	 6.74019497304358E-04 
1697	 6.0297238128567E-04 
1698	 3.63196865908359E-04 
1699	 3.00659709553555E-04 
1700	 4.38508814891733E-04 
1701	 5.75275070812469E-04 
1702	 6.01664200810005E-04 
1703	 3.89770645986348E-04 
1704	 2.38849132051336E-04 
1705	 1.60724288197409E-04 
1706	 2.79579423245138E-04 
1707	 4.67813928657003E-04 
1708	 4.95431960492331E-05 
1709	-1.65654652021531E-04 
1710	 1.15923394851466E-04 
1711	 2.27728638443536E-04 
1712	 3.04469651325485E-04 
1713	 4.14809983810484E-04 
1714	 4.75988962435106E-04 
1715	 5.15055888443796E-04 
1716	 3.51000642852491E-04 
1717	 2.02015679850199E-04 
1718	 3.10366344353495E-04 
1719	 6.11321512233738E-04 
1720	 9.41101369632254E-04 
1721	 9.29162115264206E-04 
1722	 4.22423546328052E-04 
1723	 2.27902519820275E-04 
1724	 3.85427760926496E-04 
1725	 4.62488627553672E-04 
1726	 4.97677323614149E-04 
1727	 5.40495325111493E-07 
1728	-1.61241502851782E-04 
1729	 1.95272264909746E-04 
1730	 3.0616167476873E-04 
1731	 1.04455729977945E-03 
1732	 1.43429575570658E-03 
1733	 6.39118967057435E-04 
1734	 2.06393070420145E-04 
1735	 1.57575824133157E-04 
1736	 2.12854329509715E-04 
1737	 9.1293241665668E-04 
1738	 1.3792552534681E-03 
1739	 9.93769678364284E-04 
1740	 4.70651424622817E-04 
1741	-1.67641824315116E-05 
1742	-2.10992049574964E-04 
1743	 4.57114875512559E-04 
1744	 7.2180598407276E-04 
1745	 1.13313603764826E-04 
1746	-3.67759031271401E-04 
1747	-5.54858994365224E-04 
1748	-6.44908489952632E-04 
1749	-2.66898748971446E-04 
1750	 9.53737857103703E-04 
1751	 1.07725597855108E-03 
1752	 6.42148260311421E-04 
1753	 3.76775121139483E-04 
1754	-7.28335204137651E-04 
1755	-8.42232401944162E-04 
1756	-2.78443521475415E-06 
1757	-1.48895194126549E-04 
1758	 5.47880811901778E-04 
1759	 8.26726068131786E-04 
1760	 1.08676974017744E-05 
1761	-6.6163348940595E-05 
1762	-1.40800103259078E-04 
1763	-3.68381705605142E-04 
1764	 2.5293951278269E-04 
1765	 1.10894145728107E-03 
1766	 1.05352134494081E-03 
1767	 3.59861866733243E-04 
1768	 3.33518656467798E-04 
1769	 1.78450082080471E-04 
1770	 4.29734805030468E-04 
1771	 2.03301560673146E-03 
1772	 1.93631912895452E-03 
1773	 1.11790916514359E-03 
1774	 1.1059121856769E-03 
1775	 1.46125455179028E-03 
1776	 1.28995508768261E-03 
1777	 8.05219046358161E-04 
1778	 5.6651695071098E-04 
1779	-6.86565907549248E-04 
1780	-1.42084406724204E-03 
1781	-8.22844785234283E-04 
1782	-2.96292237263029E-04 
1783	 2.70290927075203E-04 
1784	 8.79214614265831E-04 
1785	 2.02281551633841E-03 
1786	 1.5614486261734E-03 
1787	-4.32420123960638E-04 
1788	-1.14044460278662E-03 
1789	-1.77237536732276E-03 
1790	 1.90786138561449E-05 
1791	 3.67380099892732E-04 
1792	 1.77040343742403E-03 
1793	 3.47228978442294E-06 
1794	-1.89088867864349E-03 
1795	 3.44654774380604E-04 
1796	 1.69153086034511E-03 
1797	 2.97897835009246E-03 
1798	 2.3364822272546E-03 
1799	-1.24193325310235E-03 
1800	-1.37609991677594E-05 
1801	 3.54672129177125E-03 
1802	 0.022316182604124 
1803	 2.77176801984805E-02 
1804	 1.78274739943551E-02 
1805	 1.14514522282321E-02 
1806	-2.30914076479099E-02 
1807	-2.99418454435223E-02 
1808	 0.0149645714989 
1809	 1.51221739207705E-02 
1810	-1.26987822801755E-02 
1811	-2.97956558512746E-03 
1812	-2.09161000836882E-02 
1813	-3.05863423145658E-03 
1814	 0.186760515754508 
1815	 0.225755244369273 
1816	 9.70547517835313E-02 
1817	 2.17380609763801E-02 
1818	-0.163482904871746 
1819	-0.313512571746968 
1820	-0.452441164801042 
1821	-0.151939882993089 
1822	-5.09002852092786E-03 
1823	 0.251948956456157 
1824	 0.310959821585173 
1825	 5.28690219851211E-02 
1826	-0.118165197108567 
1827	-0.494651767234428 
1828	-0.440505267404367 
1829	 0.215953637052707 
1830	 0.150221057026345 
1831	 3.0735325281052 
1832	-2.1333108562688 
1833	-0.220462396903716 
1834	-0.227836190214863 
1835	-0.646854915449733 
1836	-0.877723151799826 
1837	-1.30982576087986 
1838	-2.05608813145229 
1839	 1.74878677256809 
1840	-0.195813582534348 
1841	-0.338318334175334 
1842	-0.12284193353035 
1843	-0.222753206341065 
1844	 5.20371899289496E-02 
1845	-9.66580824586335E-02 
1846	-1.32982187334349 
1847	-1.32375038363512 
1848	-1.35201648733417 
1849	-0.936693868791028 
1850	-0.335489356101083 
1851	-7.78943076922415E-02 
1852	 0.56080967908812 
1853	-10.4976084506712 
1854	-2.58361509237296 
1855	-2.14502718700339 
1856	-1.93143230689003 
1857	-1.76140044367851 
1858	-1.90665956668714 
1859	 15.3710229361269 
1860	 16.0046544428696 
1861	-1.37661193457731 
1862	-1.02229794097095 
1863	-1.27701631070269 
1864	-21.0585784280337 
1865	-1.4202865650825 
1866	-1.13827061452002 
1867	-0.939276480615306 
1868	-0.453905119815331 
1869	-0.295404032984559 
1870	 0.296947438425843 
1871	 0.629070694407756 
1872	-0.273390143614553 
1873	-0.020824970249696 
1874	 0.173526245170073 
1875	 0.264954086280594 
1876	 0.471105773207944 
1877	 1.24660863597562 
1878	 1.2210243084556 
1879	 0.523888628905532 
1880	 0.386018567965531 
1881	 0.411135617772937 
1882	 0.115314114283706 
1883	-4.22537569375268E-02 
1884	 0.283833367039811 
1885	 1.97837326681014 
1886	-16.976601111852 
1887	 3.75099008432072 
1888	 1.13035968865176 
1889	 0.972774745818085 
1890	 0.38315280908386 
1891	 8.80129195109197E-02 
1892	-0.535182781515216 
1893	-5.60286743993242E-02 
1894	-3.22871819826046 
1895	-1.43097295717598 
1896	-0.475858720613531 
1897	-0.394093928472634 
1898	 0.605564629651215 
1899	 0.446679412258119 
1900	 0.293456161748503 
1901	-3.65948699606094E-03 
1902	 9.53062463222963E-02 
1903	 0.176621878344548 
1904	 10.3506802728864 
1905	-1.78170507193781 
1906	-2.09692597885128 
1907	-1.11582954551774 
1908	-0.727286158959608 
1909	-1.29643323744951 
1910	-15.5153045361072 
1911	 1.28900851998083 
1912	 2.9488415221738 
1913	 8.21236394287859 
1914	 4.06642511487286 
1915	 7.33460928576531 
1916	-1.0084312737281 
1917	-0.160973229790352 
1918	 2.1442065128426 
1919	-0.968353053384593 
1920	 1.13413602442896 
1921	 9.97421558140794E-02 
1922	-2.84991009167721 
1923	 59.1608046251714 
1924	-1.2706268120568 
1925	-1.40872799861518 
1926	-0.929152023160521 
1927	 3.14398140015934E-02 
1928	 0.403498143357565 
1929	 0.172845800477906 
1930	 8.14377818957933E-02 
1931	-4.09475356847586E-02 
1932	-0.346995249759183 
1933	-0.257620308716252 
1934	-6.86426884731489E-02 
1935	-0.13508792255383 
1936	-0.137047366909647 
1937	-0.10891585713037 
1938	-9.73678158289075E-02 
1939	-8.45440025536885E-02 
1940	-4.55340074380189E-02 
1941	-3.27906782176577E-02 
1942	-1.62314687113642E-02 
1943	-2.46105374269088E-02 
1944	-3.69612591255667E-02 
1945	-2.66042395300626E-02 
1946	-3.09317973571261E-02 
1947	-2.17703719139301E-02 
1948	-7.29930229490812E-03 
1949	-5.70663254163798E-03 
1950	 0.007374835795701 
1951	 0.012231458427652 
1952	 6.33166977215853E-03 
1953	-3.7905295685358E-03 
1954	-4.49735960610727E-03 
1955	-7.48328701579018E-03 
1956	-1.71270140737722E-02 
1957	-8.65791960946659E-03 
1958	 4.49584441689907E-03 
1959	-1.56569816891501E-03 
1960	-5.72206547175839E-03 
1961	-3.61684124977251E-03 
1962	-2.93950712672468E-03 
1963	 1.0188281514273E-03 
1964	 5.31656676498871E-03 
1965	 5.42155301755136E-03 
1966	 5.33087470531925E-03 
1967	 3.9656973590986E-03 
1968	 2.26487777475753E-03 
1969	 1.22895229653471E-03 
1970	 1.63851552122231E-03 
1971	 7.01118071232813E-04 
1972	-8.27817858006781E-04 
1973	 5.72391672735048E-05 
1974	 2.29131359875256E-03 
1975	 2.69696275580009E-03 
1976	 3.20383630880543E-03 
1977	 2.98535813339918E-03 
1978	 3.14399748781512E-04 
1979	-9.45738868079738E-04 
1980	-1.80976493750447E-03 
1981	-1.92790217505847E-03 
1982	-2.49613665943633E-03 
1983	-1.87804730872355E-03 
1984	-2.53149608515239E-04 
1985	 6.24094289657304E-04 
1986	 4.72233158979451E-04 
1987	 4.9299628542755E-04 
1988	-2.21381944458492E-05 
1989	-1.06865528260811E-03 
1990	-1.39520790098704E-03 
1991	-1.08388779688899E-03 
1992	-8.66577827003066E-04 
1993	-1.05318039968145E-03 
1994	-1.18844920951091E-03 
1995	-7.53569887907869E-04 
1996	-1.17555232067526E-03 
1997	-2.29425104192883E-03 
1998	-1.24861786633348E-03 
1999	 3.29973287857397E-04 
2000	 1.20144331836707E-03 
2001	 2.57323563804534E-03 
2002	 3.58118367633527E-03 
2003	 3.07136816553762E-03 
2004	 2.53039544833189E-03 
2005	 9.08061997640693E-04 
2006	-3.70938676037633E-04 
2007	 2.08600630029263E-03 
2008	 1.51440446802991E-03 
2009	 1.09843001021952E-03 
2010	 1.76943531044574E-03 
2011	 1.58730086523954E-03 
2012	-6.52426516745907E-04 
2013	-1.13426570868106E-03 
2014	-7.7297301834286E-04 
2015	-2.33798607949394E-03 
2016	-5.05253080679246E-03 
2017	-4.22662450864597E-03 
2018	-2.8929330950874E-03 
2019	-0.002291123158467 
2020	-2.05016743220408E-04 
2021	 5.24880279171016E-04 
2022	 1.58734631175376E-04 
2023	-2.81403479659611E-04 
2024	-9.8057447142445E-06 
2025	 5.33850753997804E-04 
2026	 4.34218618784893E-04 
2027	 2.73795391278577E-04 
2028	 7.27296253970882E-04 
2029	 1.07332797376402E-03 
2030	 6.74122308109621E-04 
2031	 5.95330196217497E-04 
2032	 7.87364135548211E-04 
2033	 2.42905414646523E-04 
2034	 1.92996115158041E-04 
2035	 6.05958863739834E-04 
2036	 5.86101423308971E-04 
2037	 8.77810920524706E-05 
2038	-1.13322616621328E-04 
2039	 3.45199971618814E-05 
2040	 5.57413670239426E-04 
2041	 6.06736986540083E-04 
2042	 1.02181507462398E-03 
2043	 8.81714947977921E-04 
2044	-6.28145856982562E-05 
2045	-5.733072385667E-04 
2046	-7.50118043726414E-04 
2047	-9.61292371891918E-04 
2048	-8.94335664432288E-04 
2049	-6.46789709493629E-04 
2050	-2.86366568717655E-04 
2051	 9.95706122123611E-07 
2052	-5.64439520527306E-04 
2053	-9.14256627925362E-04 
2054	-6.11898330614984E-04 
2055	-1.05942129838079E-03 
2056	-1.05920374260508E-03 
2057	-1.41787666068102E-04 
2058	 3.98035585217975E-04 
2059	 8.64520088837061E-04 
2060	 9.33720653686015E-04 
2061	 1.37809511363044E-03 
2062	-1.02328556313897E-04 
2063	-9.59316820585994E-04 
2064	-7.59683291759159E-04 
2065	-1.88300369636211E-03 
2066	-1.44173527960641E-03 
2067	-1.72088725422109E-04 
2068	-8.78798080002419E-04 
2069	-2.50635470868952E-04 
2070	 6.80607391462378E-04 
2071	-4.37763381222132E-04 
2072	-1.49583795607059E-03 
2073	-1.9755099448278E-03 
2074	-2.73395520804196E-03 
2075	-2.50252873259557E-03 
2076	-7.40001357609061E-04 
2077	-6.63741830261721E-04 
2078	-1.67580090878259E-03 
2079	-1.32924878113189E-03 
2080	-8.88791852112152E-04 
2081	-7.49038495329096E-04 
2082	 1.54013169997217E-04 
2083	 1.14849395936862E-03 
2084	 4.92928422166809E-04 
2085	 3.61301689743243E-05 
2086	 8.86103128543715E-04 
2087	 1.78670179824101E-03 
2088	 2.44888606523287E-03 
2089	 2.3725942157504E-03 
2090	 1.4476425323799E-03 
2091	 1.02039637963371E-03 
2092	 6.28065767822989E-04 
2093	 5.99943951165967E-05 
2094	 2.03459799087746E-04 
2095	 9.99703469672393E-04 
2096	 8.42035547921032E-04 
2097	 7.57658474886904E-04 
2098	 6.18267711934698E-04 
2099	-8.14526634349429E-05 
2100	-6.48697719527442E-04 
2101	-4.28994254643242E-04 
2102	-3.50806944617842E-04 
2103	-1.17681862011767E-03 
2104	-1.39528077676759E-03 
2105	-9.28548737510338E-04 
2106	-1.20722521090726E-03 
2107	-7.81110775042488E-04 
2108	 6.71143975684168E-04 
2109	 7.78498867002599E-04 
2110	 2.47369472084074E-04 
2111	-2.19482716775044E-05 
2112	-9.38092425334954E-04 
2113	-1.28430216207782E-03 
2114	-1.35016284806512E-03 
2115	-1.09101332344434E-03 
2116	-4.15193108814153E-05 
2117	 1.63590776792872E-05 
2118	-1.61348654128009E-04 
2119	-5.69932448884099E-04 
2120	-1.83086603715686E-03 
2121	-2.75551348729219E-03 
2122	-2.47321579345514E-03 
2123	-0.001483227315198 
2124	-5.537142238269E-04 
2125	 2.0247441031158E-04 
2126	 3.95885183175554E-04 
2127	-1.68672375421905E-04 
2128	 1.72742457587421E-04 
2129	 1.15689191690877E-03 
2130	 9.29218254534995E-04 
2131	 7.48832357206106E-04 
2132	 9.42568236614802E-04 
2133	 9.02213645611869E-04 
2134	 8.5291326498309E-04 
2135	 1.67842365924429E-03 
2136	 1.56009873846271E-03 
2137	 1.54676079254894E-05 
2138	-4.52241991588689E-04 
2139	-2.97088872020555E-04 
2140	-6.2516535089931E-04 
2141	-6.66000163297442E-04 
2142	-6.30837340539807E-04 
2143	-8.45970814460495E-04 
2144	-1.31410514348117E-03 
2145	-1.00889163425091E-03 
2146	-1.00357272823289E-03 
2147	-1.06606147300874E-03 
2148	-1.39842488491003E-03 
2149	-9.37151567379338E-04 
2150	 7.57757410579205E-04 
2151	 1.64801567297855E-03 
2152	 1.99529270253919E-03 
2153	 2.08246853758186E-03 
2154	 3.01630949434769E-04 
2155	-6.27057042571178E-04 
2156	 2.76657464713167E-04 
2157	 3.93368426463521E-04 
2158	 1.32324722685281E-03 
2159	 1.06586275936545E-03 
2160	-8.31070016086401E-04 
2161	-1.09787821573551E-03 
2162	-1.16391913352221E-03 
2163	-1.21701028664357E-03 
2164	 4.50566141759978E-04 
2165	 7.33313105281354E-04 
2166	-3.23093864006754E-04 
2167	-3.35812549018435E-04 
2168	-4.86121498230523E-04 
2169	-6.72889323815811E-04 
2170	-4.87200574301017E-04 
2171	 1.33783558918013E-04 
2172	-1.74772712309291E-04 
2173	-3.98137751772049E-06 
2174	-1.40042445055319E-04 
2175	-7.06059964468372E-04 
2176	-1.15752672735463E-03 
2177	-1.5377463990632E-03 
2178	-1.55197957160104E-03 
2179	-1.81047851321299E-03 
2180	-2.25048368879223E-03 
2181	-2.37300541359167E-03 
2182	-1.66126023288781E-03 
2183	-1.10562134964076E-03 
2184	-4.61402134673182E-04 
2185	 1.19480650496485E-03 
2186	 1.70878778544936E-03 
2187	 1.44869397603499E-03 
2188	 1.66597789069905E-03 
2189	 1.26711757120591E-03 
2190	 1.02389640786583E-03 
2191	 1.56129517156166E-03 
2192	 1.66415919746488E-03 
2193	 1.45646502679015E-03 
2194	 1.62890715438545E-03 
2195	 1.16212747516702E-03 
2196	 1.47424422626812E-03 
2197	 3.57869626441162E-03 
2198	 3.4042313160026E-03 
2199	 2.35608214424605E-03 
2200	 1.29913451806687E-03 
2201	-1.86210636371386E-04 
2202	-1.61820874346558E-03 
2203	-2.42290260444901E-03 
2204	-2.29847748939907E-03 
2205	-2.24567267645746E-03 
2206	-3.2767474154615E-03 
2207	-4.26065473648737E-03 
2208	-3.77525375768358E-03 
2209	-2.75277541833276E-03 
2210	-2.79274451899144E-03 
2211	-6.33750549850613E-04 
2212	 1.47340051055012E-03 
2213	 4.01676790208143E-04 
2214	 9.05323985240344E-04 
2215	 2.17243573187093E-04 
2216	-1.44350613341158E-03 
2217	-9.57250273911629E-04 
2218	 1.69396626099014E-03 
2219	 2.07350101244753E-03 
2220	 2.65682204782833E-03 
2221	 3.48519176785976E-03 
2222	 2.83887382026405E-03 
2223	 2.83537673988828E-03 
2224	 4.2825371298519E-03 
2225	 3.94529447268138E-03 
2226	 2.79980960521305E-03 
2227	 2.2049824139522E-03 
2228	 6.14864136991348E-04 
2229	-1.83362221444616E-05 
2230	-1.07465251141833E-03 
2231	-8.95319638666046E-04 
2232	 2.15642875622641E-03 
2233	 2.60172470967547E-03 
2234	 2.38534992505448E-03 
2235	 1.92295303778987E-03 
2236	 7.32104511773986E-04 
2237	-1.0513041924103E-03 
2238	 2.24255718334586E-04 
2239	 1.62030255965155E-03 
2240	 1.23777796821916E-03 
2241	 1.39188224985237E-03 
2242	 6.58683119167963E-05 
2243	-8.72428663287492E-04 
2244	 5.23527114170568E-04 
2245	 1.50629473211588E-04 
2246	-2.6316810677715E-03 
2247	-3.36372554716052E-03 
2248	-3.44346288830826E-03 
2249	-4.03021126731675E-03 
2250	-2.02990371115062E-03 
2251	-7.37973845509634E-04 
2252	-1.67829078017326E-03 
2253	-1.52085809973815E-03 
2254	-2.32243317895261E-04 
2255	 3.77927553754532E-04 
2256	 1.39289283575486E-03 
2257	 3.50966671708488E-03 
2258	 4.53153917154736E-03 
2259	 3.95469046690006E-03 
2260	 3.35617014322254E-03 
2261	 2.34112199252629E-03 
2262	 1.02237998019883E-03 
2263	-2.04010574176687E-03 
2264	-2.47781256560159E-03 
2265	-1.98147323274871E-03 
2266	-2.04804650042595E-03 
2267	 1.9721069862423E-04 
2268	 5.32006632889438E-04 
2269	-1.22892942853808E-03 
2270	-1.65803185645069E-03 
2271	-2.1897887438337E-03 
2272	-2.03398700756761E-03 
2273	-4.32655317611844E-06 
2274	-3.20151896706371E-04 
2275	-1.80671888557848E-03 
2276	-2.47906006117473E-03 
2277	-5.58441385936873E-03 
2278	-6.43167329537893E-03 
2279	-4.86696434168281E-03 
2280	-4.14048354879162E-03 
2281	-4.43385138699165E-03 
2282	-3.12294704204675E-04 
2283	 2.87233006798472E-03 
2284	 2.01107704822175E-03 
2285	-3.84468357206492E-04 
2286	-4.71881997103631E-04 
2287	 2.47650734655665E-05 
2288	-5.8495333370119E-04 
2289	 3.46716390877558E-03 
2290	 3.70434179413696E-03 
2291	-2.66429938054326E-03 
2292	-4.91933360781588E-03 
2293	-3.44832668983307E-03 
2294	-2.0577744020584E-03 
2295	-1.60242197238188E-03 
2296	-1.24547183877762E-03 
2297	-6.4619379550909E-03 
2298	-1.14788841754701E-02 
2299	-6.46125910303137E-03 
2300	-2.70185332046442E-03 
2301	-3.67352483593977E-03 
2302	-4.32559955159566E-03 
2303	-6.29201039769299E-03 
2304	-7.8686244185392E-03 
2305	-5.19508124666285E-03 
2306	-1.87572264556982E-03 
2307	-1.94112766177268E-03 
2308	-9.47640345953546E-04 
2309	-8.8429963268938E-04 
2310	-5.98370562843565E-03 
2311	-8.57923920494416E-03 
2312	-7.66661564190606E-03 
2313	-5.81878543487997E-03 
2314	 1.33772336347654E-03 
2315	 9.19878428978691E-03 
2316	 1.01782794169526E-02 
2317	 8.55532015453816E-03 
2318	 4.97869552926417E-03 
2319	 1.82822768678178E-03 
2320	 5.34888096894954E-03 
2321	 8.85340598650837E-03 
2322	 1.07306034026946E-02 
2323	 6.54003151636964E-03 
2324	-1.7798365072384E-03 
2325	-5.70538501756314E-03 
2326	-1.08956756943023E-02 
2327	-1.45484088078565E-02 
2328	-0.014042006459277 
2329	-1.42766246650068E-02 
2330	-1.25739831647372E-02 
2331	-7.85527904907515E-03 
2332	-5.24448778281531E-03 
2333	-6.3124850367248E-03 
2334	-7.41360272569162E-03 
2335	-5.58451117813765E-03 
2336	-4.50902045768774E-03 
2337	-7.15348261060325E-03 
2338	-9.85107088245508E-03 
2339	-1.01359179088395E-02 
2340	-0.013001793580632 
2341	-0.012144614081239 
2342	-3.05321032583906E-03 
2343	-2.92614135078935E-03 
2344	-1.02529775482358E-02 
2345	-1.38978208930926E-02 
2346	-2.08827931753593E-02 
2347	-0.027431230549494 
2348	-1.79426683677785E-02 
2349	-1.03429247466543E-02 
2350	-1.31225394359987E-02 
2351	-8.18438415786997E-03 
2352	-9.12342226003416E-04 
2353	 4.54259396573485E-03 
2354	 9.00675243472252E-03 
2355	 0.011016645219121 
2356	 5.58848765359042E-03 
2357	-0.002720517315241 
2358	-6.78715231270382E-04 
2359	-2.57111358460595E-03 
2360	-7.52521597259004E-03 
2361	 4.10832608161664E-03 
2362	 1.14958538067077E-02 
2363	 3.98917492944003E-03 
2364	-1.45545853359786E-03 
2365	-0.010981850507651 
2366	-1.95919305030846E-02 
2367	-9.97698499502187E-03 
2368	-3.11624651245717E-03 
2369	-1.46337476796111E-02 
2370	-2.81156796345441E-02 
2371	-3.76369164008333E-02 
2372	-3.77921070746469E-02 
2373	-2.46276676183411E-02 
2374	-2.78527013662863E-02 
2375	-0.057002136548178 
2376	-0.072318672886056 
2377	-7.30798317072214E-02 
2378	-6.61103240516304E-02 
2379	-3.27185670567045E-02 
2380	-1.98657894049894E-02 
2381	-3.84474505459791E-02 
2382	-3.26741998606713E-02 
2383	-2.53185788615305E-02 
2384	-2.21065250914496E-02 
2385	-3.2610895549062E-03 
2386	-1.13346401710091E-02 
2387	-4.36675670317865E-02 
2388	-6.15035856306824E-02 
2389	-6.47489022393958E-02 
2390	-7.10612600033355E-02 
2391	-6.61062806527695E-02 
2392	-5.56168469614593E-02 
2393	-6.78545191769747E-02 
2394	-8.46741726541891E-02 
2395	-8.54257360291826E-02 
2396	-7.34794793478402E-02 
2397	-3.61470154152945E-02 
2398	-6.16784830647518E-03 
2399	-1.83321405086613E-02 
2400	-1.07690657056738E-02 
2401	-1.77434989005669E-03 
2402	-4.12121522058853E-02 
2403	-5.98457792199592E-02 
2404	-9.31864459473436E-02 
2405	-0.177426945412435 
2406	-0.180749684858217 
2407	-0.118536409163882 
2408	-8.56844893570611E-02 
2409	-7.37031278268463E-02 
2410	-6.32463134896886E-02 
2411	-7.57355153207146E-02 
2412	-0.136462450391444 
2413	-0.14428055741433 
2414	-8.58528434188865E-02 
2415	-0.115463819561887 
2416	-0.147299569510598 
2417	-0.093041720498065 
2418	-0.057168782596016 
2419	-0.064222996457989 
2420	-1.48279646045415E-02 
2421	 2.15435191799461E-03 
2422	-0.102386735890551 
2423	-9.89981161522149E-02 
2424	-7.18622720180776E-02 
2425	-0.103133040556223 
2426	-0.07536222030037 
2427	-6.76524123642439E-03 
2428	 3.03608948162119E-02 
2429	 9.64592958795487E-04 
2430	-0.048719255501132 
2431	-0.169987862167379 
2432	-0.221191628394344 
2433	-8.97950105153716E-02 
2434	-5.76551474462095E-02 
2435	-0.125738392954042 
2436	-0.0916665644295 
2437	-9.37985720392524E-02 
2438	-6.02645792141953E-02 
2439	 0.116039976716588 
2440	 0.132886281392403 
2441	-1.80424774263689E-02 
2442	-0.102252430077187 
2443	 1.62139374369046E-03 
2444	 8.86938791686017E-02 
2445	 7.38108168910375E-02 
2446	 0.213698060133875 
2447	-3.32723832266872E-02 
2448	-0.161598075204499 
2449	-4.86635636228554E-02 
2450	-5.74695173993895E-02 
2451	 0.117907803357443 
2452	-0.232401319616164 
2453	-0.235932872598677 
2454	-0.374628274985855 
2455	-0.912513853490413 
2456	-0.806485733893509 
2457	-0.504184728273501 
2458	-0.245731737833532 
2459	 0.065720456256893 
2460	 0.084282952663034 
2461	-2.32696940738946E-02 
2462	-6.64366860950013E-02 
2463	-6.09902382264943E-02 
2464	-4.04634838145712E-02 
2465	-3.42746588708101E-04 
2466	 9.40121053965724E-02 
2467	 0.174615248429144 
2468	 1.88874701195923 
2469	 5.91343638676544 
2470	 0.204550446442379 
2471	-0.260434018403869 
2472	-0.730438098170778 
2473	-0.508578614046732 
2474	-0.702642419005167 
2475	-0.610306093742862 
2476	-0.239468433279562 
2477	 6.77713160885089E-02 
2478	 1.01503013725765 
2479	-1.80639909067369 
2480	 0.11062219385748 
2481	 0.561463534843443 
2482	 0.567024432695109 
2483	 0.449983773915404 
2484	 0.361386275016276 
2485	-0.119692508313793 
2486	-0.411942320502169 
2487	 0.30421486029372 
2488	 0.412430788011697 
2489	-9.58519223971206E-02 
2490	-4.91060322489631E-02 
2491	-0.24706815413196 
2492	-0.411345939409704 
2493	 0.147056595353746 
2494	 9.02043957797236E-02 
2495	 4.69031853746254E-02 
2496	 2.07382683907879E-02 
2497	 3.50310612180392E-02 
2498	 0.47351166149276 
2499	 0.51735693186206 
2500	 0.430046548819459 
