Wavelength	rt0718west_far00000.asd
350	 1.79689218538776E-02 
351	 1.70878486607415E-02 
352	 1.74111078390716E-02 
353	 1.78719633542033E-02 
354	 1.77858287211506E-02 
355	 1.82407001526306E-02 
356	 1.82409793359692E-02 
357	 1.81580023800955E-02 
358	 1.84447330316744E-02 
359	 1.79964426941904E-02 
360	 1.79374618271184E-02 
361	 1.83575590307072E-02 
362	 1.85947592169524E-02 
363	 1.84782296162666E-02 
364	 1.83127544551218E-02 
365	 1.83998657659092E-02 
366	 1.89388413682261E-02 
367	 1.94425404088208E-02 
368	 1.95582561449218E-02 
369	 1.92779581729565E-02 
370	 1.95769088266425E-02 
371	 1.96520960979104E-02 
372	 1.95574355794511E-02 
373	 1.98176821605581E-02 
374	 2.03119582286462E-02 
375	 2.04632394025596E-02 
376	 2.02142448244568E-02 
377	 2.02556765958251E-02 
378	 0.020731347634093 
379	 2.10126036892109E-02 
380	 2.07554108640436E-02 
381	 2.10397218969828E-02 
382	 2.16664223657091E-02 
383	 2.20027040523105E-02 
384	 2.15299537281323E-02 
385	 2.19594971991079E-02 
386	 2.26656311986588E-02 
387	 2.29893899649206E-02 
388	 0.022545476303172 
389	 2.26868440496449E-02 
390	 2.30818349875997E-02 
391	 2.32762622704395E-02 
392	 2.33513079748782E-02 
393	 2.38282034635419E-02 
394	 2.44003302792374E-02 
395	 2.45573542272019E-02 
396	 2.44553681516555E-02 
397	 2.44917394631662E-02 
398	 0.024746969937689 
399	 2.50227195078385E-02 
400	 2.53300674184584E-02 
401	 2.54623794718157E-02 
402	 2.53865926055878E-02 
403	 2.54695659219244E-02 
404	 2.57486335745261E-02 
405	 2.59977914742116E-02 
406	 2.60020156164384E-02 
407	 2.62574512283726E-02 
408	 2.64372773395727E-02 
409	 2.64951932378416E-02 
410	 2.66933975247831E-02 
411	 2.68407255357425E-02 
412	 2.71261063227316E-02 
413	 2.75588225294524E-02 
414	 2.75572882186835E-02 
415	 2.75838553504307E-02 
416	 2.77397155503295E-02 
417	 2.79840801005918E-02 
418	 2.83924826380663E-02 
419	 2.86838170056112E-02 
420	 2.88714252804265E-02 
421	 2.92873354289026E-02 
422	 2.93741490734959E-02 
423	 2.95209175317226E-02 
424	 2.99954205230765E-02 
425	 3.01734064340013E-02 
426	 0.030445389368562 
427	 3.08052448405446E-02 
428	 3.10896565417008E-02 
429	 3.14778913747997E-02 
430	 0.03182718409008 
431	 3.21208997771977E-02 
432	 3.25199492649208E-02 
433	 3.27829072773655E-02 
434	 3.30643035561863E-02 
435	 3.34991463786261E-02 
436	 3.39209881113836E-02 
437	 3.42465136265964E-02 
438	 0.034532979961851 
439	 3.49024983167399E-02 
440	 3.52900496142733E-02 
441	 3.57012321569135E-02 
442	 3.61079930026641E-02 
443	 3.64237610346701E-02 
444	 3.67319802772976E-02 
445	 3.70795155319743E-02 
446	 3.74680038642899E-02 
447	 3.77716002063606E-02 
448	 3.81199199416849E-02 
449	 3.84748915881968E-02 
450	 3.86938247167848E-02 
451	 3.89941834790506E-02 
452	 3.92335810481467E-02 
453	 3.93743622405839E-02 
454	 3.97044296538253E-02 
455	 3.99366941448984E-02 
456	 0.040137128463722 
457	 4.04351770252443E-02 
458	 0.04058307761724 
459	 4.07557498352735E-02 
460	 4.09692637211851E-02 
461	 0.04106966265842 
462	 0.041243147282116 
463	 4.14889929549372E-02 
464	 4.17334161313856E-02 
465	 4.17988562573782E-02 
466	 4.19492114548269E-02 
467	 4.21746248912401E-02 
468	 4.23512556739842E-02 
469	 4.26178089197823E-02 
470	 0.04285103905961 
471	 4.30298592621092E-02 
472	 0.043295819358105 
473	 4.36006062097232E-02 
474	 0.043858730504522 
475	 0.044033475267273 
476	 4.42899304621354E-02 
477	 4.45556341793774E-02 
478	 4.48245699124921E-02 
479	 4.51307063444582E-02 
480	 4.54022689609379E-02 
481	 4.56521576468698E-02 
482	 4.59189889770812E-02 
483	 4.62773502759381E-02 
484	 4.65332253624076E-02 
485	 4.67353988815385E-02 
486	 4.70436148548379E-02 
487	 4.76676667131427E-02 
488	 4.81302478209942E-02 
489	 4.83609930574985E-02 
490	 4.87097125885136E-02 
491	 0.049107583091447 
492	 0.049533562814802 
493	 4.99650143465313E-02 
494	 5.03693683868694E-02 
495	 5.07960189586835E-02 
496	 5.12483127247763E-02 
497	 5.17110469653867E-02 
498	 5.22219139483703E-02 
499	 5.27237465050472E-02 
500	 5.32131293298953E-02 
501	 5.37842150991912E-02 
502	 5.43104444706595E-02 
503	 5.48068364876035E-02 
504	 5.53201106952457E-02 
505	 5.58402077437561E-02 
506	 5.63389477542029E-02 
507	 5.68449327561827E-02 
508	 5.74222476106263E-02 
509	 0.057945330612702 
510	 5.85376842516422E-02 
511	 5.92289827974523E-02 
512	 5.97361012430905E-02 
513	 6.02754371909486E-02 
514	 6.08844930101917E-02 
515	 6.15252070139835E-02 
516	 6.22216426252085E-02 
517	 6.29204646861036E-02 
518	 6.36291242568228E-02 
519	 6.44371898585764E-02 
520	 6.50939690371601E-02 
521	 6.57281218154347E-02 
522	 6.64843515325412E-02 
523	 6.72338274188769E-02 
524	 6.79533255386408E-02 
525	 6.86550791655041E-02 
526	 6.93834924178882E-02 
527	 0.070169862970975 
528	 7.09917480835929E-02 
529	 7.18097173486282E-02 
530	 7.25710389823049E-02 
531	 7.33626899722118E-02 
532	 7.41393141747134E-02 
533	 7.48535569933897E-02 
534	 7.57721347287868E-02 
535	 7.66493635680199E-02 
536	 7.74115086813003E-02 
537	 7.82077679544689E-02 
538	 7.90317055119718E-02 
539	 7.98885987319893E-02 
540	 8.07725748837939E-02 
541	 0.081658172546189 
542	 0.082507868961405 
543	 8.33270809519339E-02 
544	 0.084155712915932 
545	 8.50603381346449E-02 
546	 0.085903509297606 
547	 8.66498162986694E-02 
548	 8.75123023447145E-02 
549	 0.088340616019132 
550	 8.91458623575116E-02 
551	 8.99841983281532E-02 
552	 9.08248631731848E-02 
553	 9.16599235882837E-02 
554	 0.09248982304346 
555	 9.33177497721926E-02 
556	 9.41248334437212E-02 
557	 9.49511576545799E-02 
558	 9.58129411373412E-02 
559	 9.66434422766001E-02 
560	 9.74035072595479E-02 
561	 9.80995905347144E-02 
562	 9.87728592979361E-02 
563	 9.94296557648109E-02 
564	 0.100065718862673 
565	 0.100672683387878 
566	 0.101237303934599 
567	 0.10182957096727 
568	 0.102381617468886 
569	 0.102821428808045 
570	 0.103371905870154 
571	 0.10388787040735 
572	 0.104307402747333 
573	 0.104682609033677 
574	 0.105049428283359 
575	 0.105325609153112 
576	 0.105476749258997 
577	 0.105724524907081 
578	 0.105899335706476 
579	 0.105960750107023 
580	 0.105959145485682 
581	 0.105976936357063 
582	 0.105915020718475 
583	 0.105744689405968 
584	 0.105608038758623 
585	 0.105444850396026 
586	 0.105194396944975 
587	 0.10480923727315 
588	 0.104346561563116 
589	 0.103997945311381 
590	 0.103752330490807 
591	 0.103363438223314 
592	 0.102877616974374 
593	 0.102257685874635 
594	 0.101510007519459 
595	 0.100783411707598 
596	 9.98570280125768E-02 
597	 9.87570774671148E-02 
598	 9.76584771969197E-02 
599	 9.65717207806791E-02 
600	 9.56249579846219E-02 
601	 9.48816805202081E-02 
602	 9.42690261799415E-02 
603	 9.39038849122747E-02 
604	 9.36851590947704E-02 
605	 9.34864438088276E-02 
606	 9.34363764715163E-02 
607	 9.34118074036863E-02 
608	 0.093387274787557 
609	 9.34440655625249E-02 
610	 9.34470062198757E-02 
611	 9.34467741374194E-02 
612	 9.34729117967474E-02 
613	 9.33496414052551E-02 
614	 9.33845173679852E-02 
615	 9.34890206230744E-02 
616	 9.33820779248641E-02 
617	 9.32693951900371E-02 
618	 0.093211076739477 
619	 9.31942288640647E-02 
620	 9.31173305220799E-02 
621	 9.30710898110589E-02 
622	 9.30633020469164E-02 
623	 9.30752884154667E-02 
624	 9.31114429031517E-02 
625	 9.30699457178186E-02 
626	 9.29192264844024E-02 
627	 0.092711740528119 
628	 9.27558760576565E-02 
629	 9.27831771915608E-02 
630	 9.26108255848438E-02 
631	 0.092589564239381 
632	 9.25558871388429E-02 
633	 9.24882302228252E-02 
634	 9.24221605846489E-02 
635	 9.23088766308946E-02 
636	 9.22341546503081E-02 
637	 9.22189198264298E-02 
638	 9.21772697350248E-02 
639	 9.20699232521903E-02 
640	 9.20091689142658E-02 
641	 9.20466018064675E-02 
642	 9.17778466788614E-02 
643	 9.16317698778188E-02 
644	 9.16147912970641E-02 
645	 9.13966464855857E-02 
646	 9.12264818472845E-02 
647	 0.091094583682663 
648	 9.09503305453462E-02 
649	 9.07583610329669E-02 
650	 9.04863612559232E-02 
651	 9.01613729078629E-02 
652	 8.98111664754662E-02 
653	 8.92308099149988E-02 
654	 8.86208622044684E-02 
655	 8.79869752338825E-02 
656	 8.71265503375686E-02 
657	 8.63899609465211E-02 
658	 8.57827831567658E-02 
659	 0.085222044236103 
660	 8.46665758066672E-02 
661	 8.42283836381593E-02 
662	 8.38686329264052E-02 
663	 8.34751589774797E-02 
664	 8.31746597967304E-02 
665	 8.28979289130172E-02 
666	 8.26018671522212E-02 
667	 8.23353392675592E-02 
668	 8.21629428883241E-02 
669	 8.20170524616761E-02 
670	 8.18155782705193E-02 
671	 8.16355059220569E-02 
672	 8.15885610795195E-02 
673	 8.16152266039209E-02 
674	 8.15132596532392E-02 
675	 8.15196693609767E-02 
676	 8.15545016011832E-02 
677	 8.15402153088314E-02 
678	 0.08154840680281 
679	 8.16466135958295E-02 
680	 0.081792268446909 
681	 8.18929068648569E-02 
682	 8.19240708001182E-02 
683	 8.20199849972484E-02 
684	 8.21779198931606E-02 
685	 8.22025578711289E-02 
686	 8.22607755484242E-02 
687	 8.22520827666511E-02 
688	 8.20874298905216E-02 
689	 8.19670149503199E-02 
690	 8.16969941062093E-02 
691	 8.12983582301071E-02 
692	 0.080902901543599 
693	 8.04831989986546E-02 
694	 7.98302060604285E-02 
695	 7.90056020249933E-02 
696	 7.84469567765127E-02 
697	 7.77482949146265E-02 
698	 7.68043445265393E-02 
699	 7.56793715315234E-02 
700	 0.07453377139023 
701	 7.34772186300655E-02 
702	 7.24371557621991E-02 
703	 7.11886039817308E-02 
704	 6.98633509081205E-02 
705	 6.85385524142153E-02 
706	 6.72298634373122E-02 
707	 6.57635411095091E-02 
708	 6.41836711578231E-02 
709	 6.25061207349908E-02 
710	 6.07205368354431E-02 
711	 5.87208974231038E-02 
712	 5.66768627483151E-02 
713	 5.46898745983257E-02 
714	 5.27194217802327E-02 
715	 5.06972882043352E-02 
716	 4.85140847342912E-02 
717	 4.62476446333117E-02 
718	 4.40311472427371E-02 
719	 0.041680643037439 
720	 3.96482938418839E-02 
721	 3.80068870313651E-02 
722	 3.63194633901084E-02 
723	 0.034294898057153 
724	 3.22257376598051E-02 
725	 3.05870365654979E-02 
726	 2.84990829905642E-02 
727	 2.62416655937727E-02 
728	 2.42208911269298E-02 
729	 2.22964131610714E-02 
730	 2.02839137741267E-02 
731	 1.83734308802794E-02 
732	 1.68033323248041E-02 
733	 1.55714997160952E-02 
734	 1.46192303664691E-02 
735	 1.38607697484742E-02 
736	 1.31458709987204E-02 
737	 1.25999511230593E-02 
738	 1.22268785154192E-02 
739	 1.19862760843381E-02 
740	 1.17740170064657E-02 
741	 1.16160499339222E-02 
742	 1.15408376370861E-02 
743	 1.15506711837798E-02 
744	 1.14594865249251E-02 
745	 1.13372941718952E-02 
746	 1.12662753045129E-02 
747	 1.13040619684081E-02 
748	 1.13104647334763E-02 
749	 1.12904757021959E-02 
750	 1.12778302150558E-02 
751	 1.12631388014197E-02 
752	 0.011254635924451 
753	 1.12353575436403E-02 
754	 1.11819179375465E-02 
755	 1.11292117456228E-02 
756	 1.11324380826915E-02 
757	 1.11872826574712E-02 
758	 1.12074345210835E-02 
759	 1.12692152921691E-02 
760	 1.14743271536218E-02 
761	 1.16575380128849E-02 
762	 1.14276094985071E-02 
763	 1.13899969254964E-02 
764	 1.14532293130494E-02 
765	 1.13923416566749E-02 
766	 1.15498701209931E-02 
767	 1.17067721639612E-02 
768	 1.18065346106403E-02 
769	 1.19365044977751E-02 
770	 1.19671677933468E-02 
771	 1.19777243139516E-02 
772	 1.20470150049155E-02 
773	 1.21207116562902E-02 
774	 1.23442386699501E-02 
775	 1.25766307151716E-02 
776	 1.26238811508979E-02 
777	 1.27749697339191E-02 
778	 1.29917907657291E-02 
779	 1.32093180800751E-02 
780	 1.33696320714756E-02 
781	 1.36158061100651E-02 
782	 1.38561856534015E-02 
783	 1.40319252816901E-02 
784	 1.42522480627809E-02 
785	 1.45223783744551E-02 
786	 1.47895508869148E-02 
787	 1.50050818903939E-02 
788	 1.52791928466085E-02 
789	 1.55471769147923E-02 
790	 1.58556288969771E-02 
791	 1.63126411542434E-02 
792	 1.66163907671588E-02 
793	 1.67872189611447E-02 
794	 1.69613793346374E-02 
795	 1.73753257524913E-02 
796	 1.77190993164364E-02 
797	 1.80131112957395E-02 
798	 1.83259972982236E-02 
799	 1.85092898226029E-02 
800	 0.018732720664497 
801	 0.019016257247015 
802	 1.92825583237194E-02 
803	 1.94462503384511E-02 
804	 0.019594579879562 
805	 1.97093446148786E-02 
806	 1.96527200683369E-02 
807	 1.96959783767961E-02 
808	 1.97163634157501E-02 
809	 1.96084105466977E-02 
810	 1.95198996379048E-02 
811	 1.93593114529602E-02 
812	 1.91725881933816E-02 
813	 1.90162721417635E-02 
814	 1.86438739077725E-02 
815	 1.83983403644836E-02 
816	 1.81717129920429E-02 
817	 1.75660325390315E-02 
818	 0.017214593325312 
819	 1.68780906383166E-02 
820	 1.63525317566676E-02 
821	 1.56072382968958E-02 
822	 1.49454277072431E-02 
823	 1.40980286488099E-02 
824	 1.30007883904563E-02 
825	 1.22984056993215E-02 
826	 1.16082575656871E-02 
827	 1.07169745223736E-02 
828	 9.61476666597776E-03 
829	 8.76435296823119E-03 
830	 8.00052184941889E-03 
831	 7.39173566121874E-03 
832	 7.16434953953138E-03 
833	 6.9969665452699E-03 
834	 6.65744563615487E-03 
835	 6.2633421317674E-03 
836	 6.33572997950017E-03 
837	 6.20362776959641E-03 
838	 5.98268540363139E-03 
839	 5.8465850617276E-03 
840	 5.63285705583415E-03 
841	 5.57512185472868E-03 
842	 5.61514338472486E-03 
843	 5.60054518745519E-03 
844	 5.53423840488399E-03 
845	 5.34638766141325E-03 
846	 5.14412088121608E-03 
847	 5.12352037031509E-03 
848	 5.11805988834545E-03 
849	 5.06371286610722E-03 
850	 4.9363133009494E-03 
851	 4.75890126231351E-03 
852	 4.82760459603935E-03 
853	 4.80751554747293E-03 
854	 4.56360156312606E-03 
855	 4.65831331123571E-03 
856	 4.77868695266283E-03 
857	 4.80645438582186E-03 
858	 4.70541107624088E-03 
859	 4.50578003238294E-03 
860	 4.39667840533719E-03 
861	 4.35990713271544E-03 
862	 4.29861428745908E-03 
863	 4.39822756631671E-03 
864	 4.45498257400465E-03 
865	 4.3796956152209E-03 
866	 4.23477846197961E-03 
867	 4.16612781170186E-03 
868	 4.16194822880353E-03 
869	 4.11493174532045E-03 
870	 3.84956396223472E-03 
871	 3.77504629686939E-03 
872	 3.97708119578071E-03 
873	 4.25839227941034E-03 
874	 3.98978289302903E-03 
875	 3.67408395315461E-03 
876	 3.6369238927755E-03 
877	 3.9231105251219E-03 
878	 3.85868049686546E-03 
879	 3.73184861554458E-03 
880	 3.58942670075499E-03 
881	 3.39991528387402E-03 
882	 3.34269741535104E-03 
883	 3.42988667019206E-03 
884	 3.53210220938736E-03 
885	 3.4765564160859E-03 
886	 3.63058540607453E-03 
887	 3.43429803303743E-03 
888	 2.99126880909564E-03 
889	 3.16862481806424E-03 
890	 3.00186796802743E-03 
891	 3.10017319110155E-03 
892	 3.60710702736191E-03 
893	 3.30968515254174E-03 
894	 3.38579612685329E-03 
895	 3.30482047050324E-03 
896	 2.68404886541619E-03 
897	 3.11648366503361E-03 
898	 3.48509295363221E-03 
899	 3.35113835358818E-03 
900	 2.85736362077718E-03 
901	 3.00208124137536E-03 
902	 2.77377742502941E-03 
903	 2.60917071877925E-03 
904	 3.13873412016088E-03 
905	 3.00962753436549E-03 
906	 2.90151826596585E-03 
907	 2.89119067280093E-03 
908	 2.67981122936369E-03 
909	 2.90074658675909E-03 
910	 2.76002063058277E-03 
911	 2.43263999189601E-03 
912	 2.85292729571575E-03 
913	 2.54266485663757E-03 
914	 2.30389251392291E-03 
915	 2.41535669169706E-03 
916	 2.28491765455249E-03 
917	 2.33003604415041E-03 
918	 2.46440369905047E-03 
919	 2.60094498467446E-03 
920	 2.75667188186358E-03 
921	 3.15806722865384E-03 
922	 3.02524998596587E-03 
923	 2.31396447390244E-03 
924	 2.87624702504027E-03 
925	 3.31281273554633E-03 
926	 3.3465046824306E-03 
927	 2.96467147761648E-03 
928	 1.86653123026341E-03 
929	 1.93275261210042E-03 
930	 2.41769678928442E-03 
931	 1.34586729945708E-03 
932	 6.30890202752877E-04 
933	-1.19651907781144E-04 
934	 8.83444941930268E-04 
935	 4.23832706033394E-03 
936	 4.42404388279588E-03 
937	 2.00401126856877E-03 
938	 1.87426702547819E-03 
939	 6.32529713621431E-03 
940	 4.14269013854792E-03 
941	 0.001790473588163 
942	 1.31156473923947E-03 
943	 2.14750181659203E-03 
944	 2.86301423624968E-03 
945	 3.24651951427752E-03 
946	 2.3984036789372E-03 
947	 3.58035008317128E-04 
948	 3.85915692202558E-03 
949	 5.81214110229466E-03 
950	 4.49843019495974E-03 
951	 2.55091290467653E-03 
952	 2.63668415662233E-03 
953	 1.06655636857842E-03 
954	-5.13445437555811E-04 
955	 2.14788185158502E-03 
956	 3.53737030755967E-03 
957	 4.35433948364495E-03 
958	 4.22459142804591E-03 
959	 2.39515918791992E-03 
960	 3.03657168228441E-03 
961	 3.37520831822941E-03 
962	 3.16616794513192E-03 
963	 3.87384308815595E-03 
964	 1.72585259646096E-03 
965	 2.03947860559636E-03 
966	 4.16350831545118E-03 
967	 3.41165939692022E-03 
968	 3.56116666499015E-03 
969	 1.69138757707605E-03 
970	-9.51088867704991E-06 
971	 3.9106624962907E-03 
972	 4.27603976077879E-03 
973	 3.98771652230685E-03 
974	 3.50602776001622E-03 
975	 6.33090723828133E-04 
976	 2.6219217139693E-03 
977	 3.30467030120169E-03 
978	 1.8610842564987E-03 
979	 2.87335463674759E-03 
980	 3.31763841153986E-03 
981	 2.99609105766013E-03 
982	 2.39486537226752E-03 
983	 2.29333676168425E-03 
984	 3.20859731492953E-03 
985	 2.77892252616307E-03 
986	 1.63169856145884E-03 
987	 2.35161805822613E-03 
988	 2.10267428249954E-03 
989	 1.86907128205436E-03 
990	 1.9800890234992E-03 
991	 2.13223056233261E-03 
992	 3.3901522840949E-03 
993	 2.84147414989579E-03 
994	 7.75072674158944E-04 
995	-2.0461967840929E-04 
996	 6.39961230272821E-05 
997	 1.74929598386087E-03 
998	 3.13709940459854E-03 
999	 2.3460149767517E-03 
1000	 2.75565451558723E-03 
1001	 1.95199328840323E-03 
1002	 1.97925829176681E-03 
1003	 1.9418665644242E-03 
1004	 1.7802724818008E-03 
1005	 1.67511553656853E-03 
1006	 1.48785599669906E-03 
1007	 1.62701147236336E-03 
1008	 1.42830298763767E-03 
1009	 1.49938897671871E-03 
1010	 1.68118381323244E-03 
1011	 1.47019262280295E-03 
1012	 1.67375326775063E-03 
1013	 2.02566085492047E-03 
1014	 2.09727364172493E-03 
1015	 0.00214921547316 
1016	 2.03255142000658E-03 
1017	 1.45114003871572E-03 
1018	 1.35614147195594E-03 
1019	 1.37466292830694E-03 
1020	 1.45898882534028E-03 
1021	 2.10406169249806E-03 
1022	 2.17654126373663E-03 
1023	 1.71751520204216E-03 
1024	 1.58730492058983E-03 
1025	 1.00498641036556E-03 
1026	 8.66028655203964E-04 
1027	 8.88172533801479E-04 
1028	 1.23452072157853E-03 
1029	 1.4346737675294E-03 
1030	 1.84935240208287E-03 
1031	 1.93468253332634E-03 
1032	 1.98575457486419E-03 
1033	 1.87596769616387E-03 
1034	 1.40331768257644E-03 
1035	 1.17234891382203E-03 
1036	 7.65185514831834E-04 
1037	 7.41453312542026E-04 
1038	 8.40024190090026E-04 
1039	 1.31299672001281E-03 
1040	 2.04122816277384E-03 
1041	 2.52294800264374E-03 
1042	 2.66935640181486E-03 
1043	 2.71994981405703E-03 
1044	 2.39629620540123E-03 
1045	 1.30950359707424E-03 
1046	 1.08594286628942E-03 
1047	 9.06273583252034E-04 
1048	 0.001015026290972 
1049	 2.01834937696099E-03 
1050	 2.22699717226699E-03 
1051	 2.16102682876034E-03 
1052	 2.05297347337594E-03 
1053	 1.25431811059729E-03 
1054	 1.0845733544841E-03 
1055	 1.35960606389527E-03 
1056	 1.45530420639387E-03 
1057	 1.6205700460012E-03 
1058	 2.19732260702349E-03 
1059	 2.18370527131587E-03 
1060	 1.7070408206849E-03 
1061	 1.63886421377536E-03 
1062	 1.46319233953781E-03 
1063	 1.53465735947285E-03 
1064	 2.04713931537988E-03 
1065	 2.16465057394958E-03 
1066	 2.21436351587635E-03 
1067	 2.19113130294188E-03 
1068	 1.89942129982219E-03 
1069	 1.74812368195082E-03 
1070	 1.46968000754394E-03 
1071	 1.45753995636141E-03 
1072	 1.74718592416918E-03 
1073	 1.93514910965574E-03 
1074	 1.92005433259004E-03 
1075	 1.98186251035127E-03 
1076	 1.89921062268649E-03 
1077	 1.38139387723733E-03 
1078	 1.30746792639085E-03 
1079	 1.4633949115271E-03 
1080	 1.55951900033749E-03 
1081	 1.89294352964624E-03 
1082	 1.94773339655398E-03 
1083	 1.82443151791186E-03 
1084	 1.80172196625154E-03 
1085	 1.57467263754019E-03 
1086	 1.53944163771418E-03 
1087	 1.79741795599104E-03 
1088	 1.86757871610139E-03 
1089	 1.86145379726676E-03 
1090	 1.99428165250583E-03 
1091	 1.90787026197518E-03 
1092	 1.55233030580712E-03 
1093	 1.57475324618921E-03 
1094	 1.66736740123898E-03 
1095	 1.76055523508392E-03 
1096	 2.20506404781739E-03 
1097	 2.25732091449772E-03 
1098	 2.05383810267008E-03 
1099	 1.93513594907631E-03 
1100	 1.50187731211797E-03 
1101	 1.4017670796218E-03 
1102	 1.80107788196208E-03 
1103	 1.80391601544481E-03 
1104	 1.86421578144483E-03 
1105	 1.42000827503719E-03 
1106	 1.45156517642739E-03 
1107	 1.12525700503856E-03 
1108	 1.01119946765479E-03 
1109	 2.16640222836636E-03 
1110	 2.31701153843802E-03 
1111	 1.76216473310956E-03 
1112	 1.78220025684988E-03 
1113	 2.00564712387222E-03 
1114	 1.67501020024688E-03 
1115	 1.33599605102015E-03 
1116	 1.07738188980265E-03 
1117	-1.04291950170359E-03 
1118	-1.20168166345075E-03 
1119	 2.83022006027858E-03 
1120	 4.04821535583777E-03 
1121	 5.71117734776361E-03 
1122	 3.85222765442461E-03 
1123	 8.1304762560553E-04 
1124	-2.01997214915267E-03 
1125	-3.97289955971983E-03 
1126	 6.43375786409309E-04 
1127	 2.85579714648751E-03 
1128	-1.67257578974073E-03 
1129	-1.36002027406128E-03 
1130	 1.87558542823845E-04 
1131	 6.71868558053129E-04 
1132	 2.73329135738074E-03 
1133	 3.01509752557733E-03 
1134	 9.10844850711012E-04 
1135	 6.898542220826E-04 
1136	 1.68872774408914E-03 
1137	 1.73658656057842E-03 
1138	 2.37046138271498E-03 
1139	 1.34091091390809E-03 
1140	 4.47212545982404E-04 
1141	 7.14799750967154E-04 
1142	 1.30445188202279E-03 
1143	 3.33589713121794E-03 
1144	 3.58344329931038E-03 
1145	 1.30320759091013E-03 
1146	 1.24060052295457E-03 
1147	 1.13353785790421E-03 
1148	 5.72698467128782E-04 
1149	 1.4960962919173E-03 
1150	 1.58623676705721E-03 
1151	 4.50261032680013E-05 
1152	 1.51727212815676E-04 
1153	 1.8484787820009E-03 
1154	 1.88526781898943E-03 
1155	 1.57631254350911E-03 
1156	 1.03128744366371E-03 
1157	 1.00281883619196E-03 
1158	 1.08652188102032E-03 
1159	 8.18951980082196E-04 
1160	 1.34114887554444E-03 
1161	 1.82573084579592E-03 
1162	 1.20101931862288E-03 
1163	 1.5948208697594E-03 
1164	 2.32595668188361E-03 
1165	 1.74109183601363E-03 
1166	 1.37759830294703E-03 
1167	 1.55432031257822E-03 
1168	 1.6574815528658E-03 
1169	 1.76410798248344E-03 
1170	 1.80250827238696E-03 
1171	 1.87113130959554E-03 
1172	 1.60152084952871E-03 
1173	 1.48873573883321E-03 
1174	 1.45111283714387E-03 
1175	 1.73760490453668E-03 
1176	 1.92956710723665E-03 
1177	 1.61372590698495E-03 
1178	 1.57288835939501E-03 
1179	 1.73858032777089E-03 
1180	 1.38458293780364E-03 
1181	 1.34280776695682E-03 
1182	 1.66494517901186E-03 
1183	 1.64045572757161E-03 
1184	 1.60652059771451E-03 
1185	 1.59390808537725E-03 
1186	 1.35129529830953E-03 
1187	 1.25992692799098E-03 
1188	 1.63295852727871E-03 
1189	 1.82622201388756E-03 
1190	 1.51769935427806E-03 
1191	 1.2035040348009E-03 
1192	 1.17134000141034E-03 
1193	 1.08044805995799E-03 
1194	 1.2652878443253E-03 
1195	 1.55839834179425E-03 
1196	 1.66946043117877E-03 
1197	 1.63607117671009E-03 
1198	 1.52998033051288E-03 
1199	 1.62503987150699E-03 
1200	 1.82585527465623E-03 
1201	 1.77850332846188E-03 
1202	 1.62253253630532E-03 
1203	 1.51223104553649E-03 
1204	 1.63141559031899E-03 
1205	 1.74940804245714E-03 
1206	 1.49199815967335E-03 
1207	 1.34859293276604E-03 
1208	 1.40395140754596E-03 
1209	 1.38236199174808E-03 
1210	 1.41082925359625E-03 
1211	 1.46425840141079E-03 
1212	 1.39165311339543E-03 
1213	 1.40393757796326E-03 
1214	 1.38921166445102E-03 
1215	 1.52326161361008E-03 
1216	 1.48828133975137E-03 
1217	 1.33564600172854E-03 
1218	 1.28354760640948E-03 
1219	 1.54102027593049E-03 
1220	 1.64936609699355E-03 
1221	 1.59059156267845E-03 
1222	 1.82719210567055E-03 
1223	 1.70535368420495E-03 
1224	 1.28417644690855E-03 
1225	 1.34753686957699E-03 
1226	 1.39824173015569E-03 
1227	 1.10102468795989E-03 
1228	 1.27453160309524E-03 
1229	 1.78297832868936E-03 
1230	 1.67649861515185E-03 
1231	 1.37531527728952E-03 
1232	 0.001590620932425 
1233	 1.86627385494731E-03 
1234	 1.67156038208961E-03 
1235	 1.53069376639486E-03 
1236	 1.50772499947936E-03 
1237	 1.52698397972659E-03 
1238	 1.27776789653148E-03 
1239	 1.38928414262659E-03 
1240	 1.72480714747816E-03 
1241	 1.5747250964075E-03 
1242	 1.47658420435547E-03 
1243	 1.53550961995392E-03 
1244	 1.33581207337778E-03 
1245	 1.24743878253499E-03 
1246	 1.23768526212137E-03 
1247	 1.10204097594942E-03 
1248	 1.27246606283654E-03 
1249	 1.61921872539827E-03 
1250	 1.60464399469409E-03 
1251	 1.31663533391792E-03 
1252	 1.23385861792414E-03 
1253	 1.30243442069555E-03 
1254	 1.20522014037854E-03 
1255	 1.32571691562797E-03 
1256	 1.43564445646181E-03 
1257	 1.5193309350841E-03 
1258	 1.49404253412946E-03 
1259	 1.49749820780403E-03 
1260	 1.50836158235806E-03 
1261	 1.40360226242083E-03 
1262	 1.34865157553192E-03 
1263	 1.3541519869854E-03 
1264	 1.44962438712002E-03 
1265	 1.38411243004489E-03 
1266	 1.32713000397058E-03 
1267	 1.41954302312333E-03 
1268	 1.45969108374288E-03 
1269	 1.52140676201523E-03 
1270	 1.44519816287154E-03 
1271	 1.29458209092137E-03 
1272	 1.34908568751443E-03 
1273	 1.54783456232222E-03 
1274	 1.72471339981722E-03 
1275	 1.66165569681423E-03 
1276	 1.65089726570739E-03 
1277	 1.74305013692817E-03 
1278	 1.7579330154405E-03 
1279	 1.80281410896526E-03 
1280	 1.69277560486629E-03 
1281	 1.6965788372237E-03 
1282	 1.54859407076887E-03 
1283	 1.40316882151163E-03 
1284	 1.47938186641461E-03 
1285	 1.48765297928081E-03 
1286	 1.1102135164394E-03 
1287	 1.02950871127836E-03 
1288	 0.001246164966368 
1289	 1.34759944807396E-03 
1290	 1.46649238891219E-03 
1291	 1.62726092556451E-03 
1292	 1.58064498760788E-03 
1293	 1.52219645189614E-03 
1294	 1.44696220107126E-03 
1295	 1.4339998582124E-03 
1296	 1.53375470640954E-03 
1297	 1.36487268196204E-03 
1298	 1.14532290815616E-03 
1299	 1.31756724378629E-03 
1300	 1.17920699427604E-03 
1301	 9.63255569556438E-04 
1302	 1.19789254565611E-03 
1303	 1.03214435255491E-03 
1304	 6.80505334070128E-04 
1305	 8.93918294854955E-04 
1306	 1.16852719682927E-03 
1307	 1.44083521718111E-03 
1308	 1.39343925583899E-03 
1309	 1.5275444003822E-03 
1310	 1.79167187570929E-03 
1311	 1.85816119178358E-03 
1312	 1.61880046779732E-03 
1313	 1.32501395899535E-03 
1314	 1.43412831970558E-03 
1315	 1.38736272668221E-03 
1316	 1.09597782320195E-03 
1317	 1.25995619932797E-03 
1318	 1.43676451388239E-03 
1319	 9.57357769715938E-04 
1320	 6.48901836381694E-04 
1321	 8.03143841376777E-04 
1322	 1.08375334408286E-03 
1323	 8.31878058433321E-04 
1324	 5.575012482094E-04 
1325	 9.2539326468501E-04 
1326	 1.26237013222062E-03 
1327	 9.34649679884419E-04 
1328	 1.29980805734333E-03 
1329	 1.97066477362378E-03 
1330	 1.74926614664085E-03 
1331	 1.29729033073162E-03 
1332	 1.28174370014171E-03 
1333	 1.43507971421548E-03 
1334	 1.25362661951457E-03 
1335	 1.37024932299153E-03 
1336	 2.34682836596786E-03 
1337	 2.44189042992143E-03 
1338	 1.6760844938358E-03 
1339	 1.60488894796882E-03 
1340	 1.82978017111672E-03 
1341	 1.45874736641237E-03 
1342	 1.15284312307863E-03 
1343	 5.45131111462771E-04 
1344	-2.04972095473668E-03 
1345	-2.32316212520795E-03 
1346	 6.52433619915146E-05 
1347	 7.03540717761102E-04 
1348	 2.8277357362161E-03 
1349	 5.5558719189347E-03 
1350	 6.80295486027672E-03 
1351	 7.47340674318549E-03 
1352	 7.35798906429868E-03 
1353	 1.11090444519092E-02 
1354	 1.70039983098116E-02 
1355	 1.35788409950844E-02 
1356	-1.08838676292125E-02 
1357	-0.013870077398429 
1358	-3.66856359043592E-02 
1359	-9.68818038684979E-02 
1360	-7.31813922179321E-02 
1361	-6.83409892115547E-02 
1362	-0.15832669676189 
1363	-0.268470159284897 
1364	-0.239072178961296 
1365	-0.12276949742579 
1366	-0.238471607087707 
1367	-0.378479808560518 
1368	-0.300529492694889 
1369	-7.23520111077184E-02 
1370	-3.53979723498991E-02 
1371	 0.122257352779747 
1372	 0.171040971884046 
1373	-0.297860277010548 
1374	-0.455806534219016 
1375	-9.56124941441047E-02 
1376	-8.92348092892484E-02 
1377	-0.125317445983247 
1378	-6.93484931705229E-02 
1379	 6.97705855535271E-02 
1380	 2.64126340280278E-02 
1381	-0.40458123558619 
1382	-0.321896174313116 
1383	 6.05936145339821E-02 
1384	 3.96996242365116E-02 
1385	 0.111567176598061 
1386	 0.126610727228609 
1387	-0.387425298130599 
1388	-0.556819572993759 
1389	-4.26341153118228E-02 
1390	 5.75510684128728E-02 
1391	 2.79290616370061E-02 
1392	-3.75553232383114E-02 
1393	-0.296681115419739 
1394	-0.435873177478027 
1395	-0.337740758598274 
1396	-0.172638184778208 
1397	-0.275981600311284 
1398	-0.338505726297551 
1399	-6.88119426694115E-02 
1400	 4.95528010177075E-02 
1401	 0.060123075949366 
1402	 0.225871745604283 
1403	 0.151115458011558 
1404	-0.199574473669309 
1405	-0.216465401597574 
1406	 2.54935449273374E-02 
1407	 6.51627157645815E-02 
1408	 9.08046541223398E-02 
1409	 0.052663947843346 
1410	-1.72188077403523E-02 
1411	-4.07989295609583E-02 
1412	-0.118593129525614 
1413	-0.103279344199139 
1414	-1.02510217023558E-02 
1415	 3.35390260327719E-03 
1416	-1.91510857950823E-02 
1417	 9.02291946823983E-03 
1418	 0.058403163989 
1419	 0.049654330836082 
1420	 3.20901431808446E-02 
1421	 3.34777721517338E-02 
1422	 2.55569282601156E-02 
1423	 1.09086758722729E-02 
1424	-1.22220198557548E-03 
1425	 2.35320639461373E-03 
1426	 6.88111335835782E-03 
1427	 1.8170110797452E-03 
1428	 2.83865850962417E-03 
1429	 5.54331050994202E-03 
1430	-3.43573072624338E-03 
1431	-7.8119019145131E-03 
1432	 2.24639288232914E-03 
1433	 3.13499095592619E-03 
1434	-1.15784549080989E-02 
1435	-0.012064092376894 
1436	 1.52248853252147E-04 
1437	 8.88629368835835E-04 
1438	-4.47570003049993E-03 
1439	-2.56291225787542E-03 
1440	-2.33950985124978E-04 
1441	-4.55022923159766E-03 
1442	-3.89516261187685E-03 
1443	 4.51154156056545E-03 
1444	 2.94907393435955E-03 
1445	-1.74795761145747E-05 
1446	 2.40344852467268E-03 
1447	 1.85192375222861E-03 
1448	-1.09433565979249E-03 
1449	-2.34918395926424E-03 
1450	-5.32078308410186E-04 
1451	-6.07716847180814E-04 
1452	-2.24334163913815E-03 
1453	-6.27564221910406E-04 
1454	 5.52506683737099E-04 
1455	 1.96546693259598E-03 
1456	 1.28933206489566E-03 
1457	 3.7995729830456E-04 
1458	 4.44682582345134E-04 
1459	-7.22886542296705E-04 
1460	-4.29375301379278E-04 
1461	 2.24114003884249E-03 
1462	 2.47515903505865E-03 
1463	 1.11270087073315E-03 
1464	 7.31292474390807E-04 
1465	 7.80196552735611E-05 
1466	-4.85849241479074E-06 
1467	 6.51996525412969E-04 
1468	 6.96460059002565E-04 
1469	 6.74060553511184E-04 
1470	 5.49587213287657E-04 
1471	-1.00963362957538E-04 
1472	 3.60391865950789E-04 
1473	 1.94717090281655E-03 
1474	 1.58399463093783E-03 
1475	-6.54396046524165E-05 
1476	 4.03191665335163E-04 
1477	 1.72002154534957E-03 
1478	 1.08817404206408E-03 
1479	 6.38967728237052E-04 
1480	 8.79431314306499E-04 
1481	-7.70999826358082E-04 
1482	-9.24049770372752E-04 
1483	 1.4576243005085E-03 
1484	 1.80103876924043E-03 
1485	 6.65170762826872E-04 
1486	 8.7171031430834E-04 
1487	 1.81373360577926E-03 
1488	 1.52661269542516E-03 
1489	 8.38240413492762E-04 
1490	 8.02340144622475E-04 
1491	 3.76176767685493E-04 
1492	 2.05167343837274E-04 
1493	 6.58782004802613E-04 
1494	 8.66738415559642E-04 
1495	 8.88686099872756E-04 
1496	 9.15590802213507E-04 
1497	 9.82343394957204E-04 
1498	 1.05038876438141E-03 
1499	 1.10355204134844E-03 
1500	 1.04611011517332E-03 
1501	 8.55876933882137E-04 
1502	 8.90394432764283E-04 
1503	 1.03251092615035E-03 
1504	 0.001025118313868 
1505	 1.02476634863482E-03 
1506	 1.21783780600222E-03 
1507	 1.1303674433919E-03 
1508	 8.79963891605397E-04 
1509	 8.49586618201759E-04 
1510	 8.59490060787035E-04 
1511	 1.25004678898817E-03 
1512	 1.55685486163843E-03 
1513	 1.43037060185178E-03 
1514	 1.63743480891218E-03 
1515	 1.76220405045786E-03 
1516	 1.52722426307056E-03 
1517	 1.44737744809089E-03 
1518	 1.30320691648968E-03 
1519	 1.05736956377351E-03 
1520	 1.02386076844427E-03 
1521	 1.17265657164018E-03 
1522	 1.35744830496694E-03 
1523	 1.3516966639238E-03 
1524	 1.17513404945564E-03 
1525	 0.001141734111015 
1526	 1.13834667315393E-03 
1527	 1.1265792496646E-03 
1528	 1.30400448550177E-03 
1529	 1.45945583463511E-03 
1530	 1.53950670634687E-03 
1531	 1.68223948542225E-03 
1532	 1.69244024717208E-03 
1533	 1.50551450837672E-03 
1534	 1.49901193954748E-03 
1535	 1.56815666287531E-03 
1536	 1.37940057448391E-03 
1537	 1.33106970629715E-03 
1538	 1.40955950616752E-03 
1539	 1.26799135793397E-03 
1540	 1.23023753176245E-03 
1541	 1.36963029838557E-03 
1542	 1.28402472006701E-03 
1543	 1.22361305919452E-03 
1544	 1.42389511904834E-03 
1545	 1.4556078084444E-03 
1546	 1.24208137661438E-03 
1547	 1.09498609654358E-03 
1548	 1.18887010735482E-03 
1549	 1.37634866497349E-03 
1550	 1.34098284062199E-03 
1551	 1.07827974096735E-03 
1552	 9.60170996034972E-04 
1553	 1.02782203780411E-03 
1554	 1.06417815833473E-03 
1555	 1.15179109742787E-03 
1556	 1.2629326594765E-03 
1557	 1.18476375563408E-03 
1558	 1.10349964183424E-03 
1559	 1.21181835057589E-03 
1560	 1.29859390766053E-03 
1561	 1.35592613463645E-03 
1562	 1.47983878263192E-03 
1563	 1.4844875077933E-03 
1564	 1.30336445474689E-03 
1565	 1.15846194268536E-03 
1566	 1.11793125119644E-03 
1567	 1.08709565054029E-03 
1568	 1.20752144982056E-03 
1569	 1.40496114593551E-03 
1570	 1.51278135396583E-03 
1571	 1.56519434898486E-03 
1572	 1.32912165256591E-03 
1573	 1.19383828905456E-03 
1574	 1.3924110783343E-03 
1575	 1.50252046615882E-03 
1576	 1.58578342652032E-03 
1577	 1.5572760874718E-03 
1578	 1.31926335739883E-03 
1579	 9.39574014340047E-04 
1580	 8.59031980266089E-04 
1581	 0.001409597448193 
1582	 1.6219538539661E-03 
1583	 1.35477597302678E-03 
1584	 1.53635116886044E-03 
1585	 1.62682853564206E-03 
1586	 1.41454983865636E-03 
1587	 1.57854673408098E-03 
1588	 1.71138979115167E-03 
1589	 1.45738217316665E-03 
1590	 1.15040544050274E-03 
1591	 1.09594949625366E-03 
1592	 1.27417785920017E-03 
1593	 1.30887371039539E-03 
1594	 1.13048745509069E-03 
1595	 9.95748514780312E-04 
1596	 8.56246645790543E-04 
1597	 8.43739249911876E-04 
1598	 1.18117498469629E-03 
1599	 1.49739519220569E-03 
1600	 1.3552880116275E-03 
1601	 1.17869036736872E-03 
1602	 1.28972714714384E-03 
1603	 1.29636147510208E-03 
1604	 1.41430409296409E-03 
1605	 1.57902023905165E-03 
1606	 1.42636899009062E-03 
1607	 1.32573217762998E-03 
1608	 1.50785327753649E-03 
1609	 1.71224774725325E-03 
1610	 1.69361570666663E-03 
1611	 1.57083318685433E-03 
1612	 1.66593613137005E-03 
1613	 2.05652608377967E-03 
1614	 2.10170149865825E-03 
1615	 1.61231159234198E-03 
1616	 1.27969121321887E-03 
1617	 1.20018211214839E-03 
1618	 1.31424559744991E-03 
1619	 1.65490084230073E-03 
1620	 1.69442437051382E-03 
1621	 1.34174523341103E-03 
1622	 1.20560440502352E-03 
1623	 1.20918512883249E-03 
1624	 1.22303120054331E-03 
1625	 1.40403725514683E-03 
1626	 1.37416916257248E-03 
1627	 1.41478172316599E-03 
1628	 1.69370505602257E-03 
1629	 1.66834423942457E-03 
1630	 1.46619911726758E-03 
1631	 1.30580206507417E-03 
1632	 1.27927026047852E-03 
1633	 1.44821503333063E-03 
1634	 1.43207262982164E-03 
1635	 1.34777714683398E-03 
1636	 1.50719991611861E-03 
1637	 1.58867114734791E-03 
1638	 1.63190943679071E-03 
1639	 1.75413700614955E-03 
1640	 1.54124200588635E-03 
1641	 1.33195207114734E-03 
1642	 1.47506157114755E-03 
1643	 1.38525953097134E-03 
1644	 1.29646213430039E-03 
1645	 1.22195382084753E-03 
1646	 1.03584782032677E-03 
1647	 1.24203880588307E-03 
1648	 1.45904274089782E-03 
1649	 1.45198764180142E-03 
1650	 1.30873827844587E-03 
1651	 1.06504596497512E-03 
1652	 1.03964199781246E-03 
1653	 1.31497744863382E-03 
1654	 1.2908995780088E-03 
1655	 9.66746929741608E-04 
1656	 1.0693534629614E-03 
1657	 1.36884512766591E-03 
1658	 1.47113252043164E-03 
1659	 1.83854607962894E-03 
1660	 1.82790765475171E-03 
1661	 1.24190964117075E-03 
1662	 1.2993193868276E-03 
1663	 1.70921381031152E-03 
1664	 1.68238908754381E-03 
1665	 1.76449768665021E-03 
1666	 1.8322076834639E-03 
1667	 1.56283362026949E-03 
1668	 1.57744031412963E-03 
1669	 1.51754394087664E-03 
1670	 1.33416511333904E-03 
1671	 1.20522651960532E-03 
1672	 1.19899013912934E-03 
1673	 1.24332996554142E-03 
1674	 1.23351151774696E-03 
1675	 1.2642951267959E-03 
1676	 1.55138773717951E-03 
1677	 1.66487106802741E-03 
1678	 1.38075758880067E-03 
1679	 1.51242189155796E-03 
1680	 1.88788485626982E-03 
1681	 1.71204647958935E-03 
1682	 1.52188765848231E-03 
1683	 1.67571270689391E-03 
1684	 1.82762825653435E-03 
1685	 1.86215740146877E-03 
1686	 2.0744637560677E-03 
1687	 2.09424525128113E-03 
1688	 1.39291911902608E-03 
1689	 1.25955774332311E-03 
1690	 1.76759992462907E-03 
1691	 1.54493493555933E-03 
1692	 1.4417221909999E-03 
1693	 1.76252170470313E-03 
1694	 1.39357678628856E-03 
1695	 1.32770842772336E-03 
1696	 1.87741533355638E-03 
1697	 1.62756609385257E-03 
1698	 1.23751867330547E-03 
1699	 1.35185009858657E-03 
1700	 9.68679905528322E-04 
1701	 8.69822703593088E-04 
1702	 1.59131740159692E-03 
1703	 1.62561638320336E-03 
1704	 1.44672274273775E-03 
1705	 1.61269072937724E-03 
1706	 1.37945726208521E-03 
1707	 1.31068612279486E-03 
1708	 1.63263264511571E-03 
1709	 1.65265669270783E-03 
1710	 1.46640297856141E-03 
1711	 1.54170134683429E-03 
1712	 1.73624190499656E-03 
1713	 1.58178659314137E-03 
1714	 1.42010024265078E-03 
1715	 1.34614818413915E-03 
1716	 1.31918781142147E-03 
1717	 1.3434524703845E-03 
1718	 1.38935608986769E-03 
1719	 1.01048473182391E-03 
1720	 7.92430055396645E-04 
1721	 1.33101241113154E-03 
1722	 1.94267371172057E-03 
1723	 2.24872300423914E-03 
1724	 2.20586125834217E-03 
1725	 1.79781617798402E-03 
1726	 1.27144133520316E-03 
1727	 1.29384119490628E-03 
1728	 2.50054374939649E-03 
1729	 2.55728280392878E-03 
1730	 1.42922099745108E-03 
1731	 1.80232572767226E-03 
1732	 1.72161994691163E-03 
1733	 1.13983302002998E-03 
1734	 2.07204872117487E-03 
1735	 1.97304191858263E-03 
1736	 6.12556123636104E-04 
1737	 8.6435126414742E-04 
1738	 1.76269472443859E-03 
1739	 1.54484326526971E-03 
1740	 1.2019301476406E-03 
1741	 1.00052694089394E-03 
1742	 8.37698401505192E-04 
1743	 1.40180556154626E-03 
1744	 2.15981365461504E-03 
1745	 2.09408916511906E-03 
1746	 8.33112805982094E-04 
1747	 6.3761924529634E-04 
1748	 1.38224341534924E-03 
1749	 1.72282323783498E-03 
1750	 2.35776907693435E-03 
1751	 2.2913163933813E-03 
1752	 1.33846014480718E-03 
1753	 1.1682857737769E-03 
1754	 1.26527504296644E-03 
1755	 1.05944432926918E-03 
1756	 1.12323772514395E-03 
1757	 1.27550926689074E-03 
1758	 1.11480685981106E-03 
1759	 2.07332491135488E-03 
1760	 2.23307807133322E-03 
1761	 0.001205730297693 
1762	 7.82624419442658E-04 
1763	 8.2331834213407E-04 
1764	 1.14847658622184E-03 
1765	 2.00775535814137E-03 
1766	 2.10493692156622E-03 
1767	 1.13285345655059E-03 
1768	 9.81765333542897E-04 
1769	 9.16876053579727E-04 
1770	 6.96853801601194E-04 
1771	 1.31687982335104E-03 
1772	 1.08730018430709E-03 
1773	 2.76295687612074E-04 
1774	 1.06403074682824E-03 
1775	 1.56098250148738E-03 
1776	 1.52345847658442E-03 
1777	 1.41921514874636E-03 
1778	 1.52753419373798E-03 
1779	 1.41005416632726E-03 
1780	 1.44618805361479E-03 
1781	 1.88413672706125E-03 
1782	 1.82747743128372E-03 
1783	 1.34222101558055E-03 
1784	 1.32781888836197E-03 
1785	 1.82092853266698E-03 
1786	 1.80815713315339E-03 
1787	 1.19728572772467E-03 
1788	 1.5714698696032E-04 
1789	-1.86611723937208E-03 
1790	-2.11735595548282E-03 
1791	 1.04305866966705E-04 
1792	 5.41467275704209E-03 
1793	 6.14664508837152E-03 
1794	 1.44965880316909E-03 
1795	 5.10587986926014E-04 
1796	 1.30169467184021E-03 
1797	 2.03984374507871E-03 
1798	 7.45432702375824E-03 
1799	 8.64967613616415E-03 
1800	 4.66028976168144E-04 
1801	-1.40965588098337E-03 
1802	 5.59336072005207E-03 
1803	 7.2877399263172E-03 
1804	 8.76960581764052E-03 
1805	 9.48630211742836E-03 
1806	 5.2290846903898E-03 
1807	-4.41724195088602E-03 
1808	-2.11734666734354E-02 
1809	-3.42218686030323E-02 
1810	-7.03894291471492E-02 
1811	-7.98986053533881E-02 
1812	-3.79781259334908E-02 
1813	-1.40020692679639E-02 
1814	 5.49640371131232E-02 
1815	 7.69059673684638E-02 
1816	 5.03342778404075E-02 
1817	-9.13357567166397E-02 
1818	-0.264666837140005 
1819	-0.166883726158219 
1820	-0.183361087186737 
1821	-3.58546968440685E-02 
1822	 0.142570950253167 
1823	 3.51200450802037E-02 
1824	-3.66719516826635E-02 
1825	 0.176901991992171 
1826	 0.371412902853298 
1827	 0.413068096177945 
1828	 0.275105019561597 
1829	 1.97773318769284E-02 
1830	-4.82173478275123E-02 
1831	-6.0567106224983 
1832	 3.65759560131504 
1833	 0.722831744235463 
1834	 0.391655193966745 
1835	-0.151260887340152 
1836	-0.357624192151233 
1837	-0.274814931601657 
1838	-0.449581255306328 
1839	 1.70596412380303 
1840	-1.18414218206182 
1841	-3.0909751790387 
1842	-1.04431688187296 
1843	-0.728303219418209 
1844	-0.827586383755265 
1845	-0.757584409599183 
1846	-0.131804819253195 
1847	 1.59773568250279E-02 
1848	-0.423771272105586 
1849	 0.17392365878166 
1850	 0.406900070877373 
1851	 0.165189973023263 
1852	 1.87008884319965E-02 
1853	 3.93941323210526 
1854	 0.831137428197384 
1855	 0.656956822329126 
1856	 0.624515994038714 
1857	 0.276893825066139 
1858	-5.93343798698524E-03 
1859	 3.85384331848864 
1860	 3.14487627055147 
1861	-0.245851718567458 
1862	-0.16600174325518 
1863	 1.18989576426199 
1864	 121.074917098256 
1865	 11.069037691498 
1866	 3.99674759773856 
1867	 4.32200957527295 
1868	 1.00918307980848 
1869	 0.662231383328686 
1870	 1.31521456349633 
1871	 3.92679356098058 
1872	 3.15165683166409 
1873	 1.34703674331411 
1874	 6.62363516649325E-02 
1875	-0.49919496681221 
1876	-0.753091291855446 
1877	-0.759747648233605 
1878	-0.471888615461555 
1879	 0.917946498752626 
1880	 1.0719901294934 
1881	 0.628603601361485 
1882	 0.541842408519099 
1883	 0.800536478630326 
1884	 0.830620927136809 
1885	-1.0023271711155 
1886	 17.8698668892689 
1887	-1.19263381436155 
1888	-0.757136677629641 
1889	-0.877265973888477 
1890	-0.974620394660593 
1891	-0.699771685544188 
1892	-0.424491268510483 
1893	 2.50251938170513 
1894	 1.85587706792239 
1895	-0.204398138976332 
1896	-0.131999916509231 
1897	-0.257938222040621 
1898	-0.973997884707176 
1899	-0.717446822412682 
1900	-0.581536177861868 
1901	-0.254590196438334 
1902	-3.30145706311255E-02 
1903	 0.708792208663037 
1904	 40.4477151614712 
1905	-2.67939147574726 
1906	-1.85523006356839 
1907	-0.452498548206217 
1908	-2.34871949113744 
1909	 2.0454938625047 
1910	 20.298560410024 
1911	-2.46028344819957 
1912	-3.0375290338038 
1913	-8.40172575499405 
1914	-11.7514309457107 
1915	-26.5114792192746 
1916	 2.33956069963653 
1917	 2.95686012825875 
1918	 9.49000898754245 
1919	 3.3230787047985 
1920	 1.88780472407139 
1921	 2.20230565874883 
1922	 3.38054451352866 
1923	-135.063589196327 
1924	 5.65148290626298 
1925	 1.65341247116673 
1926	 1.27930299041221 
1927	 1.37276631204001 
1928	 1.39701968404637 
1929	 1.24498357689153 
1930	 1.08538211900719 
1931	 0.713117587380733 
1932	 0.526654625841816 
1933	 0.477896010856507 
1934	 0.272650314742253 
1935	 0.124319613614073 
1936	 0.169567784387012 
1937	 0.212482436124404 
1938	 0.209894608642832 
1939	 0.170555120671909 
1940	 0.134326490618288 
1941	 6.80877859437616E-02 
1942	-1.88261077011738E-03 
1943	 9.67164906402649E-05 
1944	 3.98723473587596E-02 
1945	 5.18085325506454E-02 
1946	 7.26635031908692E-02 
1947	 0.065762774162492 
1948	 2.94644204882035E-02 
1949	 1.67549780753317E-02 
1950	-4.60100582126373E-03 
1951	-1.27971969108396E-02 
1952	-1.14576531510384E-02 
1953	 4.63428229505849E-03 
1954	 3.99554913714257E-03 
1955	 7.61707686649885E-03 
1956	 0.012614655373808 
1957	 9.20878427534975E-03 
1958	 7.0411092793739E-03 
1959	 3.26174163785897E-03 
1960	-1.88064459276201E-03 
1961	 8.04750374934996E-04 
1962	 5.52684618360666E-03 
1963	 6.39069405508092E-03 
1964	 9.33772554409829E-03 
1965	 8.57117142181818E-03 
1966	 6.91311721614958E-03 
1967	 3.07031974353013E-03 
1968	 3.68918743221003E-03 
1969	 4.84349167813391E-03 
1970	 4.88318368327405E-03 
1971	 6.04881652539544E-03 
1972	 7.35515529519555E-03 
1973	 4.87444602843898E-03 
1974	 2.00517027101347E-03 
1975	 1.29053410660714E-03 
1976	 1.49407350422299E-04 
1977	-2.17124251206566E-04 
1978	 7.07530788311527E-04 
1979	 1.34461954143412E-03 
1980	 2.03201870294597E-03 
1981	 2.18450833365365E-03 
1982	 2.27677780170293E-03 
1983	 2.01273089572388E-03 
1984	 2.60509784446867E-03 
1985	 4.00959344279474E-03 
1986	 0.004391135270951 
1987	 4.83790422064922E-03 
1988	 4.48622339670252E-03 
1989	 2.52900326664315E-03 
1990	 1.52467640027377E-03 
1991	 1.40289402233766E-03 
1992	 1.37324012482327E-03 
1993	 1.32080918151658E-03 
1994	 1.41648926063273E-03 
1995	 1.49831357896183E-03 
1996	 3.09221520275187E-03 
1997	 4.66153637683053E-03 
1998	 4.76154117531899E-03 
1999	 6.92064688357693E-03 
2000	 7.39000706887449E-03 
2001	 3.95274578578945E-03 
2002	 2.57569931126238E-03 
2003	 2.81652043372615E-03 
2004	 0.003722291845725 
2005	 3.33496617108798E-03 
2006	 2.05648429425235E-03 
2007	 1.21171858898422E-04 
2008	-4.43122845787199E-03 
2009	-5.12681644316862E-03 
2010	 9.96365852344852E-04 
2011	 2.66201660868391E-03 
2012	 3.37000340610026E-03 
2013	 2.56912339485785E-03 
2014	 4.35182157113575E-03 
2015	 4.61702999289291E-03 
2016	 4.71311297660222E-03 
2017	 4.73114217798999E-03 
2018	 4.15082756677071E-03 
2019	 5.7695592493286E-03 
2020	 5.6898175351718E-03 
2021	 4.27371684388859E-03 
2022	 3.58716183958687E-03 
2023	 1.57601910706052E-03 
2024	 4.04373387664037E-04 
2025	-1.32802310416545E-04 
2026	 3.99233366110121E-04 
2027	 1.49480914360615E-03 
2028	 1.69732349464779E-03 
2029	 2.2615709224791E-03 
2030	 2.92768374507704E-03 
2031	 3.10512100830906E-03 
2032	 2.74901291713727E-03 
2033	 3.02798838584756E-03 
2034	 3.36105757719193E-03 
2035	 3.46412889993698E-03 
2036	 3.10390483414616E-03 
2037	 1.57440957608246E-03 
2038	 9.09491970321187E-04 
2039	 7.56682548142015E-04 
2040	 4.24510986979184E-04 
2041	 8.11076210610644E-04 
2042	 3.07332983333191E-03 
2043	 3.75483571382115E-03 
2044	 3.97646798987933E-03 
2045	 3.84779591507294E-03 
2046	 3.46277412886696E-03 
2047	 2.46616848840181E-03 
2048	 1.55026233854574E-03 
2049	 1.9229620466743E-03 
2050	 2.3995093170365E-03 
2051	 3.23294916979354E-03 
2052	 3.98582294182208E-03 
2053	 3.68061233600513E-03 
2054	 2.94960236844923E-03 
2055	 2.38748893154629E-03 
2056	 2.50811002644526E-03 
2057	 3.56901335855168E-03 
2058	 3.77229996479177E-03 
2059	 4.16107635584081E-03 
2060	 3.98035446248491E-03 
2061	 2.89817558627306E-03 
2062	 2.05500508777365E-03 
2063	 2.11800453579919E-03 
2064	 2.61407759528331E-03 
2065	 1.57821284756568E-03 
2066	 8.51617433711955E-04 
2067	 6.71923022978894E-04 
2068	 3.47967385762891E-05 
2069	 9.78558132109727E-04 
2070	 1.98509299986224E-03 
2071	 1.71966344512826E-03 
2072	 9.8402134863572E-04 
2073	 4.66542912503608E-04 
2074	-6.61718669102956E-04 
2075	-7.54760050662112E-04 
2076	-3.81496467525073E-04 
2077	 8.24219347332316E-05 
2078	 1.55207646442037E-03 
2079	 1.98258384795322E-03 
2080	 2.31446615307378E-03 
2081	 1.57640175131169E-03 
2082	 9.22764247888893E-04 
2083	 2.39130520252367E-04 
2084	-3.42553207637481E-04 
2085	-1.77034880460448E-05 
2086	 6.79704814039201E-04 
2087	 1.29817480991554E-03 
2088	 1.32892305400637E-03 
2089	 9.61147776005277E-04 
2090	 1.43488455049133E-03 
2091	 1.56038780703456E-03 
2092	 1.46032647504238E-03 
2093	 1.37406344672987E-03 
2094	 1.85746496873611E-03 
2095	 2.48786599722027E-03 
2096	 2.42670864420357E-03 
2097	 2.38392460795946E-03 
2098	 2.82732008846358E-03 
2099	 2.89359221934235E-03 
2100	 2.90952413472599E-03 
2101	 4.2945484067986E-03 
2102	 4.92198111886995E-03 
2103	 3.89860358559344E-03 
2104	 2.85880259600497E-03 
2105	 2.69121499322065E-03 
2106	 2.93487364226793E-03 
2107	 3.08881825300288E-03 
2108	 2.74708677302913E-03 
2109	 2.15106546105181E-03 
2110	 1.67585488964708E-03 
2111	 1.30713571188426E-03 
2112	 1.55708306888193E-03 
2113	 1.50802205484881E-03 
2114	 6.02865336328345E-04 
2115	 5.82218545648707E-04 
2116	 1.46266439482734E-03 
2117	 1.9674032041793E-03 
2118	 2.80787067150568E-03 
2119	 2.98093444469672E-03 
2120	 2.83829140369178E-03 
2121	 2.17864935951291E-03 
2122	 1.8028312511339E-03 
2123	 3.21104301051278E-03 
2124	 3.95656482142265E-03 
2125	 3.51080478143413E-03 
2126	 3.15324203459214E-03 
2127	 1.72750312495913E-03 
2128	 8.85260193354275E-04 
2129	 1.69319968795061E-03 
2130	 2.05495315168023E-03 
2131	 2.01681216985526E-03 
2132	 1.87575165786607E-03 
2133	 1.5469000577752E-03 
2134	 1.42851249667438E-03 
2135	 1.53291039566293E-03 
2136	 1.42623808011556E-03 
2137	 8.46566819176677E-04 
2138	 7.62731409895827E-04 
2139	 1.14537698409956E-03 
2140	 1.27527112071078E-03 
2141	 1.7903700600711E-03 
2142	 1.92095599273515E-03 
2143	 1.83048615566241E-03 
2144	 1.0212633714771E-03 
2145	 8.50148008552986E-04 
2146	 1.70199926132556E-03 
2147	 2.16685216194438E-03 
2148	 1.65665240244344E-03 
2149	 1.62387295395773E-03 
2150	 2.03541642384602E-03 
2151	 2.20530634717364E-03 
2152	 2.40095300986061E-03 
2153	 1.85408187072422E-03 
2154	 2.98024314946709E-04 
2155	-5.83073140143574E-04 
2156	-7.27848638197852E-04 
2157	-5.203646297051E-04 
2158	 4.70712470005344E-04 
2159	 1.18558512527911E-03 
2160	 2.32532476695715E-03 
2161	 2.86428832069479E-03 
2162	 3.01230338500441E-03 
2163	 2.93725136328458E-03 
2164	 2.65178396266961E-03 
2165	 2.52168973418896E-03 
2166	 2.18477215741571E-03 
2167	 1.94811810889222E-03 
2168	 1.87684053337857E-03 
2169	 1.66839027549272E-03 
2170	 1.50028412038302E-03 
2171	 6.08198684072674E-04 
2172	 1.0252931087605E-03 
2173	 1.63849566629055E-03 
2174	 1.16866304175263E-03 
2175	 2.40815507951808E-03 
2176	 4.04476812440085E-03 
2177	 3.65827603800394E-03 
2178	 4.72375161202984E-03 
2179	 5.9719425596929E-03 
2180	 4.39631108936434E-03 
2181	 3.60351712803823E-03 
2182	 4.41866995683707E-03 
2183	 4.69437719151731E-03 
2184	 5.59701349207456E-03 
2185	 6.30436223300902E-03 
2186	 5.65278353042361E-03 
2187	 2.43238219391909E-03 
2188	 1.59946590064631E-03 
2189	 7.48383607148775E-04 
2190	 8.85343525997599E-04 
2191	 3.29274573911155E-03 
2192	 3.59255726633332E-03 
2193	 3.29212413224279E-03 
2194	 3.05638381999835E-03 
2195	 1.54856138310522E-03 
2196	 1.0836476762271E-03 
2197	 1.82345617887487E-03 
2198	 1.72570235385306E-03 
2199	 1.42581877755496E-03 
2200	 5.72318184532552E-04 
2201	 1.2657450984917E-03 
2202	 1.60079685567463E-03 
2203	 1.83088938793265E-03 
2204	 1.19372946724396E-03 
2205	-9.32704316929325E-04 
2206	-1.11623349879931E-03 
2207	-5.1339539483181E-04 
2208	-1.0242716488519E-04 
2209	 7.83670685806469E-04 
2210	 4.07537306508709E-04 
2211	 9.08356899651347E-04 
2212	 2.11668939624801E-03 
2213	 1.90013556470202E-03 
2214	 1.81403531843842E-03 
2215	 2.66215901824389E-03 
2216	 2.55166741958401E-03 
2217	 2.6167283012077E-03 
2218	 4.40277974170335E-03 
2219	 4.88668347169161E-03 
2220	 3.33830700519234E-03 
2221	 2.96404751355875E-03 
2222	 3.16086250031041E-03 
2223	 2.65728783453302E-03 
2224	 2.04431146582247E-03 
2225	 2.29908386351775E-03 
2226	 3.04400480461388E-03 
2227	 2.78736140816127E-03 
2228	 2.47887557381836E-03 
2229	 1.67793064964569E-03 
2230	-6.61890980277213E-04 
2231	-1.20803587229534E-03 
2232	-4.46655690298883E-04 
2233	-1.05903784903031E-03 
2234	-2.38791484160238E-03 
2235	-1.89919109845894E-03 
2236	-4.54327904112547E-04 
2237	-2.13599356380366E-04 
2238	 1.9139076143764E-03 
2239	 5.21878374813232E-03 
2240	 3.82071157503034E-03 
2241	 1.81629870204524E-03 
2242	 1.50673083225214E-03 
2243	 3.75325713150027E-04 
2244	-4.40675080067016E-04 
2245	 1.81908067651935E-03 
2246	 5.58166874774014E-03 
2247	 7.25996689341946E-03 
2248	 6.92867743664468E-03 
2249	 4.63167454017309E-03 
2250	 2.07115734668182E-03 
2251	 5.09879989515505E-04 
2252	 6.4952437059047E-05 
2253	 7.09556755607269E-04 
2254	 2.87590406820093E-03 
2255	 4.77583050928637E-03 
2256	 5.58715313632876E-03 
2257	 8.23918730831826E-03 
2258	 8.39303416312639E-03 
2259	 4.82586373915296E-03 
2260	 2.9230355163773E-03 
2261	 9.72834189010038E-04 
2262	 1.07556129093739E-04 
2263	-9.1474152919172E-04 
2264	-8.48544760840182E-04 
2265	 1.63767498308749E-03 
2266	 1.86930751278672E-03 
2267	 1.40620744509453E-03 
2268	 1.8679841196623E-03 
2269	 1.25027161569088E-03 
2270	 1.45588718830657E-03 
2271	 3.46978812243577E-03 
2272	 3.74306390305653E-03 
2273	 3.27508817943883E-03 
2274	 2.97156057825379E-03 
2275	 1.29392180539656E-03 
2276	 4.45893733166476E-04 
2277	-2.5302597102846E-04 
2278	 1.01747217152441E-04 
2279	 2.68375675500914E-03 
2280	 3.67163871762602E-03 
2281	 4.84474441403297E-03 
2282	 4.74187041836426E-03 
2283	 3.42084665488841E-03 
2284	 1.34726734785681E-03 
2285	 3.45359441256814E-03 
2286	 4.0240701368037E-03 
2287	 4.18174371798204E-03 
2288	 4.72897302274022E-03 
2289	 3.01025646066152E-03 
2290	 3.68052460457932E-03 
2291	 5.4468416914715E-03 
2292	 7.59124169998908E-03 
2293	 8.26009713531252E-03 
2294	 5.84721357508404E-03 
2295	 3.49325346770123E-03 
2296	 1.65502334118388E-03 
2297	 7.52822859202818E-04 
2298	 3.55423584588801E-04 
2299	 2.21717571417885E-03 
2300	 5.26634837161868E-03 
2301	 7.0599896208888E-03 
2302	 8.59417582089886E-03 
2303	 7.47777927452492E-03 
2304	 3.72799169166833E-03 
2305	 1.14873239321056E-03 
2306	-1.75373126423901E-04 
2307	 1.24721069918872E-03 
2308	 2.53671639507745E-03 
2309	-8.63198188192831E-05 
2310	 4.63419684291984E-04 
2311	 7.79627590428247E-04 
2312	 1.94698870602241E-05 
2313	 3.23618729641063E-03 
2314	 4.87825329017372E-03 
2315	 3.20536022416081E-03 
2316	 1.92569251268677E-03 
2317	 1.02184818776804E-03 
2318	 1.06539849295158E-04 
2319	 3.58130937074283E-03 
2320	 8.10094742589784E-03 
2321	 7.48953008370333E-03 
2322	 6.23989057388047E-03 
2323	 6.65491223297291E-03 
2324	 2.53243214550956E-03 
2325	 0.002169154609264 
2326	 5.92825171220305E-03 
2327	 3.19744485277608E-03 
2328	 2.86828568949471E-03 
2329	 4.74253791951414E-03 
2330	 4.15082474589925E-03 
2331	 0.010437023048134 
2332	 0.015069120378181 
2333	 6.34453182921141E-03 
2334	 5.64837824498103E-03 
2335	 1.15004195022874E-02 
2336	 9.08995995309303E-03 
2337	 1.48895008433499E-02 
2338	 2.25649833742768E-02 
2339	 0.01396786508238 
2340	 5.42533867611644E-03 
2341	 1.06540622866333E-02 
2342	 8.77955753882153E-03 
2343	 9.91135406553995E-04 
2344	 5.07556058429635E-03 
2345	 6.76967759558517E-03 
2346	-4.84836614591477E-04 
2347	-6.63331230613947E-04 
2348	 1.96866789146159E-03 
2349	-2.91628677246511E-03 
2350	 4.84734739508033E-03 
2351	 2.21221144663091E-02 
2352	 2.69234524467309E-02 
2353	 2.84246587600615E-02 
2354	 2.45348655108081E-02 
2355	 8.36987330716858E-03 
2356	-3.83160820159829E-03 
2357	-0.01138663011729 
2358	-1.11236671889284E-02 
2359	-4.80686602048006E-03 
2360	 1.39308272134598E-03 
2361	 1.35675737024742E-02 
2362	 9.35982295124277E-03 
2363	-1.17077372817608E-02 
2364	-1.59434198962609E-02 
2365	-1.16325490929488E-02 
2366	-1.89950024533411E-02 
2367	-1.50483613507127E-02 
2368	-7.13912667556788E-03 
2369	-2.07254261511686E-02 
2370	-2.21291339060339E-02 
2371	-0.010867116743452 
2372	-1.76219083711866E-02 
2373	-3.09112129509131E-02 
2374	-3.76099513381599E-02 
2375	-2.91912162280516E-02 
2376	-2.10582717880221E-02 
2377	-1.35287943227231E-02 
2378	 1.17207459961107E-02 
2379	 1.56874527984417E-02 
2380	 1.05417838601853E-02 
2381	 2.29391795059196E-02 
2382	 1.03832620742601E-02 
2383	-1.34133376917614E-02 
2384	-1.05712421001714E-02 
2385	-2.19466670928945E-03 
2386	 6.54653221480155E-03 
2387	 3.27031741913985E-02 
2388	 2.96614207630984E-02 
2389	 1.66082792104286E-02 
2390	 2.80268072354119E-02 
2391	 2.25436277951291E-02 
2392	 2.01338334971442E-02 
2393	 2.11580423083361E-02 
2394	 7.9162295834823E-03 
2395	-8.64543740591983E-04 
2396	 1.51070273150894E-02 
2397	 4.40037077001883E-02 
2398	 6.32233866728021E-02 
2399	 7.08640467268299E-02 
2400	 4.18257160302256E-02 
2401	-8.52456721038259E-03 
2402	-1.96321544292611E-02 
2403	 4.43990184552897E-04 
2404	 0.031142813956493 
2405	 4.65393261681061E-02 
2406	 1.48969345424745E-02 
2407	-3.16512619518638E-03 
2408	-0.016525801399686 
2409	-2.43650802168197E-02 
2410	-3.35563587788866E-02 
2411	-5.85487211126035E-02 
2412	-8.88777646549661E-02 
2413	-9.58373234563933E-02 
2414	-3.81513248269509E-02 
2415	-3.09475227700987E-02 
2416	-1.51422984161439E-02 
2417	 4.89415830163612E-02 
2418	 0.031818342083303 
2419	-4.59405086193901E-02 
2420	-9.18170855158558E-02 
2421	-9.91481161779889E-02 
2422	-6.85760945097628E-02 
2423	 5.31729702935447E-02 
2424	 0.107905657404824 
2425	 7.29479891331596E-02 
2426	 8.07155024794497E-02 
2427	 7.56825188723707E-02 
2428	 6.28138902749254E-02 
2429	 3.82082801286222E-02 
2430	-2.14078824965653E-02 
2431	-1.75861831708522E-02 
2432	-1.77481573981252E-02 
2433	-7.77868016119411E-02 
2434	-6.13133614463235E-02 
2435	-4.25425837852326E-02 
2436	-6.46402183606624E-02 
2437	 6.81460518630135E-03 
2438	 6.02137496527921E-02 
2439	 0.119925307518758 
2440	 0.146425964415772 
2441	 0.122256562787828 
2442	 0.178299395821551 
2443	 0.170511327502979 
2444	 0.161304970937347 
2445	 0.319745316583825 
2446	 0.429343334804538 
2447	 6.42914703100559E-02 
2448	-4.69599405364525E-02 
2449	 0.483368639357895 
2450	 0.52575948917357 
2451	-1.46307076788542E-02 
2452	 0.403052459280295 
2453	 0.299704611718461 
2454	 0.426840718451434 
2455	 0.611137149065894 
2456	 0.23488679871547 
2457	-3.77751800698321E-02 
2458	 8.64233151497899E-02 
2459	 0.360855914878718 
2460	 0.425247011468469 
2461	 0.264421150924119 
2462	 5.56976059219348E-02 
2463	-5.93949243083637E-02 
2464	-0.177014714351183 
2465	-0.124828418495205 
2466	 0.153820284954928 
2467	-0.107715663011553 
2468	-1.09533905416854 
2469	-5.56360729526148 
2470	-1.05118520419959 
2471	-1.18852904475335 
2472	-0.914439499235528 
2473	-0.565890462472722 
2474	-0.21763398985786 
2475	-0.176039776583678 
2476	-0.338495771358091 
2477	 1.3963460320861 
2478	 2.38221916569268 
2479	-2.71583246673684 
2480	-0.64800913735946 
2481	-0.358820307658162 
2482	 0.142043879196901 
2483	 0.175096841593027 
2484	 1.71658033556359E-02 
2485	 0.207902893083847 
2486	 0.362029006175556 
2487	 0.380198076288563 
2488	 0.341451100668746 
2489	 0.188687054380694 
2490	 3.00235853079589E-02 
2491	-5.71734486039554E-02 
2492	-2.32063055549629E-02 
2493	-0.238111588870784 
2494	-1.73113448360419E-02 
2495	-2.95265748948681E-02 
2496	-4.78627084227957E-03 
2497	-0.206025525225522 
2498	-0.619082673413039 
2499	-0.275845760118162 
2500	-6.55938143026104E-02 
