Wavelength	rt0718close00004.asd
350	 1.06467800552986E-02 
351	 1.02884046855732E-02 
352	 0.010492430398309 
353	 1.11346228661341E-02 
354	 0.011799703845453 
355	 1.17955383017264E-02 
356	 1.15015740375351E-02 
357	 1.14613704527704E-02 
358	 1.19491136292438E-02 
359	 1.20072649605379E-02 
360	 1.15280718571954E-02 
361	 1.12616203696829E-02 
362	 1.22212699850893E-02 
363	 1.22860614189194E-02 
364	 1.19618482191152E-02 
365	 1.19236640415632E-02 
366	 1.25889041319924E-02 
367	 1.28344066350937E-02 
368	 0.012702947451658 
369	 1.25832584791931E-02 
370	 1.28870032008392E-02 
371	 1.27726194278958E-02 
372	 1.23983501584814E-02 
373	 1.24683760706715E-02 
374	 1.27550456800767E-02 
375	 1.30119911443776E-02 
376	 1.32969807968876E-02 
377	 1.40666604672011E-02 
378	 1.37296896574849E-02 
379	 1.32460792135374E-02 
380	 1.36535778262231E-02 
381	 1.43082080062219E-02 
382	 1.44570117729001E-02 
383	 1.41856261960895E-02 
384	 1.40863748342947E-02 
385	 1.48107594044624E-02 
386	 1.53212629253932E-02 
387	 0.015243395916576 
388	 1.51044322084462E-02 
389	 0.015172639933587 
390	 1.52930053495554E-02 
391	 1.53231431343287E-02 
392	 1.53483669432774E-02 
393	 1.58402272301103E-02 
394	 1.63048742699055E-02 
395	 1.61638697823739E-02 
396	 1.63489397243355E-02 
397	 1.65207228772082E-02 
398	 1.65993796673837E-02 
399	 1.67795122818994E-02 
400	 1.68863589601388E-02 
401	 1.69512195740303E-02 
402	 1.70399963701991E-02 
403	 1.72359713694805E-02 
404	 1.73453843212957E-02 
405	 1.74001471855152E-02 
406	 1.75186621830954E-02 
407	 1.77875325586027E-02 
408	 0.017961765654959 
409	 1.79302331345001E-02 
410	 1.77586140048919E-02 
411	 1.81688221544505E-02 
412	 1.85763091584653E-02 
413	 1.85549644752752E-02 
414	 1.86030284850929E-02 
415	 1.87581061563359E-02 
416	 1.89847203836251E-02 
417	 1.91968018948278E-02 
418	 0.019286060189105 
419	 1.95213453427178E-02 
420	 1.99035406808592E-02 
421	 2.01275025119194E-02 
422	 2.00509323764349E-02 
423	 2.01021908329064E-02 
424	 2.05075216511349E-02 
425	 2.05820159253043E-02 
426	 2.08536002634662E-02 
427	 2.12064874851923E-02 
428	 2.13019131571462E-02 
429	 2.15950915118524E-02 
430	 2.18696307046259E-02 
431	 2.20558908034795E-02 
432	 2.23255374350658E-02 
433	 2.26381413727834E-02 
434	 2.28750366781842E-02 
435	 2.30175781045777E-02 
436	 2.34098057935589E-02 
437	 2.36454027810248E-02 
438	 2.38123020180709E-02 
439	 2.42104245373094E-02 
440	 2.44329119567698E-02 
441	 2.46555400012178E-02 
442	 0.024964878870382 
443	 2.52256475484814E-02 
444	 2.54921334115504E-02 
445	 2.57497493990305E-02 
446	 2.59750119382853E-02 
447	 2.61750679788802E-02 
448	 2.63874948544029E-02 
449	 2.65976224041017E-02 
450	 0.026758400701675 
451	 0.026914956462656 
452	 2.71265532337728E-02 
453	 2.73790684818227E-02 
454	 2.75047105527598E-02 
455	 2.76398828985217E-02 
456	 2.77970605996751E-02 
457	 2.79516225211729E-02 
458	 2.81427722548729E-02 
459	 2.82200061835451E-02 
460	 2.82438655795408E-02 
461	 2.84764284457441E-02 
462	 0.028654975655665 
463	 2.87322456773169E-02 
464	 2.87603678870834E-02 
465	 2.89403552595102E-02 
466	 2.90766249647879E-02 
467	 2.91739199507256E-02 
468	 2.93282465795158E-02 
469	 2.95316523427995E-02 
470	 2.96271916316357E-02 
471	 2.96488339006089E-02 
472	 2.98955107132914E-02 
473	 3.00980882771826E-02 
474	 3.02274617347987E-02 
475	 3.03329360139311E-02 
476	 3.05005093780942E-02 
477	 3.06658331536574E-02 
478	 3.08691255156968E-02 
479	 3.11910898644367E-02 
480	 3.13127757834553E-02 
481	 3.14303914091774E-02 
482	 3.16653937226745E-02 
483	 3.18419095230121E-02 
484	 3.20675474557045E-02 
485	 3.22939232735112E-02 
486	 3.24720813056739E-02 
487	 3.28667315865626E-02 
488	 3.31400408148754E-02 
489	 3.32713834766799E-02 
490	 3.35609443076896E-02 
491	 3.37846903827766E-02 
492	 3.40054066896922E-02 
493	 3.43007568955016E-02 
494	 3.46538537649158E-02 
495	 3.49829543991449E-02 
496	 3.52379859087188E-02 
497	 3.54247049697404E-02 
498	 3.58195069486108E-02 
499	 3.62191784418879E-02 
500	 0.036511918061168 
501	 3.68043404203596E-02 
502	 3.70877003381492E-02 
503	 3.74069928456406E-02 
504	 3.77959310539484E-02 
505	 3.82100974710723E-02 
506	 3.85370013085086E-02 
507	 3.88470605866331E-02 
508	 3.93225499133398E-02 
509	 3.94939285238147E-02 
510	 3.97031368197463E-02 
511	 4.01848219184252E-02 
512	 4.06396803431349E-02 
513	 4.10126949622574E-02 
514	 4.13505311643748E-02 
515	 4.17584787839568E-02 
516	 0.042311963946998 
517	 4.28250244374331E-02 
518	 4.32152353960206E-02 
519	 4.35617430979885E-02 
520	 4.39383301738741E-02 
521	 4.43594686867969E-02 
522	 4.48249511136887E-02 
523	 4.53537613536922E-02 
524	 0.045843928528665 
525	 4.62827496642061E-02 
526	 4.67279620197863E-02 
527	 4.72159469856605E-02 
528	 4.77008480891781E-02 
529	 4.81570668666565E-02 
530	 4.86258305235086E-02 
531	 4.90828708515213E-02 
532	 4.95620360546008E-02 
533	 5.00926325772011E-02 
534	 5.05549638025179E-02 
535	 5.10670215221582E-02 
536	 5.16312425387598E-02 
537	 0.052103463266594 
538	 5.25923769594208E-02 
539	 0.053118024361072 
540	 5.36717959515306E-02 
541	 5.42342121110624E-02 
542	 5.47389700848973E-02 
543	 5.52192763199737E-02 
544	 5.57605720631297E-02 
545	 5.62614526917013E-02 
546	 5.67923158801679E-02 
547	 5.73646733474652E-02 
548	 5.78337350180827E-02 
549	 5.83378978605853E-02 
550	 0.058854804612524 
551	 5.93311013663273E-02 
552	 5.98733178131185E-02 
553	 6.03894468842685E-02 
554	 0.060862320130532 
555	 6.13679263936204E-02 
556	 6.19113338424724E-02 
557	 6.24544972196312E-02 
558	 6.29529235455712E-02 
559	 6.33961556697381E-02 
560	 6.38803839081395E-02 
561	 6.43781071727727E-02 
562	 6.47958320485624E-02 
563	 6.52023314531748E-02 
564	 6.56278398657094E-02 
565	 6.60623585500479E-02 
566	 6.64337407323069E-02 
567	 6.67360058852986E-02 
568	 6.70546810724595E-02 
569	 6.74622036715433E-02 
570	 6.77493398351675E-02 
571	 6.79982623483114E-02 
572	 6.82676898303582E-02 
573	 6.85682067125039E-02 
574	 6.88009973547229E-02 
575	 6.90046314841221E-02 
576	 6.92135793856543E-02 
577	 6.93401047660369E-02 
578	 6.94592097004998E-02 
579	 6.95905722776452E-02 
580	 6.97091583326017E-02 
581	 6.97117015084655E-02 
582	 6.97665996742865E-02 
583	 6.99020631850229E-02 
584	 6.98272078697615E-02 
585	 6.97248388397017E-02 
586	 6.96253305881851E-02 
587	 6.95099974726712E-02 
588	 6.93814583604332E-02 
589	 6.92789795910975E-02 
590	 6.91596615223718E-02 
591	 6.88989919285643E-02 
592	 6.87420868338708E-02 
593	 0.068524605721638 
594	 6.81136446726198E-02 
595	 6.77241483109123E-02 
596	 6.72435837886689E-02 
597	 0.066705401131465 
598	 6.62070320590688E-02 
599	 6.55646078697412E-02 
600	 6.50077142838871E-02 
601	 6.46655255016586E-02 
602	 6.44092245088602E-02 
603	 6.42188305234068E-02 
604	 0.064072240412217 
605	 6.39687931182231E-02 
606	 6.39849517624376E-02 
607	 6.40090532745312E-02 
608	 6.40347322513424E-02 
609	 6.41638822776561E-02 
610	 0.064168775152226 
611	 6.41454639790338E-02 
612	 6.41872436129265E-02 
613	 0.064164377784117 
614	 6.41381273775508E-02 
615	 6.41374650409388E-02 
616	 6.41712884346672E-02 
617	 6.42405432782232E-02 
618	 6.42636622182877E-02 
619	 6.42087270726004E-02 
620	 0.064125513613954 
621	 6.41413976865468E-02 
622	 6.42184485708707E-02 
623	 6.42567823947763E-02 
624	 6.41885450833277E-02 
625	 6.40463763744275E-02 
626	 0.063934985960202 
627	 6.40047401936855E-02 
628	 0.064030501776668 
629	 6.40229386122417E-02 
630	 6.40260735488543E-02 
631	 6.40462986508449E-02 
632	 6.40280144187207E-02 
633	 6.39520239024905E-02 
634	 6.38461213430908E-02 
635	 6.39314066883605E-02 
636	 0.063985031716275 
637	 6.38996589051616E-02 
638	 6.37879645409458E-02 
639	 0.063803342604698 
640	 6.38191421386981E-02 
641	 6.37030608133926E-02 
642	 6.36861760517893E-02 
643	 6.36210432765427E-02 
644	 6.34912529737611E-02 
645	 6.33913875712233E-02 
646	 6.33032590381523E-02 
647	 6.32393371369003E-02 
648	 6.31843728891491E-02 
649	 6.30421787486727E-02 
650	 6.29795188141867E-02 
651	 6.28725291254951E-02 
652	 6.25404495003031E-02 
653	 6.21878267851766E-02 
654	 6.19026780970514E-02 
655	 0.061628059459717 
656	 6.11636981958607E-02 
657	 6.06868436016418E-02 
658	 6.03289466440742E-02 
659	 6.01207772068177E-02 
660	 5.99103751064246E-02 
661	 5.95985951538259E-02 
662	 5.93046901950129E-02 
663	 5.92566180219186E-02 
664	 5.91896350568323E-02 
665	 5.90685427276507E-02 
666	 5.89225828012096E-02 
667	 5.88405913134041E-02 
668	 5.87805424900728E-02 
669	 5.87134324932482E-02 
670	 5.86294383571236E-02 
671	 5.85910051668985E-02 
672	 5.86097194858599E-02 
673	 5.86291090245117E-02 
674	 5.85464881027171E-02 
675	 5.85739610064131E-02 
676	 5.86394002208717E-02 
677	 0.058654435791919 
678	 5.86260143962922E-02 
679	 5.86211989501554E-02 
680	 5.86597147914151E-02 
681	 5.87263705584544E-02 
682	 5.87602214058383E-02 
683	 5.87466315869422E-02 
684	 5.86929367770968E-02 
685	 5.86227452070907E-02 
686	 5.85417868744686E-02 
687	 5.84849355734137E-02 
688	 5.84622492491005E-02 
689	 5.83946247147981E-02 
690	 5.82286411610701E-02 
691	 0.057957825668229 
692	 5.76128289577225E-02 
693	 5.73593652104038E-02 
694	 5.70254277909936E-02 
695	 5.65607338796044E-02 
696	 0.056143687010629 
697	 5.56074062888273E-02 
698	 5.50148330983253E-02 
699	 5.44879998205473E-02 
700	 5.39062598092687E-02 
701	 5.32185672827815E-02 
702	 5.24843661987588E-02 
703	 5.18144317042077E-02 
704	 5.10618426790681E-02 
705	 0.050242269605541 
706	 0.049394222505791 
707	 4.85023471474967E-02 
708	 4.75267605321974E-02 
709	 4.64960734440237E-02 
710	 4.54390351507248E-02 
711	 4.42313004910272E-02 
712	 4.30021837461109E-02 
713	 4.17713835510167E-02 
714	 4.04012623543433E-02 
715	 0.03907178819407 
716	 3.76130506228207E-02 
717	 3.59870457480762E-02 
718	 3.45913422070823E-02 
719	 3.31873472662099E-02 
720	 3.19098405316685E-02 
721	 3.07328867726829E-02 
722	 2.94759176879434E-02 
723	 2.81757907129281E-02 
724	 2.69305436808003E-02 
725	 2.54968844679933E-02 
726	 2.40353301645939E-02 
727	 2.26147614865759E-02 
728	 2.12135337479802E-02 
729	 1.95045162314082E-02 
730	 1.78864657053622E-02 
731	 1.65698036703164E-02 
732	 0.015528631996262 
733	 1.45330523655807E-02 
734	 0.013712774574103 
735	 1.30881348518244E-02 
736	 1.24857853881081E-02 
737	 0.01208301377653 
738	 1.17969612254396E-02 
739	 1.15434796296776E-02 
740	 1.14201946886039E-02 
741	 1.12750675179725E-02 
742	 1.11738236579997E-02 
743	 1.12435910569528E-02 
744	 1.11167206466605E-02 
745	 1.10302641893189E-02 
746	 1.10658815649271E-02 
747	 1.10148066454144E-02 
748	 1.10489137564354E-02 
749	 1.10845052579567E-02 
750	 1.10351990837521E-02 
751	 1.10155807960868E-02 
752	 1.10262128177545E-02 
753	 1.10302064350042E-02 
754	 1.09875908963831E-02 
755	 1.10200611837154E-02 
756	 1.10743232961443E-02 
757	 0.011099861014106 
758	 1.10589067910974E-02 
759	 1.08712780890275E-02 
760	 1.07078913339782E-02 
761	 1.08803018037798E-02 
762	 1.11083238144888E-02 
763	 1.09859935106624E-02 
764	 1.09167834129426E-02 
765	 1.12837996186935E-02 
766	 1.13312754886444E-02 
767	 1.14142194920231E-02 
768	 1.15838765995562E-02 
769	 1.15860885413783E-02 
770	 1.16472573120312E-02 
771	 1.17357691578856E-02 
772	 1.18071794681717E-02 
773	 1.19178767545991E-02 
774	 1.21394467606983E-02 
775	 1.23166981038192E-02 
776	 1.22876259986678E-02 
777	 1.24811195885333E-02 
778	 1.26563011533918E-02 
779	 1.27659867233831E-02 
780	 1.29945033895719E-02 
781	 1.31884482552086E-02 
782	 1.33261405273142E-02 
783	 1.34514888737071E-02 
784	 1.37013056929919E-02 
785	 0.013961021614861 
786	 1.41550746059442E-02 
787	 0.014274300648041 
788	 1.45702980880241E-02 
789	 1.48119871798136E-02 
790	 1.49650976551779E-02 
791	 1.51788504912804E-02 
792	 1.55094140052899E-02 
793	 1.58890195488839E-02 
794	 1.62096877401468E-02 
795	 1.63238354750784E-02 
796	 1.65498182255331E-02 
797	 1.67538454164994E-02 
798	 1.68246172380057E-02 
799	 1.71838925795768E-02 
800	 1.73466291920081E-02 
801	 1.74322481718894E-02 
802	 1.78101571138879E-02 
803	 1.79341931715854E-02 
804	 1.79728279543126E-02 
805	 1.79931064798014E-02 
806	 1.78909374882098E-02 
807	 1.79937705414266E-02 
808	 1.81861580405434E-02 
809	 1.82518158334688E-02 
810	 1.79388936851672E-02 
811	 1.77609242113184E-02 
812	 1.76996987251155E-02 
813	 1.75390733568949E-02 
814	 1.73790109385953E-02 
815	 1.70367928240239E-02 
816	 1.65610627969651E-02 
817	 1.61943024087167E-02 
818	 1.60429024340686E-02 
819	 1.59073740036781E-02 
820	 1.55932894402341E-02 
821	 1.49453915379502E-02 
822	 1.42287510757032E-02 
823	 1.34995085751283E-02 
824	 1.28033582435155E-02 
825	 1.22654588260007E-02 
826	 1.15988098952531E-02 
827	 1.06868838758967E-02 
828	 9.63671668576203E-03 
829	 8.98219910155223E-03 
830	 8.40384129275788E-03 
831	 0.007874955818419 
832	 7.59239009251714E-03 
833	 7.20653633179154E-03 
834	 6.83924149879178E-03 
835	 6.60444212814152E-03 
836	 6.5249085176311E-03 
837	 6.33975416263327E-03 
838	 6.15742839616004E-03 
839	 6.10905384588487E-03 
840	 6.19125755001093E-03 
841	 6.0292213585501E-03 
842	 5.82095723108571E-03 
843	 5.84842121568752E-03 
844	 5.6521807161587E-03 
845	 5.49032376439588E-03 
846	 5.51164441140057E-03 
847	 5.69292174701977E-03 
848	 5.40491651500717E-03 
849	 5.19311232902583E-03 
850	 5.24422671287026E-03 
851	 5.12282778590881E-03 
852	 4.97918414457225E-03 
853	 4.89635507979239E-03 
854	 4.91574247877989E-03 
855	 5.01748013143627E-03 
856	 4.91917618786257E-03 
857	 4.72521905007283E-03 
858	 4.63053412545984E-03 
859	 4.72981565733703E-03 
860	 4.78436039722992E-03 
861	 4.6915702705678E-03 
862	 4.48476509197801E-03 
863	 4.4698693698236E-03 
864	 4.48667687254911E-03 
865	 4.46247022907406E-03 
866	 4.42595113012284E-03 
867	 0.004250453456551 
868	 4.10221386931619E-03 
869	 4.05486390972139E-03 
870	 4.01558284431549E-03 
871	 4.13660690783206E-03 
872	 4.26450750593616E-03 
873	 4.24238846094179E-03 
874	 4.05314386085763E-03 
875	 3.8687047466032E-03 
876	 3.78697445126869E-03 
877	 3.81477400082044E-03 
878	 3.7603354893156E-03 
879	 3.81151817575862E-03 
880	 3.78096732590822E-03 
881	 3.44752182111324E-03 
882	 3.39243884816237E-03 
883	 3.5667857688342E-03 
884	 3.62285143735439E-03 
885	 3.17149646801243E-03 
886	 3.13422178616847E-03 
887	 3.28853204103637E-03 
888	 3.37590626272282E-03 
889	 3.27032995599552E-03 
890	 3.05684372906953E-03 
891	 2.93395192782581E-03 
892	 2.94596763033073E-03 
893	 2.81661595157845E-03 
894	 2.70028069691015E-03 
895	 2.76384453753421E-03 
896	 2.95622934857215E-03 
897	 2.53933585741582E-03 
898	 2.8937012265534E-03 
899	 3.09224589413349E-03 
900	 2.2546786574065E-03 
901	 2.49181965904155E-03 
902	 2.57760500457478E-03 
903	 2.35580279493447E-03 
904	 2.15323820950024E-03 
905	 2.39691158273582E-03 
906	 2.61028536319842E-03 
907	 2.48550005161949E-03 
908	 2.03374300420961E-03 
909	 2.33304124849807E-03 
910	 2.28278376372092E-03 
911	 2.10444053774431E-03 
912	 3.00384781216535E-03 
913	 2.13741777408548E-03 
914	 2.01073609539304E-03 
915	 2.87575146500474E-03 
916	 2.00547743005516E-03 
917	 1.48969880704346E-03 
918	 1.50491416742544E-03 
919	 1.7835063839307E-03 
920	 1.90421731523403E-03 
921	 1.85426871298092E-03 
922	 2.26076662305838E-03 
923	 2.95653857626707E-03 
924	 1.87403606412709E-03 
925	 1.92022140614278E-03 
926	 2.41798908584571E-03 
927	 1.88069166445178E-03 
928	 4.59956548279721E-05 
929	 8.16452873445861E-04 
930	 2.69536967632299E-03 
931	 1.68053258315724E-03 
932	 2.04953260388721E-03 
933	 2.1253683747612E-03 
934	 9.24967531917454E-04 
935	-1.00001175022218E-03 
936	-7.7853069667184E-04 
937	 8.3708327402663E-05 
938	 1.29363900003229E-03 
939	 2.44359055176237E-03 
940	 5.43785858398943E-04 
941	 2.91669328599521E-04 
942	-5.5137617646096E-04 
943	-5.28331575130124E-03 
944	-1.00484613720174E-03 
945	 7.93515887488412E-04 
946	-1.44656945898119E-03 
947	-1.92569787823775E-03 
948	 1.92618793294629E-03 
949	 2.53407089919773E-03 
950	-4.69724866543565E-04 
951	-2.16276796052443E-03 
952	 1.85544715698575E-03 
953	 2.6327107022313E-03 
954	 6.5273124661344E-04 
955	 2.19556849678637E-03 
956	 4.13454497761129E-04 
957	-1.3553633602715E-03 
958	-6.81089038923244E-04 
959	 2.32418405831408E-03 
960	 8.60293314793413E-04 
961	-0.001301616317734 
962	-1.19206008972705E-03 
963	 1.57273121310679E-03 
964	 1.54637433976072E-03 
965	 1.45177494806045E-03 
966	 1.92792564068942E-03 
967	 1.66030632347177E-03 
968	 1.07146630209532E-03 
969	 1.34896374939978E-03 
970	 1.98245013203966E-03 
971	 1.2534200502738E-03 
972	 3.45092408183868E-04 
973	 3.75827355271326E-04 
974	 9.97641407779467E-04 
975	 6.71950190014581E-04 
976	 3.07480808851148E-04 
977	 1.11690965903707E-03 
978	 1.79219125375576E-03 
979	-1.03764467122877E-04 
980	 1.2642884104755E-03 
981	 2.07833781513143E-03 
982	 1.1949720872472E-03 
983	 5.63777085551605E-04 
984	 1.13718962536134E-03 
985	 1.93180234705743E-03 
986	 2.14256681275223E-03 
987	 1.53054693261962E-03 
988	 9.79176144380881E-04 
989	 1.37198431680965E-03 
990	 2.13367374964899E-03 
991	 1.9028260364535E-03 
992	 1.82399493743807E-03 
993	 1.23082969454774E-03 
994	 9.23605802036651E-04 
995	 2.11871417765084E-03 
996	 1.77474917022243E-03 
997	 1.73933032944019E-03 
998	 2.49530302049578E-03 
999	 3.13733364097399E-03 
1000	 1.69178950769799E-03 
1001	 3.69139478943884E-03 
1002	 3.34333286939555E-03 
1003	 3.04025334170714E-03 
1004	 2.60108813990251E-03 
1005	 2.28806877830454E-03 
1006	 1.81211420423417E-03 
1007	 1.75430154038535E-03 
1008	 2.02907602888472E-03 
1009	 1.99233734719985E-03 
1010	 2.03373329974567E-03 
1011	 2.36260379777563E-03 
1012	 2.37459592324813E-03 
1013	 2.47261366773946E-03 
1014	 2.55802957161251E-03 
1015	 2.64501349755107E-03 
1016	 2.72513975888696E-03 
1017	 2.80987173174478E-03 
1018	 2.89406021383801E-03 
1019	 3.21748211129559E-03 
1020	 3.20787304850221E-03 
1021	 2.93359135826424E-03 
1022	 2.68309691348868E-03 
1023	 2.50981320001566E-03 
1024	 2.44109682418781E-03 
1025	 2.68658326088803E-03 
1026	 2.92924633029165E-03 
1027	 3.05353438851868E-03 
1028	 3.18874493608137E-03 
1029	 3.10863735023247E-03 
1030	 2.76983182715133E-03 
1031	 2.75450121304105E-03 
1032	 2.81656642658402E-03 
1033	 2.75014931660335E-03 
1034	 2.80877283339076E-03 
1035	 2.78859926089909E-03 
1036	 2.54384854376014E-03 
1037	 2.41466283779436E-03 
1038	 2.28395262481534E-03 
1039	 2.41835014224836E-03 
1040	 2.32373154991439E-03 
1041	 2.20266479874757E-03 
1042	 2.29547808894138E-03 
1043	 2.49952466522315E-03 
1044	 2.62105376004287E-03 
1045	 2.91412397505326E-03 
1046	 3.04609944822237E-03 
1047	 3.05809846341981E-03 
1048	 3.11807136196913E-03 
1049	 3.23668715503284E-03 
1050	 3.18718390406374E-03 
1051	 2.99980667189604E-03 
1052	 2.87580307183129E-03 
1053	 2.50662100704291E-03 
1054	 2.43812900412968E-03 
1055	 2.66074667074865E-03 
1056	 2.76714389961916E-03 
1057	 2.90414784500894E-03 
1058	 3.28774504968107E-03 
1059	 3.23904119979397E-03 
1060	 2.93780207067475E-03 
1061	 2.7265579600925E-03 
1062	 2.14732128433129E-03 
1063	 2.12117073641767E-03 
1064	 2.43028885567153E-03 
1065	 2.58959976895039E-03 
1066	 3.11155321842849E-03 
1067	 3.2893953698959E-03 
1068	 3.12097481870447E-03 
1069	 3.12391300793845E-03 
1070	 3.1860163140238E-03 
1071	 3.13309330222357E-03 
1072	 2.79259664863089E-03 
1073	 2.98308371006454E-03 
1074	 2.95621273013055E-03 
1075	 2.8221501874393E-03 
1076	 2.7780244432133E-03 
1077	 2.85195266338411E-03 
1078	 2.84572698281603E-03 
1079	 2.78805001914305E-03 
1080	 2.77828857310486E-03 
1081	 2.80319504673413E-03 
1082	 2.83020456540589E-03 
1083	 2.88572359827739E-03 
1084	 2.88152956200846E-03 
1085	 2.83273268559191E-03 
1086	 2.82138901577521E-03 
1087	 2.68513339035128E-03 
1088	 2.72294706644242E-03 
1089	 2.99795975711396E-03 
1090	 3.22921771152914E-03 
1091	 3.17208255228905E-03 
1092	 3.05876260184294E-03 
1093	 2.95684589270986E-03 
1094	 2.3959735025382E-03 
1095	 2.36160435297696E-03 
1096	 2.83948715388485E-03 
1097	 2.82963816670978E-03 
1098	 2.66165494214618E-03 
1099	 2.73672759269518E-03 
1100	 2.79440282864575E-03 
1101	 2.80419350395954E-03 
1102	 3.05012721520868E-03 
1103	 3.02598434910002E-03 
1104	 2.68485307413714E-03 
1105	 2.2451160786714E-03 
1106	 2.10025434319352E-03 
1107	 2.72302840812298E-03 
1108	 3.06122404254395E-03 
1109	 2.96332976590795E-03 
1110	 2.90171368862034E-03 
1111	 2.0748770532089E-03 
1112	 2.09236801687719E-03 
1113	 2.99272145685456E-03 
1114	 3.20585107703551E-03 
1115	 3.50987046427857E-03 
1116	 3.73987159356182E-03 
1117	 2.99057191893219E-03 
1118	 2.78998730131752E-03 
1119	 3.01253106414308E-03 
1120	 3.37995251570169E-03 
1121	 4.44993660542864E-03 
1122	 5.69096252913776E-03 
1123	 3.88919971365885E-03 
1124	 3.25377484501992E-03 
1125	 3.01677301068546E-03 
1126	 2.66490572473578E-03 
1127	 6.04960796595773E-03 
1128	 6.54298495696715E-03 
1129	 5.67894979304426E-03 
1130	 1.97256845674975E-03 
1131	 2.28469098233545E-03 
1132	 4.01113319060863E-03 
1133	 4.22148657244861E-03 
1134	 5.00292798307711E-03 
1135	 5.02454665300167E-03 
1136	 3.10129143487777E-03 
1137	 3.04575919498053E-03 
1138	 4.39389150822997E-03 
1139	 5.47346776565272E-03 
1140	 4.42823230574692E-03 
1141	 3.58707079903692E-03 
1142	 3.24623510462346E-03 
1143	 3.05767644175028E-03 
1144	 3.68836156807769E-03 
1145	 3.54513501901454E-03 
1146	 1.84324566178352E-03 
1147	 7.05790761345774E-04 
1148	 1.81486474115013E-03 
1149	 3.41739553381359E-03 
1150	 3.75274537468171E-03 
1151	 4.33038603121036E-03 
1152	 4.02309474456091E-03 
1153	 1.94980996166139E-03 
1154	 1.82603275994854E-03 
1155	 2.47453485058518E-03 
1156	 2.92496322926838E-03 
1157	 2.79518864859568E-03 
1158	 2.50095967283704E-03 
1159	 2.13439727963617E-03 
1160	 1.96544872235701E-03 
1161	 1.84898008057031E-03 
1162	 1.70581180616166E-03 
1163	 1.6747798524362E-03 
1164	 1.7153433178419E-03 
1165	 2.07670611975832E-03 
1166	 2.32680257502593E-03 
1167	 2.14158347649798E-03 
1168	 1.98935643207985E-03 
1169	 1.88258982418013E-03 
1170	 2.05639745214519E-03 
1171	 2.13702912148643E-03 
1172	 2.25073215147432E-03 
1173	 2.24872261519682E-03 
1174	 2.12628598551258E-03 
1175	 2.27558623991424E-03 
1176	 2.12395571232413E-03 
1177	 2.09285389750532E-03 
1178	 2.26703852382569E-03 
1179	 2.11402161357663E-03 
1180	 2.11000351539983E-03 
1181	 2.49077502070932E-03 
1182	 2.64916887896789E-03 
1183	 2.49301866727137E-03 
1184	 2.23102623872581E-03 
1185	 2.03395889981195E-03 
1186	 1.90566144700812E-03 
1187	 1.84189579311194E-03 
1188	 2.11206961305616E-03 
1189	 2.33837791240176E-03 
1190	 2.17192197969523E-03 
1191	 2.0061499110724E-03 
1192	 2.03767530743666E-03 
1193	 2.09918879063727E-03 
1194	 2.19746654146166E-03 
1195	 2.29975537642727E-03 
1196	 2.30692101918104E-03 
1197	 2.21318786438297E-03 
1198	 2.12981283793085E-03 
1199	 2.06762089937935E-03 
1200	 2.08052053091304E-03 
1201	 2.1221015225921E-03 
1202	 2.01827906949979E-03 
1203	 2.10270216886524E-03 
1204	 2.33424557232932E-03 
1205	 2.11504630942611E-03 
1206	 1.89225502669368E-03 
1207	 0.002011191217972 
1208	 1.94539999312072E-03 
1209	 1.9632050184648E-03 
1210	 2.18546142350847E-03 
1211	 2.06306768432188E-03 
1212	 1.88535005938119E-03 
1213	 2.12931576783287E-03 
1214	 2.20151235221598E-03 
1215	 2.24158314855656E-03 
1216	 2.03125436603941E-03 
1217	 2.0837154016103E-03 
1218	 2.17883381936857E-03 
1219	 2.00757947193464E-03 
1220	 1.88765945623493E-03 
1221	 2.13170219926873E-03 
1222	 2.20461812463616E-03 
1223	 2.00731694786202E-03 
1224	 2.24294785309545E-03 
1225	 2.37672897530196E-03 
1226	 1.91897115526094E-03 
1227	 1.86581349627986E-03 
1228	 2.38662565924524E-03 
1229	 2.45446045814967E-03 
1230	 2.17591242738842E-03 
1231	 2.19458787058983E-03 
1232	 2.19436852976004E-03 
1233	 2.02468168615077E-03 
1234	 2.04642815857015E-03 
1235	 2.07725056360854E-03 
1236	 1.97600987189158E-03 
1237	 1.95319341124716E-03 
1238	 1.94947859949433E-03 
1239	 2.30612467574606E-03 
1240	 2.30603341949492E-03 
1241	 2.11566642977445E-03 
1242	 2.15525167017611E-03 
1243	 2.1421136880113E-03 
1244	 2.24367146167307E-03 
1245	 2.45546218659278E-03 
1246	 2.3601967710081E-03 
1247	 2.17988277114563E-03 
1248	 2.17359480544554E-03 
1249	 2.1594349354323E-03 
1250	 2.1633397610353E-03 
1251	 2.23609507669994E-03 
1252	 2.24661088741896E-03 
1253	 2.17064146583027E-03 
1254	 2.13020201586125E-03 
1255	 2.25798321510411E-03 
1256	 2.25058999238023E-03 
1257	 2.04509788449381E-03 
1258	 2.07750373136146E-03 
1259	 2.30820256281064E-03 
1260	 2.27822147626269E-03 
1261	 2.22395714372172E-03 
1262	 2.26322111704736E-03 
1263	 2.23572905404755E-03 
1264	 2.10303439250921E-03 
1265	 2.16877500684343E-03 
1266	 2.32332164288266E-03 
1267	 2.36400801966206E-03 
1268	 2.14244502773838E-03 
1269	 1.99726282687378E-03 
1270	 2.05626765156548E-03 
1271	 2.14507813852137E-03 
1272	 2.28845079596234E-03 
1273	 2.24011967824658E-03 
1274	 1.97632373564391E-03 
1275	 1.83863610616053E-03 
1276	 1.87414513054655E-03 
1277	 2.00046451801794E-03 
1278	 2.12087871630168E-03 
1279	 2.15483028603367E-03 
1280	 2.09428604303281E-03 
1281	 2.08890700634353E-03 
1282	 2.12880053875743E-03 
1283	 2.14063005588756E-03 
1284	 2.06975329032253E-03 
1285	 2.13986487732502E-03 
1286	 2.43887401385272E-03 
1287	 2.44216157631292E-03 
1288	 2.22701692803124E-03 
1289	 2.20666741244642E-03 
1290	 2.09232405312433E-03 
1291	 2.0903192948774E-03 
1292	 2.08783790189112E-03 
1293	 2.15494856748073E-03 
1294	 2.3786016684834E-03 
1295	 2.36867908325852E-03 
1296	 2.01871744406817E-03 
1297	 2.01441797865576E-03 
1298	 2.2593358001243E-03 
1299	 2.14725908936773E-03 
1300	 2.1859260128398E-03 
1301	 2.56113736553262E-03 
1302	 2.60880809327274E-03 
1303	 2.32873601357996E-03 
1304	 2.10146836348332E-03 
1305	 2.13572779065256E-03 
1306	 2.21403468348349E-03 
1307	 2.21142862270349E-03 
1308	 2.12661714176493E-03 
1309	 2.1769820820222E-03 
1310	 2.23570777405892E-03 
1311	 2.13548951154435E-03 
1312	 2.15897555717013E-03 
1313	 2.5244331648463E-03 
1314	 2.60564066707446E-03 
1315	 2.31396333066632E-03 
1316	 2.2400984107368E-03 
1317	 2.37662437966993E-03 
1318	 2.28145113134276E-03 
1319	 1.91038537619828E-03 
1320	 1.79393098531935E-03 
1321	 1.43447522138129E-03 
1322	 1.83640208546571E-03 
1323	 2.22409341638719E-03 
1324	 1.96798014139148E-03 
1325	 1.92449951842008E-03 
1326	 2.20627334407086E-03 
1327	 2.3008606100235E-03 
1328	 2.64803501176165E-03 
1329	 2.4335654410751E-03 
1330	 1.55631613204875E-03 
1331	 1.79752736966232E-03 
1332	 2.50615925930688E-03 
1333	 2.69080108502879E-03 
1334	 2.86999587773966E-03 
1335	 2.78516348715782E-03 
1336	 1.45734019127232E-03 
1337	 1.04077025037802E-03 
1338	 1.07992905913033E-03 
1339	 1.48308422545264E-03 
1340	 2.64170747466195E-03 
1341	 2.65569766776459E-03 
1342	 2.27574353628858E-03 
1343	 2.79859407780351E-03 
1344	 3.1927313184089E-03 
1345	 2.80257861856826E-03 
1346	 3.19479969645096E-03 
1347	 3.69285397173305E-03 
1348	 7.23120456361917E-04 
1349	-7.16232130469614E-04 
1350	 2.9803441519491E-03 
1351	 6.54692817638976E-03 
1352	 1.32984262444513E-02 
1353	 1.81803770143596E-02 
1354	 2.38161230006444E-02 
1355	 2.04988865205572E-02 
1356	 1.51430768327724E-02 
1357	 1.34214873845782E-02 
1358	 2.39719914815252E-02 
1359	 4.94175088230955E-03 
1360	 1.00065672776936E-03 
1361	 2.55303835970832E-02 
1362	-3.55673679926509E-02 
1363	-2.16152590479515E-02 
1364	 5.30732164140775E-02 
1365	 4.80361124628845E-02 
1366	 1.24421493894472E-02 
1367	-1.50922432895844E-02 
1368	 2.95761836392057E-02 
1369	 9.81345592698862E-04 
1370	-2.84934592952501E-02 
1371	 5.79207388586467E-02 
1372	 0.154819005352176 
1373	 0.20736342135571 
1374	 0.140627668185814 
1375	 0.13268034466758 
1376	 7.64627135023222E-02 
1377	-0.244149083750725 
1378	-0.315543897804961 
1379	-7.67472174932165E-02 
1380	-8.96087929635226E-02 
1381	-0.328568792558588 
1382	-0.382324544281106 
1383	-0.358055294960785 
1384	-0.352986317273884 
1385	-0.147318251554734 
1386	-8.56128781952415E-02 
1387	-0.318815892140003 
1388	-0.390743949239414 
1389	-0.407789646543541 
1390	-0.321487389008083 
1391	-8.96473570624936E-02 
1392	 0.154787135107702 
1393	-5.01641406905894E-02 
1394	-0.449677245155555 
1395	-0.277313464985501 
1396	-0.129601349372333 
1397	-3.45145698979761E-02 
1398	 0.234377402337661 
1399	 8.55684843038905E-02 
1400	-0.214656545223449 
1401	-0.201940114802613 
1402	-9.70545225626785E-02 
1403	-8.39583913875824E-02 
1404	 1.52595961482921E-02 
1405	 7.96645538574288E-02 
1406	 0.210347639264255 
1407	 0.191967632038208 
1408	 0.115151683838351 
1409	 0.101619021619163 
1410	 0.103895982899096 
1411	 6.50851401370293E-02 
1412	-9.86701476648468E-03 
1413	 2.39811954664222E-02 
1414	 0.103897087167206 
1415	 7.60656035713848E-02 
1416	 3.88748977974016E-02 
1417	 4.56740805210559E-02 
1418	 2.98745651977199E-02 
1419	 9.20698054697476E-03 
1420	 1.77849073576259E-02 
1421	 1.99988040516046E-02 
1422	-3.6714057251138E-03 
1423	-1.06106285811195E-02 
1424	-2.97041520501304E-04 
1425	 7.47824273395865E-03 
1426	 0.016026889543045 
1427	 0.013153177142105 
1428	 6.64390507974591E-03 
1429	 7.84147964034481E-03 
1430	 4.71199039844152E-03 
1431	 1.06840388716257E-03 
1432	 5.67697703685149E-03 
1433	 8.00135691021984E-03 
1434	 1.69048947405675E-03 
1435	 3.74430717713507E-05 
1436	 6.62193953758505E-03 
1437	 6.89770283734254E-03 
1438	-4.13046515876616E-04 
1439	 2.09888561583946E-03 
1440	 6.09316160399113E-03 
1441	 3.71532512551507E-03 
1442	 2.95475687830783E-03 
1443	 3.24053049426685E-03 
1444	 1.03878482793586E-03 
1445	 9.07301868800916E-04 
1446	 1.18863926462955E-03 
1447	 1.25690358198489E-03 
1448	 3.35210269294001E-03 
1449	 3.29807048316635E-03 
1450	 1.81199511339788E-03 
1451	 1.59501027567893E-03 
1452	 1.22522916680574E-03 
1453	 1.43055248533106E-03 
1454	 1.24182089117195E-03 
1455	 2.22018262490395E-03 
1456	 2.75540684832662E-03 
1457	 2.67851189314591E-03 
1458	 2.15982674153208E-03 
1459	 1.96620309786788E-03 
1460	 1.99453008173365E-03 
1461	 9.56624738259041E-04 
1462	 7.4242470834085E-04 
1463	 1.96423386983792E-03 
1464	 2.41235160986981E-03 
1465	 2.55997735594985E-03 
1466	 1.94994981269933E-03 
1467	-7.68107717649691E-05 
1468	 5.25129006227832E-04 
1469	 3.01255067006332E-03 
1470	 2.45316699790662E-03 
1471	 1.41660766674492E-03 
1472	 2.21189757191654E-03 
1473	 1.79079051378561E-03 
1474	 0.001068035760421 
1475	 2.19187969351501E-03 
1476	 3.15736201830473E-03 
1477	 2.71256362513444E-03 
1478	 2.11402951431208E-03 
1479	 2.5810906078767E-03 
1480	 2.93576661382073E-03 
1481	 2.16530696694043E-03 
1482	 1.66344501254189E-03 
1483	 2.27170315943139E-03 
1484	 2.17210082966777E-03 
1485	 7.90314735886259E-04 
1486	 6.25461990935288E-04 
1487	 1.35514546868945E-03 
1488	 1.40522159308633E-03 
1489	 1.35427971176939E-03 
1490	 1.39561377625832E-03 
1491	 1.24827465815126E-03 
1492	 1.26476347004525E-03 
1493	 1.54046495336152E-03 
1494	 1.62535992170156E-03 
1495	 1.58508959428582E-03 
1496	 1.55372023172236E-03 
1497	 1.39511989253743E-03 
1498	 1.37465197586915E-03 
1499	 1.63227625770665E-03 
1500	 1.58293540773947E-03 
1501	 1.25117686253229E-03 
1502	 1.25171925225383E-03 
1503	 1.3367613530882E-03 
1504	 1.22786880475272E-03 
1505	 1.11111575356975E-03 
1506	 1.18827656617509E-03 
1507	 1.37723618680603E-03 
1508	 1.46994421075445E-03 
1509	 1.40198182517228E-03 
1510	 1.53403324776215E-03 
1511	 1.50181110197367E-03 
1512	 1.23883521488247E-03 
1513	 1.1159544233016E-03 
1514	 1.1388619233719E-03 
1515	 1.39623752302294E-03 
1516	 1.62981521528818E-03 
1517	 1.65387098720643E-03 
1518	 1.80359282707271E-03 
1519	 1.76732783478059E-03 
1520	 1.31574314444827E-03 
1521	 1.19516939301093E-03 
1522	 1.45303519434374E-03 
1523	 1.65367920133345E-03 
1524	 1.70718201930183E-03 
1525	 1.50331171360087E-03 
1526	 1.35181806053085E-03 
1527	 1.40239476064102E-03 
1528	 1.39120674930557E-03 
1529	 1.38489779561628E-03 
1530	 1.44724623927099E-03 
1531	 1.31670623076341E-03 
1532	 1.13475729262937E-03 
1533	 1.32443569836166E-03 
1534	 1.53781746768383E-03 
1535	 1.44088475168246E-03 
1536	 1.41582484474264E-03 
1537	 1.55946020625466E-03 
1538	 1.63288193179991E-03 
1539	 1.71956437918544E-03 
1540	 1.67066152020548E-03 
1541	 1.31668204122328E-03 
1542	 1.15516906615253E-03 
1543	 1.26440431356413E-03 
1544	 1.32964591379706E-03 
1545	 1.30999576355399E-03 
1546	 1.28849552918038E-03 
1547	 1.24091886148992E-03 
1548	 1.13787186220787E-03 
1549	 1.02278653391381E-03 
1550	 9.20958797857186E-04 
1551	 1.09615540822564E-03 
1552	 1.17339785026746E-03 
1553	 1.0456972300308E-03 
1554	 1.24483899224904E-03 
1555	 1.41979854888319E-03 
1556	 1.38772705654653E-03 
1557	 1.39658987432999E-03 
1558	 1.52979323606173E-03 
1559	 1.56758146059894E-03 
1560	 1.35707957323901E-03 
1561	 1.27778279844204E-03 
1562	 1.47322966186725E-03 
1563	 1.54977860756532E-03 
1564	 1.3689298339339E-03 
1565	 1.40099559746452E-03 
1566	 1.46659690807869E-03 
1567	 1.2661961132832E-03 
1568	 1.28791900723393E-03 
1569	 1.67846331054435E-03 
1570	 1.86783484536656E-03 
1571	 1.49866125583679E-03 
1572	 1.32962902044689E-03 
1573	 1.6715696274852E-03 
1574	 1.77333261224482E-03 
1575	 1.55198370096195E-03 
1576	 1.4448471026679E-03 
1577	 1.44959714019295E-03 
1578	 1.45456680711067E-03 
1579	 1.48065254077246E-03 
1580	 1.55000052531302E-03 
1581	 1.5680916627834E-03 
1582	 1.24871018260841E-03 
1583	 1.27227539386929E-03 
1584	 1.79323396486841E-03 
1585	 1.75460055639799E-03 
1586	 1.48170376370864E-03 
1587	 1.55413631359774E-03 
1588	 1.6777126849958E-03 
1589	 1.79249025894252E-03 
1590	 1.80570349730298E-03 
1591	 1.52051997058451E-03 
1592	 1.36036128723278E-03 
1593	 1.48052270739049E-03 
1594	 1.58868477253208E-03 
1595	 1.61215207996216E-03 
1596	 1.55306358808911E-03 
1597	 1.49347214360991E-03 
1598	 1.38378800202535E-03 
1599	 1.35120684730059E-03 
1600	 1.39551115601337E-03 
1601	 1.4663002178315E-03 
1602	 1.51889987516379E-03 
1603	 1.38554976351361E-03 
1604	 1.49968009473144E-03 
1605	 1.71676359755883E-03 
1606	 1.63379577636425E-03 
1607	 1.7697380025152E-03 
1608	 2.00185988614183E-03 
1609	 1.79184156125319E-03 
1610	 1.49629973059492E-03 
1611	 1.43502469764633E-03 
1612	 1.54301188035121E-03 
1613	 1.62954133123759E-03 
1614	 1.45349035274982E-03 
1615	 1.38109377193481E-03 
1616	 1.4088752960969E-03 
1617	 1.34677625770371E-03 
1618	 0.001700661377693 
1619	 2.04145223889343E-03 
1620	 1.87068260615434E-03 
1621	 1.71799612294023E-03 
1622	 1.66486454469294E-03 
1623	 1.5520260259739E-03 
1624	 1.5018819671316E-03 
1625	 1.51811135355223E-03 
1626	 1.44500877335652E-03 
1627	 1.31781869912582E-03 
1628	 1.3419249631528E-03 
1629	 1.43065477243556E-03 
1630	 1.41277080494041E-03 
1631	 1.2910039254613E-03 
1632	 1.16923369801695E-03 
1633	 1.13586013926747E-03 
1634	 1.50312725754675E-03 
1635	 2.13276804307782E-03 
1636	 2.09516616928459E-03 
1637	 1.84482565385599E-03 
1638	 1.91440812094305E-03 
1639	 1.57961566075734E-03 
1640	 1.43262210534445E-03 
1641	 1.75093289891478E-03 
1642	 1.75523787195601E-03 
1643	 1.63676859150769E-03 
1644	 1.68719145219469E-03 
1645	 1.77590547088162E-03 
1646	 1.67360238785332E-03 
1647	 1.5127730589836E-03 
1648	 1.55834397820594E-03 
1649	 1.61448844284554E-03 
1650	 1.65610878929025E-03 
1651	 1.68335764751727E-03 
1652	 1.6331621385612E-03 
1653	 1.66010840808484E-03 
1654	 1.62890168674987E-03 
1655	 1.55524078603747E-03 
1656	 1.60668974413486E-03 
1657	 1.69641683920988E-03 
1658	 1.68845922618816E-03 
1659	 1.73867752262769E-03 
1660	 1.7755302047655E-03 
1661	 1.71514687830758E-03 
1662	 1.66364625961642E-03 
1663	 1.58967275580758E-03 
1664	 1.51536991620353E-03 
1665	 1.40753104608571E-03 
1666	 1.44518393084151E-03 
1667	 1.62524354588544E-03 
1668	 1.9012069690154E-03 
1669	 1.98781867031444E-03 
1670	 2.00612149140432E-03 
1671	 1.95423687038289E-03 
1672	 1.96211053986594E-03 
1673	 1.96958198215944E-03 
1674	 1.91941793997125E-03 
1675	 1.92216508771349E-03 
1676	 1.86296210339803E-03 
1677	 1.82782701627165E-03 
1678	 1.80621346546057E-03 
1679	 1.44949758903046E-03 
1680	 1.1821677641188E-03 
1681	 1.38548217544281E-03 
1682	 1.5128725552669E-03 
1683	 1.51084687329496E-03 
1684	 1.80544789108336E-03 
1685	 1.88535165870273E-03 
1686	 1.43897894918249E-03 
1687	 1.37450690875681E-03 
1688	 1.55794405270481E-03 
1689	 1.43615960887377E-03 
1690	 1.81157818893655E-03 
1691	 2.25722987992482E-03 
1692	 1.7368633139814E-03 
1693	 1.14943085968714E-03 
1694	 1.22722993463969E-03 
1695	 1.87227074388512E-03 
1696	 2.34277501806375E-03 
1697	 1.97770490316963E-03 
1698	 1.84613512918362E-03 
1699	 1.83465529335954E-03 
1700	 1.32770636925893E-03 
1701	 1.58093138105802E-03 
1702	 2.05830440393051E-03 
1703	 1.57789355011319E-03 
1704	 1.17463795139771E-03 
1705	 1.45415134913633E-03 
1706	 1.73051798787463E-03 
1707	 1.62424947122159E-03 
1708	 1.73124157720328E-03 
1709	 1.81648516117817E-03 
1710	 1.30246193048047E-03 
1711	 1.09786852041832E-03 
1712	 1.54688159097781E-03 
1713	 1.77458447293184E-03 
1714	 1.82062607990081E-03 
1715	 1.4348121117752E-03 
1716	 1.34056743753552E-03 
1717	 1.68857513139411E-03 
1718	 2.62716971733077E-03 
1719	 2.45830997107314E-03 
1720	 1.59605825321856E-03 
1721	 1.85998218677725E-03 
1722	 1.89076791123422E-03 
1723	 1.51800338908938E-03 
1724	 1.91905728838988E-03 
1725	 0.002003094776809 
1726	 1.50700904883719E-03 
1727	 1.52608007898411E-03 
1728	 1.90805312424998E-03 
1729	 1.8116508126166E-03 
1730	 1.60253531893604E-03 
1731	 1.81178847643999E-03 
1732	 2.19418446636368E-03 
1733	 2.14643060413904E-03 
1734	 1.71564792361588E-03 
1735	 1.54938520342038E-03 
1736	 1.12643783397135E-03 
1737	 8.09837437633044E-04 
1738	 1.43965032613317E-03 
1739	 1.83101995266521E-03 
1740	 1.27927221676241E-03 
1741	 1.2948345821143E-03 
1742	 1.6283448978944E-03 
1743	 1.06596418472537E-03 
1744	 1.36247557774182E-03 
1745	 2.22645587113875E-03 
1746	 1.75506178779317E-03 
1747	 1.63535036613716E-03 
1748	 1.17477044361869E-03 
1749	 1.15577103189477E-03 
1750	 1.9256271336009E-03 
1751	 2.20435016857232E-03 
1752	 2.52670951960659E-03 
1753	 2.49952515357744E-03 
1754	 1.59828701541697E-03 
1755	 1.39662356119049E-03 
1756	 1.66816711346013E-03 
1757	 1.24154180543704E-03 
1758	 1.2927568811479E-03 
1759	 1.57386069136882E-03 
1760	 1.79704492033136E-03 
1761	 2.27870519909178E-03 
1762	 3.00286451188819E-03 
1763	 2.73545663239815E-03 
1764	 1.48217330385937E-03 
1765	 1.18626175224967E-03 
1766	 1.03309156928392E-03 
1767	 8.56689922996761E-04 
1768	 2.32129575465571E-03 
1769	 2.93832300745126E-03 
1770	 1.89567380464847E-03 
1771	 1.43313665051096E-03 
1772	 7.83760374577615E-04 
1773	 7.15431136351323E-04 
1774	 1.90892157669063E-03 
1775	 2.60691583765742E-03 
1776	 2.70326897987939E-03 
1777	 1.56195993746595E-03 
1778	 1.01852198636921E-03 
1779	-7.622066626178E-06 
1780	 1.04129720738519E-04 
1781	 0.002135919138864 
1782	 2.80218407288424E-03 
1783	 3.81479082597433E-03 
1784	 4.21410465531634E-03 
1785	 2.48491602273301E-03 
1786	 1.51838912397089E-03 
1787	 8.16081824847405E-04 
1788	 4.49166949274916E-04 
1789	 3.76533051670352E-04 
1790	 3.39031906820094E-03 
1791	 4.08160892656016E-03 
1792	 2.56995600166781E-03 
1793	 2.46200811492292E-03 
1794	 2.17249513957731E-03 
1795	 2.05195354014463E-04 
1796	-1.72393712251973E-03 
1797	-3.25667673195383E-03 
1798	 1.36942824655404E-03 
1799	 7.02119445464029E-03 
1800	 0.01296103311489 
1801	 1.77588818017272E-02 
1802	 2.60367795824158E-04 
1803	-3.79317940353485E-03 
1804	 1.61087811540735E-02 
1805	 2.40111154620594E-02 
1806	 3.85348244925796E-02 
1807	 4.11545418503508E-02 
1808	 3.60963973244702E-03 
1809	-6.90232565285549E-03 
1810	-1.62804757442761E-02 
1811	-1.62470130998825E-02 
1812	 4.59921572425398E-02 
1813	 6.33982440896286E-02 
1814	 6.10012385809731E-02 
1815	 5.18707349605284E-02 
1816	-2.21683845608996E-02 
1817	 1.92644828641157E-02 
1818	-6.13077115481202E-02 
1819	-1.90990261805114E-03 
1820	-1.38213751001423E-02 
1821	-0.155789156727763 
1822	-0.144871378696942 
1823	 7.30416703839522E-02 
1824	 0.11436200430314 
1825	 0.162630583366855 
1826	 0.181162791411823 
1827	 7.39622909170405E-02 
1828	 6.28628358798567E-02 
1829	 0.249316004604364 
1830	 0.265655612560654 
1831	-0.253711054752501 
1832	-0.331460122702651 
1833	 1.97289470246628E-02 
1834	 1.10805153356993E-04 
1835	 6.87134876624275E-02 
1836	 7.17763583359179E-02 
1837	-0.731019724632011 
1838	-0.83154334999389 
1839	-0.259592052739559 
1840	-1.15710691351785E-02 
1841	 0.435194934946436 
1842	 0.813887353847503 
1843	 0.954613941089852 
1844	 0.770413500056921 
1845	-0.278246403657506 
1846	 1.78470137342779 
1847	 1.23535336903929 
1848	 1.04920104711162 
1849	 1.86074650990711 
1850	 5.05303502657594 
1851	 0.378015528264253 
1852	-0.295593664580863 
1853	-0.379096033371604 
1854	-0.573503062090368 
1855	-1.11424076537605 
1856	-1.76175399616778 
1857	-6.21574909411785 
1858	 8.79306720818784 
1859	 1.33837891350034 
1860	 0.684439419349254 
1861	 0.667874272678588 
1862	 1.08630617893852 
1863	 1.84724773777956 
1864	 0.571139751050135 
1865	-7.35731540478754E-02 
1866	 1.34123065698876 
1867	 1.28684718220036 
1868	 0.997266261325312 
1869	 0.828358710547405 
1870	 0.525579657576726 
1871	 0.745859376031572 
1872	 1.12132655871993 
1873	 2.23466162320804 
1874	-0.261299560407864 
1875	 4.30226964382072E-02 
1876	-0.520080201202895 
1877	-1.87078218598894 
1878	-1.907803219489 
1879	-3.77079657006847 
1880	-5.49052576803492 
1881	-3.49396101392165 
1882	-0.262562123861127 
1883	-0.822194563502509 
1884	 9.28014552345882 
1885	 3.83497402993424 
1886	-12.4217115199631 
1887	 2.8411264875362 
1888	 1.12142553863731 
1889	 0.948824366837938 
1890	 0.45797142885264 
1891	-0.112197090297674 
1892	-0.56311328541985 
1893	-1.63405428266775 
1894	-1.44568785989301 
1895	-0.566894079404484 
1896	-0.486106089837289 
1897	-0.771237158948579 
1898	-0.804163689340345 
1899	-1.34158426513852 
1900	-1.59385593888576 
1901	 1.45321866148461 
1902	 7.85997730743651 
1903	 3.21031474031165 
1904	 0.413459047026203 
1905	 2.04301274853238 
1906	 10.8573539993806 
1907	-1.6555173429874 
1908	-3.81687379419805 
1909	 0.303748486377898 
1910	 0.515526881188002 
1911	 0.603348568162326 
1912	 2.80473258598247 
1913	 1.44499884011772 
1914	-0.589459479117448 
1915	-0.238864796834137 
1916	 0.359678234947375 
1917	 0.57469631068441 
1918	 1.15891882280566 
1919	 4.35288051058911 
1920	-7.84065316007277 
1921	-0.386909288065449 
1922	-0.42742934736736 
1923	 0.98463167163476 
1924	 0.704705997936308 
1925	-1.42781198651956 
1926	-0.40682056426451 
1927	 2.5160596886289 
1928	 1.85632698562424 
1929	 0.85447833478725 
1930	 0.666064612136694 
1931	 0.268890092600957 
1932	 9.87066702777389E-02 
1933	 0.109512817867824 
1934	 0.108612789301885 
1935	 5.04473223005877E-02 
1936	-8.72497884094534E-02 
1937	-0.13599289223403 
1938	-0.058973931444382 
1939	-0.020510566772645 
1940	 4.03132054601243E-02 
1941	 4.32274847450553E-02 
1942	-1.01836145868263E-03 
1943	-2.53462150703893E-02 
1944	-4.21810756940618E-02 
1945	-3.52705496013228E-02 
1946	 1.03790403805158E-03 
1947	 2.05709992233663E-02 
1948	 1.10609185037214E-02 
1949	 4.5717913749485E-03 
1950	 2.31822679273996E-02 
1951	 3.70424576635724E-02 
1952	 3.54964175158746E-02 
1953	 3.20865472455899E-02 
1954	 2.69039125597678E-02 
1955	 1.30319163996481E-02 
1956	-7.87641577345707E-04 
1957	-2.74956235858776E-03 
1958	 3.22890664499855E-03 
1959	 2.80696753873403E-03 
1960	-3.17331075484976E-04 
1961	 1.40931600631904E-03 
1962	 2.08610046887797E-03 
1963	 6.92902475791615E-04 
1964	 1.53287734365841E-03 
1965	 2.63882335993905E-03 
1966	 2.52607974316161E-03 
1967	 1.25118890470072E-03 
1968	 2.02205607604649E-03 
1969	 3.32148615017606E-03 
1970	 3.04631691885521E-03 
1971	 2.63248918024809E-03 
1972	 2.13402693149283E-03 
1973	 1.21604972079767E-03 
1974	 1.05155514280129E-04 
1975	 7.63941082026982E-04 
1976	 1.3344334078298E-03 
1977	 6.52914390426338E-04 
1978	 1.14681885006675E-03 
1979	 1.66090072439925E-03 
1980	 2.06442987859731E-03 
1981	 2.70600304511582E-03 
1982	 3.24453239639876E-03 
1983	 2.41757624550602E-03 
1984	 2.14125717077339E-03 
1985	 1.98859492094761E-03 
1986	 1.7076392747483E-03 
1987	 2.30347546673766E-03 
1988	 2.47592966650946E-03 
1989	 1.88500736725446E-03 
1990	 2.04720396171895E-03 
1991	 2.60386225527726E-03 
1992	 2.70127052582908E-03 
1993	 2.40141995716151E-03 
1994	 1.66114964295997E-03 
1995	-4.14461002823568E-05 
1996	-1.62877528515079E-03 
1997	-2.3244891922358E-03 
1998	-2.16120366895677E-03 
1999	-1.54266013108725E-05 
2000	 2.77029918045581E-03 
2001	 4.64727375685444E-03 
2002	 5.72386957997722E-03 
2003	 4.20731935800673E-03 
2004	 1.47093970506371E-03 
2005	-9.45526251162361E-05 
2006	-9.20814999318623E-05 
2007	 1.71157094889044E-03 
2008	 1.58712894504085E-03 
2009	 2.11113448548204E-03 
2010	 3.45670080893458E-03 
2011	 2.97158656194162E-03 
2012	 7.76369009074757E-04 
2013	 9.2163895267497E-04 
2014	 1.91826791080477E-03 
2015	-7.56315692694001E-04 
2016	-2.00117402085125E-03 
2017	-3.90101030396459E-04 
2018	 2.1844474370088E-04 
2019	 1.11953299281219E-03 
2020	 1.82680487470319E-03 
2021	 1.87251127472423E-03 
2022	 6.25284248818427E-04 
2023	-1.91580224957791E-04 
2024	 1.37778078999508E-04 
2025	 1.37426512755929E-03 
2026	 1.48626132843531E-03 
2027	 1.78898045950969E-03 
2028	 2.35624822657428E-03 
2029	 1.47387789898417E-03 
2030	 1.54340037757613E-03 
2031	 2.02831515078036E-03 
2032	 2.23526793394658E-03 
2033	 2.34678258509778E-03 
2034	 2.05488561357024E-03 
2035	 1.79982925420815E-03 
2036	 1.18411904653205E-03 
2037	 1.20776982647485E-03 
2038	 1.83527632745959E-03 
2039	 1.80400544308733E-03 
2040	 1.59737964137299E-03 
2041	 1.5852551302787E-03 
2042	 1.11388033148453E-03 
2043	 8.92094712484516E-04 
2044	 9.61561959745838E-04 
2045	 1.19071887845582E-03 
2046	 1.34422592732767E-03 
2047	 1.67045593769699E-03 
2048	 2.22718483644493E-03 
2049	 2.98252003184436E-03 
2050	 3.17229931393297E-03 
2051	 3.49578200932689E-03 
2052	 3.09906885506784E-03 
2053	 1.44865270207885E-03 
2054	 5.78493920851803E-04 
2055	-1.17116632855059E-04 
2056	-5.21195372005224E-04 
2057	-1.96536304800673E-04 
2058	 3.45224980168026E-05 
2059	 4.09133749464064E-04 
2060	 7.81795198022939E-04 
2061	 9.6081623267207E-04 
2062	 2.31787812055051E-03 
2063	 2.77061724940335E-03 
2064	 1.97308880479362E-03 
2065	 1.73272710666932E-03 
2066	 1.46071799850508E-03 
2067	 1.5170876484485E-03 
2068	 1.70754570624581E-03 
2069	 2.41643284029403E-03 
2070	 3.15950919785167E-03 
2071	 3.17557459987788E-03 
2072	 3.3895958160911E-03 
2073	 3.11846415129993E-03 
2074	 1.62061238033502E-03 
2075	 1.31712620836111E-03 
2076	 1.80612053089741E-03 
2077	 1.67470217712945E-03 
2078	 1.38120610055329E-03 
2079	 1.3146513523243E-03 
2080	 1.08312125514289E-03 
2081	 9.26379880035539E-04 
2082	 9.10440205303993E-04 
2083	 1.19020148266731E-03 
2084	 2.05028583478829E-03 
2085	 2.26388494602495E-03 
2086	 1.53220838831068E-03 
2087	 1.31911824855988E-03 
2088	 1.0851918611668E-03 
2089	 2.93824253292572E-05 
2090	-3.0327015678128E-04 
2091	 3.72730861937435E-04 
2092	 4.43500537153996E-04 
2093	-1.24503417601168E-04 
2094	-9.1098703289657E-05 
2095	 3.89752794315768E-04 
2096	 4.28515236345593E-04 
2097	 4.67874675546805E-04 
2098	 3.75691406078655E-04 
2099	 4.84735326136173E-05 
2100	-2.25079202910405E-04 
2101	-2.63347563107891E-04 
2102	 7.86253966123966E-05 
2103	 4.09712111348608E-04 
2104	 2.34498429945856E-04 
2105	 2.58367742567287E-04 
2106	 8.32894500708154E-05 
2107	 2.24406524798793E-04 
2108	 1.00620026143303E-03 
2109	 1.71757932830764E-03 
2110	 2.10880854688083E-03 
2111	 1.45771625532354E-03 
2112	 1.03543887387305E-03 
2113	 1.13487688800419E-03 
2114	 1.22088247803994E-03 
2115	 1.13705031462005E-03 
2116	 1.67535702349561E-03 
2117	 1.91311279312588E-03 
2118	 2.08515262384171E-03 
2119	 1.9130850232049E-03 
2120	 1.61744719023788E-03 
2121	 1.06164093252792E-03 
2122	 1.57547954110249E-03 
2123	 1.13378678895021E-03 
2124	 9.13736242231584E-04 
2125	 1.6902647046752E-03 
2126	 1.11414313965052E-03 
2127	 5.31412316159324E-04 
2128	 7.43600593981446E-04 
2129	 5.31477662802027E-04 
2130	 7.23083766702338E-04 
2131	 8.26577253555477E-04 
2132	 8.05726133536586E-04 
2133	 1.51137938592625E-03 
2134	 1.66113178430697E-03 
2135	 1.36752815772307E-03 
2136	 1.2903679897166E-03 
2137	 1.10605198119777E-03 
2138	 9.24214431034072E-04 
2139	 8.89979581974237E-04 
2140	 7.81079212389218E-04 
2141	 6.00134486387918E-04 
2142	 6.58866854695175E-04 
2143	 1.13469698811547E-03 
2144	 4.88184337678493E-04 
2145	 5.68407684475138E-04 
2146	 1.14671120334134E-03 
2147	 7.93733719237239E-04 
2148	 1.5175388644617E-03 
2149	 3.13005341946987E-03 
2150	 3.24726550752087E-03 
2151	 3.57450906751331E-03 
2152	 4.0780107990693E-03 
2153	 3.45842218886157E-03 
2154	 3.15094917025785E-03 
2155	 2.97355231136471E-03 
2156	 2.97487756834545E-03 
2157	 2.9734696501702E-03 
2158	 2.90532474993993E-03 
2159	 2.73901318801251E-03 
2160	 2.84066780975297E-03 
2161	 2.64925874510536E-03 
2162	 1.89498090521887E-03 
2163	 2.08076787422089E-03 
2164	 2.74216643008242E-03 
2165	 2.77708823384743E-03 
2166	 3.4208453517212E-03 
2167	 3.23977495759066E-03 
2168	 2.0335056843897E-03 
2169	 1.4365088091636E-03 
2170	 7.66211168966545E-04 
2171	 8.70063859358764E-05 
2172	 2.66404290582597E-04 
2173	 2.2948883464902E-04 
2174	 5.49851122239774E-04 
2175	 7.41045979345329E-04 
2176	-1.56951003240406E-04 
2177	-7.96929870075108E-05 
2178	 8.81686293163432E-04 
2179	 1.48690558190224E-03 
2180	 2.6932583065924E-03 
2181	 3.66696341840993E-03 
2182	 3.55993407311045E-03 
2183	 3.91693498756034E-03 
2184	 3.79847133629772E-03 
2185	 2.89770428121321E-03 
2186	 2.78881952244164E-03 
2187	 2.41423193976339E-03 
2188	 2.16528367361536E-03 
2189	 3.30913381683101E-03 
2190	 3.51368345898996E-03 
2191	 0.002704561300008 
2192	 2.12147750211253E-03 
2193	 1.17271090361066E-03 
2194	 7.58982858105067E-04 
2195	 4.05207227384176E-05 
2196	 1.02170173222313E-04 
2197	 1.81248374178377E-03 
2198	 2.2093671997669E-03 
2199	 1.31454094218942E-03 
2200	 3.03772930176082E-03 
2201	 3.63563020547704E-03 
2202	 1.39753947389571E-03 
2203	-2.95289545341652E-04 
2204	-1.06155763602699E-03 
2205	-1.63234672810563E-03 
2206	-1.59763986891272E-03 
2207	 5.30535566011411E-04 
2208	 2.67176999781705E-03 
2209	 2.8140405040439E-03 
2210	 2.74527676689276E-03 
2211	 2.52819348579492E-03 
2212	 7.0210730492026E-04 
2213	 3.60051266377681E-04 
2214	 1.09671506073915E-03 
2215	-1.04313814147024E-04 
2216	-7.08179373149537E-04 
2217	-6.74380023089617E-04 
2218	-5.8824378112746E-04 
2219	 8.8958913976535E-05 
2220	 2.64229579081848E-03 
2221	 2.53983880441956E-03 
2222	 6.03579247226728E-04 
2223	-8.00922134878073E-05 
2224	-1.92415814662309E-03 
2225	-1.09847609415312E-03 
2226	 2.80278602999622E-03 
2227	 3.96326185588466E-03 
2228	 4.73156261110618E-03 
2229	 5.05419131817819E-03 
2230	 3.67717878174762E-03 
2231	 3.39550100223391E-03 
2232	 4.39301426651028E-03 
2233	 4.43308131891091E-03 
2234	 3.51668908852574E-03 
2235	 2.69697142533889E-03 
2236	 4.21593278573832E-03 
2237	 4.48809031966963E-03 
2238	 4.2799544490647E-03 
2239	 4.11323592338159E-03 
2240	 1.55444780112037E-03 
2241	-5.08848579977543E-04 
2242	-1.09985405716731E-03 
2243	-1.58050251322251E-03 
2244	-3.93492538611422E-05 
2245	 1.44639213612577E-03 
2246	 1.41674862194092E-03 
2247	 1.1664918042406E-03 
2248	-2.67921763932237E-04 
2249	-7.12940231220687E-04 
2250	-4.2104898164813E-04 
2251	-5.24624632030092E-05 
2252	 1.50573181768523E-03 
2253	 1.12945616127072E-03 
2254	-6.30413699794349E-05 
2255	-5.51232948105156E-04 
2256	-8.07420403396074E-04 
2257	-5.53170436161234E-04 
2258	-1.1777820476455E-03 
2259	-1.92588698360198E-03 
2260	-2.09129686366763E-03 
2261	-3.71682058978461E-03 
2262	-2.5477153500995E-03 
2263	 2.78084889557236E-03 
2264	 3.35322767772276E-03 
2265	 1.90097948948516E-03 
2266	 2.08210161937441E-03 
2267	-2.05789699610901E-04 
2268	-2.42736374788232E-04 
2269	 3.74332450023582E-03 
2270	 4.50284923877925E-03 
2271	 2.98094840196975E-03 
2272	 2.46301594277295E-03 
2273	 1.61710596236507E-03 
2274	 1.63610859728157E-03 
2275	 2.50013925812741E-03 
2276	 2.5187535246544E-03 
2277	 2.6881221275193E-03 
2278	 2.0287505859157E-03 
2279	-2.95488251355885E-05 
2280	-6.91243784089717E-04 
2281	-7.38481436715247E-04 
2282	-1.19932903661504E-03 
2283	-1.64179244023455E-03 
2284	-1.40070378758228E-03 
2285	 7.97290889098724E-04 
2286	 2.08578419958026E-03 
2287	 9.96406026056674E-05 
2288	 3.76051092261949E-04 
2289	 1.28946192536803E-03 
2290	-1.11184385836648E-03 
2291	-1.46646750381377E-03 
2292	 6.14557951687949E-04 
2293	-1.34174912478518E-04 
2294	-1.59877101139932E-03 
2295	-6.07963406913672E-04 
2296	-3.32974318520064E-04 
2297	-2.00353319438455E-03 
2298	-2.81177957322461E-03 
2299	-1.33413522333716E-03 
2300	 5.63419873034974E-04 
2301	 1.55152131959975E-03 
2302	 3.10029114436212E-03 
2303	 3.2175827251401E-03 
2304	 2.66713517135269E-05 
2305	-3.58785677964432E-03 
2306	-4.37618965282929E-03 
2307	-3.24055850200316E-03 
2308	-4.85576789293817E-03 
2309	-3.61593995181896E-03 
2310	-1.90085202117435E-04 
2311	-1.50847026281634E-03 
2312	-2.0854903161917E-03 
2313	-1.85863234502732E-03 
2314	-3.5451626511742E-03 
2315	-5.40437333635251E-03 
2316	-3.29846548894703E-03 
2317	-1.48273199729976E-03 
2318	-5.51775419392653E-03 
2319	-8.78698987287599E-03 
2320	-7.57789890317134E-03 
2321	-7.23026444665141E-03 
2322	-6.96155235301237E-03 
2323	-3.94305541897069E-03 
2324	-8.28554081263383E-03 
2325	-8.4871921153955E-03 
2326	-5.74895899424279E-04 
2327	-1.48951210017653E-03 
2328	-2.25346264396696E-03 
2329	 2.49219346603355E-04 
2330	-1.64527474422033E-03 
2331	-2.98625971716143E-03 
2332	-5.19910468925106E-04 
2333	 2.41138219672449E-03 
2334	 1.95325698088656E-03 
2335	-1.57824278094193E-03 
2336	-2.44942919564879E-03 
2337	-2.45798373690659E-03 
2338	-2.98619299687337E-03 
2339	-1.62216452353457E-03 
2340	 2.0116993241008E-03 
2341	 5.21546779329674E-03 
2342	 1.91077911865675E-03 
2343	-2.09203764636983E-03 
2344	-7.08571500748608E-03 
2345	-1.43126908177482E-02 
2346	-1.90810184407941E-02 
2347	-1.88724914264388E-02 
2348	-1.61889280107487E-02 
2349	-1.52465379271645E-02 
2350	-1.31665003220572E-02 
2351	-1.41763513751224E-02 
2352	-1.22488586904517E-02 
2353	-7.00767071972391E-03 
2354	-4.54868698875187E-03 
2355	 3.05912591853575E-03 
2356	 6.75466773457356E-03 
2357	 1.95369459107874E-03 
2358	 2.68106603207316E-04 
2359	-5.00170086179028E-04 
2360	 4.42330518378175E-04 
2361	 5.84398230739864E-03 
2362	 4.45193001531494E-03 
2363	-2.05327676393762E-03 
2364	-5.7750896857359E-03 
2365	-8.56131110351962E-03 
2366	 1.74485049503072E-03 
2367	 1.50269428282686E-02 
2368	 9.48861409586764E-03 
2369	 4.68770603354762E-03 
2370	 1.03161793943275E-02 
2371	 5.82004087230535E-03 
2372	-5.00895763395278E-03 
2373	-1.96345507049011E-03 
2374	-4.88282187793544E-03 
2375	-8.61877045203698E-03 
2376	 1.56958523965492E-02 
2377	 2.34177298032252E-02 
2378	 1.12332323960369E-02 
2379	 1.95750888549098E-02 
2380	 0.02618665548929 
2381	 3.49170545409737E-02 
2382	 4.86566152509568E-02 
2383	 3.89509121033255E-02 
2384	 2.05127746773812E-02 
2385	 1.8850598609543E-03 
2386	-1.55223234816905E-02 
2387	-0.017811843709164 
2388	-1.91950132986758E-02 
2389	-2.41531909387173E-02 
2390	-2.32979852894612E-02 
2391	-1.83864198620879E-02 
2392	-1.25630844060484E-03 
2393	 1.28341699120292E-02 
2394	 3.58515799127134E-02 
2395	 0.034109084945477 
2396	-1.89403225139532E-02 
2397	-3.40768174201142E-02 
2398	-3.95047421524831E-02 
2399	-3.94722801989776E-02 
2400	 1.17124062308206E-02 
2401	 8.04923960303177E-03 
2402	-9.3157881136763E-03 
2403	 2.53257101371283E-02 
2404	 3.43826438585706E-02 
2405	 1.86599463794792E-02 
2406	 3.09082564904647E-03 
2407	-2.81922232549003E-02 
2408	-8.04184671023134E-02 
2409	-7.09656610407069E-02 
2410	-4.25675841361263E-03 
2411	 2.91155488471376E-03 
2412	-1.98035739203388E-02 
2413	-2.45696156718198E-02 
2414	-1.27549932202117E-02 
2415	-0.053192288141374 
2416	-0.133580824223813 
2417	-0.16485415929475 
2418	-0.217933732121673 
2419	-0.183023464439409 
2420	-4.34341511334331E-02 
2421	-2.49894904048225E-02 
2422	-5.02109526336037E-02 
2423	 1.04895364016634E-02 
2424	-8.10689979108182E-03 
2425	 1.77313867355659E-02 
2426	 0.109194345078176 
2427	 4.86970461178975E-02 
2428	-9.12310209907294E-03 
2429	 1.12815590790568E-02 
2430	-3.31412823935893E-02 
2431	-8.93154830852811E-02 
2432	-6.27735827678162E-02 
2433	 9.10731981921921E-03 
2434	 4.01291687376662E-02 
2435	 9.50682192709868E-02 
2436	 0.158640118073251 
2437	 5.44299602867111E-02 
2438	-9.00017553338246E-02 
2439	-5.26244980946233E-02 
2440	-2.95835218797931E-03 
2441	-3.58436392343616E-02 
2442	-0.022383874823989 
2443	-4.64080357337493E-02 
2444	-0.165323134992313 
2445	-0.195917915217756 
2446	-7.03457181605308E-02 
2447	-6.97230347501547E-02 
2448	-0.05707652775599 
2449	-2.51799488027898E-03 
2450	 4.08795939363858E-03 
2451	-7.41034311841064E-02 
2452	-0.168686364405454 
2453	-0.131595380953844 
2454	-3.05186065386435E-02 
2455	 9.96909645163126E-02 
2456	 0.265445562101403 
2457	 0.28678641845303 
2458	 0.219701616257393 
2459	 8.03551704520965E-02 
2460	-9.82335742203807E-02 
2461	-0.149500989375471 
2462	-4.48265975667107E-02 
2463	-3.30627506722198E-02 
2464	-0.176140641788786 
2465	-0.252500057396693 
2466	-0.375118004234093 
2467	-0.355192162544852 
2468	-2.82958166322684E-02 
2469	 0.555942835575362 
2470	 0.604878249883008 
2471	 0.283473013260728 
2472	 0.565450633425702 
2473	 0.329912298981617 
2474	-0.100134695434469 
2475	-3.67425250710898E-02 
2476	-1.21463740491205 
2477	-0.654827633545738 
2478	-0.135107835985314 
2479	-0.103135549648954 
2480	 0.207375704540841 
2481	 0.688369230368162 
2482	-0.766030504375964 
2483	-0.369580575092656 
2484	-31.0289575630093 
2485	 0.601090711156829 
2486	 1.51285786544248 
2487	 3.12452414435863 
2488	 1.57998128154171 
2489	-2.15368237819613 
2490	 6.47468687134378E-03 
2491	-0.016628879560369 
2492	-2.39422902023371 
2493	 1.17212394332219 
2494	 1.62366673444721 
2495	-38.4298677196948 
2496	-12.0455515584736 
2497	 15.0949201394529 
2498	 1.92319917573469 
2499	 0.598966581531116 
2500	-0.283371661917736 
