Wavelength	rt0718far00000.asd
350	 2.03515569157111E-02 
351	 0.019986051641828 
352	 1.99009200596886E-02 
353	 2.02277042013861E-02 
354	 2.07212026493997E-02 
355	 2.05024883156378E-02 
356	 2.06439391719256E-02 
357	 2.09975103415128E-02 
358	 2.11576880507191E-02 
359	 2.14487209821858E-02 
360	 2.11226317763929E-02 
361	 2.06611107906177E-02 
362	 2.11871650702276E-02 
363	 2.12916286847509E-02 
364	 2.12177113322831E-02 
365	 2.13000764841036E-02 
366	 2.17067356182739E-02 
367	 2.15166184254001E-02 
368	 2.13871436050602E-02 
369	 2.19074722316643E-02 
370	 0.021907538737224 
371	 2.17865065606865E-02 
372	 2.17850293621511E-02 
373	 2.19927287936455E-02 
374	 2.20615707618823E-02 
375	 2.22843320447741E-02 
376	 2.27487378550991E-02 
377	 2.31773289836933E-02 
378	 2.29606078679553E-02 
379	 2.29093055632208E-02 
380	 2.35400174910161E-02 
381	 2.33742438848374E-02 
382	 2.33199175806972E-02 
383	 0.023556056872725 
384	 2.38924487549289E-02 
385	 2.42857499989424E-02 
386	 2.45181048445523E-02 
387	 2.45919369528984E-02 
388	 2.47510864058985E-02 
389	 2.48845943594683E-02 
390	 2.49258603961712E-02 
391	 2.48869192740325E-02 
392	 2.49052394201381E-02 
393	 2.52085869942123E-02 
394	 2.56352950871361E-02 
395	 0.025900411922491 
396	 2.59005346255232E-02 
397	 2.61292836758619E-02 
398	 2.65314042981601E-02 
399	 2.65966406824822E-02 
400	 2.66500744800445E-02 
401	 2.66921764968023E-02 
402	 2.67317839707004E-02 
403	 2.69280529980381E-02 
404	 2.70481745755416E-02 
405	 2.71451577172947E-02 
406	 2.73443581023749E-02 
407	 2.75271026474564E-02 
408	 2.76905586508593E-02 
409	 2.78123451290402E-02 
410	 2.78551366021104E-02 
411	 0.028066379100121 
412	 2.83183560323883E-02 
413	 2.84926977228556E-02 
414	 2.86544538565477E-02 
415	 2.88543362842787E-02 
416	 2.90958448154048E-02 
417	 2.93378746507955E-02 
418	 2.94033486122062E-02 
419	 2.96122915547391E-02 
420	 2.99924998873907E-02 
421	 3.02339337053265E-02 
422	 3.03973383396081E-02 
423	 3.06311286142127E-02 
424	 3.09611926922967E-02 
425	 3.09832297314143E-02 
426	 3.12709958217851E-02 
427	 3.16862970380748E-02 
428	 3.18336033387492E-02 
429	 3.21995433927837E-02 
430	 3.25467525887603E-02 
431	 0.032786754244831 
432	 3.30810499854375E-02 
433	 3.33984971582334E-02 
434	 3.37328492585061E-02 
435	 0.034068149990413 
436	 3.43497087820743E-02 
437	 0.03462563647362 
438	 0.034969227096087 
439	 3.54268121785179E-02 
440	 3.57227323910917E-02 
441	 3.60014013737265E-02 
442	 3.63533714191341E-02 
443	 3.67241358363744E-02 
444	 3.70212143309494E-02 
445	 3.73143799623781E-02 
446	 0.037670075838131 
447	 3.79471176350048E-02 
448	 3.82717486417377E-02 
449	 3.86014682974167E-02 
450	 3.87852555250489E-02 
451	 3.89729722693793E-02 
452	 3.92016211975151E-02 
453	 3.94725530447679E-02 
454	 3.97561866655589E-02 
455	 4.00222979831223E-02 
456	 4.01867059083651E-02 
457	 4.02197905410371E-02 
458	 4.04394277969833E-02 
459	 4.06956111497704E-02 
460	 4.09068300492313E-02 
461	 4.10859285176427E-02 
462	 4.12411607038214E-02 
463	 4.14387634904331E-02 
464	 4.16815682759954E-02 
465	 0.041760246188259 
466	 4.19128804925669E-02 
467	 4.21298487738907E-02 
468	 4.22986742197983E-02 
469	 4.25411120277438E-02 
470	 4.27286474916356E-02 
471	 4.28637330673514E-02 
472	 4.31479148221539E-02 
473	 4.33687503937507E-02 
474	 4.35251243376689E-02 
475	 4.36933152372155E-02 
476	 4.40205695348447E-02 
477	 4.42673507266503E-02 
478	 4.44677266537547E-02 
479	 4.48162110382917E-02 
480	 4.50094871450902E-02 
481	 4.52301878723749E-02 
482	 4.55763492319388E-02 
483	 4.58401675273847E-02 
484	 4.61553729257996E-02 
485	 4.64783458660527E-02 
486	 4.67413212520341E-02 
487	 4.71011790685498E-02 
488	 4.74227578706401E-02 
489	 4.76893844890895E-02 
490	 4.80094868025431E-02 
491	 0.048307818898822 
492	 4.86525982993594E-02 
493	 4.90739103707916E-02 
494	 4.94292055284983E-02 
495	 4.98425530032955E-02 
496	 5.02430492521757E-02 
497	 5.05054753860919E-02 
498	 5.09191074136872E-02 
499	 5.13717379914756E-02 
500	 5.18029864841921E-02 
501	 5.23022320120264E-02 
502	 5.26720618910338E-02 
503	 5.30405766491804E-02 
504	 5.35502209401755E-02 
505	 5.40125401919487E-02 
506	 5.43694587335007E-02 
507	 5.47181970949858E-02 
508	 5.52469942883698E-02 
509	 5.55993282105029E-02 
510	 5.59137143503192E-02 
511	 5.63410892780256E-02 
512	 5.68871133472151E-02 
513	 5.74000538621797E-02 
514	 5.78676630447792E-02 
515	 5.83512379710626E-02 
516	 5.89417613087804E-02 
517	 5.95559743939652E-02 
518	 0.060127610117478 
519	 6.06390867059134E-02 
520	 6.11502175516718E-02 
521	 6.17040604085214E-02 
522	 6.23086612354205E-02 
523	 6.28643175595063E-02 
524	 6.34225632943299E-02 
525	 6.40016522517555E-02 
526	 6.45964515119115E-02 
527	 6.52039160100612E-02 
528	 6.57958438914703E-02 
529	 6.63586628887558E-02 
530	 6.69055010808625E-02 
531	 6.75206532041801E-02 
532	 6.81961956905638E-02 
533	 6.88637011160417E-02 
534	 6.93622437475366E-02 
535	 6.99321403815403E-02 
536	 0.070620860363479 
537	 7.12302018622104E-02 
538	 0.07190070447102 
539	 7.25712820424668E-02 
540	 7.31815599686215E-02 
541	 7.38332258623031E-02 
542	 7.44403192190739E-02 
543	 7.50309839391612E-02 
544	 7.56888593938645E-02 
545	 7.62456690736152E-02 
546	 7.68484246477272E-02 
547	 0.077538743196224 
548	 0.078076933166657 
549	 7.86568750778807E-02 
550	 7.92767005673227E-02 
551	 7.98831908468041E-02 
552	 8.05429991422535E-02 
553	 8.11264384851318E-02 
554	 8.16685986142529E-02 
555	 8.23910226263618E-02 
556	 8.30486968829889E-02 
557	 8.36354208850885E-02 
558	 8.42036495529292E-02 
559	 8.48238957348233E-02 
560	 8.53829728036255E-02 
561	 8.58874174430905E-02 
562	 8.64162860589348E-02 
563	 8.69200194005971E-02 
564	 8.73944631117409E-02 
565	 8.78420499142214E-02 
566	 0.088270470677094 
567	 8.86650053472205E-02 
568	 8.90272418108234E-02 
569	 8.93618356477372E-02 
570	 8.96604533824657E-02 
571	 8.99101538411692E-02 
572	 9.01491557532438E-02 
573	 9.04638653559573E-02 
574	 9.06535063245436E-02 
575	 9.07912050526507E-02 
576	 9.09466925741965E-02 
577	 9.09635128099639E-02 
578	 9.09464107278643E-02 
579	 9.09239620710862E-02 
580	 9.08669363841549E-02 
581	 9.06790292629607E-02 
582	 9.04640723054598E-02 
583	 9.02608250434609E-02 
584	 8.99400320901147E-02 
585	 0.089639737143191 
586	 8.93191164757694E-02 
587	 0.088899511043079 
588	 8.85054344581379E-02 
589	 8.81171857350491E-02 
590	 8.76797177141273E-02 
591	 8.70960486696485E-02 
592	 8.65752977152861E-02 
593	 8.59669124939732E-02 
594	 8.51313984585325E-02 
595	 8.41513640926738E-02 
596	 8.30603130678178E-02 
597	 8.19049602650594E-02 
598	 8.07346467035455E-02 
599	 7.94743294147242E-02 
600	 7.83747153645862E-02 
601	 7.75816204514374E-02 
602	 7.69946054120931E-02 
603	 7.65518555645984E-02 
604	 7.62495808528931E-02 
605	 7.60923888308441E-02 
606	 0.075991390448322 
607	 7.59008601267482E-02 
608	 7.58410006116961E-02 
609	 7.58883587683631E-02 
610	 0.075808824369342 
611	 7.57193848567035E-02 
612	 7.57217206333299E-02 
613	 0.075642200693833 
614	 7.55581495742975E-02 
615	 7.54709850768538E-02 
616	 7.53588555523912E-02 
617	 7.53655712438793E-02 
618	 7.53334642284915E-02 
619	 7.52204697652913E-02 
620	 7.52274678385891E-02 
621	 7.51180170698964E-02 
622	 7.50028979493873E-02 
623	 7.50161000756154E-02 
624	 7.48195285922473E-02 
625	 7.46994521020247E-02 
626	 7.47233110224142E-02 
627	 7.47263819341572E-02 
628	 7.46176275434977E-02 
629	 7.44668555207549E-02 
630	 7.43571015130004E-02 
631	 7.43148906208292E-02 
632	 7.42531428948524E-02 
633	 7.41339150995534E-02 
634	 7.39656913831257E-02 
635	 7.38912545532054E-02 
636	 7.38301967169726E-02 
637	 7.37371435710707E-02 
638	 7.36487188034083E-02 
639	 7.35421855092934E-02 
640	 7.33826703897955E-02 
641	 7.31711634072785E-02 
642	 7.30589967477327E-02 
643	 7.28799524878299E-02 
644	 7.26561069019622E-02 
645	 7.25516142237736E-02 
646	 7.23110321501683E-02 
647	 7.20798303115855E-02 
648	 7.19551779383854E-02 
649	 7.17642617688453E-02 
650	 7.14495129074693E-02 
651	 7.10291397432017E-02 
652	 7.05736411201627E-02 
653	 7.01654526328081E-02 
654	 6.95684269637875E-02 
655	 6.87352077971771E-02 
656	 6.80249595122636E-02 
657	 6.73607321782617E-02 
658	 6.67420798616987E-02 
659	 6.61714952592452E-02 
660	 6.56911239890327E-02 
661	 0.065297476036975 
662	 6.49582908927446E-02 
663	 6.46349630900858E-02 
664	 6.43503091138065E-02 
665	 6.41756199833552E-02 
666	 6.40811908801927E-02 
667	 6.38540564513776E-02 
668	 6.36208339635147E-02 
669	 6.34230576582974E-02 
670	 6.32825708306631E-02 
671	 6.32623446831782E-02 
672	 6.31437634282394E-02 
673	 6.29602918688386E-02 
674	 6.29732384120576E-02 
675	 6.29229582791062E-02 
676	 6.28331029426607E-02 
677	 6.27598504398895E-02 
678	 6.26998379934036E-02 
679	 6.26654583234528E-02 
680	 6.26716894500575E-02 
681	 6.27115336869012E-02 
682	 6.26389426712361E-02 
683	 6.25336440682054E-02 
684	 6.24683084026862E-02 
685	 6.24783305593646E-02 
686	 0.062364190954875 
687	 6.21879134219938E-02 
688	 6.20367090049398E-02 
689	 6.16864017329428E-02 
690	 6.13273868389574E-02 
691	 6.09300524119193E-02 
692	 6.03432957987243E-02 
693	 5.97351279325687E-02 
694	 5.90663612721357E-02 
695	 5.83592857095516E-02 
696	 5.77133422256074E-02 
697	 5.68445445629402E-02 
698	 5.58793530034916E-02 
699	 0.055043753840566 
700	 0.054084621366038 
701	 5.30065549413138E-02 
702	 5.18998540175547E-02 
703	 5.08679366504952E-02 
704	 4.97748440626007E-02 
705	 4.85517410339884E-02 
706	 4.72476206170498E-02 
707	 4.60871955775263E-02 
708	 4.46786428679286E-02 
709	 4.31395899408998E-02 
710	 0.041704038903386 
711	 4.00898634362733E-02 
712	 3.85069614654037E-02 
713	 3.69814207500311E-02 
714	 3.52882922162124E-02 
715	 3.37302379905233E-02 
716	 3.21162177067652E-02 
717	 3.03504669553722E-02 
718	 2.86990928276726E-02 
719	 2.70521700741399E-02 
720	 2.56251810594405E-02 
721	 2.43766041016585E-02 
722	 2.30708769093872E-02 
723	 2.17231200555355E-02 
724	 2.04785657753895E-02 
725	 1.91985182860788E-02 
726	 1.79317309033975E-02 
727	 1.67134537423121E-02 
728	 1.55319597641881E-02 
729	 1.41415146298281E-02 
730	 1.28893446532134E-02 
731	 1.19360284863929E-02 
732	 1.12295762707909E-02 
733	 1.05313701549088E-02 
734	 9.99504766330188E-03 
735	 9.65093092574987E-03 
736	 9.31587400760047E-03 
737	 0.009034845234431 
738	 8.80207775531386E-03 
739	 8.6363736815041E-03 
740	 8.66324697589599E-03 
741	 8.59860263051147E-03 
742	 8.47075789312873E-03 
743	 8.45001893598818E-03 
744	 8.34850696384928E-03 
745	 8.34823571220754E-03 
746	 8.44049718191238E-03 
747	 8.31876468687532E-03 
748	 8.24025003499449E-03 
749	 8.21272883044142E-03 
750	 8.20232114214947E-03 
751	 8.27305694050539E-03 
752	 8.18253215878377E-03 
753	 8.06653640144247E-03 
754	 8.20610344864379E-03 
755	 8.2186355646937E-03 
756	 8.1367561460762E-03 
757	 8.08069934206213E-03 
758	 8.29729226481516E-03 
759	 8.33622872486693E-03 
760	 8.18023783567147E-03 
761	 8.22832001316093E-03 
762	 8.44915950936325E-03 
763	 8.42287846904727E-03 
764	 8.26626955766674E-03 
765	 8.22064048759005E-03 
766	 8.1735800397422E-03 
767	 8.21121885592585E-03 
768	 8.27983225743032E-03 
769	 8.19215992103114E-03 
770	 8.21908927628125E-03 
771	 8.29181290767545E-03 
772	 8.32116133366872E-03 
773	 8.35024555780311E-03 
774	 8.47227824370236E-03 
775	 8.57249605432513E-03 
776	 8.51285547037108E-03 
777	 8.61246994370802E-03 
778	 8.6867069032764E-03 
779	 8.68528442828551E-03 
780	 8.73083492994614E-03 
781	 8.90455926231086E-03 
782	 9.02940238323508E-03 
783	 9.0265288338839E-03 
784	 9.14218196262134E-03 
785	 9.30362693527487E-03 
786	 9.48101912447737E-03 
787	 9.63589557894903E-03 
788	 9.64646057819506E-03 
789	 9.72023053495153E-03 
790	 9.88266525538942E-03 
791	 1.00048326275036E-02 
792	 1.01269604666114E-02 
793	 1.03447852275538E-02 
794	 1.06193106440308E-02 
795	 1.06784268961255E-02 
796	 1.08136673363035E-02 
797	 1.09314237646341E-02 
798	 1.09331695378286E-02 
799	 1.10553677094692E-02 
800	 1.12724725731448E-02 
801	 1.14691487825529E-02 
802	 1.15155706306941E-02 
803	 1.15579812663442E-02 
804	 1.16440281272557E-02 
805	 1.17136480566552E-02 
806	 1.16153025331293E-02 
807	 1.16024100617302E-02 
808	 1.16674165861887E-02 
809	 1.17321076608631E-02 
810	 1.16920149649222E-02 
811	 1.14998230618667E-02 
812	 0.01132261887493 
813	 1.13466827182059E-02 
814	 1.12062234176369E-02 
815	 1.10319863585533E-02 
816	 1.08539341056794E-02 
817	 1.06122276276194E-02 
818	 0.010424294940356 
819	 1.02394897475929E-02 
820	 9.94650497060863E-03 
821	 9.38553495932908E-03 
822	 9.16298880891244E-03 
823	 8.94828093975518E-03 
824	 8.4741644277551E-03 
825	 8.21361309549355E-03 
826	 7.85144340859202E-03 
827	 7.39758799285832E-03 
828	 6.99914550896378E-03 
829	 6.65210312385038E-03 
830	 6.38694676173796E-03 
831	 6.19789637017716E-03 
832	 6.05747625884855E-03 
833	 5.94021023053511E-03 
834	 5.86843605447345E-03 
835	 5.83281052512346E-03 
836	 5.77867554103176E-03 
837	 5.73157563922045E-03 
838	 5.65697499595797E-03 
839	 5.54772096226481E-03 
840	 5.48752890424998E-03 
841	 5.51380826985788E-03 
842	 5.54491391255669E-03 
843	 5.46871710397649E-03 
844	 5.2517622945598E-03 
845	 5.21765930313781E-03 
846	 5.41638428404915E-03 
847	 5.63739851262757E-03 
848	 5.32074972672329E-03 
849	 0.00506744844026 
850	 5.14084329177014E-03 
851	 5.19320756060734E-03 
852	 5.26649465427865E-03 
853	 5.15013764855849E-03 
854	 4.87896618012828E-03 
855	 5.06575276671987E-03 
856	 5.20579232994653E-03 
857	 5.08179711416825E-03 
858	 4.75161359753567E-03 
859	 4.89966523059194E-03 
860	 5.02985352512338E-03 
861	 5.05642155901555E-03 
862	 5.10755655056364E-03 
863	 5.18573263960135E-03 
864	 5.17073000068484E-03 
865	 5.04286135998158E-03 
866	 4.90138141426579E-03 
867	 4.9213640003326E-03 
868	 4.91824768423353E-03 
869	 4.83183206198677E-03 
870	 4.82524294951065E-03 
871	 4.79496090609541E-03 
872	 4.84453746921651E-03 
873	 4.95577475313244E-03 
874	 4.73910788208253E-03 
875	 4.74096610272537E-03 
876	 4.83495470627835E-03 
877	 4.7852697062506E-03 
878	 4.77527678274968E-03 
879	 4.91015521178613E-03 
880	 4.87445748067244E-03 
881	 4.37720719110974E-03 
882	 4.35233519493104E-03 
883	 4.51820428092872E-03 
884	 4.57508900791855E-03 
885	 4.33976599244735E-03 
886	 4.19443808711019E-03 
887	 4.42206966328252E-03 
888	 4.81750283191787E-03 
889	 4.71001856843073E-03 
890	 4.53209541614229E-03 
891	 4.53247758755262E-03 
892	 4.67982076545982E-03 
893	 4.48330771959235E-03 
894	 4.55912309552164E-03 
895	 4.6801080703207E-03 
896	 4.48916883320178E-03 
897	 4.0016292205696E-03 
898	 4.46852745932352E-03 
899	 5.04427282358616E-03 
900	 4.69702951697027E-03 
901	 4.54422218832967E-03 
902	 4.48146920957417E-03 
903	 4.18355372261201E-03 
904	 3.55746842048043E-03 
905	 4.1067344190172E-03 
906	 4.41084740998311E-03 
907	 4.22809972749526E-03 
908	 4.19246685652706E-03 
909	 4.00235378668585E-03 
910	 4.05403867603723E-03 
911	 4.44265273369196E-03 
912	 4.86709879009008E-03 
913	 4.55791268589375E-03 
914	 4.09937966793037E-03 
915	 4.03802818250483E-03 
916	 4.48407944712342E-03 
917	 3.93326673307094E-03 
918	 3.43337475603364E-03 
919	 3.60559590840825E-03 
920	 3.97305078651465E-03 
921	 3.88170175981134E-03 
922	 3.8357434729738E-03 
923	 4.17326571526652E-03 
924	 4.38979069212993E-03 
925	 4.03486193918205E-03 
926	 0.003929169596437 
927	 4.45016188263749E-03 
928	 2.64059348545739E-03 
929	 3.14182255044903E-03 
930	 4.6813857505654E-03 
931	 3.34988824945566E-03 
932	 3.25367619446658E-03 
933	 5.21065020151925E-03 
934	 5.83336578930048E-03 
935	 2.13274975745968E-03 
936	-3.73185447190217E-04 
937	 2.70631476578393E-03 
938	 6.30842530620657E-03 
939	 5.15627641852767E-03 
940	 3.52637745826392E-03 
941	 4.0332849464845E-03 
942	 4.90104908131032E-03 
943	 3.08107468351345E-03 
944	 2.69892779850924E-03 
945	 2.76464148726965E-03 
946	 2.53092493083501E-03 
947	 2.11322062166997E-03 
948	 4.45460232576761E-03 
949	 4.30527317699673E-03 
950	 1.66565410295235E-03 
951	 3.11459165841664E-04 
952	 3.22994444863145E-03 
953	 3.30864952322333E-03 
954	 2.24402514363447E-03 
955	 6.13327850039864E-03 
956	 4.16495854863847E-03 
957	 2.9387500031773E-03 
958	 3.81762981571546E-03 
959	 3.67373807862142E-03 
960	 4.0496788619319E-03 
961	 1.95105279257457E-03 
962	 1.56764589618151E-04 
963	 3.71235647114051E-03 
964	 3.45851498823815E-03 
965	 3.28845287732365E-03 
966	 3.93136070625852E-03 
967	 3.31180736459144E-03 
968	 3.43998479330358E-03 
969	 3.4308358268373E-03 
970	 3.25931958198596E-03 
971	 3.64858891669929E-03 
972	 3.08854974288298E-03 
973	 2.78905716970823E-03 
974	 3.22618572189466E-03 
975	 3.7941502453211E-03 
976	 4.08862782790717E-03 
977	 3.95607450413804E-03 
978	 3.39659465371926E-03 
979	 2.71339259948201E-03 
980	 3.77099997183208E-03 
981	 4.94756207250097E-03 
982	 4.43626147524238E-03 
983	 1.65630720675469E-03 
984	 2.87719225215561E-03 
985	 4.56103057224137E-03 
986	 4.71251196881747E-03 
987	 3.78064756218906E-03 
988	 3.52545914067009E-03 
989	 3.72116760818038E-03 
990	 4.49570817091845E-03 
991	 5.7456171024316E-03 
992	 3.11709177020454E-03 
993	 2.19910405514564E-03 
994	 3.72902463038971E-03 
995	 4.51794929744283E-03 
996	 4.46911159915396E-03 
997	 3.86684548446043E-03 
998	 3.74782600318683E-03 
999	 4.79410046866617E-03 
1000	 3.67225592235563E-03 
1001	 2.57903501521812E-03 
1002	 2.3332577246684E-03 
1003	 2.20803356160159E-03 
1004	 1.93316863131478E-03 
1005	 1.91006667303183E-03 
1006	 2.02242901244323E-03 
1007	 2.30156049893061E-03 
1008	 2.6165863709589E-03 
1009	 3.12998369906788E-03 
1010	 3.49128852586768E-03 
1011	 3.45393638755693E-03 
1012	 3.14883006206569E-03 
1013	 3.04795820079676E-03 
1014	 2.97591459569592E-03 
1015	 2.77262344654428E-03 
1016	 2.83173722531935E-03 
1017	 3.2504151032263E-03 
1018	 3.2934351262732E-03 
1019	 3.2797827632587E-03 
1020	 3.2763932757514E-03 
1021	 2.99719941781472E-03 
1022	 2.98116737004684E-03 
1023	 3.24897009532031E-03 
1024	 3.28761248474896E-03 
1025	 3.15260570882172E-03 
1026	 3.07775774514344E-03 
1027	 2.97593985431832E-03 
1028	 2.53632569366325E-03 
1029	 2.54098183874463E-03 
1030	 2.92180794244169E-03 
1031	 3.01123134467633E-03 
1032	 3.25069148383238E-03 
1033	 3.25937660267488E-03 
1034	 2.79386514041422E-03 
1035	 2.81659971478252E-03 
1036	 3.20709799920178E-03 
1037	 3.23619518191744E-03 
1038	 3.4436728941928E-03 
1039	 3.35520792315975E-03 
1040	 3.08606873666071E-03 
1041	 2.61245166702768E-03 
1042	 2.49045967491096E-03 
1043	 2.57659109273385E-03 
1044	 2.69355814293562E-03 
1045	 2.97177570908435E-03 
1046	 3.05512800976842E-03 
1047	 3.23978923230256E-03 
1048	 3.19667765754019E-03 
1049	 2.81177181588771E-03 
1050	 2.73198559836683E-03 
1051	 2.73052044951156E-03 
1052	 2.67072390797008E-03 
1053	 2.7336428434391E-03 
1054	 2.74811875873175E-03 
1055	 2.53995338394145E-03 
1056	 2.55206848492082E-03 
1057	 2.67082429994476E-03 
1058	 2.98646334033552E-03 
1059	 3.09145087509102E-03 
1060	 3.29019279167241E-03 
1061	 3.30395144400659E-03 
1062	 3.02724539723624E-03 
1063	 3.02456353225874E-03 
1064	 3.13928241549563E-03 
1065	 3.15968654313894E-03 
1066	 3.36163461098223E-03 
1067	 3.29941841181754E-03 
1068	 2.89076502779641E-03 
1069	 2.74380720030995E-03 
1070	 2.46510290849763E-03 
1071	 2.43780205549553E-03 
1072	 2.8431209161393E-03 
1073	 3.08062217115695E-03 
1074	 3.1200382856069E-03 
1075	 3.16090644019872E-03 
1076	 3.11650441718743E-03 
1077	 2.7278685374448E-03 
1078	 2.66074291092584E-03 
1079	 2.72769209384646E-03 
1080	 2.77664204520074E-03 
1081	 2.97031168348133E-03 
1082	 3.02634033508556E-03 
1083	 3.10307084384728E-03 
1084	 3.07738163789425E-03 
1085	 2.77877843748884E-03 
1086	 2.72588758274066E-03 
1087	 2.76532135920528E-03 
1088	 2.78625650824792E-03 
1089	 2.98842567565245E-03 
1090	 3.25009136819908E-03 
1091	 3.06516159989435E-03 
1092	 2.43569031965942E-03 
1093	 2.41927441534954E-03 
1094	 2.49001035109265E-03 
1095	 2.40514632624849E-03 
1096	 2.54739953291484E-03 
1097	 2.68154808699558E-03 
1098	 2.70324378840929E-03 
1099	 2.55078500447283E-03 
1100	 2.40542391529077E-03 
1101	 2.53536497083017E-03 
1102	 2.37032340694779E-03 
1103	 2.33361489604002E-03 
1104	 2.74352894201548E-03 
1105	 3.42481839409703E-03 
1106	 2.85743318947496E-03 
1107	 2.69902162017724E-03 
1108	 2.81100450382002E-03 
1109	 2.41296251241752E-03 
1110	 2.31505249942148E-03 
1111	 2.74120700421951E-03 
1112	 2.5401097379674E-03 
1113	 1.44760619237712E-03 
1114	 1.35711111442653E-03 
1115	 2.09829207092056E-03 
1116	 2.30914893969807E-03 
1117	 2.94559362109652E-03 
1118	 3.82080400614296E-03 
1119	 3.81020309267826E-03 
1120	 3.90320046145729E-03 
1121	 5.08391197899674E-03 
1122	 6.79204678454038E-03 
1123	 3.9912012682058E-03 
1124	 2.46560360601518E-03 
1125	 3.37709536623769E-03 
1126	 4.51000172732833E-03 
1127	 6.46990352213607E-03 
1128	 7.53501667031758E-03 
1129	 6.50344688907441E-03 
1130	 1.36328006426997E-03 
1131	 1.13122025790943E-03 
1132	 3.21079224435433E-03 
1133	 2.99108872127406E-03 
1134	 2.85335109512555E-03 
1135	 3.19440597591496E-03 
1136	 2.3734978111127E-03 
1137	 2.12023370586706E-03 
1138	 2.93650031147923E-03 
1139	 3.94101902596886E-03 
1140	 3.1433844189395E-03 
1141	 2.15372036306987E-03 
1142	 2.40762601548785E-03 
1143	 1.94540273429935E-03 
1144	 1.83426778775582E-03 
1145	 3.2537636496485E-03 
1146	 2.02462527636875E-03 
1147	 7.17417561367079E-04 
1148	 1.77873439469269E-03 
1149	 2.34668077313575E-03 
1150	 2.35722658992295E-03 
1151	 2.83912678155676E-03 
1152	 3.45831641634854E-03 
1153	 3.62995796367087E-03 
1154	 3.23075883412041E-03 
1155	 2.79993474790347E-03 
1156	 3.32472892939388E-03 
1157	 3.00217283102729E-03 
1158	 2.42217703326333E-03 
1159	 2.88457866354141E-03 
1160	 3.12677917981489E-03 
1161	 2.76071873432861E-03 
1162	 2.54679933373081E-03 
1163	 2.51282398561451E-03 
1164	 2.70795364647435E-03 
1165	 2.68578556219275E-03 
1166	 2.48464924651494E-03 
1167	 2.57927563806803E-03 
1168	 2.47640555960982E-03 
1169	 2.51112033909817E-03 
1170	 2.94263519209838E-03 
1171	 3.09997631914108E-03 
1172	 3.10853840878445E-03 
1173	 3.07085953716586E-03 
1174	 2.99512718064478E-03 
1175	 2.84064223029986E-03 
1176	 2.45482369834748E-03 
1177	 2.02222210189392E-03 
1178	 2.24330245800196E-03 
1179	 2.64548670655328E-03 
1180	 2.80722891302813E-03 
1181	 2.97363410625278E-03 
1182	 2.88119006218985E-03 
1183	 2.51193880697371E-03 
1184	 2.34355167940659E-03 
1185	 2.52206182445393E-03 
1186	 2.65445940651572E-03 
1187	 2.5961342276843E-03 
1188	 2.58546615872099E-03 
1189	 2.54136199171676E-03 
1190	 2.30567945557023E-03 
1191	 2.25121593633042E-03 
1192	 2.30158563675318E-03 
1193	 2.45437496263828E-03 
1194	 2.62301095352354E-03 
1195	 2.86313385836484E-03 
1196	 2.89339413286539E-03 
1197	 2.8270675299473E-03 
1198	 2.73600742410902E-03 
1199	 2.61196598407429E-03 
1200	 2.54068341242019E-03 
1201	 2.55409111618084E-03 
1202	 2.78089461841604E-03 
1203	 2.82741270156328E-03 
1204	 2.62945367263515E-03 
1205	 2.54438377954202E-03 
1206	 2.48346269473007E-03 
1207	 2.38865921491871E-03 
1208	 2.38453320609942E-03 
1209	 2.50369030240537E-03 
1210	 2.45522361418437E-03 
1211	 2.29515364741748E-03 
1212	 2.43420101469992E-03 
1213	 2.56144253044328E-03 
1214	 2.52508669675551E-03 
1215	 0.002308591517939 
1216	 2.31879464672947E-03 
1217	 2.43745894858198E-03 
1218	 2.4351635292919E-03 
1219	 2.46522305881123E-03 
1220	 2.53291450928429E-03 
1221	 2.49563654730165E-03 
1222	 2.33036395680685E-03 
1223	 2.34476844753309E-03 
1224	 2.61765584684548E-03 
1225	 2.65232085494462E-03 
1226	 2.60461024709795E-03 
1227	 2.68184241364772E-03 
1228	 2.6475368908981E-03 
1229	 2.56351198589748E-03 
1230	 2.55294596908714E-03 
1231	 2.67170928766953E-03 
1232	 2.68249887947232E-03 
1233	 2.49665725410671E-03 
1234	 2.4325145499542E-03 
1235	 2.46390262056356E-03 
1236	 2.43604882952965E-03 
1237	 2.37679314209859E-03 
1238	 2.45829178825582E-03 
1239	 2.61106008901552E-03 
1240	 2.23080999987504E-03 
1241	 1.97134078825445E-03 
1242	 0.002282442453306 
1243	 2.52437149521368E-03 
1244	 2.45354209621591E-03 
1245	 2.42409345491182E-03 
1246	 2.48622974873354E-03 
1247	 2.37875641895313E-03 
1248	 2.35653494743433E-03 
1249	 2.58623429955284E-03 
1250	 2.57201736483377E-03 
1251	 2.17342912065204E-03 
1252	 2.0916698087199E-03 
1253	 2.39304915124008E-03 
1254	 2.39924801002819E-03 
1255	 2.10119141983815E-03 
1256	 2.12410224023465E-03 
1257	 2.46798277859097E-03 
1258	 2.45302094941086E-03 
1259	 2.29698035987292E-03 
1260	 2.37704337108513E-03 
1261	 2.32100934807231E-03 
1262	 2.24576802656412E-03 
1263	 2.28522294283246E-03 
1264	 2.51462434533934E-03 
1265	 2.58595364782796E-03 
1266	 2.4373678926705E-03 
1267	 2.23342918806784E-03 
1268	 2.39012508388837E-03 
1269	 2.47553072578617E-03 
1270	 2.32931879937218E-03 
1271	 2.44446117379939E-03 
1272	 2.63592209105342E-03 
1273	 2.7715113765521E-03 
1274	 2.89605143831645E-03 
1275	 2.80204795032617E-03 
1276	 2.61901977545342E-03 
1277	 2.52329507179708E-03 
1278	 2.48446572358304E-03 
1279	 2.57351506178941E-03 
1280	 2.73904742242021E-03 
1281	 2.68091488125512E-03 
1282	 2.26725549666382E-03 
1283	 2.19974026598755E-03 
1284	 2.27531217059914E-03 
1285	 2.22301908966546E-03 
1286	 2.18578716751643E-03 
1287	 2.23466818871307E-03 
1288	 2.35458857878617E-03 
1289	 2.29760068445155E-03 
1290	 2.19517754172114E-03 
1291	 2.19375417043814E-03 
1292	 2.21242228223456E-03 
1293	 2.08218366111118E-03 
1294	 2.08601603380129E-03 
1295	 2.29159525087581E-03 
1296	 2.42354030795449E-03 
1297	 2.34254465391789E-03 
1298	 2.16936607952691E-03 
1299	 2.29759285397526E-03 
1300	 2.34127078471555E-03 
1301	 2.09176751307142E-03 
1302	 2.24953379323725E-03 
1303	 2.58074499966637E-03 
1304	 2.53420505746004E-03 
1305	 2.36629567454391E-03 
1306	 2.33459351848073E-03 
1307	 2.30357922781857E-03 
1308	 2.14335788486877E-03 
1309	 1.77896693813553E-03 
1310	 1.87042092249911E-03 
1311	 2.40537803453107E-03 
1312	 2.36760370940747E-03 
1313	 2.13043470588659E-03 
1314	 2.24916867004186E-03 
1315	 2.05612769121513E-03 
1316	 1.91849632115205E-03 
1317	 2.51418458473071E-03 
1318	 2.7732977483414E-03 
1319	 2.53474126877187E-03 
1320	 2.38364159179296E-03 
1321	 2.18095119871967E-03 
1322	 2.06628450003322E-03 
1323	 2.21211723572725E-03 
1324	 2.12590798340921E-03 
1325	 1.94744774557755E-03 
1326	 2.10727823509877E-03 
1327	 2.09103565363083E-03 
1328	 1.97883277438147E-03 
1329	 2.39945123057994E-03 
1330	 2.59113402819274E-03 
1331	 2.19951283760485E-03 
1332	 2.23872832116917E-03 
1333	 2.37389337480941E-03 
1334	 2.46594676078379E-03 
1335	 2.56025597085724E-03 
1336	 3.04405120857161E-03 
1337	 2.8137540569323E-03 
1338	 1.87401158598638E-03 
1339	 1.83992815796714E-03 
1340	 1.97983778173529E-03 
1341	 1.93046826727459E-03 
1342	 2.53597731016312E-03 
1343	 2.68496340794485E-03 
1344	 2.16006390321166E-03 
1345	 1.71054447715099E-03 
1346	 1.12375144014018E-03 
1347	 6.4350282219035E-04 
1348	-3.04852492655474E-04 
1349	-1.19031707070869E-03 
1350	-1.19154762565435E-03 
1351	-2.47605107680414E-03 
1352	-6.97359470900574E-03 
1353	-1.03979051245013E-02 
1354	-1.34961052476232E-02 
1355	-8.16685881503647E-03 
1356	-2.82764819533661E-03 
1357	-2.89663429758969E-03 
1358	 2.68499249702058E-02 
1359	-4.38114816304005E-03 
1360	-7.24135992472766E-02 
1361	-6.48143591209879E-02 
1362	-0.108917944791893 
1363	-5.30782191131617E-02 
1364	 2.64268125845732E-02 
1365	-4.38084707557281E-03 
1366	 0.134774078268781 
1367	 0.232124199346825 
1368	 0.172702827180785 
1369	 2.17750321923397E-03 
1370	 3.26439801922977E-02 
1371	 3.87084378545918E-02 
1372	-0.097865979944563 
1373	-0.242613674673649 
1374	-0.17465639159261 
1375	-0.197784745744253 
1376	-0.276108086787824 
1377	 3.29654898060079E-02 
1378	 0.182750959559286 
1379	 3.10937218189912E-03 
1380	-9.58746879039964E-02 
1381	 4.83155091752016E-02 
1382	 0.179600330936083 
1383	 0.118283801369977 
1384	-3.00632070459227E-02 
1385	-0.247834740339481 
1386	-0.236968257347606 
1387	-0.31213559455468 
1388	-0.396251747144009 
1389	 4.89111724578143E-04 
1390	 0.305741116471155 
1391	 1.75009229625893E-02 
1392	 0.246313426876258 
1393	 0.488354842933879 
1394	 0.675178253697381 
1395	 0.507389431957313 
1396	 0.239657845985947 
1397	 7.64597365176843E-02 
1398	-0.279083673300479 
1399	-0.131562552093653 
1400	 7.69175732087101E-02 
1401	 0.167936350077958 
1402	 0.325604825519488 
1403	 9.90736060395117E-02 
1404	-0.102564956067909 
1405	-0.126276368606683 
1406	-6.09235727431586E-02 
1407	-5.50387807503404E-02 
1408	-2.68790251632573E-02 
1409	-1.49057846826263E-02 
1410	-1.77475981625798E-02 
1411	-8.84904077401099E-03 
1412	 1.91727907610362E-02 
1413	 2.00240365172326E-02 
1414	-6.38746847631396E-03 
1415	 8.0622845163678E-03 
1416	 5.43651073626466E-02 
1417	 3.59772739216343E-02 
1418	 1.04699541204764E-03 
1419	 2.23802980028596E-03 
1420	-7.6445748170575E-03 
1421	-1.34044321776753E-02 
1422	 2.5403011729635E-03 
1423	 2.49718329082332E-03 
1424	-0.015120075492207 
1425	-1.51311050473235E-02 
1426	-3.66644359990011E-03 
1427	-3.65323864421908E-03 
1428	-6.85343649780838E-03 
1429	-5.75748147082139E-03 
1430	-6.5036751153637E-03 
1431	-7.93116536700718E-03 
1432	-6.13174030429756E-03 
1433	-4.69713534992313E-03 
1434	-8.48844647955855E-03 
1435	-7.75679050167275E-03 
1436	-7.5493139615278E-04 
1437	 2.7206337642706E-03 
1438	 2.1556373650643E-04 
1439	 4.68098832952454E-03 
1440	 4.97485125914239E-03 
1441	 1.79341493044036E-04 
1442	 3.75535130795888E-03 
1443	 5.95625832408245E-03 
1444	 3.01054247155032E-03 
1445	 1.99191524377936E-03 
1446	 2.54802922568226E-03 
1447	 3.90694396845436E-03 
1448	 3.40199713714885E-03 
1449	 2.19270541349358E-03 
1450	 3.14236172306307E-03 
1451	 3.31061803052442E-03 
1452	 2.16073743180815E-03 
1453	 2.70140302881917E-03 
1454	 3.30832174934409E-03 
1455	 1.80564022733541E-03 
1456	 1.45565234743799E-03 
1457	 3.53174790335995E-03 
1458	 3.65771027864547E-03 
1459	 1.57669008227206E-03 
1460	 1.69217739949087E-03 
1461	 3.44682264001744E-03 
1462	 3.52148850203799E-03 
1463	 2.9792469709189E-03 
1464	 3.36986305936604E-03 
1465	 3.85457925826652E-03 
1466	 3.27311059228478E-03 
1467	 2.79703783802106E-03 
1468	 2.71389733400394E-03 
1469	 1.33905072650985E-03 
1470	 4.68025804924898E-04 
1471	 6.87156008983038E-04 
1472	 1.40772650831961E-03 
1473	 2.30290833939532E-03 
1474	 1.93294260734227E-03 
1475	 1.6435190878287E-03 
1476	 2.04361138556243E-03 
1477	 1.71540769347485E-03 
1478	 1.36834523903069E-03 
1479	 1.87263899081276E-03 
1480	 2.29520260059308E-03 
1481	 1.76473942191384E-03 
1482	 1.93309446047328E-03 
1483	 3.54574207271876E-03 
1484	 3.77123305010631E-03 
1485	 3.0627073322427E-03 
1486	 2.62601537692567E-03 
1487	 1.8206353265146E-03 
1488	 0.00172703668887 
1489	 2.07026713976783E-03 
1490	 2.14652854385009E-03 
1491	 2.50129844605722E-03 
1492	 2.4568378693994E-03 
1493	 1.75190438949908E-03 
1494	 1.75978523539616E-03 
1495	 2.37148508651729E-03 
1496	 2.3722714021013E-03 
1497	 2.1132725952028E-03 
1498	 2.1545544999046E-03 
1499	 2.1623397648437E-03 
1500	 2.04512997036237E-03 
1501	 2.13651331882034E-03 
1502	 2.17160467179997E-03 
1503	 1.76550174487683E-03 
1504	 1.70549436278817E-03 
1505	 2.0280453496013E-03 
1506	 2.2184197238615E-03 
1507	 2.08454576832915E-03 
1508	 1.93391841405216E-03 
1509	 1.65579897930344E-03 
1510	 1.59506115299672E-03 
1511	 2.0071799698421E-03 
1512	 2.15996307716416E-03 
1513	 2.00141787916318E-03 
1514	 2.01021621467042E-03 
1515	 2.05002851776427E-03 
1516	 1.94116702912599E-03 
1517	 1.7857265804844E-03 
1518	 1.78042720381319E-03 
1519	 1.80929380395172E-03 
1520	 1.86958376265231E-03 
1521	 2.0317374006646E-03 
1522	 2.06859569428354E-03 
1523	 1.96980869702514E-03 
1524	 1.84554306794679E-03 
1525	 1.77550506660282E-03 
1526	 1.92243089650592E-03 
1527	 2.06255961788916E-03 
1528	 1.91599311685228E-03 
1529	 1.88644697750812E-03 
1530	 2.07826594465259E-03 
1531	 2.00934950356489E-03 
1532	 1.9168937495535E-03 
1533	 2.10528792199405E-03 
1534	 2.08130259516144E-03 
1535	 1.89676087584308E-03 
1536	 1.81378813924979E-03 
1537	 1.79404106224096E-03 
1538	 1.91870239848554E-03 
1539	 1.93874151449981E-03 
1540	 2.01911892626887E-03 
1541	 2.22425036050904E-03 
1542	 2.02889015367405E-03 
1543	 1.78061171744739E-03 
1544	 2.02955433564027E-03 
1545	 2.22998893050756E-03 
1546	 1.96135691561026E-03 
1547	 1.78005395260042E-03 
1548	 1.95250909450625E-03 
1549	 2.09867874771635E-03 
1550	 2.0180583368002E-03 
1551	 1.98691695415435E-03 
1552	 2.10072492215279E-03 
1553	 2.0203009600527E-03 
1554	 1.89242193674883E-03 
1555	 2.06922914024379E-03 
1556	 2.15268394271511E-03 
1557	 1.89030440043018E-03 
1558	 1.8141894932601E-03 
1559	 1.98970196544631E-03 
1560	 1.99825306876785E-03 
1561	 1.94336414302037E-03 
1562	 1.99820247837621E-03 
1563	 1.91632880932653E-03 
1564	 1.76135973949298E-03 
1565	 1.83142111576075E-03 
1566	 1.95245146716237E-03 
1567	 2.04890113815132E-03 
1568	 2.10177810934232E-03 
1569	 2.07289833332539E-03 
1570	 2.08883499666897E-03 
1571	 2.07103700013265E-03 
1572	 2.12545377161272E-03 
1573	 2.25087704418811E-03 
1574	 2.18927680056939E-03 
1575	 1.93843459089446E-03 
1576	 1.8975884294628E-03 
1577	 2.17669186765011E-03 
1578	 2.1718640326511E-03 
1579	 1.94343191749324E-03 
1580	 1.95691111127848E-03 
1581	 2.02231277090032E-03 
1582	 2.03043377623217E-03 
1583	 2.11904745543656E-03 
1584	 2.22939429832056E-03 
1585	 2.21882827706356E-03 
1586	 2.19214911867995E-03 
1587	 2.27622206332439E-03 
1588	 2.10388248112974E-03 
1589	 1.72327407620489E-03 
1590	 1.76694337659455E-03 
1591	 2.06200539678193E-03 
1592	 2.13250677895079E-03 
1593	 2.00870396970627E-03 
1594	 1.83641774931894E-03 
1595	 1.78148886623185E-03 
1596	 1.79651239546866E-03 
1597	 1.93485935240633E-03 
1598	 2.06299091004884E-03 
1599	 1.97323220636998E-03 
1600	 2.00392691086825E-03 
1601	 2.08523141874329E-03 
1602	 2.17921183271064E-03 
1603	 2.31750348217089E-03 
1604	 2.19316573879749E-03 
1605	 1.99676832279518E-03 
1606	 1.96947453317026E-03 
1607	 1.88989107197312E-03 
1608	 1.97023967129107E-03 
1609	 2.43714880472453E-03 
1610	 2.41851928187951E-03 
1611	 1.80204404089636E-03 
1612	 1.87678654147217E-03 
1613	 2.20159288349329E-03 
1614	 1.99671722755682E-03 
1615	 2.08078738388139E-03 
1616	 2.17309453879979E-03 
1617	 1.93954178359578E-03 
1618	 1.79921420767127E-03 
1619	 1.82737322545912E-03 
1620	 2.00567527604566E-03 
1621	 2.10275527084831E-03 
1622	 2.05589758467917E-03 
1623	 1.9997298647004E-03 
1624	 1.9246559242994E-03 
1625	 1.6994733171854E-03 
1626	 1.76165975640913E-03 
1627	 2.21627620601288E-03 
1628	 2.22344466052311E-03 
1629	 1.87829192113535E-03 
1630	 1.81881154180985E-03 
1631	 1.90048278464591E-03 
1632	 1.91822951127381E-03 
1633	 2.05110000508354E-03 
1634	 2.12196038080288E-03 
1635	 1.97053478620114E-03 
1636	 1.91526230186772E-03 
1637	 1.94154629086676E-03 
1638	 2.03813502468376E-03 
1639	 2.15567081876568E-03 
1640	 2.08469970968561E-03 
1641	 2.07341185964215E-03 
1642	 2.03585781154655E-03 
1643	 1.94615027429452E-03 
1644	 2.17956398054209E-03 
1645	 2.33730825244468E-03 
1646	 2.2190884207053E-03 
1647	 2.15395517992467E-03 
1648	 2.06442856036098E-03 
1649	 2.03595500800754E-03 
1650	 2.26685404786226E-03 
1651	 2.44366250239717E-03 
1652	 2.3779580966628E-03 
1653	 2.4691539606606E-03 
1654	 2.40070613377481E-03 
1655	 2.19237528136825E-03 
1656	 2.19385585091286E-03 
1657	 2.09487737092131E-03 
1658	 2.05287497520234E-03 
1659	 2.29010504783733E-03 
1660	 2.31638218134308E-03 
1661	 2.23954923174536E-03 
1662	 2.1699012198401E-03 
1663	 1.95341641643128E-03 
1664	 1.93865303092094E-03 
1665	 2.08700189701731E-03 
1666	 2.01696109011034E-03 
1667	 1.88397964893241E-03 
1668	 1.70984348005282E-03 
1669	 1.68792667745785E-03 
1670	 1.77943400025192E-03 
1671	 2.16843849398922E-03 
1672	 2.45498691782336E-03 
1673	 2.28545172616029E-03 
1674	 2.12038492691625E-03 
1675	 2.06005985401679E-03 
1676	 2.04228142925098E-03 
1677	 2.08663064841701E-03 
1678	 2.18203640765814E-03 
1679	 2.16722834413153E-03 
1680	 2.18218674495426E-03 
1681	 2.1575003266055E-03 
1682	 2.05296909759136E-03 
1683	 2.35789864768558E-03 
1684	 2.42375793426126E-03 
1685	 2.16562074733872E-03 
1686	 2.22581724879729E-03 
1687	 2.24023921945473E-03 
1688	 2.27378547813825E-03 
1689	 2.62254000844697E-03 
1690	 2.50775231985331E-03 
1691	 2.05264398737161E-03 
1692	 2.20176537183012E-03 
1693	 2.43538860443943E-03 
1694	 2.61460778229048E-03 
1695	 2.73474232101833E-03 
1696	 2.23977268076563E-03 
1697	 1.88619450545266E-03 
1698	 2.16468518395158E-03 
1699	 2.44457863459531E-03 
1700	 2.51249620464644E-03 
1701	 2.18365939023507E-03 
1702	 1.78205320024057E-03 
1703	 2.00055574018856E-03 
1704	 2.32834599346467E-03 
1705	 2.42417436223112E-03 
1706	 2.22433192853534E-03 
1707	 1.64651851558293E-03 
1708	 1.45129174747915E-03 
1709	 1.92676490966068E-03 
1710	 2.3441328102302E-03 
1711	 2.3108062957667E-03 
1712	 2.27982574016997E-03 
1713	 2.15757162786656E-03 
1714	 2.10107746900015E-03 
1715	 2.42645819509157E-03 
1716	 2.12710391847669E-03 
1717	 1.96186833810721E-03 
1718	 2.12841783517447E-03 
1719	 2.0430173838102E-03 
1720	 1.74719047948345E-03 
1721	 1.95328663736282E-03 
1722	 2.1210395483842E-03 
1723	 2.30129487240158E-03 
1724	 2.58928759174325E-03 
1725	 2.2509004940186E-03 
1726	 1.89542651330043E-03 
1727	 0.001853996821566 
1728	 2.04576767735685E-03 
1729	 2.46085389527007E-03 
1730	 2.23633965065451E-03 
1731	 1.85266560954913E-03 
1732	 1.9255975521286E-03 
1733	 1.72410320623544E-03 
1734	 1.75529419022194E-03 
1735	 2.16858110941439E-03 
1736	 2.09103799023422E-03 
1737	 1.92649745747178E-03 
1738	 2.19016297451525E-03 
1739	 2.36325243621047E-03 
1740	 2.49446327923989E-03 
1741	 2.66115026600852E-03 
1742	 2.21330512978165E-03 
1743	 1.80248652601718E-03 
1744	 1.95246337630876E-03 
1745	 0.001931943578009 
1746	 2.53935971057912E-03 
1747	 2.7991759734838E-03 
1748	 2.21968149778026E-03 
1749	 2.13317720776324E-03 
1750	 2.39919545449755E-03 
1751	 2.38939463624874E-03 
1752	 2.60082730645159E-03 
1753	 2.74970601521777E-03 
1754	 2.73016924139685E-03 
1755	 2.63458330223265E-03 
1756	 2.39260406804138E-03 
1757	 1.72058699582262E-03 
1758	 1.26050204233667E-03 
1759	 1.70053331680038E-03 
1760	 2.25873854066301E-03 
1761	 2.08467365941459E-03 
1762	 2.35995582688891E-03 
1763	 2.55540618930341E-03 
1764	 1.85743669647746E-03 
1765	 1.88973659669665E-03 
1766	 2.23414633229249E-03 
1767	 1.66010952759132E-03 
1768	 1.50824446190794E-03 
1769	 1.83099235028413E-03 
1770	 2.05339113887872E-03 
1771	 2.12494291458924E-03 
1772	 1.91104140886432E-03 
1773	 1.73563407216043E-03 
1774	 1.48685805448174E-03 
1775	 2.82898627298337E-03 
1776	 3.30682533494365E-03 
1777	 3.95853661708684E-03 
1778	 4.37657997380704E-03 
1779	 2.93652274437443E-03 
1780	 2.7231319702387E-03 
1781	 4.34052296360621E-03 
1782	 4.07387964592545E-03 
1783	 2.96638548280346E-03 
1784	 3.45262755537819E-03 
1785	 3.79366972035367E-03 
1786	 2.76540998853295E-03 
1787	 1.79013869987323E-03 
1788	 1.34443789167228E-03 
1789	-1.22580598732934E-03 
1790	 1.52298981949877E-03 
1791	 5.20543998974174E-03 
1792	 5.65526815745187E-03 
1793	 5.17098259431684E-03 
1794	 1.46832506623645E-03 
1795	-9.59036204975004E-04 
1796	 2.19229316334722E-03 
1797	 3.51221845802739E-03 
1798	 1.00473936805075E-02 
1799	 1.44806878752943E-02 
1800	 2.55482148961364E-03 
1801	-5.51237961779152E-04 
1802	-6.20037466977688E-03 
1803	-9.01903089349182E-03 
1804	 1.41819787524953E-02 
1805	 1.55793270666718E-02 
1806	-1.90157065975866E-02 
1807	-3.08314272408638E-02 
1808	-5.07552089164541E-02 
1809	-5.28023087529573E-02 
1810	 1.76677352305585E-02 
1811	 5.86320316622262E-02 
1812	 0.107385773180701 
1813	 0.108328517769034 
1814	 2.39684132893427E-02 
1815	 7.68385405083871E-03 
1816	-7.11673199381472E-02 
1817	-7.98066286889343E-02 
1818	 3.33008507388888E-02 
1819	 3.27723464754696E-02 
1820	 8.63966583783235E-02 
1821	 0.366155999421821 
1822	 0.545848691499947 
1823	 6.22886892256172E-04 
1824	-7.60905452408102E-02 
1825	 1.45107597494556E-03 
1826	 1.29369619511932E-02 
1827	 0.212770334322945 
1828	 0.235865650549984 
1829	-1.81009944220182E-02 
1830	-0.132644021375564 
1831	 1.20478787311229 
1832	 1.21711610476286 
1833	 0.911500112447698 
1834	 0.883299245309879 
1835	 0.718285748464421 
1836	 0.754551228026931 
1837	 1.58068730935897 
1838	 1.6278416293257 
1839	 0.980925275613324 
1840	 0.996816073862767 
1841	 0.81474682186075 
1842	 0.728767100818964 
1843	 0.628706352060597 
1844	 0.948132026323068 
1845	 1.11285427038715 
1846	 0.482441232361748 
1847	 0.261394698246094 
1848	 5.44427077509042E-03 
1849	 0.144294148509775 
1850	-0.930244638749798 
1851	-0.149703748135978 
1852	 0.5203216202487 
1853	 0.505228734377434 
1854	 0.432984648081175 
1855	 0.223226376731266 
1856	 0.378412570169916 
1857	 1.24520581339422 
1858	-1.69357844941275 
1859	-0.701997066420982 
1860	-0.401587873976808 
1861	-0.294073129524925 
1862	-0.512582751819591 
1863	-2.00546351419527 
1864	-2.92566216485654 
1865	-7.2397048585155 
1866	 0.670860546508716 
1867	 0.274176703658697 
1868	-0.334271294845074 
1869	-0.23011481080425 
1870	 0.67914291271855 
1871	 3.31883302106557 
1872	 6.94477265937901 
1873	-28.6922511741216 
1874	 7.3311098317977 
1875	 1.02953112819907 
1876	 0.451008836670687 
1877	 1.57366543825309 
1878	 0.974204317417832 
1879	 0.121506384037148 
1880	-0.702331549786855 
1881	-1.9497429492608 
1882	-3.15818504789129 
1883	 2.83364467840454 
1884	-7.33995297132638 
1885	 0.528102212987139 
1886	-3.90142905023862 
1887	 1.39946901467407 
1888	 0.7973511066332 
1889	 0.725623283690754 
1890	 0.155654922497613 
1891	 0.119168318758813 
1892	 0.653172280619327 
1893	 0.816649907890072 
1894	 0.681058717356296 
1895	 0.278246639388938 
1896	 0.117314721465435 
1897	-1.45166472578691E-03 
1898	-4.16771632246107E-02 
1899	 0.727576333606738 
1900	 1.51112764907183 
1901	 2.96301386219145 
1902	 9.89609774088714 
1903	 5.76021986364463 
1904	 1.76976649096491 
1905	 2.67953356681738 
1906	 22.2747481687181 
1907	-2.9596183738449 
1908	-8.61387050187775 
1909	-2.38171244777377 
1910	-1.27149204760773 
1911	-3.6105073173697 
1912	-4.4221005785555 
1913	-1.78948453439177 
1914	-0.85542870661408 
1915	-0.410766410930698 
1916	 0.213264442255583 
1917	 0.635620038688216 
1918	 0.213387350245215 
1919	-0.316389035600335 
1920	 2.08390855451814 
1921	 3.33077156162145E-02 
1922	-0.920401239660473 
1923	 11.7198521590874 
1924	 4.94161519845936 
1925	 1.57632487238351 
1926	 3.18172951144196 
1927	 3.34645041265807 
1928	 0.837029654441256 
1929	 0.370544586173688 
1930	 0.274680373990093 
1931	-0.119018352905717 
1932	 2.82609459152292E-02 
1933	 0.128948450199333 
1934	 0.109416771205518 
1935	 0.228878248500752 
1936	 0.244563120395127 
1937	 0.146353266615774 
1938	 0.10196819527303 
1939	 7.60409944531132E-02 
1940	 6.25738009147538E-02 
1941	 4.25517986427792E-02 
1942	 3.08277733079267E-02 
1943	 9.50567829651512E-03 
1944	-1.30506493828836E-02 
1945	-2.98361873437151E-03 
1946	 1.92241983491193E-02 
1947	 1.95322980850293E-02 
1948	 3.51863464920455E-03 
1949	 8.48821047793926E-03 
1950	 2.49609590257332E-02 
1951	 3.63741012715915E-02 
1952	 3.30642794032346E-02 
1953	 3.24614572277269E-02 
1954	 1.49329137861943E-02 
1955	-7.92502993402657E-03 
1956	-1.66983186462232E-02 
1957	-8.64993824165975E-03 
1958	 3.57024700547994E-03 
1959	 1.33559466609957E-02 
1960	 1.19616073818156E-02 
1961	 5.40494951616417E-03 
1962	 5.51044742199893E-03 
1963	 5.44750858336176E-03 
1964	 1.99576763189032E-03 
1965	 2.95761429473685E-03 
1966	 4.3408668858816E-03 
1967	 6.02635668640607E-03 
1968	 3.1075307951881E-03 
1969	 2.93701483345723E-03 
1970	 4.52919291860818E-03 
1971	 1.32140109507578E-03 
1972	-2.6939287125403E-05 
1973	 2.16652127358068E-03 
1974	 2.61114670340746E-03 
1975	 3.20126250875119E-03 
1976	 4.2358037030942E-03 
1977	 3.80067476257459E-03 
1978	 2.95982666665203E-03 
1979	 2.49703938665517E-03 
1980	 2.12078281111313E-03 
1981	 2.20535424098447E-03 
1982	 2.28189861174906E-03 
1983	 2.14086058626405E-03 
1984	 1.60705753231062E-03 
1985	 1.06060819452154E-03 
1986	 9.23865965968451E-04 
1987	 7.12993222378754E-04 
1988	 1.4608173094394E-03 
1989	 2.62305994773967E-03 
1990	 2.16781039037379E-03 
1991	 5.99637227483458E-04 
1992	 8.63135289451009E-04 
1993	 1.86122601285577E-03 
1994	 1.7092814854202E-03 
1995	 1.45336569939452E-03 
1996	 2.49283299506418E-03 
1997	 2.48881844549003E-03 
1998	 1.94271321736715E-03 
1999	 3.19835246690176E-03 
2000	 5.27839897957024E-03 
2001	 6.88792285528145E-03 
2002	 5.75134172511111E-03 
2003	 4.46558107479586E-03 
2004	 4.89200935917152E-03 
2005	 6.82444335467487E-03 
2006	 1.04081625853593E-02 
2007	 1.15827488479286E-02 
2008	 1.10276388554689E-02 
2009	 1.00846247147814E-02 
2010	 4.98250700260168E-03 
2011	 2.56310759847028E-03 
2012	 4.88270463243827E-04 
2013	 1.27140364699129E-03 
2014	 2.91789985576007E-03 
2015	 4.62392111814022E-03 
2016	 6.7581051463039E-03 
2017	 7.47130748918398E-03 
2018	 7.41849557518216E-03 
2019	 5.64147537605567E-03 
2020	 2.9669826094073E-03 
2021	 1.62517024997551E-03 
2022	 6.00282428817477E-04 
2023	 5.14039648373763E-04 
2024	 7.34106927346366E-04 
2025	 1.96744900623443E-03 
2026	 2.75375250482081E-03 
2027	 3.99170145854059E-03 
2028	 3.61723991396897E-03 
2029	 3.35233509923785E-03 
2030	 3.07079407674122E-03 
2031	 2.29733947450586E-03 
2032	 2.11303033362088E-03 
2033	 2.45038340365079E-03 
2034	 2.28243900841979E-03 
2035	 1.57743656675821E-03 
2036	 1.40065174201156E-03 
2037	 1.48893262173929E-03 
2038	 2.19729580805211E-03 
2039	 2.73330212877035E-03 
2040	 4.02800858226212E-03 
2041	 4.25461653660224E-03 
2042	 3.63095552304848E-03 
2043	 3.18821765406556E-03 
2044	 2.14756145548457E-03 
2045	 1.79736261490755E-03 
2046	 2.14558556256862E-03 
2047	 2.9615722743244E-03 
2048	 3.24902422493351E-03 
2049	 3.06903834879319E-03 
2050	 2.18324051370809E-03 
2051	 8.49398115168858E-04 
2052	 2.46193481775095E-04 
2053	-1.81461415179743E-04 
2054	-2.25708647018428E-04 
2055	 7.01322783408361E-04 
2056	 1.24443796583228E-03 
2057	 2.14952743524968E-03 
2058	 2.78761722248221E-03 
2059	 3.07029687020831E-03 
2060	 3.20570613914811E-03 
2061	 3.39526718990353E-03 
2062	 3.42134805740177E-03 
2063	 2.41000592363605E-03 
2064	 2.22760699807177E-03 
2065	 2.82050302593532E-03 
2066	 2.50174438533049E-03 
2067	 1.38952284104416E-03 
2068	 1.17430759018518E-03 
2069	 1.04846146821294E-03 
2070	 6.14516416170546E-04 
2071	 2.02514924168188E-03 
2072	 3.55968942024699E-03 
2073	 3.52571779505594E-03 
2074	 1.87947846967534E-03 
2075	 1.62098812875764E-03 
2076	 1.48194571067883E-03 
2077	 1.03191594675736E-03 
2078	 5.03748801932692E-04 
2079	 7.48608098582064E-04 
2080	 1.50152210704193E-03 
2081	 1.09235986181177E-03 
2082	 8.04198092417755E-04 
2083	 1.30213577483726E-03 
2084	 6.31182007161154E-04 
2085	-2.08314382990738E-06 
2086	 7.95068884235954E-04 
2087	 1.26499459760106E-03 
2088	 1.21798042287411E-03 
2089	 1.37711859009005E-03 
2090	 1.39413654619274E-03 
2091	 1.61884241311554E-03 
2092	 1.94794457540772E-03 
2093	 2.66379954590509E-03 
2094	 3.09839835657887E-03 
2095	 3.68688025991576E-03 
2096	 3.76658316877209E-03 
2097	 3.4442304591576E-03 
2098	 3.40777997067988E-03 
2099	 3.1055353898617E-03 
2100	 2.91201758167284E-03 
2101	 3.31745801684479E-03 
2102	 3.33881983392391E-03 
2103	 3.03952159260843E-03 
2104	 2.68815207779996E-03 
2105	 2.12838013538863E-03 
2106	 1.64094925882171E-03 
2107	 1.87298624912201E-03 
2108	 1.82640857067275E-03 
2109	 1.90287490065402E-03 
2110	 2.36561085628058E-03 
2111	 1.70646858746746E-03 
2112	 9.6863731992073E-04 
2113	 8.67494243692472E-04 
2114	 1.05387438976077E-03 
2115	 1.00564716880031E-03 
2116	 1.20959376381662E-03 
2117	 1.46403234160569E-03 
2118	 1.54493987092121E-03 
2119	 1.79205098807007E-03 
2120	 2.44439827816103E-03 
2121	 3.04270314967852E-03 
2122	 3.12123157318913E-03 
2123	 1.96492758819234E-03 
2124	 1.07504083462494E-03 
2125	 9.08939952554138E-04 
2126	 8.85399442454827E-04 
2127	 6.19216928316239E-04 
2128	 6.84978324712664E-04 
2129	 1.31331691712909E-03 
2130	 2.14052705458455E-03 
2131	 3.21694677341552E-03 
2132	 3.05886568843975E-03 
2133	 2.4724681123945E-03 
2134	 2.21765005163524E-03 
2135	 1.36009503486721E-03 
2136	 1.03817157708056E-03 
2137	 1.29141089844305E-03 
2138	 1.48035260525599E-03 
2139	 1.73679541860024E-03 
2140	 1.82573421658743E-03 
2141	 2.15848853461633E-03 
2142	 2.35424273207496E-03 
2143	 2.46025841042237E-03 
2144	 1.81640439387545E-03 
2145	 2.15906105949537E-03 
2146	 2.9376043997606E-03 
2147	 2.91576510270466E-03 
2148	 3.14508776474593E-03 
2149	 3.45972832078394E-03 
2150	 2.36356694959338E-03 
2151	 7.17806070685126E-04 
2152	 1.33427907769824E-03 
2153	 2.33055585703476E-03 
2154	 2.38211389106578E-03 
2155	 3.06041199509243E-03 
2156	 3.68359073451032E-03 
2157	 4.08709780186911E-03 
2158	 4.30421689155672E-03 
2159	 3.69322761538027E-03 
2160	 2.41324441411453E-03 
2161	 1.92138421978234E-03 
2162	 5.60551403382314E-04 
2163	 1.7330156980672E-04 
2164	 1.42441669161508E-03 
2165	 1.94936377320843E-03 
2166	 0.002147902263727 
2167	 2.20317175313381E-03 
2168	 2.27226389499908E-03 
2169	 2.29700483708879E-03 
2170	 1.98539027764244E-03 
2171	 1.78789205109613E-03 
2172	 1.76765683352116E-03 
2173	 1.15881032407166E-03 
2174	 5.91830505991579E-04 
2175	 1.29009481861531E-03 
2176	 1.96944812174758E-03 
2177	 2.52074404384271E-03 
2178	 3.51650968499254E-03 
2179	 3.63740649414484E-03 
2180	 3.16518685664754E-03 
2181	 3.16536433208028E-03 
2182	 2.02901466744519E-03 
2183	 1.25770890826141E-03 
2184	 1.77351999580152E-03 
2185	 8.53806311921041E-04 
2186	 1.12918334659217E-03 
2187	 2.83790298493748E-03 
2188	 2.61482042198852E-03 
2189	 1.19581920494271E-03 
2190	 1.69398457631811E-03 
2191	 2.17805895230178E-03 
2192	 1.50963774990949E-03 
2193	 2.21290777955312E-03 
2194	 2.38531897478054E-03 
2195	 3.03619289512822E-04 
2196	-5.41422760082532E-04 
2197	-2.55143711583503E-04 
2198	-3.66815374387785E-04 
2199	-7.08107535185257E-04 
2200	-1.1316056782375E-03 
2201	-1.31684443270278E-03 
2202	-4.32813425575168E-04 
2203	 1.07707589632359E-03 
2204	 3.39990266504466E-03 
2205	 4.86781307018583E-03 
2206	 4.76520919212161E-03 
2207	 0.004276553437819 
2208	 3.82929917486248E-03 
2209	 4.20692229950788E-03 
2210	 3.99270258770416E-03 
2211	 1.4901686756212E-03 
2212	 7.69897038397611E-05 
2213	 7.172084039036E-04 
2214	 1.33661768623558E-03 
2215	 0.003344333179029 
2216	 4.09158571904663E-03 
2217	 3.70775202558853E-03 
2218	 1.24399712659742E-03 
2219	-9.1716691521763E-05 
2220	-2.09925680160096E-03 
2221	-2.13152179103485E-03 
2222	-1.43494048872618E-03 
2223	-9.51889793457708E-04 
2224	 1.27000737107045E-03 
2225	 1.65502148125625E-03 
2226	 2.42093928273645E-04 
2227	 5.83362355114196E-04 
2228	 2.05701220717956E-03 
2229	 2.37817861151622E-03 
2230	 2.57850120538534E-03 
2231	 3.17287073572003E-03 
2232	 3.10622926030736E-03 
2233	 2.78249999695224E-03 
2234	 2.67211639563821E-03 
2235	 2.98613054835252E-03 
2236	 3.09316946860995E-03 
2237	 3.08311931734085E-03 
2238	 2.41901728545744E-03 
2239	 2.93156601572191E-03 
2240	 3.81135782984643E-03 
2241	 3.14639363883532E-03 
2242	 2.51651160750183E-03 
2243	 2.06010296107553E-03 
2244	-7.48498779077984E-04 
2245	-2.06276050549126E-03 
2246	 6.69046925122877E-05 
2247	 1.55092314437649E-03 
2248	 2.4530610290368E-03 
2249	 2.68467784567069E-03 
2250	 1.6188381620381E-03 
2251	 1.61382346351967E-03 
2252	 3.62702223552423E-03 
2253	 4.21638270902122E-03 
2254	 1.9654045610752E-03 
2255	 1.8963817060896E-03 
2256	 3.9247500888871E-03 
2257	 3.69288714864344E-03 
2258	 4.06509734931532E-03 
2259	 4.92041833389126E-03 
2260	 4.80432347167145E-03 
2261	 1.3766078570692E-03 
2262	 8.2407747054058E-04 
2263	 2.58007342713718E-03 
2264	 3.19705807967376E-03 
2265	 3.50374492959833E-03 
2266	 3.64806766192625E-03 
2267	 3.36656584561363E-03 
2268	 3.43261071031515E-03 
2269	 4.17266201902904E-03 
2270	 3.97696708521536E-03 
2271	 3.37393232607956E-03 
2272	 3.60362480901349E-03 
2273	 3.76458753333024E-03 
2274	 2.20472946046631E-03 
2275	-2.64122289174869E-04 
2276	-8.12631692259427E-04 
2277	-1.47608326103201E-03 
2278	-1.94575954861512E-03 
2279	-1.13860105267316E-04 
2280	 6.02246046557849E-04 
2281	 1.00017906453361E-03 
2282	-2.0295456552334E-03 
2283	-3.37176426077764E-03 
2284	-2.0507774781983E-03 
2285	 4.13903697606356E-04 
2286	 2.38093260669339E-03 
2287	 3.16369313284429E-03 
2288	 3.74088291279628E-03 
2289	 3.34685176284008E-03 
2290	 3.32593903143501E-03 
2291	 3.99833257978652E-03 
2292	 5.85660392736761E-03 
2293	 6.40723212324975E-03 
2294	 4.9039467956202E-03 
2295	 6.14105477176424E-03 
2296	 6.4439533581305E-03 
2297	 3.57204883256036E-03 
2298	 2.31285483550585E-03 
2299	 2.27082227216509E-03 
2300	 1.2317794486473E-03 
2301	 1.24385689770813E-03 
2302	 1.15609133922102E-03 
2303	-1.48138125559143E-03 
2304	-4.02277244314956E-03 
2305	-3.54740375075072E-03 
2306	-3.39020374808098E-03 
2307	-3.57886287474634E-03 
2308	-2.58017334962546E-03 
2309	-5.5258416041579E-03 
2310	-5.56226899428777E-03 
2311	-3.25188056526761E-04 
2312	 1.32686349799196E-03 
2313	 9.01095518934269E-04 
2314	 6.8893405095832E-04 
2315	-1.80785501714397E-03 
2316	-4.51405624358335E-03 
2317	-2.40444710908673E-03 
2318	 6.34811846296827E-04 
2319	 1.30463789516937E-03 
2320	 2.78937069022755E-03 
2321	 6.66558025056558E-03 
2322	 1.22947254295952E-02 
2323	 1.35865397773007E-02 
2324	 1.14148850591056E-02 
2325	 7.34805622332626E-03 
2326	-4.47131679670742E-04 
2327	-3.15168301114771E-03 
2328	-4.40761177844943E-04 
2329	 3.27965245653477E-03 
2330	 6.81475138589962E-03 
2331	 9.20178195535313E-03 
2332	 8.31755504489311E-03 
2333	 6.84854878969106E-03 
2334	 9.77582002821084E-03 
2335	 8.93775218873332E-03 
2336	 5.01935423980449E-03 
2337	 3.43258854757164E-03 
2338	 2.25625372043507E-03 
2339	-9.8421959044539E-04 
2340	-1.96217516907103E-03 
2341	-2.6184248488383E-05 
2342	-6.22838490779511E-04 
2343	 1.32710383158601E-03 
2344	 4.38390773587748E-03 
2345	 3.31821174530948E-03 
2346	 3.14232189908211E-04 
2347	-4.92772475264424E-04 
2348	-4.48787280610784E-03 
2349	-4.85253794345468E-03 
2350	 7.03510549358237E-03 
2351	 1.09821403574961E-02 
2352	 9.59478134059118E-03 
2353	 9.43066060326852E-03 
2354	-1.82840921474063E-03 
2355	-9.05349955152876E-03 
2356	-5.0743719841411E-03 
2357	-2.53640411557067E-03 
2358	-4.83920792387584E-03 
2359	-7.3526378895462E-03 
2360	-4.47588803647707E-03 
2361	-2.55680974327038E-03 
2362	-6.34195746993179E-05 
2363	 4.09137330153397E-03 
2364	-6.9986769292283E-05 
2365	-1.16658295851226E-02 
2366	-1.50224800856434E-02 
2367	-1.44066749201802E-02 
2368	-1.78989259767408E-02 
2369	-5.6369633742701E-03 
2370	 1.31209672830177E-02 
2371	 2.40749922919321E-02 
2372	 2.69885263216213E-02 
2373	 2.05981449200956E-02 
2374	 7.02584132346122E-03 
2375	-9.7386763005951E-03 
2376	-1.80154970944079E-02 
2377	-2.02326372479148E-02 
2378	-0.012433401986697 
2379	-1.05907608724017E-03 
2380	 5.66484351077435E-03 
2381	 1.09943615902827E-02 
2382	-5.14192839641333E-03 
2383	-3.46341177860919E-02 
2384	-4.13194148268725E-02 
2385	-2.54306756072651E-02 
2386	-2.24565060285364E-02 
2387	-2.64616707404631E-02 
2388	-2.40165547041415E-02 
2389	-2.27296055142345E-02 
2390	-1.80716480810181E-02 
2391	-1.89278738891154E-02 
2392	 3.8284804710995E-03 
2393	 4.08961502922616E-02 
2394	 5.29870830322477E-02 
2395	 5.37432020959084E-02 
2396	 5.10054755139401E-02 
2397	 3.44550057543578E-02 
2398	 1.41834645646432E-02 
2399	 3.27879543653929E-02 
2400	 5.41254155866125E-02 
2401	 1.49957325495375E-02 
2402	-1.38322385968132E-02 
2403	 8.91403650586359E-03 
2404	 1.29994873157856E-03 
2405	 6.69666836704834E-03 
2406	 5.35914224369361E-02 
2407	 2.45092217827603E-02 
2408	 6.48996921863898E-03 
2409	 5.71252531518618E-02 
2410	 0.055620209525003 
2411	 3.11977213032164E-02 
2412	-1.44448023266895E-02 
2413	-9.49711211823986E-02 
2414	-0.138764801303649 
2415	-5.87825082670086E-02 
2416	 4.83994282357784E-02 
2417	 8.58792398827535E-02 
2418	 0.123259301278771 
2419	 1.94232502749097E-02 
2420	-0.114406501045644 
2421	-0.10363323043456 
2422	-0.055496407191549 
2423	-3.95197256969745E-02 
2424	 3.50719822917751E-03 
2425	-2.96801551795211E-03 
2426	-3.00586840695303E-02 
2427	-1.29493367268498E-03 
2428	 0.020758418783784 
2429	 5.03924756324126E-02 
2430	 1.74113935709009E-03 
2431	-5.47815837431401E-02 
2432	-5.66145869733261E-02 
2433	-0.155221734471932 
2434	-0.164689988212262 
2435	-0.118933141295371 
2436	-0.104622655753699 
2437	 2.35468074936413E-02 
2438	 0.132190096228806 
2439	 0.125109216925481 
2440	 9.97743214585737E-02 
2441	 0.102353314968486 
2442	 0.116109154599572 
2443	 0.163706388337648 
2444	 0.157845217918884 
2445	 4.19372814416657E-03 
2446	-5.33802210277616E-02 
2447	 2.98150395458031E-02 
2448	-0.016571949910445 
2449	 5.03154936649179E-02 
2450	 0.113134118000325 
2451	 0.111049592192756 
2452	 0.121693970441248 
2453	 0.098767812739054 
2454	 1.33325672360148E-02 
2455	-6.39574384596599E-02 
2456	 3.04931138593086E-02 
2457	-2.14858001842621E-02 
2458	-0.196760472521955 
2459	-0.300226394439548 
2460	-0.427377791527059 
2461	-0.520724168417577 
2462	-0.40939730725001 
2463	-0.570154374143729 
2464	-1.01898687961212 
2465	-0.80258139871236 
2466	-0.683252070054825 
2467	-0.543090285856727 
2468	-0.149897944260458 
2469	 0.364753857572879 
2470	 0.105589008872922 
2471	-0.334741363957077 
2472	-0.406324539385074 
2473	-0.733642171681324 
2474	-0.564689811432334 
2475	 0.356861557681459 
2476	 0.989791839684621 
2477	 0.256446967786544 
2478	 9.26033521678149E-02 
2479	-8.75545078437707E-02 
2480	-0.415408927930585 
2481	-0.605439532007632 
2482	-0.100306121029112 
2483	 0.348309070096735 
2484	-44.6119842786307 
2485	 4.34320825517749 
2486	 0.947647231573704 
2487	 1.47028860037712 
2488	 2.57552399160486 
2489	-5.14210037246252 
2490	-1.23806902904978 
2491	-1.73325835134636 
2492	 1.30527967119865 
2493	-1.40192936001535 
2494	 1.22871370143727 
2495	 74.5190871123201 
2496	 15.295462863212 
2497	-14.237712085235 
2498	-1.35852745568939 
2499	-1.06686133791314 
2500	-0.465953294753904 
