Wavelength	rt0718far00006.asd
350	 2.86030790637861E-02 
351	 2.83452530222109E-02 
352	 2.83253935842296E-02 
353	 2.88469155207099E-02 
354	 0.029644823757416 
355	 2.92895975183351E-02 
356	 2.92338947629657E-02 
357	 2.95520840055833E-02 
358	 2.98336447420569E-02 
359	 2.96247512790789E-02 
360	 2.93939627915621E-02 
361	 2.94587488640375E-02 
362	 2.98840515673337E-02 
363	 2.96069240412288E-02 
364	 2.93757065200372E-02 
365	 0.029637621415021 
366	 3.00624943772873E-02 
367	 3.02025711583259E-02 
368	 3.00628131571201E-02 
369	 2.98426783890886E-02 
370	 2.98852283143258E-02 
371	 2.97524935447492E-02 
372	 2.96376364004634E-02 
373	 2.99898712790972E-02 
374	 3.00255587837434E-02 
375	 3.00295145416773E-02 
376	 3.02906340278246E-02 
377	 3.09260161767612E-02 
378	 3.05453131840979E-02 
379	 3.02479867648025E-02 
380	 3.09668266230225E-02 
381	 3.12697789855442E-02 
382	 3.10895979556199E-02 
383	 3.07481049158299E-02 
384	 3.07878131407922E-02 
385	 3.16049545700668E-02 
386	 3.20294610695813E-02 
387	 3.17635463268021E-02 
388	 3.16154862150047E-02 
389	 3.20467687403342E-02 
390	 3.22268534523621E-02 
391	 3.17753568112058E-02 
392	 3.19699128210762E-02 
393	 3.24261523201879E-02 
394	 3.28635550499829E-02 
395	 3.30704935466345E-02 
396	 3.29752201937771E-02 
397	 3.30978137033108E-02 
398	 3.33750778102692E-02 
399	 3.32704977109225E-02 
400	 3.33301537307262E-02 
401	 3.35377819661684E-02 
402	 3.37483116697931E-02 
403	 3.37206415661986E-02 
404	 3.38192991951532E-02 
405	 3.38999821419353E-02 
406	 3.37594359278322E-02 
407	 0.034003625220211 
408	 0.034264362260539 
409	 3.43481400206617E-02 
410	 3.43098030950898E-02 
411	 0.034494899642003 
412	 3.47084389543362E-02 
413	 3.48122448593839E-02 
414	 3.50548540792215E-02 
415	 3.52985310396822E-02 
416	 0.035451161815038 
417	 3.54816810230759E-02 
418	 3.55710850571821E-02 
419	 3.58477744084332E-02 
420	 3.62127147414547E-02 
421	 3.63481548506953E-02 
422	 3.64077244803523E-02 
423	 3.65948129404124E-02 
424	 3.69356713034319E-02 
425	 0.036908508999221 
426	 3.71695146300583E-02 
427	 3.75997536473594E-02 
428	 0.037773833656288 
429	 3.80334138449592E-02 
430	 3.83541258681501E-02 
431	 3.86496608980687E-02 
432	 3.88062186603405E-02 
433	 0.039195344578663 
434	 3.95461843570853E-02 
435	 3.96602151433336E-02 
436	 3.99911320561662E-02 
437	 4.02168397241597E-02 
438	 4.04525263728648E-02 
439	 4.09649442706241E-02 
440	 4.11295609382751E-02 
441	 4.13203260830814E-02 
442	 4.17105454513482E-02 
443	 4.20228222484624E-02 
444	 0.042343257055977 
445	 4.26421026578996E-02 
446	 4.28783389327753E-02 
447	 4.30552902489714E-02 
448	 4.33439401540682E-02 
449	 4.36774840060803E-02 
450	 0.043835903328748 
451	 4.40228234585002E-02 
452	 4.42794308514436E-02 
453	 0.044555534653796 
454	 4.46562098467875E-02 
455	 4.48299125689062E-02 
456	 0.045043705692085 
457	 4.51902723078711E-02 
458	 0.045360900537434 
459	 4.54822769100917E-02 
460	 4.55853536226766E-02 
461	 0.045802237276533 
462	 4.59804533818474E-02 
463	 0.046138882164267 
464	 4.62894007899656E-02 
465	 4.63007422195392E-02 
466	 4.64950823916206E-02 
467	 4.67575117554239E-02 
468	 4.68208710102733E-02 
469	 4.70794574107918E-02 
470	 4.72496363242994E-02 
471	 4.72909608961965E-02 
472	 4.75612851967872E-02 
473	 4.77638785519726E-02 
474	 4.79122387998669E-02 
475	 4.80839818813536E-02 
476	 4.82830079302155E-02 
477	 4.84921894442162E-02 
478	 4.87046075419003E-02 
479	 4.89236105522245E-02 
480	 4.91794188596134E-02 
481	 4.94093848467252E-02 
482	 4.96034767198093E-02 
483	 4.98832967203203E-02 
484	 5.01412172403331E-02 
485	 5.03786375062399E-02 
486	 5.06390735869958E-02 
487	 5.09659069977246E-02 
488	 0.051224666795094 
489	 5.14429728344537E-02 
490	 5.17996827747517E-02 
491	 5.20500730172025E-02 
492	 5.23270211975882E-02 
493	 5.27255759256056E-02 
494	 5.30398972258084E-02 
495	 5.33839859017292E-02 
496	 0.053725471234486 
497	 5.39921020581927E-02 
498	 5.44155583620788E-02 
499	 0.054829492211704 
500	 5.51781060574525E-02 
501	 5.56395968112097E-02 
502	 5.60391541152596E-02 
503	 5.63801274916737E-02 
504	 5.67224694671569E-02 
505	 5.71303047974779E-02 
506	 5.74827701992843E-02 
507	 5.78091374759807E-02 
508	 5.82428475751625E-02 
509	 5.85423200249442E-02 
510	 0.058861774901915 
511	 5.93055165777762E-02 
512	 5.97166260933811E-02 
513	 6.01661882143411E-02 
514	 6.06151753920246E-02 
515	 6.10152412957183E-02 
516	 6.16079564919972E-02 
517	 6.21865838659836E-02 
518	 6.26487998645978E-02 
519	 6.30754247908533E-02 
520	 6.35934127585407E-02 
521	 6.41096772254698E-02 
522	 6.45576103763178E-02 
523	 6.51480584981732E-02 
524	 6.57055483423637E-02 
525	 6.62271117446672E-02 
526	 6.68228604502623E-02 
527	 6.73518503685199E-02 
528	 6.78481411699364E-02 
529	 6.83485644534081E-02 
530	 0.068837073684925 
531	 6.94114244290237E-02 
532	 7.00380691910876E-02 
533	 7.06237284001875E-02 
534	 0.071073332688239 
535	 0.071599184014142 
536	 7.22302785260443E-02 
537	 7.27682036782402E-02 
538	 0.073339637880469 
539	 0.073925952183073 
540	 7.44971445985336E-02 
541	 7.51048726168329E-02 
542	 7.56552751303748E-02 
543	 7.61990860099622E-02 
544	 7.68502528881053E-02 
545	 7.73392898428915E-02 
546	 7.78421544004791E-02 
547	 7.84344245882371E-02 
548	 7.88774819913939E-02 
549	 7.94568493893152E-02 
550	 8.00837713751893E-02 
551	 8.05884751629714E-02 
552	 8.11498489701209E-02 
553	 8.17173559633112E-02 
554	 8.22623854663823E-02 
555	 8.27936786782247E-02 
556	 0.083406911050049 
557	 8.39933554106076E-02 
558	 8.44674492068051E-02 
559	 8.50078158489998E-02 
560	 8.55505446515863E-02 
561	 8.60314263838133E-02 
562	 8.64102705350266E-02 
563	 8.68698051631947E-02 
564	 8.73322550810592E-02 
565	 8.77228005239588E-02 
566	 8.80358702876941E-02 
567	 8.83933663321626E-02 
568	 8.87863753515245E-02 
569	 8.91455887450337E-02 
570	 8.93964957539043E-02 
571	 8.96136186382352E-02 
572	 8.98372729921655E-02 
573	 9.00573624284846E-02 
574	 9.02130678786851E-02 
575	 9.03094554411837E-02 
576	 9.03626904927362E-02 
577	 9.03642625354739E-02 
578	 0.090371227424834 
579	 9.03370498465996E-02 
580	 0.09016458012596 
581	 8.99308603045079E-02 
582	 8.97178858592256E-02 
583	 8.95262677518339E-02 
584	 8.92072315881386E-02 
585	 8.89129124814304E-02 
586	 8.85973785993397E-02 
587	 8.81692103142556E-02 
588	 8.77348475588171E-02 
589	 8.73184024408816E-02 
590	 8.68751547931373E-02 
591	 8.62779283609861E-02 
592	 8.57702439507084E-02 
593	 0.085185928216137 
594	 8.43730490495452E-02 
595	 8.34490942657226E-02 
596	 8.23823173286073E-02 
597	 8.12296966094925E-02 
598	 8.00940647681979E-02 
599	 7.89122930818866E-02 
600	 7.78567813247796E-02 
601	 7.70532996167201E-02 
602	 0.07650478917783 
603	 7.60275344706438E-02 
604	 7.56927465854736E-02 
605	 7.55960538231626E-02 
606	 7.54855078451949E-02 
607	 7.53288293766361E-02 
608	 7.51981989975879E-02 
609	 7.52499018914855E-02 
610	 7.52132142191225E-02 
611	 7.51077485322957E-02 
612	 7.50122713601061E-02 
613	 7.49900979695095E-02 
614	 7.49012389409352E-02 
615	 7.47859947598015E-02 
616	 7.47706413444549E-02 
617	 7.47448759430784E-02 
618	 7.46521148600509E-02 
619	 7.45038871228342E-02 
620	 7.44072437053318E-02 
621	 7.43538039935732E-02 
622	 7.43189603267702E-02 
623	 7.42658189560236E-02 
624	 7.41556184014529E-02 
625	 7.40162124312746E-02 
626	 7.38805512757077E-02 
627	 7.37818052769857E-02 
628	 0.073728901976007 
629	 7.36528944499042E-02 
630	 7.35297338452214E-02 
631	 7.35045968593461E-02 
632	 7.33951993957161E-02 
633	 7.32058632870522E-02 
634	 7.30438353975178E-02 
635	 7.30459202700273E-02 
636	 7.29986895862046E-02 
637	 7.28197785897168E-02 
638	 7.26566042880506E-02 
639	 7.25490265724142E-02 
640	 7.24370596877386E-02 
641	 7.22601326320574E-02 
642	 7.21028437283459E-02 
643	 7.19123976776494E-02 
644	 7.16999790129474E-02 
645	 7.15284212273549E-02 
646	 7.13507885995128E-02 
647	 7.11536603596348E-02 
648	 0.07094469412697 
649	 7.07708355364527E-02 
650	 7.05334691553225E-02 
651	 7.01789811560279E-02 
652	 6.96974962679753E-02 
653	 6.91539859530274E-02 
654	 6.85494645105801E-02 
655	 6.78725414631845E-02 
656	 6.71942142039265E-02 
657	 6.65557332427363E-02 
658	 6.59624072705452E-02 
659	 6.54078115966952E-02 
660	 6.49483620419973E-02 
661	 6.45566325832553E-02 
662	 0.064231941828462 
663	 6.39862159113987E-02 
664	 6.37211791580513E-02 
665	 6.34654451377247E-02 
666	 6.32450519260954E-02 
667	 6.30560902674114E-02 
668	 6.28999033765497E-02 
669	 6.27508288284751E-02 
670	 6.25886613941588E-02 
671	 6.24635016230696E-02 
672	 6.23377661848349E-02 
673	 0.062214099894977 
674	 6.21375553118743E-02 
675	 0.062166518309767 
676	 6.21549907985101E-02 
677	 6.20225534301624E-02 
678	 6.19411854075999E-02 
679	 6.19114460165845E-02 
680	 6.18942702425472E-02 
681	 6.18396907381864E-02 
682	 0.061814385572999 
683	 6.17385978210533E-02 
684	 6.16191667905261E-02 
685	 6.15870249832376E-02 
686	 6.14945852094537E-02 
687	 6.13522816031455E-02 
688	 6.11794147003683E-02 
689	 0.060783941231437 
690	 6.04093699887997E-02 
691	 0.060002780133953 
692	 5.93636293892697E-02 
693	 5.88670716024352E-02 
694	 5.83249924594733E-02 
695	 5.76381011735576E-02 
696	 5.69126735618169E-02 
697	 5.61068659497163E-02 
698	 5.52586906746353E-02 
699	 5.44421563217495E-02 
700	 5.35394546094009E-02 
701	 5.24924707678964E-02 
702	 5.14262215454453E-02 
703	 0.050540542484068 
704	 4.94257202771009E-02 
705	 4.82785700579661E-02 
706	 0.047228473808801 
707	 4.59849467869032E-02 
708	 4.46350288751583E-02 
709	 4.32663878539376E-02 
710	 4.19338286445915E-02 
711	 4.04842336278567E-02 
712	 3.89718494063802E-02 
713	 3.74453190307057E-02 
714	 3.58976180689437E-02 
715	 3.44354833014703E-02 
716	 3.29556898923103E-02 
717	 3.14389107446709E-02 
718	 2.99192616056376E-02 
719	 2.83098352236451E-02 
720	 2.68921861198497E-02 
721	 2.56980375079304E-02 
722	 2.45740909930018E-02 
723	 2.33782026166278E-02 
724	 2.21936645422338E-02 
725	 2.10362792177088E-02 
726	 1.99515458886286E-02 
727	 1.88565236080876E-02 
728	 1.76857003911123E-02 
729	 1.64074248367405E-02 
730	 1.53073158532438E-02 
731	 1.44845960815813E-02 
732	 1.38433231697317E-02 
733	 1.31408784473249E-02 
734	 1.25797682806683E-02 
735	 0.012236899930316 
736	 1.19699397758634E-02 
737	 1.17630037994326E-02 
738	 1.15664435133466E-02 
739	 1.13817656580384E-02 
740	 1.13767187563642E-02 
741	 1.12871033231177E-02 
742	 1.11500460332229E-02 
743	 1.11364935710117E-02 
744	 0.011073922241267 
745	 1.10452427801259E-02 
746	 1.10559158155439E-02 
747	 1.09761174008571E-02 
748	 1.09165896753209E-02 
749	 0.010867774795536 
750	 1.08198127048878E-02 
751	 1.08769261785755E-02 
752	 1.08249665824521E-02 
753	 1.07143782681056E-02 
754	 1.07215674385672E-02 
755	 1.07247235637249E-02 
756	 1.07520347717821E-02 
757	 1.08099489081112E-02 
758	 1.08646128389971E-02 
759	 1.08114101092553E-02 
760	 1.08012313705975E-02 
761	 1.10029370593171E-02 
762	 1.09721139450463E-02 
763	 1.08829850744362E-02 
764	 1.07886113074206E-02 
765	 1.07069449610606E-02 
766	 1.07367347635911E-02 
767	 1.08106470639544E-02 
768	 1.08398039650317E-02 
769	 1.07136427383031E-02 
770	 1.07456194302745E-02 
771	 1.08438024434112E-02 
772	 1.08831141116542E-02 
773	 0.010881318232754 
774	 0.01096070534519 
775	 1.10234104984111E-02 
776	 1.09383384869317E-02 
777	 1.10074943357037E-02 
778	 0.011070530885968 
779	 1.10872397419524E-02 
780	 1.11677202784579E-02 
781	 1.12888124755554E-02 
782	 1.13675018261598E-02 
783	 1.13839503881623E-02 
784	 1.14810982214309E-02 
785	 1.16181652947871E-02 
786	 1.17604350037661E-02 
787	 1.18710244116969E-02 
788	 1.19120477148051E-02 
789	 1.20302027764564E-02 
790	 1.21863108346955E-02 
791	 1.22109784326232E-02 
792	 1.23066793981912E-02 
793	 1.24524098591077E-02 
794	 0.012600943301813 
795	 0.012712894028503 
796	 1.28705929417216E-02 
797	 1.29782780396748E-02 
798	 1.29881740456619E-02 
799	 1.31757801917903E-02 
800	 1.33066455358888E-02 
801	 1.34068448421671E-02 
802	 1.36067878734341E-02 
803	 1.36265379560357E-02 
804	 1.35824071037118E-02 
805	 1.35699120746074E-02 
806	 1.36118732375641E-02 
807	 1.35995835660508E-02 
808	 1.35966722580711E-02 
809	 1.36329257677895E-02 
810	 1.35570003343102E-02 
811	 1.35243700686108E-02 
812	 1.34571543509523E-02 
813	 1.32522470749892E-02 
814	 0.013281936181182 
815	 1.31719453964734E-02 
816	 0.012821454883676 
817	 1.24485969979851E-02 
818	 1.24387019283142E-02 
819	 1.24740124172249E-02 
820	 1.22611042985307E-02 
821	 1.16097397750176E-02 
822	 1.12767778204631E-02 
823	 1.10962806538917E-02 
824	 1.07775542121052E-02 
825	 1.03682908108258E-02 
826	 1.00700293170186E-02 
827	 9.78315825801472E-03 
828	 9.35496624897013E-03 
829	 8.97073502333257E-03 
830	 8.77100856768931E-03 
831	 8.63956096607919E-03 
832	 8.33660006812091E-03 
833	 8.28726578615992E-03 
834	 8.19979390626109E-03 
835	 8.02607370316082E-03 
836	 8.13381273014471E-03 
837	 8.10345251533031E-03 
838	 8.00883947344715E-03 
839	 7.95728832888485E-03 
840	 7.83654969575449E-03 
841	 7.81865588700096E-03 
842	 7.91630578444512E-03 
843	 8.01823250555012E-03 
844	 7.77291283723515E-03 
845	 7.60772072487358E-03 
846	 7.68496387024543E-03 
847	 7.89226657093221E-03 
848	 7.69788513199224E-03 
849	 7.50094268854794E-03 
850	 7.50518977133021E-03 
851	 7.51411378371986E-03 
852	 7.43342026985267E-03 
853	 7.40647847374619E-03 
854	 7.51141208919697E-03 
855	 7.58071672812383E-03 
856	 7.53290571999693E-03 
857	 7.35578804838066E-03 
858	 7.13105998750381E-03 
859	 7.15646799887168E-03 
860	 7.30589786940732E-03 
861	 7.36722496727562E-03 
862	 7.19949813674782E-03 
863	 7.33154674476616E-03 
864	 7.42859773559169E-03 
865	 7.31514715023771E-03 
866	 7.07101416266064E-03 
867	 7.13769414882567E-03 
868	 7.2278739648382E-03 
869	 7.1640648682836E-03 
870	 7.05628607327623E-03 
871	 7.0749564695054E-03 
872	 7.21602328122175E-03 
873	 7.30628890135909E-03 
874	 6.88158235602474E-03 
875	 6.88729738385788E-03 
876	 7.08336203518506E-03 
877	 7.01732238075397E-03 
878	 6.93866437523737E-03 
879	 7.03008453184262E-03 
880	 7.06260326389189E-03 
881	 6.75847019557906E-03 
882	 6.74239299085659E-03 
883	 6.6827775909572E-03 
884	 6.5517027383812E-03 
885	 6.56053057467889E-03 
886	 6.54792003809231E-03 
887	 6.75755042978662E-03 
888	 7.03225404116816E-03 
889	 6.79336004638052E-03 
890	 6.7408726166578E-03 
891	 6.81536476701339E-03 
892	 0.006799223828698 
893	 6.44390340118394E-03 
894	 6.69061650680124E-03 
895	 6.98061016485565E-03 
896	 6.66152166598072E-03 
897	 6.26817200137387E-03 
898	 6.50369511186563E-03 
899	 6.64645000535732E-03 
900	 6.09595148123668E-03 
901	 6.4880750453299E-03 
902	 6.73802122946562E-03 
903	 6.64641789656407E-03 
904	 6.45770188762121E-03 
905	 6.68860909854459E-03 
906	 6.70807780792058E-03 
907	 6.56771063231749E-03 
908	 6.75593389972738E-03 
909	 6.85261096412111E-03 
910	 6.66141422807539E-03 
911	 6.52021717422253E-03 
912	 7.03186667281031E-03 
913	 7.03445068114735E-03 
914	 6.82400053847941E-03 
915	 6.7160987299115E-03 
916	 6.75472779627235E-03 
917	 6.20766174923123E-03 
918	 6.04016671023075E-03 
919	 6.37683270562157E-03 
920	 5.99525430134319E-03 
921	 6.17562693154549E-03 
922	 6.52050466280332E-03 
923	 0.006508396013434 
924	 6.03753924027467E-03 
925	 6.03483195073308E-03 
926	 6.15053529039433E-03 
927	 5.77431382701171E-03 
928	 4.87261118535798E-03 
929	 5.66924596215365E-03 
930	 6.81881264942309E-03 
931	 5.57449808856623E-03 
932	 6.33214483109606E-03 
933	 5.10526582503941E-03 
934	 3.67393234634081E-03 
935	 4.98897965862485E-03 
936	 3.35788305507567E-03 
937	 3.76229229228977E-03 
938	 6.37295444931634E-03 
939	 8.71570636516916E-03 
940	 4.66552840850743E-03 
941	 3.5103058666926E-03 
942	 4.91845213250216E-03 
943	 4.47449356092267E-03 
944	 5.9385340295354E-03 
945	 6.54153271642365E-03 
946	 6.07630207480137E-03 
947	 6.00111056208507E-03 
948	 5.85961623361048E-03 
949	 5.45626679025146E-03 
950	 4.98056123816251E-03 
951	 4.96837592513912E-03 
952	 6.76430765309716E-03 
953	 5.84098048264508E-03 
954	 4.09608143573281E-03 
955	 6.42964653737002E-03 
956	 5.07183382556389E-03 
957	 3.17523487884869E-03 
958	 3.64938511986525E-03 
959	 7.04150810396187E-03 
960	 5.71678073313394E-03 
961	 3.35713840628958E-03 
962	 3.18126716339817E-03 
963	 5.92843495031215E-03 
964	 6.01322782667517E-03 
965	 5.43725811308185E-03 
966	 5.34319903246768E-03 
967	 5.56724730349238E-03 
968	 5.54377443762042E-03 
969	 6.02420902599386E-03 
970	 6.41139782823351E-03 
971	 5.31448166788988E-03 
972	 5.62697785927472E-03 
973	 5.78129043543425E-03 
974	 5.22777051070822E-03 
975	 4.90657650919833E-03 
976	 5.01357484877751E-03 
977	 5.43032885254905E-03 
978	 5.62773561900255E-03 
979	 5.11454726631793E-03 
980	 5.72349039291789E-03 
981	 6.16938042466114E-03 
982	 5.86653709320246E-03 
983	 5.22889663801822E-03 
984	 5.28166330874922E-03 
985	 5.11562647099103E-03 
986	 4.86742563291866E-03 
987	 5.3370673325846E-03 
988	 4.61992162376368E-03 
989	 4.78131701273427E-03 
990	 6.07284398066319E-03 
991	 6.9103411786059E-03 
992	 5.52058018168902E-03 
993	 4.36727290054779E-03 
994	 4.56774834362292E-03 
995	 5.65841119111943E-03 
996	 6.3749533914909E-03 
997	 6.13712106578993E-03 
998	 5.36764267764401E-03 
999	 5.02679681238172E-03 
1000	 5.29596029871996E-03 
1001	 5.61929179380442E-03 
1002	 5.67848238952459E-03 
1003	 5.64604037259758E-03 
1004	 5.08562680655561E-03 
1005	 4.90521868545092E-03 
1006	 4.84648126537391E-03 
1007	 4.82970890424053E-03 
1008	 4.81203360830804E-03 
1009	 4.6950705580765E-03 
1010	 4.72505532364932E-03 
1011	 4.61985026564079E-03 
1012	 4.8942275064859E-03 
1013	 5.22484368353914E-03 
1014	 5.38367402930388E-03 
1015	 5.67788489416733E-03 
1016	 5.67003474670511E-03 
1017	 5.20947258095131E-03 
1018	 5.09296190532327E-03 
1019	 4.9604693425158E-03 
1020	 4.88227972131218E-03 
1021	 4.91906428641554E-03 
1022	 5.1694699209167E-03 
1023	 5.32172932790284E-03 
1024	 5.03267577031542E-03 
1025	 4.80818066998384E-03 
1026	 4.82476349748959E-03 
1027	 4.86520103628457E-03 
1028	 4.93404399855882E-03 
1029	 5.08265162993465E-03 
1030	 5.50388616427738E-03 
1031	 5.60214663597894E-03 
1032	 5.62358220093382E-03 
1033	 5.51122067295496E-03 
1034	 5.08617098582516E-03 
1035	 4.88172169979518E-03 
1036	 4.59942082811445E-03 
1037	 4.50354749152284E-03 
1038	 4.65252775308981E-03 
1039	 4.69055112511254E-03 
1040	 4.86979544319853E-03 
1041	 5.24534112856176E-03 
1042	 5.19527620703795E-03 
1043	 4.99122645446799E-03 
1044	 4.88377846793437E-03 
1045	 4.39639076033867E-03 
1046	 4.40382957520327E-03 
1047	 4.91544136575536E-03 
1048	 4.94716463926862E-03 
1049	 4.84839312148877E-03 
1050	 4.8748496285764E-03 
1051	 4.75227153162488E-03 
1052	 4.6792182310533E-03 
1053	 4.76975492099393E-03 
1054	 4.82439686772662E-03 
1055	 4.77966119571787E-03 
1056	 4.75428654292527E-03 
1057	 4.74950860892702E-03 
1058	 4.88344132508821E-03 
1059	 4.80132462002331E-03 
1060	 4.55560038602945E-03 
1061	 4.44173293019461E-03 
1062	 4.19715693433176E-03 
1063	 4.22972884512512E-03 
1064	 4.63820796510595E-03 
1065	 4.62244502583143E-03 
1066	 4.36628206822219E-03 
1067	 4.42129174403714E-03 
1068	 4.33460077198637E-03 
1069	 4.41654397702589E-03 
1070	 5.11046230818897E-03 
1071	 5.35451069779213E-03 
1072	 5.51307404770875E-03 
1073	 5.28749091924165E-03 
1074	 5.09834354463283E-03 
1075	 4.59546888586005E-03 
1076	 4.50443687702635E-03 
1077	 4.50143578462415E-03 
1078	 4.52863551931187E-03 
1079	 4.78754374229243E-03 
1080	 4.8745515094323E-03 
1081	 4.90337444028517E-03 
1082	 4.88701320059911E-03 
1083	 4.82736496750577E-03 
1084	 4.82076225076349E-03 
1085	 4.68956073615324E-03 
1086	 4.70070895863607E-03 
1087	 5.07296330021298E-03 
1088	 5.04650248848321E-03 
1089	 4.77778402077034E-03 
1090	 4.50443705559738E-03 
1091	 4.44239475892703E-03 
1092	 4.28072153792605E-03 
1093	 4.2532559906119E-03 
1094	 4.51651505988368E-03 
1095	 4.64419436435515E-03 
1096	 4.76286433491223E-03 
1097	 4.58498954964727E-03 
1098	 4.28947843048667E-03 
1099	 4.21674061717765E-03 
1100	 3.68658110937044E-03 
1101	 3.63585793804203E-03 
1102	 4.39343826692089E-03 
1103	 4.55570124108388E-03 
1104	 4.33701516993787E-03 
1105	 4.69024183570216E-03 
1106	 4.40052584311272E-03 
1107	 4.09551090823851E-03 
1108	 4.55824409940593E-03 
1109	 4.37307014060159E-03 
1110	 4.36618115696802E-03 
1111	 4.69462400938215E-03 
1112	 4.62787591356296E-03 
1113	 4.0077574699615E-03 
1114	 3.96031220046114E-03 
1115	 4.02169566936739E-03 
1116	 3.83636861295382E-03 
1117	 3.67431708079478E-03 
1118	 3.54149947449312E-03 
1119	 3.66262604614589E-03 
1120	 3.84865446453597E-03 
1121	 4.35762501357277E-03 
1122	 4.45730454816631E-03 
1123	 6.22072370136055E-03 
1124	 5.39376259848188E-03 
1125	 5.11252269357835E-03 
1126	 6.69551109238945E-03 
1127	 0.005137286483717 
1128	 2.99996352766719E-03 
1129	 2.7986154144123E-03 
1130	 2.61589522783214E-03 
1131	 3.89273144036861E-03 
1132	 7.93726807835409E-03 
1133	 7.37568884147502E-03 
1134	 4.58348377415022E-03 
1135	 4.29610711453342E-03 
1136	 3.08209611640628E-03 
1137	 3.54693845622809E-03 
1138	 7.06276995980105E-03 
1139	 7.46155513585508E-03 
1140	 6.32435928807438E-03 
1141	 5.43094364062484E-03 
1142	 3.89610827012894E-03 
1143	 3.59724479998222E-03 
1144	 4.72150562320305E-03 
1145	 4.65243849234717E-03 
1146	 3.86743990237747E-03 
1147	 4.28321034171449E-03 
1148	 4.60982011865514E-03 
1149	 4.16474324223421E-03 
1150	 4.08207972027998E-03 
1151	 4.43843061755684E-03 
1152	 4.34106864023353E-03 
1153	 3.6962964039266E-03 
1154	 3.89923472596036E-03 
1155	 4.6908645841014E-03 
1156	 4.48253430679384E-03 
1157	 4.1774962198847E-03 
1158	 4.20473844193017E-03 
1159	 3.76768974099102E-03 
1160	 3.52567322055834E-03 
1161	 3.89238161845699E-03 
1162	 4.34253665550726E-03 
1163	 4.65647079054029E-03 
1164	 4.51772733758937E-03 
1165	 4.29863273134798E-03 
1166	 4.23031633290304E-03 
1167	 4.01022754640043E-03 
1168	 4.2591720083768E-03 
1169	 4.67530821268542E-03 
1170	 4.45317852424009E-03 
1171	 4.38940056969779E-03 
1172	 0.004429966043439 
1173	 4.29975456621792E-03 
1174	 3.83307365183876E-03 
1175	 3.96760093894491E-03 
1176	 4.44054985219082E-03 
1177	 4.39144302509719E-03 
1178	 4.29278385458078E-03 
1179	 4.45181029206702E-03 
1180	 4.46387090588556E-03 
1181	 4.35894156630794E-03 
1182	 4.44891025772495E-03 
1183	 4.4054131630002E-03 
1184	 3.95472565891287E-03 
1185	 3.72721272297937E-03 
1186	 4.10372825951012E-03 
1187	 4.35201335456973E-03 
1188	 4.24720349987316E-03 
1189	 4.13761058396083E-03 
1190	 3.99177053232095E-03 
1191	 4.04216024977769E-03 
1192	 4.06410778676502E-03 
1193	 4.32262534434153E-03 
1194	 4.31520356646328E-03 
1195	 4.19917171554754E-03 
1196	 4.2022903225804E-03 
1197	 4.23205182351059E-03 
1198	 4.45128743743289E-03 
1199	 4.68281823504875E-03 
1200	 4.4723267446409E-03 
1201	 4.21174937271254E-03 
1202	 4.15823908553444E-03 
1203	 3.9366638270668E-03 
1204	 3.98810102908614E-03 
1205	 4.29419367501368E-03 
1206	 4.20284194872096E-03 
1207	 4.10341610077333E-03 
1208	 4.01991461038562E-03 
1209	 3.77192292507272E-03 
1210	 3.84340211066277E-03 
1211	 4.15664249037893E-03 
1212	 4.20333385776113E-03 
1213	 4.0524465644761E-03 
1214	 4.01917816045961E-03 
1215	 3.93093349303774E-03 
1216	 3.82966889076372E-03 
1217	 3.69016250282131E-03 
1218	 3.70513230848609E-03 
1219	 3.81893699831906E-03 
1220	 3.6786567570008E-03 
1221	 3.68764172801203E-03 
1222	 3.97283941003247E-03 
1223	 3.95449715047038E-03 
1224	 3.85411803743905E-03 
1225	 3.93564735340676E-03 
1226	 3.99097748371343E-03 
1227	 3.94065727846658E-03 
1228	 3.91721885804979E-03 
1229	 3.9356114235516E-03 
1230	 3.86181775342063E-03 
1231	 3.71093005235618E-03 
1232	 3.66670914033535E-03 
1233	 3.87479262160174E-03 
1234	 3.9296401274604E-03 
1235	 3.89281680415617E-03 
1236	 3.80946647095358E-03 
1237	 3.90668153370501E-03 
1238	 4.02102856490324E-03 
1239	 3.89861855222848E-03 
1240	 3.91189350038859E-03 
1241	 4.04059106158257E-03 
1242	 3.77399797601628E-03 
1243	 3.61427314317329E-03 
1244	 3.90953467014604E-03 
1245	 3.81463807037248E-03 
1246	 3.61494662005185E-03 
1247	 3.87586003287909E-03 
1248	 3.97869058113799E-03 
1249	 3.87710717622249E-03 
1250	 3.88481355650844E-03 
1251	 3.78550485587335E-03 
1252	 3.73307540868164E-03 
1253	 3.83527934136771E-03 
1254	 3.87012111490563E-03 
1255	 3.92131058334801E-03 
1256	 3.93239575557463E-03 
1257	 3.79451528926582E-03 
1258	 3.7478567837639E-03 
1259	 3.70527985182781E-03 
1260	 3.75975484244569E-03 
1261	 4.0570368529864E-03 
1262	 4.08858879196044E-03 
1263	 4.05355618585278E-03 
1264	 3.88873335953693E-03 
1265	 4.08317586123862E-03 
1266	 4.04664498642064E-03 
1267	 3.77658948850369E-03 
1268	 3.84247616495062E-03 
1269	 3.68331958484731E-03 
1270	 3.31009467866076E-03 
1271	 3.34796617754422E-03 
1272	 3.64472221662115E-03 
1273	 3.82553690240171E-03 
1274	 3.86828891098433E-03 
1275	 4.00751716687012E-03 
1276	 4.09158467499905E-03 
1277	 3.85458787833866E-03 
1278	 3.68067884569566E-03 
1279	 3.73727020370476E-03 
1280	 0.003803484508965 
1281	 3.74237595365047E-03 
1282	 3.62221333318626E-03 
1283	 3.62340630562456E-03 
1284	 3.55824885704751E-03 
1285	 3.58597305443477E-03 
1286	 3.92400667248322E-03 
1287	 3.94501712486877E-03 
1288	 3.67036278301512E-03 
1289	 3.55772441543057E-03 
1290	 3.34401119087855E-03 
1291	 3.34648916885414E-03 
1292	 3.53568148877305E-03 
1293	 3.70341930135719E-03 
1294	 3.71361594761018E-03 
1295	 3.77861924783155E-03 
1296	 3.79688197015911E-03 
1297	 3.65090327560444E-03 
1298	 3.73970334918881E-03 
1299	 3.95896350943508E-03 
1300	 3.87351812052416E-03 
1301	 3.80941773442167E-03 
1302	 3.84199624972639E-03 
1303	 3.67099972668082E-03 
1304	 3.5948254132131E-03 
1305	 3.80601367291201E-03 
1306	 3.8763026610696E-03 
1307	 3.90351474593778E-03 
1308	 3.78769257037518E-03 
1309	 3.51680465120063E-03 
1310	 3.54415141944273E-03 
1311	 3.59507737469293E-03 
1312	 3.62852123551477E-03 
1313	 4.0237010753125E-03 
1314	 4.08500804610594E-03 
1315	 3.83306014173633E-03 
1316	 3.68761985857731E-03 
1317	 3.34614745526657E-03 
1318	 3.31076650945208E-03 
1319	 3.50610259489598E-03 
1320	 3.5790041088738E-03 
1321	 3.98144062316578E-03 
1322	 4.08213699964776E-03 
1323	 3.44929303600193E-03 
1324	 2.88817197976155E-03 
1325	 2.92425041360249E-03 
1326	 2.85984376509198E-03 
1327	 2.63816861260449E-03 
1328	 2.87781120801967E-03 
1329	 3.33213631343643E-03 
1330	 3.60254296127848E-03 
1331	 3.28068316459068E-03 
1332	 2.87592583501885E-03 
1333	 3.00414756517649E-03 
1334	 3.02773769152678E-03 
1335	 3.02179107189571E-03 
1336	 4.31919719947591E-03 
1337	 4.62988077746096E-03 
1338	 3.7268235096608E-03 
1339	 3.43712807969708E-03 
1340	 3.57603583263488E-03 
1341	 3.58873052253568E-03 
1342	 3.08906288403408E-03 
1343	 3.05952360683045E-03 
1344	 4.19358432715291E-03 
1345	 4.1486236247796E-03 
1346	 2.47156269471601E-03 
1347	 2.4849595368917E-03 
1348	 3.53287278045236E-03 
1349	 2.91806672722788E-03 
1350	 3.08715489089885E-03 
1351	 5.11220857662028E-03 
1352	 7.14117190473662E-03 
1353	 5.54200178199983E-03 
1354	 6.59373660301913E-03 
1355	-9.84837695028287E-04 
1356	 2.28612063635399E-03 
1357	 1.78377297031629E-02 
1358	 3.06533212125577E-02 
1359	 5.35423965490787E-02 
1360	 5.34619291583657E-02 
1361	 3.88588180040838E-02 
1362	 7.06220774290554E-02 
1363	 9.82769177050093E-02 
1364	 4.94499909080377E-02 
1365	-3.94777215079127E-02 
1366	-0.118245668288098 
1367	-0.047644046865667 
1368	-3.91949082871697E-03 
1369	-4.49434242860171E-02 
1370	-0.101836649858844 
1371	-3.26816657190878E-02 
1372	-0.051174243266712 
1373	-0.309115439682091 
1374	-0.331812738668334 
1375	-0.102373484091072 
1376	 3.12625839081283E-02 
1377	 0.19548683809849 
1378	 0.217142664775064 
1379	 0.119079184822914 
1380	 2.65983043359847E-02 
1381	-0.206271395553867 
1382	-0.346681816207559 
1383	-0.473143260434542 
1384	-0.47084040094893 
1385	-0.176891791221537 
1386	-0.197116037696903 
1387	-0.616753465740828 
1388	-0.543117421765493 
1389	-0.272135066216698 
1390	-0.336139465788339 
1391	-0.145973964850906 
1392	 0.21168413659111 
1393	-8.08419587191599E-02 
1394	-0.633242324721322 
1395	-0.392467460624734 
1396	-2.28107560522725E-03 
1397	-0.133244591302109 
1398	-0.621037311691162 
1399	-0.438388563843597 
1400	-0.16769813340704 
1401	-0.202955938695798 
1402	-9.99119795820957E-02 
1403	 3.72627343185246E-02 
1404	-9.55681172959781E-02 
1405	-0.203598549599035 
1406	-0.247554564619174 
1407	-0.156428051805308 
1408	-9.90354803004465E-02 
1409	-0.130699660702934 
1410	-0.12844250803565 
1411	-0.051025350131642 
1412	 2.40638073361398E-03 
1413	-2.56926140726419E-03 
1414	 5.58324614584969E-02 
1415	 5.86559571653691E-02 
1416	-2.58480668252869E-02 
1417	-0.042009226197609 
1418	-2.17248110037297E-02 
1419	-8.93710723563182E-03 
1420	 1.26317804410611E-04 
1421	-1.65128453694945E-03 
1422	 1.86409115036623E-03 
1423	 2.55532777433023E-03 
1424	-5.30867001885383E-03 
1425	-6.78811636836814E-03 
1426	-7.63817438057918E-03 
1427	-4.7738736036131E-03 
1428	 6.59982258067471E-03 
1429	 5.0801367278505E-03 
1430	-8.55119639430635E-03 
1431	-4.92037570100104E-03 
1432	 8.13422903094613E-03 
1433	 7.16168634659213E-03 
1434	 9.03993371058277E-03 
1435	 1.26892974468557E-02 
1436	 6.36447811109814E-03 
1437	-1.52264048944206E-03 
1438	 2.87383048951971E-03 
1439	 3.28632469656333E-03 
1440	-1.31228557758558E-04 
1441	-2.48377743249231E-03 
1442	-4.80827907843236E-03 
1443	 7.95913988274554E-04 
1444	 5.07820671047367E-03 
1445	 5.51638225872501E-04 
1446	-6.08833071928891E-04 
1447	 2.02421631218964E-03 
1448	 2.4702745067468E-03 
1449	 3.34060517735082E-03 
1450	 4.54027629676911E-03 
1451	 3.87710934921277E-03 
1452	 3.14206938311544E-03 
1453	 3.48186541630321E-03 
1454	 3.37767473031899E-03 
1455	 3.15729077663061E-03 
1456	 3.21319865086063E-03 
1457	 3.57734226244318E-03 
1458	 3.2793069057762E-03 
1459	 2.74658649876346E-03 
1460	 2.85173167435269E-03 
1461	 2.83153151179887E-03 
1462	 2.44602491699888E-03 
1463	 0.002091087870284 
1464	 2.4538722769877E-03 
1465	 3.41731988330278E-03 
1466	 2.92275589639375E-03 
1467	 2.05812247061086E-03 
1468	 2.00652881560308E-03 
1469	 3.20006583106347E-04 
1470	 8.5406972006352E-05 
1471	 2.48551576535235E-03 
1472	 3.25414516986118E-03 
1473	 3.43692903522327E-03 
1474	 2.90028740843147E-03 
1475	 1.20662051470605E-03 
1476	 1.48204208808446E-03 
1477	 2.39192096599312E-03 
1478	 2.26480765303843E-03 
1479	 2.57815446778672E-03 
1480	 3.11974799667972E-03 
1481	 3.03011453678238E-03 
1482	 2.91115364517823E-03 
1483	 3.35489230754691E-03 
1484	 3.65790140505614E-03 
1485	 3.57507262449056E-03 
1486	 3.34792590743583E-03 
1487	 3.29524938516188E-03 
1488	 3.27027045945535E-03 
1489	 2.91496662244566E-03 
1490	 2.7869270886038E-03 
1491	 2.94951634809815E-03 
1492	 2.95230503441406E-03 
1493	 2.73643740268649E-03 
1494	 2.72929737186479E-03 
1495	 2.85865930515294E-03 
1496	 3.00060976955998E-03 
1497	 3.47574765366917E-03 
1498	 3.42105212097493E-03 
1499	 2.76436505441737E-03 
1500	 2.73093063633464E-03 
1501	 2.93140987959143E-03 
1502	 2.90352800399711E-03 
1503	 3.09486489195323E-03 
1504	 3.23437541587905E-03 
1505	 3.20883907935259E-03 
1506	 3.0416058348568E-03 
1507	 2.94222158882316E-03 
1508	 2.97560932314918E-03 
1509	 2.87179081237789E-03 
1510	 2.7108630641746E-03 
1511	 2.7132233936522E-03 
1512	 2.67363455215969E-03 
1513	 2.73130579944036E-03 
1514	 2.92555628005578E-03 
1515	 2.85637423874805E-03 
1516	 2.86154423154521E-03 
1517	 3.05074016628622E-03 
1518	 2.9450496720336E-03 
1519	 2.95875486388084E-03 
1520	 3.18878179649577E-03 
1521	 3.18456632192967E-03 
1522	 3.0675636091925E-03 
1523	 3.00544717409896E-03 
1524	 3.02731313836814E-03 
1525	 2.99180262469822E-03 
1526	 2.82688638877108E-03 
1527	 2.73604141499121E-03 
1528	 2.85772531085154E-03 
1529	 2.99791658753527E-03 
1530	 2.83242201972656E-03 
1531	 2.67512326151234E-03 
1532	 2.81509917877731E-03 
1533	 2.91703807355291E-03 
1534	 2.89277051378871E-03 
1535	 2.84051390856467E-03 
1536	 2.73505953067572E-03 
1537	 2.72907616058917E-03 
1538	 2.81261625491773E-03 
1539	 2.88429122821562E-03 
1540	 0.002975430105572 
1541	 3.00698343102602E-03 
1542	 3.04395686169423E-03 
1543	 3.00176054532008E-03 
1544	 2.75236584522501E-03 
1545	 2.60636072813643E-03 
1546	 2.67316570683638E-03 
1547	 2.73919679680923E-03 
1548	 2.86129541468943E-03 
1549	 2.95829457574757E-03 
1550	 2.85177081138758E-03 
1551	 2.78181939926322E-03 
1552	 2.78099668647235E-03 
1553	 2.83497137481072E-03 
1554	 2.93600485462469E-03 
1555	 2.94012453332262E-03 
1556	 2.88858826475738E-03 
1557	 2.77949285077832E-03 
1558	 2.77435487986193E-03 
1559	 2.88340568332156E-03 
1560	 2.89133764142803E-03 
1561	 0.002953830219601 
1562	 3.00703911754765E-03 
1563	 2.96086301086948E-03 
1564	 3.04770081961867E-03 
1565	 3.00528831051897E-03 
1566	 2.85200584174898E-03 
1567	 2.84004436040582E-03 
1568	 2.7540515781193E-03 
1569	 2.78398500506113E-03 
1570	 2.87640328189201E-03 
1571	 2.78075027971075E-03 
1572	 2.84165305040243E-03 
1573	 3.04614138681914E-03 
1574	 2.97742103008876E-03 
1575	 2.66425253862646E-03 
1576	 2.65161411398303E-03 
1577	 2.87580409705742E-03 
1578	 2.9938643391143E-03 
1579	 3.21400462292776E-03 
1580	 3.2882999439373E-03 
1581	 3.17625884785152E-03 
1582	 3.21985254560999E-03 
1583	 3.14712452909309E-03 
1584	 3.00927639482087E-03 
1585	 3.05700492459234E-03 
1586	 3.02306580916724E-03 
1587	 2.87626135247191E-03 
1588	 2.93411536534825E-03 
1589	 3.18011049939012E-03 
1590	 3.11060976645111E-03 
1591	 2.82957809986664E-03 
1592	 2.85877256930388E-03 
1593	 2.87909040452738E-03 
1594	 2.72412051420168E-03 
1595	 2.74391697198919E-03 
1596	 2.8105684887755E-03 
1597	 2.64371400751786E-03 
1598	 2.53231911916749E-03 
1599	 2.73698193079544E-03 
1600	 2.88120071473868E-03 
1601	 2.79944605295531E-03 
1602	 2.8528252592687E-03 
1603	 3.00163594474904E-03 
1604	 2.94585019847661E-03 
1605	 2.94078624187611E-03 
1606	 2.95703629231162E-03 
1607	 2.81329793950935E-03 
1608	 2.8587140507783E-03 
1609	 3.00581626077501E-03 
1610	 2.86053527689214E-03 
1611	 2.61905585742197E-03 
1612	 2.72843375630767E-03 
1613	 2.97774425600057E-03 
1614	 3.09009651840213E-03 
1615	 3.15451119144687E-03 
1616	 3.04389775380375E-03 
1617	 2.7273008720312E-03 
1618	 2.61607277663375E-03 
1619	 2.78557966003737E-03 
1620	 2.75238444364584E-03 
1621	 2.65560776321832E-03 
1622	 2.79962502141222E-03 
1623	 2.97603777360817E-03 
1624	 3.01796031152575E-03 
1625	 2.8238922791834E-03 
1626	 2.73041991133871E-03 
1627	 2.89072126018364E-03 
1628	 2.81966674044828E-03 
1629	 2.88833762894606E-03 
1630	 3.17519261975356E-03 
1631	 2.96078926959165E-03 
1632	 2.64493104867961E-03 
1633	 2.75543812608831E-03 
1634	 2.97461264772478E-03 
1635	 2.8403008109094E-03 
1636	 2.76362681663337E-03 
1637	 3.0546686503726E-03 
1638	 2.97133423032462E-03 
1639	 2.76781618958327E-03 
1640	 2.98542726895511E-03 
1641	 3.04346508239526E-03 
1642	 2.8309822619116E-03 
1643	 2.82660015935103E-03 
1644	 2.99189869003515E-03 
1645	 3.01870320467914E-03 
1646	 2.92015524642561E-03 
1647	 2.8104148620212E-03 
1648	 2.63200348256621E-03 
1649	 2.36525210266071E-03 
1650	 2.3698941558676E-03 
1651	 2.74195297740785E-03 
1652	 2.93028777227307E-03 
1653	 3.04019995174621E-03 
1654	 3.00753338058697E-03 
1655	 2.57795337724537E-03 
1656	 2.49316226211083E-03 
1657	 2.5302977672896E-03 
1658	 2.61269577720226E-03 
1659	 2.93106882327698E-03 
1660	 2.97131029143639E-03 
1661	 2.92004146105812E-03 
1662	 2.89530950595821E-03 
1663	 2.71898918370614E-03 
1664	 2.70619558200151E-03 
1665	 2.72455252825747E-03 
1666	 2.68776269776286E-03 
1667	 2.73025093361284E-03 
1668	 2.72914740179113E-03 
1669	 2.89645487130793E-03 
1670	 3.04855878671206E-03 
1671	 2.90951038532776E-03 
1672	 2.6985971340534E-03 
1673	 2.48931950360616E-03 
1674	 2.47599908842788E-03 
1675	 2.61724632369575E-03 
1676	 2.58646631685619E-03 
1677	 2.56926107181615E-03 
1678	 2.57680233409945E-03 
1679	 2.58267082008833E-03 
1680	 2.83699282087159E-03 
1681	 2.90886622548204E-03 
1682	 2.73313588521956E-03 
1683	 2.75053120676415E-03 
1684	 2.6298809553778E-03 
1685	 2.50316933554462E-03 
1686	 2.8289004111076E-03 
1687	 2.99627255264439E-03 
1688	 2.8480715124732E-03 
1689	 2.96869205653224E-03 
1690	 3.03468885774513E-03 
1691	 2.95553447624305E-03 
1692	 2.9293727287804E-03 
1693	 2.70969617652935E-03 
1694	 2.67932170868936E-03 
1695	 2.93006471543943E-03 
1696	 2.84207212047036E-03 
1697	 2.55005881039909E-03 
1698	 2.55894174219045E-03 
1699	 2.52080845645857E-03 
1700	 2.49178474526376E-03 
1701	 3.00645048174573E-03 
1702	 3.21832863628831E-03 
1703	 2.64246167843518E-03 
1704	 2.21829655124479E-03 
1705	 2.40424447219749E-03 
1706	 2.59612052831314E-03 
1707	 2.44884342113274E-03 
1708	 2.58815644330855E-03 
1709	 2.52675804365685E-03 
1710	 2.3289166797949E-03 
1711	 2.90366899875267E-03 
1712	 3.14288203989515E-03 
1713	 2.40182023844419E-03 
1714	 2.44356543602585E-03 
1715	 2.71440475092933E-03 
1716	 2.85217085181343E-03 
1717	 2.9774727624318E-03 
1718	 2.69800617494252E-03 
1719	 2.21112458944419E-03 
1720	 2.54423615372726E-03 
1721	 2.84494599784805E-03 
1722	 2.55041107002099E-03 
1723	 2.53768870794624E-03 
1724	 2.53392604927323E-03 
1725	 2.01118946990464E-03 
1726	 1.89977594201454E-03 
1727	 2.08432074585156E-03 
1728	 2.16649788237831E-03 
1729	 2.79012662631472E-03 
1730	 2.9489256072326E-03 
1731	 1.94291628295133E-03 
1732	 1.22428247900382E-03 
1733	 1.37554951428643E-03 
1734	 2.31203712950938E-03 
1735	 3.43147837666268E-03 
1736	 3.20528792972054E-03 
1737	 2.7225995528186E-03 
1738	 2.60575348907543E-03 
1739	 1.86490213018781E-03 
1740	 2.28877531245837E-03 
1741	 3.19052991846387E-03 
1742	 2.5072940183321E-03 
1743	 2.32632042056804E-03 
1744	 2.69593825200422E-03 
1745	 2.07590024761678E-03 
1746	 2.66812004843332E-03 
1747	 2.94231165152433E-03 
1748	 3.08517961617028E-03 
1749	 2.95854656138629E-03 
1750	 2.16774325258423E-03 
1751	 2.21925068436207E-03 
1752	 2.95004692226484E-03 
1753	 3.01596665671491E-03 
1754	 3.14956235167565E-03 
1755	 3.06984842902038E-03 
1756	 2.0499848573365E-03 
1757	 2.19628635773113E-03 
1758	 2.74774663017936E-03 
1759	 3.21311326607955E-03 
1760	 3.70875996166175E-03 
1761	 3.36998569544846E-03 
1762	 3.02060763075465E-03 
1763	 2.78965595831527E-03 
1764	 2.19006936989862E-03 
1765	 2.61671932912989E-03 
1766	 2.93828671634572E-03 
1767	 2.60632689254875E-03 
1768	 3.36040665085715E-03 
1769	 3.39459405307191E-03 
1770	 2.68297999872256E-03 
1771	 2.21866941436544E-03 
1772	 1.01682566055103E-03 
1773	 8.23176653747724E-04 
1774	 1.56446440080283E-03 
1775	 2.45465403256033E-03 
1776	 2.85374927153988E-03 
1777	 1.9960534658527E-03 
1778	 1.92900791011332E-03 
1779	 3.11746019870552E-03 
1780	 2.89805953345368E-03 
1781	 1.42933924971315E-03 
1782	 1.14635948638688E-03 
1783	-1.53986987888988E-06 
1784	 3.46677948189747E-04 
1785	 3.87169709044854E-03 
1786	 4.66586485219305E-03 
1787	 4.09173879862208E-03 
1788	 4.40266273077877E-03 
1789	 3.63572120484236E-03 
1790	 5.54575434883457E-04 
1791	 2.1404341745653E-03 
1792	 4.13571552997062E-03 
1793	 3.93412316235177E-03 
1794	 4.80898348757928E-03 
1795	 2.74305929254593E-03 
1796	-8.47633793422452E-04 
1797	-1.83073300516511E-03 
1798	-1.51856860676933E-03 
1799	 3.23657390940784E-03 
1800	-2.88202785150258E-03 
1801	-4.82883130855685E-03 
1802	 1.74878702745959E-03 
1803	 1.16052533709637E-03 
1804	-4.92732809625522E-03 
1805	-4.45252529919546E-03 
1806	-6.01678749950652E-03 
1807	-7.95485610138022E-03 
1808	 4.05421701977643E-03 
1809	 1.41934929548861E-02 
1810	 2.16019133622508E-02 
1811	 2.67456311247736E-03 
1812	-5.64435012104756E-02 
1813	-5.65174169659141E-02 
1814	-0.067253994027632 
1815	-4.99492973551246E-02 
1816	 0.181279803786295 
1817	-3.53876885530179E-02 
1818	-6.98613676309319E-02 
1819	-0.09649787912681 
1820	-0.248730096648381 
1821	-0.581841895669186 
1822	-0.764824332284414 
1823	-0.388723118502494 
1824	-0.19694360308657 
1825	 0.325236065069293 
1826	 0.397470408132752 
1827	 0.167289489880452 
1828	 2.48804382912226E-02 
1829	-0.414972647657719 
1830	-0.650577889337277 
1831	 0.279721351979676 
1832	 0.618600030916612 
1833	 0.527066689429206 
1834	 0.632662868948404 
1835	 1.17489232365475 
1836	 1.2797564146751 
1837	 0.927417493315643 
1838	 0.784100824229895 
1839	 0.821700093976918 
1840	 0.265669265831728 
1841	-0.094338196450451 
1842	 0.118816066126643 
1843	-4.16710480665286E-02 
1844	 7.2922266912725 
1845	 4.03229950401557 
1846	-1.45866087869829 
1847	-0.261206377780763 
1848	 0.198057556830405 
1849	 1.2777815089457 
1850	 7.9169822290781 
1851	 1.9908533211664 
1852	 1.41290946580173 
1853	 0.234581415076558 
1854	 3.75612313682147E-02 
1855	-0.162381849663695 
1856	-0.296568835946894 
1857	 2.20232101610463 
1858	-3.83870892353336 
1859	-0.108649800110769 
1860	 0.230689124255757 
1861	 6.16048248624446E-02 
1862	-0.465113448616659 
1863	-4.32814969106121 
1864	-4.11781054152222 
1865	-11.8254576873725 
1866	 2.86700719379134 
1867	 1.47775245841074 
1868	 0.429039673035578 
1869	 0.260589290064962 
1870	 0.235416907075858 
1871	 0.54407582847495 
1872	 3.48561537511606 
1873	-13.4162028186465 
1874	 4.81313778009613 
1875	 2.76188372814338 
1876	 2.58941755405071 
1877	 1.21182648772741 
1878	 1.20847116382892 
1879	 3.46177347469099 
1880	 5.1984967443721 
1881	 4.26239651676367 
1882	 3.04625693446577 
1883	-0.384109155287864 
1884	-4.0705572530347 
1885	 0.404520893788496 
1886	-1.17403075532926 
1887	-0.282864013878233 
1888	 0.191063509631056 
1889	-1.59876379401882E-03 
1890	-1.34168799640093 
1891	-1.29782336174033 
1892	-0.95362232430194 
1893	-1.72202243315598 
1894	 0.297358510245914 
1895	 0.730197192327052 
1896	 0.579813063057831 
1897	 0.780312598146337 
1898	 0.823598529443454 
1899	 0.593753165359954 
1900	 0.556820600135134 
1901	 1.45558966853134 
1902	 3.69787477113236 
1903	 2.44473435254403 
1904	 2.26300432931785 
1905	-1.56553675085223 
1906	-61.6522189579255 
1907	 15.0624174297344 
1908	 28.3060382565515 
1909	 2.94740583654353 
1910	 0.288946528223682 
1911	 2.19263968873602 
1912	 1.99654817901837 
1913	-0.495231046662977 
1914	-1.57927716657663 
1915	-1.41550079673469 
1916	-1.02160543718232 
1917	-1.20592637763984 
1918	-1.44047871364687 
1919	-3.67001381458373 
1920	 13.0359062699599 
1921	 2.14079787127991 
1922	 1.491522244979 
1923	-8.10727791392827 
1924	-3.64841729689398 
1925	 4.08882392629545 
1926	 4.2128285157982 
1927	 2.80641928392851 
1928	 0.817016208304811 
1929	 0.358757122492954 
1930	 0.248205752093658 
1931	-9.13073410169112E-02 
1932	-0.150133089900532 
1933	-3.67342663115842E-03 
1934	-3.79039547117802E-02 
1935	-0.11814054483138 
1936	 4.22288615874494E-02 
1937	 8.07271332502018E-02 
1938	 3.47170066852262E-02 
1939	 3.55528005405529E-02 
1940	 6.61990752963785E-02 
1941	 4.25972600932137E-02 
1942	 3.61158329541044E-02 
1943	 3.22109968553957E-02 
1944	 2.20842912948131E-02 
1945	 2.91373495679583E-02 
1946	 0.016872204050196 
1947	 5.94305354000609E-03 
1948	 1.00328597464314E-02 
1949	 1.40170699833171E-02 
1950	 2.03564747129217E-02 
1951	 2.58675107799058E-02 
1952	 3.05333534193225E-02 
1953	 3.51704321928236E-02 
1954	 3.55030876484899E-02 
1955	 3.33657008284289E-02 
1956	 0.028077032631952 
1957	 2.21404403273312E-02 
1958	 2.01696334322592E-02 
1959	 1.54809126128123E-02 
1960	 1.35178204550663E-02 
1961	 1.44521124705337E-02 
1962	 1.08947811617932E-02 
1963	 5.59901442537346E-03 
1964	 3.22303396991721E-03 
1965	 4.0014394665801E-03 
1966	 3.43290289002015E-03 
1967	 2.63125414105065E-03 
1968	 2.26906048574726E-03 
1969	 2.91347143499707E-03 
1970	 2.10801885263861E-03 
1971	 9.32365660350159E-04 
1972	 1.62059589144166E-03 
1973	 2.68652336127356E-03 
1974	 2.89111795503714E-03 
1975	 3.08308487371993E-03 
1976	 2.98916785386549E-03 
1977	 3.20466317952097E-03 
1978	 3.98736088009314E-03 
1979	 4.00193385130513E-03 
1980	 4.23704507693316E-03 
1981	 3.72528509220901E-03 
1982	 2.86160929484042E-03 
1983	 2.77182505640505E-03 
1984	 2.53629722414927E-03 
1985	 2.94641897236796E-03 
1986	 4.16719562176711E-03 
1987	 3.55539750337724E-03 
1988	 2.62736443938453E-03 
1989	 3.40751834519056E-03 
1990	 3.97299089120525E-03 
1991	 3.15007079907496E-03 
1992	 2.83214508460924E-03 
1993	 2.83779733479608E-03 
1994	 2.39678227950502E-03 
1995	 6.2180391206637E-04 
1996	 1.14110010274153E-03 
1997	 2.9086907547084E-03 
1998	 3.31294347618771E-03 
1999	 4.28357945141192E-03 
2000	 4.48548938704919E-03 
2001	 4.40509193172709E-03 
2002	 3.16780878202901E-03 
2003	 3.47758780822519E-03 
2004	 9.05233060711304E-03 
2005	 9.82765886709316E-03 
2006	 9.94284325383802E-03 
2007	 1.21067724832988E-02 
2008	 8.98368053546332E-03 
2009	 6.47164314040683E-03 
2010	 3.19988425046473E-03 
2011	 2.78831586843765E-03 
2012	 2.76109011654725E-03 
2013	 2.3626045222589E-03 
2014	 4.61337867600609E-03 
2015	 7.02552004795688E-03 
2016	 6.52962588339613E-03 
2017	 5.39547350496766E-03 
2018	 4.73101603540933E-03 
2019	 4.49683617978524E-03 
2020	 5.30684585619065E-03 
2021	 6.49683696334083E-03 
2022	 6.78686362513825E-03 
2023	 5.90941883485995E-03 
2024	 5.29960725694603E-03 
2025	 3.47302103942772E-03 
2026	 3.2889126342631E-03 
2027	 3.70363994737112E-03 
2028	 4.86173603689812E-03 
2029	 4.7008462532907E-03 
2030	 3.7593405787888E-03 
2031	 3.10123816285056E-03 
2032	 2.49579676175069E-03 
2033	 2.85751531509887E-03 
2034	 3.73607567098913E-03 
2035	 3.77494137108191E-03 
2036	 3.27007830068174E-03 
2037	 3.05860145700721E-03 
2038	 2.82772775127952E-03 
2039	 2.98433275110901E-03 
2040	 4.26496249927504E-03 
2041	 4.39262208149079E-03 
2042	 3.70154319695984E-03 
2043	 3.58350713022197E-03 
2044	 3.5242802518517E-03 
2045	 2.77528400496528E-03 
2046	 2.17706813959302E-03 
2047	 3.10269976962127E-03 
2048	 3.53090755385436E-03 
2049	 3.38119659706286E-03 
2050	 3.85679064145351E-03 
2051	 4.03489509817174E-03 
2052	 3.3820891754583E-03 
2053	 2.9297708571996E-03 
2054	 4.01868536513107E-03 
2055	 4.64457869797491E-03 
2056	 4.48156114922449E-03 
2057	 4.15319891692561E-03 
2058	 3.93162746570879E-03 
2059	 2.47671369731263E-03 
2060	 1.98562516830948E-03 
2061	 1.89035246792373E-03 
2062	 2.92317254929458E-03 
2063	 3.88891316553714E-03 
2064	 4.18407184612305E-03 
2065	 4.62069580545192E-03 
2066	 4.02502015855379E-03 
2067	 3.02947741744244E-03 
2068	 3.4706499587184E-03 
2069	 3.48005161698195E-03 
2070	 3.19436553973165E-03 
2071	 3.54720853359516E-03 
2072	 2.18013308775471E-03 
2073	 1.66671404258812E-03 
2074	 1.7357376169334E-03 
2075	 1.92583458980515E-03 
2076	 2.29556218832671E-03 
2077	 2.2565052686454E-03 
2078	 1.81905695314541E-03 
2079	 1.96644768712147E-03 
2080	 2.06237681662717E-03 
2081	 2.55509497604927E-03 
2082	 3.11935079056957E-03 
2083	 3.46557100011075E-03 
2084	 3.43071894654221E-03 
2085	 2.91102250517319E-03 
2086	 3.19425029973504E-03 
2087	 3.18805390062468E-03 
2088	 2.31843474657174E-03 
2089	 2.07009069449649E-03 
2090	 2.39375069723562E-03 
2091	 2.73679603019927E-03 
2092	 2.59251881163373E-03 
2093	 2.28414384594875E-03 
2094	 2.61564451402989E-03 
2095	 2.88378722558733E-03 
2096	 2.88529504921227E-03 
2097	 3.73341409688864E-03 
2098	 4.04426715517008E-03 
2099	 3.76068546882404E-03 
2100	 2.86672352074311E-03 
2101	 2.81796833964389E-03 
2102	 2.5326630946826E-03 
2103	 1.71729223549982E-03 
2104	 1.47691540813739E-03 
2105	 1.19791649463491E-03 
2106	 1.31008672786308E-03 
2107	 2.25712080857525E-03 
2108	 2.7187571402894E-03 
2109	 2.58586733134479E-03 
2110	 2.90012056380594E-03 
2111	 3.05471834862314E-03 
2112	 2.65172961028503E-03 
2113	 2.5192768021036E-03 
2114	 2.87349458435166E-03 
2115	 0.002879193155737 
2116	 2.50204137544606E-03 
2117	 2.36905442274761E-03 
2118	 2.48430587281144E-03 
2119	 2.5587617816311E-03 
2120	 2.46542434361634E-03 
2121	 2.32730922755039E-03 
2122	 3.29043658151505E-03 
2123	 4.03111721758422E-03 
2124	 4.18667082598829E-03 
2125	 4.09635874129947E-03 
2126	 3.93962662357524E-03 
2127	 3.52060275300778E-03 
2128	 3.08009860606773E-03 
2129	 3.92137215007014E-03 
2130	 4.27012294889284E-03 
2131	 3.69128928463613E-03 
2132	 3.74320094373663E-03 
2133	 3.64672960030636E-03 
2134	 3.52629844665673E-03 
2135	 3.26418426465714E-03 
2136	 3.51553747542407E-03 
2137	 4.37513417609412E-03 
2138	 4.28123618856742E-03 
2139	 3.69115859548888E-03 
2140	 3.64610204299506E-03 
2141	 3.24348103412564E-03 
2142	 2.86464480122348E-03 
2143	 2.77045820761252E-03 
2144	 3.28521159394824E-03 
2145	 3.17667584349622E-03 
2146	 2.9178499275514E-03 
2147	 3.23551031601371E-03 
2148	 3.80765205842296E-03 
2149	 3.85602687485243E-03 
2150	 3.51064461881237E-03 
2151	 2.52289764574447E-03 
2152	 1.54715823120086E-03 
2153	 2.44638123832512E-03 
2154	 3.06680510736267E-03 
2155	 3.01404052325582E-03 
2156	 3.72130851034444E-03 
2157	 3.90201573397113E-03 
2158	 2.70568678939808E-03 
2159	 2.21836648589538E-03 
2160	 2.36194719486533E-03 
2161	 2.1925328887654E-03 
2162	 1.0972937387113E-03 
2163	 1.01247265616195E-03 
2164	 2.13884756747874E-03 
2165	 2.73325444782241E-03 
2166	 3.40963797661764E-03 
2167	 3.56070647195092E-03 
2168	 3.88569960765071E-03 
2169	 3.54420262905685E-03 
2170	 2.05020814524096E-03 
2171	 1.07326957643678E-03 
2172	 2.0921873858281E-03 
2173	 1.7096639692501E-03 
2174	 1.7721044664115E-03 
2175	 3.5077035956548E-03 
2176	 0.003262238540734 
2177	 2.6560043724014E-03 
2178	 3.07845194764464E-03 
2179	 2.80385437287814E-03 
2180	 2.73720327502304E-03 
2181	 2.92218756821463E-03 
2182	 2.3498541813691E-03 
2183	 2.18202861063248E-03 
2184	 2.32482614740132E-03 
2185	 2.55780026785732E-03 
2186	 2.80529955805777E-03 
2187	 3.62091128188756E-03 
2188	 3.40416152918449E-03 
2189	 2.35290419819886E-03 
2190	 2.19708938103652E-03 
2191	 2.05725997765266E-03 
2192	 2.37939714140589E-03 
2193	 3.09409817019571E-03 
2194	 3.79581488815705E-03 
2195	 5.27422421744186E-03 
2196	 5.61496461890379E-03 
2197	 5.53870556261891E-03 
2198	 5.69460786101421E-03 
2199	 4.56641720155964E-03 
2200	 4.90796313705006E-03 
2201	 6.52631660080917E-03 
2202	 6.99211831611079E-03 
2203	 6.68244129071202E-03 
2204	 5.01306515993833E-03 
2205	 2.81057702861855E-03 
2206	 2.23628400369414E-03 
2207	 3.58092553554477E-03 
2208	 3.49595774854791E-03 
2209	 2.54391736097515E-03 
2210	 3.87338125300609E-03 
2211	 5.55135953127452E-03 
2212	 6.18165061404289E-03 
2213	 6.16234526257904E-03 
2214	 4.24445431863795E-03 
2215	 2.87563006249149E-04 
2216	-6.42968403474479E-04 
2217	-5.30356834594527E-04 
2218	 2.16395784383476E-03 
2219	 1.61415094619874E-03 
2220	 3.06346833817226E-04 
2221	 7.30806946434131E-04 
2222	 4.3526826802866E-04 
2223	 6.01058799661682E-05 
2224	 1.53909000645519E-03 
2225	 2.29956014033311E-03 
2226	 1.35046162762533E-03 
2227	 1.87752478896086E-03 
2228	 4.5483001375238E-03 
2229	 5.01943936754336E-03 
2230	 3.62496577760202E-03 
2231	 3.34822083365925E-03 
2232	 3.56598722626924E-03 
2233	 3.70872849651753E-03 
2234	 4.31363994288819E-03 
2235	 3.60101288867901E-03 
2236	 4.44672160042262E-03 
2237	 4.22073100604779E-03 
2238	 3.81494343092115E-03 
2239	 5.53271391187533E-03 
2240	 6.17056509781093E-03 
2241	 6.44226424979279E-03 
2242	 5.67156209375368E-03 
2243	 3.87345086565517E-03 
2244	 2.34947087527031E-03 
2245	 2.29507610548607E-04 
2246	 2.56223528500461E-04 
2247	 2.15708124100342E-03 
2248	 4.39931070035105E-03 
2249	 6.73723858711373E-03 
2250	 8.43074006760463E-03 
2251	 8.22819304115677E-03 
2252	 5.51769161008334E-03 
2253	 3.37304269869572E-03 
2254	 2.24758987730983E-03 
2255	 2.20872758221261E-03 
2256	 2.52459974029591E-03 
2257	 2.2167362448021E-03 
2258	 2.24953946918604E-03 
2259	 1.36183036907333E-03 
2260	 9.08282536763793E-04 
2261	 1.61006914862294E-03 
2262	 0.001578781033427 
2263	 2.66938758666616E-04 
2264	 6.04910325662394E-04 
2265	 2.44087398197895E-03 
2266	 2.95895140713331E-03 
2267	 3.02060558841605E-03 
2268	 3.84244360015896E-03 
2269	 4.30972025157605E-03 
2270	 4.52619007448915E-03 
2271	 6.43172519109273E-03 
2272	 6.79055577885346E-03 
2273	 5.40126520104732E-03 
2274	 4.78469862210263E-03 
2275	 3.55916688776973E-03 
2276	 2.82726227727927E-03 
2277	 1.78021490608839E-03 
2278	 1.83517962657953E-03 
2279	 3.90385131310536E-03 
2280	 4.63308785563294E-03 
2281	 5.27450686101103E-03 
2282	 5.8931117725536E-03 
2283	 5.06083542419953E-03 
2284	 2.08134176823882E-03 
2285	 1.14458805438835E-03 
2286	 2.93589188811368E-03 
2287	 5.81791263201034E-03 
2288	 7.02010955358779E-03 
2289	 5.61034528951121E-03 
2290	 5.29667894738256E-03 
2291	 5.42702539142742E-03 
2292	 7.56051909815962E-03 
2293	 9.16499968538275E-03 
2294	 7.53514446817541E-03 
2295	 6.35035772297596E-03 
2296	 4.16634418983292E-03 
2297	 3.94558715776367E-03 
2298	 5.52165544041923E-03 
2299	 4.58636945573643E-03 
2300	 6.4407490249934E-03 
2301	 9.28516622634739E-03 
2302	 9.23460981510257E-03 
2303	 9.65563770153089E-03 
2304	 6.98066862779163E-03 
2305	 4.12724075599668E-03 
2306	 4.71682752789221E-03 
2307	 5.07992669702518E-03 
2308	 5.99379432435113E-03 
2309	 6.25117920002976E-03 
2310	 6.01542379139326E-03 
2311	 5.75479942421874E-03 
2312	 5.9470667539136E-03 
2313	 8.61253570972523E-03 
2314	 8.21386784566661E-03 
2315	 7.18764494806033E-03 
2316	 8.56960376050093E-03 
2317	 5.85266531932829E-03 
2318	 5.10714140563966E-03 
2319	 7.90277099057972E-03 
2320	 9.42119084391238E-03 
2321	 9.50428312906909E-03 
2322	 9.28265005242367E-03 
2323	 7.23116594994241E-03 
2324	 2.38227102598931E-03 
2325	 8.88134511991939E-04 
2326	 2.62331732614614E-03 
2327	 5.50769982520551E-03 
2328	 5.81075841035176E-03 
2329	 6.36916414869944E-03 
2330	 7.75524327412992E-03 
2331	 3.3956047829422E-03 
2332	 1.5608283761563E-03 
2333	 2.21532391059856E-03 
2334	-3.15108482789392E-03 
2335	-4.63142126750025E-03 
2336	 2.37550196815129E-03 
2337	 4.40695364838669E-03 
2338	 2.52480800184884E-04 
2339	-3.98603521996028E-04 
2340	-2.96022281479442E-06 
2341	-2.84155478813644E-03 
2342	-4.51095197248401E-03 
2343	 3.79365464048641E-03 
2344	 7.96097996523595E-03 
2345	-1.26296944331349E-03 
2346	 1.33020046066992E-03 
2347	 5.30015482159997E-03 
2348	-1.52125329135212E-03 
2349	 1.08354480989156E-03 
2350	 7.56757378270871E-03 
2351	 6.14868033111329E-04 
2352	-9.8877736813089E-03 
2353	-7.39432831788468E-03 
2354	-4.25284510946264E-03 
2355	-8.39551790641675E-04 
2356	 9.75420276214169E-03 
2357	 1.46144530995693E-02 
2358	 1.08071095043022E-02 
2359	 5.01067936830761E-03 
2360	-1.55079523864719E-04 
2361	-6.17964587321768E-04 
2362	 5.81801102593938E-03 
2363	 7.56915977423927E-03 
2364	 5.81132718312321E-03 
2365	 1.56003275770664E-02 
2366	 1.79248096402523E-02 
2367	 1.27985136630878E-02 
2368	 1.53165858532597E-02 
2369	 5.30540475538651E-03 
2370	-9.09939960207253E-03 
2371	-1.08389863908556E-02 
2372	-9.97539854753004E-03 
2373	-1.20267847055017E-02 
2374	-5.57470861987118E-03 
2375	 5.24397163169896E-03 
2376	 6.99031019550922E-03 
2377	 1.09527357658003E-02 
2378	 1.55845437969126E-02 
2379	 1.57347803056718E-02 
2380	 2.29576304899307E-02 
2381	 2.04786039126587E-02 
2382	 2.35733322523327E-03 
2383	-6.50662116071825E-05 
2384	 8.97638147235829E-03 
2385	 1.58665580673154E-02 
2386	 2.95011020194386E-02 
2387	 4.02305123250352E-02 
2388	 1.89922059589351E-02 
2389	 2.94729563364063E-03 
2390	 2.50233955179064E-02 
2391	 1.80200337428333E-02 
2392	 3.89421080833954E-03 
2393	 2.43963555863379E-02 
2394	 1.31494613911652E-02 
2395	 4.34438990482618E-03 
2396	 4.02494313620239E-02 
2397	 6.05276936880028E-02 
2398	 0.044857749087168 
2399	 0.023398486661923 
2400	 5.42849091200437E-03 
2401	-1.89020283530757E-02 
2402	-2.51200614685984E-02 
2403	-1.80681864818283E-02 
2404	-0.030738389702351 
2405	-4.03511710144666E-02 
2406	-5.00421710165659E-02 
2407	-5.19037371376011E-02 
2408	-1.82190217965771E-02 
2409	 9.62567780936426E-03 
2410	 0.020818060956142 
2411	 4.22275837225045E-02 
2412	 5.28177383068115E-02 
2413	 5.45743972242203E-02 
2414	 0.098529882423916 
2415	 0.158377338182052 
2416	 0.173713099449878 
2417	 0.168524390995512 
2418	 0.120406035567723 
2419	 5.40607888483667E-02 
2420	 2.82985487210446E-02 
2421	 2.16405042073344E-02 
2422	 2.06255291295782E-02 
2423	 4.71607071893904E-02 
2424	-5.67888874011606E-03 
2425	-0.069534594062634 
2426	-4.49508125172814E-02 
2427	-4.48769209347093E-02 
2428	-3.62822968045872E-02 
2429	 9.23749698835953E-03 
2430	-9.85106191852784E-03 
2431	-4.46451792691754E-02 
2432	-1.18219467015937E-02 
2433	 5.48209113521456E-03 
2434	 3.94652256747674E-02 
2435	 8.13409389297735E-02 
2436	 2.35263292280867E-02 
2437	-6.81045255776963E-03 
2438	-1.80752818683417E-02 
2439	 4.39412637409317E-03 
2440	 6.53496311310204E-02 
2441	 0.075458923690455 
2442	 4.86351058949548E-02 
2443	-7.80275907354822E-03 
2444	-4.50318673393785E-02 
2445	 3.14886122715793E-03 
2446	 0.138019302126766 
2447	 0.25012064674855 
2448	 0.246092663350245 
2449	 3.09470122288349E-02 
2450	-0.060421514720806 
2451	-0.185968706783975 
2452	-0.257917514132974 
2453	-0.101629322855072 
2454	-8.06281678497354E-02 
2455	-6.88629624502393E-02 
2456	-3.39609745747718E-02 
2457	-0.110872953833488 
2458	-0.220364331868385 
2459	-0.253614586497293 
2460	-6.75402271749868E-02 
2461	-4.34427615543941E-02 
2462	 5.56909112842627E-03 
2463	 0.319958938027822 
2464	-0.201949659189313 
2465	-0.381895528814289 
2466	-0.483901731642202 
2467	-0.598608011342831 
2468	-0.223708906608481 
2469	 0.107667592747427 
2470	 0.880560025748432 
2471	 1.27944563975755 
2472	 0.774233541282406 
2473	 0.693971228612116 
2474	 0.780190382576836 
2475	 0.613112989828781 
2476	 0.823102471551951 
2477	 0.343333925801378 
2478	 0.226266900813784 
2479	 0.441086587209276 
2480	 0.508447097290778 
2481	 0.928254059661907 
2482	 2.63809385006358 
2483	 1.68884022540071 
2484	-3.60226013100883 
2485	 0.506448923019006 
2486	 0.80930255169934 
2487	 1.05263119747667 
2488	 1.72859553251444 
2489	-3.44766714486101 
2490	 0.187894567808868 
2491	 0.962827045736705 
2492	-0.878443595425161 
2493	 1.38434521007502 
2494	 5.26835293332494 
2495	 72.8979897954059 
2496	 16.7685016929864 
2497	-9.4522042604095 
2498	 7.90095779929569E-02 
2499	 0.6958089282807 
2500	 0.173119546074997 
