Wavelength	rt0718far00004.asd
350	 0.03020584717393 
351	 3.02088858195737E-02 
352	 3.04346262437006E-02 
353	 3.08201895381152E-02 
354	 3.11438488079323E-02 
355	 3.07886000444258E-02 
356	 3.09236537537783E-02 
357	 3.10724937490108E-02 
358	 3.06849033405899E-02 
359	 3.12413852445518E-02 
360	 0.031473290987231 
361	 3.12545124440566E-02 
362	 3.12548508584083E-02 
363	 3.12056557964728E-02 
364	 3.11601537498801E-02 
365	 3.12363869888625E-02 
366	 3.16107382995473E-02 
367	 3.16730277473538E-02 
368	 0.031587769312028 
369	 3.16460506389557E-02 
370	 3.17968179142599E-02 
371	 3.18631544617066E-02 
372	 3.17637138028893E-02 
373	 3.15346809850438E-02 
374	 0.031553561740296 
375	 3.18247141405597E-02 
376	 3.22295792984342E-02 
377	 3.25564830895455E-02 
378	 3.23124573962215E-02 
379	 3.21854927863051E-02 
380	 3.26507288947777E-02 
381	 3.26224067075582E-02 
382	 3.27141060310191E-02 
383	 3.28810753090158E-02 
384	 3.28488550110846E-02 
385	 3.30426996545587E-02 
386	 3.34996314331918E-02 
387	 3.38811348335696E-02 
388	 3.35435572722756E-02 
389	 3.35646389008658E-02 
390	 3.38370561729429E-02 
391	 3.40326612224761E-02 
392	 3.38873953474166E-02 
393	 0.03391548498918 
394	 3.42855554187089E-02 
395	 3.48525393721797E-02 
396	 3.47365366557558E-02 
397	 3.46737505394886E-02 
398	 3.49001317752724E-02 
399	 3.51329776938026E-02 
400	 3.51159116321592E-02 
401	 3.51503977922461E-02 
402	 0.035375763602273 
403	 3.53702226732566E-02 
404	 3.54530217206819E-02 
405	 3.55647974575662E-02 
406	 3.55739720952455E-02 
407	 3.57741189732883E-02 
408	 3.59853397469836E-02 
409	 3.60831449350613E-02 
410	 3.60474873972133E-02 
411	 3.63407357724976E-02 
412	 3.66300546298456E-02 
413	 3.66641533521272E-02 
414	 3.67085652325398E-02 
415	 3.68968065833875E-02 
416	 3.71682247569273E-02 
417	 3.73717608816191E-02 
418	 3.73904377158617E-02 
419	 3.75585269169458E-02 
420	 3.78893189355641E-02 
421	 3.80349637799101E-02 
422	 3.82358778018952E-02 
423	 3.84411194390729E-02 
424	 3.85850087754406E-02 
425	 3.87032666317296E-02 
426	 3.89797062449936E-02 
427	 3.93260253571494E-02 
428	 3.95482752924035E-02 
429	 3.97629864404878E-02 
430	 4.00764443783011E-02 
431	 4.04263094295961E-02 
432	 4.05647044079009E-02 
433	 4.08749739200995E-02 
434	 4.12321477196057E-02 
435	 4.14823760006433E-02 
436	 4.17369207715479E-02 
437	 4.19461352643693E-02 
438	 4.22172387868197E-02 
439	 4.26814218570119E-02 
440	 4.29170371301458E-02 
441	 4.31669756692866E-02 
442	 4.35363913246763E-02 
443	 4.38233879791184E-02 
444	 4.40904391487824E-02 
445	 4.43645556515499E-02 
446	 4.46465051532041E-02 
447	 4.48545561877352E-02 
448	 4.51431107816031E-02 
449	 0.045451144794456 
450	 4.55820188995585E-02 
451	 4.57673407627509E-02 
452	 4.59761049414643E-02 
453	 4.61743470437579E-02 
454	 4.64063540675913E-02 
455	 4.66017430915082E-02 
456	 0.046738805580723 
457	 4.68400082935245E-02 
458	 4.70477184362463E-02 
459	 4.71879360000024E-02 
460	 4.72719023613802E-02 
461	 4.74999681932398E-02 
462	 4.76969078510485E-02 
463	 4.78540747536643E-02 
464	 4.79794000256436E-02 
465	 4.80094702466239E-02 
466	 0.048184202787539 
467	 4.84236893994598E-02 
468	 4.85232300983547E-02 
469	 4.86659624558143E-02 
470	 4.88597571243352E-02 
471	 4.90641408147889E-02 
472	 4.91961486371162E-02 
473	 4.94314245577266E-02 
474	 4.96255500958819E-02 
475	 4.96754151779677E-02 
476	 4.99303389751964E-02 
477	 5.01484497560385E-02 
478	 0.050337125091464 
479	 5.06524688726928E-02 
480	 5.08460926827324E-02 
481	 5.09969379083816E-02 
482	 5.12017470986865E-02 
483	 5.15051752278219E-02 
484	 0.051815939778594 
485	 5.20551328504796E-02 
486	 5.22067132297976E-02 
487	 5.25261942458096E-02 
488	 5.28446407372902E-02 
489	 0.053107161038489 
490	 5.33924053751865E-02 
491	 5.36891026265581E-02 
492	 5.39822370106604E-02 
493	 5.42871541348786E-02 
494	 5.47290771007497E-02 
495	 0.055070584947537 
496	 5.53399497665971E-02 
497	 5.56935679452955E-02 
498	 0.056096212704018 
499	 5.64612544286524E-02 
500	 5.67883002787424E-02 
501	 5.72186382706634E-02 
502	 5.75790771220401E-02 
503	 5.79389532204188E-02 
504	 5.83849352503205E-02 
505	 5.87829728290653E-02 
506	 0.059154386701049 
507	 5.95078329136085E-02 
508	 5.98402236143454E-02 
509	 6.01610254510428E-02 
510	 6.05265282180508E-02 
511	 6.09620321383234E-02 
512	 6.14206296186574E-02 
513	 6.18608448269571E-02 
514	 6.22712623988307E-02 
515	 6.26789948436246E-02 
516	 6.32616913261418E-02 
517	 6.38409948596499E-02 
518	 6.43074911208139E-02 
519	 6.46835028731429E-02 
520	 6.52522340361568E-02 
521	 6.58251407432823E-02 
522	 6.62318157708777E-02 
523	 0.066742028642111 
524	 6.73202710390755E-02 
525	 6.79077138345535E-02 
526	 6.84414595361467E-02 
527	 6.90051598287799E-02 
528	 0.069540987372148 
529	 7.00231956060623E-02 
530	 7.05183929938096E-02 
531	 7.11059922855174E-02 
532	 7.17053203374449E-02 
533	 7.22089256591595E-02 
534	 7.27771230745108E-02 
535	 7.33803964085755E-02 
536	 7.39827492431436E-02 
537	 7.45531698703193E-02 
538	 7.50897374943519E-02 
539	 7.56392061103243E-02 
540	 7.62407999311436E-02 
541	 7.68818501972751E-02 
542	 7.74454774935411E-02 
543	 7.79773806906667E-02 
544	 0.078602440090701 
545	 7.90830200691718E-02 
546	 7.96059238680039E-02 
547	 0.080240716040456 
548	 0.080723444963023 
549	 8.12944925457417E-02 
550	 8.18843471007943E-02 
551	 8.23738089996699E-02 
552	 8.30139068985443E-02 
553	 8.36030463899705E-02 
554	 8.41104852177118E-02 
555	 8.47193241668722E-02 
556	 8.53006689502066E-02 
557	 8.58385321677179E-02 
558	 8.63529853073834E-02 
559	 8.69129742516417E-02 
560	 8.74608152344568E-02 
561	 8.79458154045892E-02 
562	 8.83433381542122E-02 
563	 8.88089551395427E-02 
564	 8.92435501643837E-02 
565	 8.96054165634256E-02 
566	 9.00370024344212E-02 
567	 9.04064513040002E-02 
568	 9.07258674777376E-02 
569	 9.10491980926853E-02 
570	 0.091355738370594 
571	 9.16241143564916E-02 
572	 9.18564828842817E-02 
573	 9.20786823133486E-02 
574	 0.092247226172194 
575	 0.09236258990705 
576	 9.24297034810469E-02 
577	 9.24297574224592E-02 
578	 0.092432248088471 
579	 9.23896782456646E-02 
580	 9.22047158557424E-02 
581	 9.20565751794169E-02 
582	 9.18762455076585E-02 
583	 9.16169577813783E-02 
584	 9.13244555935903E-02 
585	 9.10919245474422E-02 
586	 9.08255225827311E-02 
587	 9.03958023092034E-02 
588	 8.99351145116984E-02 
589	 8.95525877014476E-02 
590	 8.91940505702978E-02 
591	 8.86273765556486E-02 
592	 0.088142137169265 
593	 8.75529797748127E-02 
594	 8.67114871872112E-02 
595	 0.08584483640804 
596	 8.48390336905797E-02 
597	 8.37040220894582E-02 
598	 8.25372885120187E-02 
599	 8.14621662119839E-02 
600	 0.080490889123919 
601	 7.96660098552893E-02 
602	 7.91133018578746E-02 
603	 7.86547608734249E-02 
604	 7.83296545151191E-02 
605	 7.81980783658134E-02 
606	 7.80314050377375E-02 
607	 7.79035334024431E-02 
608	 7.78673253939465E-02 
609	 7.79304374181884E-02 
610	 7.78874664296404E-02 
611	 7.77917110294539E-02 
612	 7.77241698910342E-02 
613	 7.76663968225791E-02 
614	 7.76016095914967E-02 
615	 7.75228146757482E-02 
616	 7.74391937592752E-02 
617	 7.74334069315751E-02 
618	 7.73944184962564E-02 
619	 7.72769856882492E-02 
620	 7.71719317172796E-02 
621	 7.70831206086703E-02 
622	 7.70033637734287E-02 
623	 7.69185490087317E-02 
624	 0.076824223067787 
625	 0.076677862611248 
626	 0.076551057113738 
627	 7.66018709120069E-02 
628	 7.64559484093991E-02 
629	 7.63172697669382E-02 
630	 7.63302036323316E-02 
631	 7.61729419795469E-02 
632	 7.60917423389818E-02 
633	 0.076015979337915 
634	 0.075779434980558 
635	 7.57156756831673E-02 
636	 7.56762651470453E-02 
637	 7.55714503855181E-02 
638	 0.075461503535176 
639	 7.53398177626316E-02 
640	 7.51769905981582E-02 
641	 7.49733963875187E-02 
642	 7.48781617936193E-02 
643	 7.46994143583543E-02 
644	 0.074463866217082 
645	 7.43670924717898E-02 
646	 7.41900852408257E-02 
647	 0.074022922041169 
648	 7.38960229689125E-02 
649	 7.35634990877881E-02 
650	 7.32487352872306E-02 
651	 7.29314202417767E-02 
652	 7.25171189116916E-02 
653	 7.20275297129683E-02 
654	 7.14900852018356E-02 
655	 7.08586325316908E-02 
656	 7.00825823743022E-02 
657	 6.94082334797088E-02 
658	 6.88345886200234E-02 
659	 6.83063622128531E-02 
660	 6.78584214048026E-02 
661	 6.74314257890751E-02 
662	 6.70713874778459E-02 
663	 6.68706457492111E-02 
664	 0.066588009340679 
665	 0.066356788230286 
666	 6.62293674935802E-02 
667	 6.60351622918152E-02 
668	 6.58224689830314E-02 
669	 6.56348021754309E-02 
670	 6.55053573557238E-02 
671	 6.54024588051753E-02 
672	 6.52750603152487E-02 
673	 6.51694774119762E-02 
674	 6.52059912469235E-02 
675	 6.50812547129426E-02 
676	 6.49674660524403E-02 
677	 6.49857307634643E-02 
678	 0.064890202195533 
679	 6.48323017699121E-02 
680	 6.48402802347609E-02 
681	 0.064870283366687 
682	 6.47987077701835E-02 
683	 6.46779961419855E-02 
684	 6.45808155442226E-02 
685	 6.45820208398342E-02 
686	 6.44471769359647E-02 
687	 6.42513564879468E-02 
688	 6.41048099353647E-02 
689	 6.37900214984134E-02 
690	 6.34221281838333E-02 
691	 6.30106153171088E-02 
692	 6.24995808938737E-02 
693	 6.19427553323272E-02 
694	 6.13388521972508E-02 
695	 6.06877757561423E-02 
696	 5.99327978536195E-02 
697	 5.91706826388335E-02 
698	 5.83455544242583E-02 
699	 5.74383827592758E-02 
700	 5.66198100024997E-02 
701	 0.05559387987232 
702	 5.44481795110546E-02 
703	 5.35264119834822E-02 
704	 5.24683737599469E-02 
705	 5.13305961618243E-02 
706	 5.01881153518016E-02 
707	 4.89450184089504E-02 
708	 4.76164422052101E-02 
709	 4.62722271876875E-02 
710	 4.49533938873304E-02 
711	 0.043426008750461 
712	 4.18611450435735E-02 
713	 4.03392176807946E-02 
714	 3.87834357187989E-02 
715	 3.72892595450761E-02 
716	 3.57422551240139E-02 
717	 3.41351252130158E-02 
718	 3.25723991113659E-02 
719	 3.10477514504768E-02 
720	 0.029669861088776 
721	 2.83169133606212E-02 
722	 2.70887331929332E-02 
723	 2.58675794814931E-02 
724	 2.46721073191064E-02 
725	 2.33334928151711E-02 
726	 2.20519106039221E-02 
727	 2.08713536598656E-02 
728	 1.97519996626786E-02 
729	 1.84342508843334E-02 
730	 1.71566514208046E-02 
731	 1.61574717107346E-02 
732	 1.55019039595734E-02 
733	 1.47447856670906E-02 
734	 1.41539919059581E-02 
735	 1.37884215893355E-02 
736	 1.33575115325441E-02 
737	 1.30881628180219E-02 
738	 1.29294670495754E-02 
739	 1.27967765226358E-02 
740	 1.27058626414058E-02 
741	 0.012578363797054 
742	 1.24587309125706E-02 
743	 1.24379417512685E-02 
744	 0.01242512251925 
745	 1.23967907421767E-02 
746	 1.23398994354936E-02 
747	 0.012245656299238 
748	 1.22049026502056E-02 
749	 1.22089196503765E-02 
750	 1.22228897594769E-02 
751	 1.22379912766099E-02 
752	 1.21465591855878E-02 
753	 1.20608318476334E-02 
754	 1.21596932065687E-02 
755	 1.20973199509483E-02 
756	 1.20363894357143E-02 
757	 1.20846919516976E-02 
758	 1.22461021832648E-02 
759	 0.01215931401008 
760	 0.011950051761572 
761	 1.21081854190765E-02 
762	 1.22475614541332E-02 
763	 1.21905607202744E-02 
764	 1.20986140282141E-02 
765	 1.21438683991967E-02 
766	 1.20168431751455E-02 
767	 1.20505223541455E-02 
768	 1.22002274296952E-02 
769	 1.20676184460032E-02 
770	 1.20682553643295E-02 
771	 1.21507512719454E-02 
772	 1.21947799528216E-02 
773	 0.012141226282822 
774	 1.22511827878716E-02 
775	 1.24045606032772E-02 
776	 1.23730017894658E-02 
777	 1.23921938029954E-02 
778	 1.24280264958826E-02 
779	 1.24807726060914E-02 
780	 1.25958929471087E-02 
781	 1.26835008565331E-02 
782	 0.012757668154704 
783	 1.28434725358604E-02 
784	 1.29472565901427E-02 
785	 1.30165441147076E-02 
786	 0.013118906321595 
787	 1.33237888688977E-02 
788	 1.34914335100524E-02 
789	 1.35475910280676E-02 
790	 1.35587085472425E-02 
791	 1.36942977824085E-02 
792	 0.013950253779487 
793	 1.41904675755397E-02 
794	 1.43052640451402E-02 
795	 1.42476002802487E-02 
796	 1.45107344869161E-02 
797	 1.47638581145053E-02 
798	 1.46942557118939E-02 
799	 0.014868260011738 
800	 1.50248539757143E-02 
801	 1.51284443235686E-02 
802	 1.52553974519974E-02 
803	 1.52842822656829E-02 
804	 1.53199878404841E-02 
805	 1.53652248946596E-02 
806	 1.52990012079474E-02 
807	 1.53150212017949E-02 
808	 1.53674801562644E-02 
809	 1.53724317261688E-02 
810	 1.52793797556105E-02 
811	 1.51043550439022E-02 
812	 1.49523531115644E-02 
813	 1.49345649270999E-02 
814	 1.49126705556058E-02 
815	 1.47839885489687E-02 
816	 1.45403640434887E-02 
817	 1.42703995975416E-02 
818	 1.40838590566489E-02 
819	 0.013951928470079 
820	 1.37162386484902E-02 
821	 1.30791087140733E-02 
822	 1.27050524740567E-02 
823	 1.24623878940005E-02 
824	 1.21048728967484E-02 
825	 1.16490048253221E-02 
826	 1.12598767882336E-02 
827	 0.01092174142887 
828	 1.05683860486634E-02 
829	 1.01960285713368E-02 
830	 9.79130288975424E-03 
831	 9.47627802975352E-03 
832	 9.43000070759371E-03 
833	 9.33830971460715E-03 
834	 9.26109554010854E-03 
835	 9.19450242487202E-03 
836	 8.99716824742987E-03 
837	 8.88575469671525E-03 
838	 8.86953620415243E-03 
839	 8.88616645902838E-03 
840	 8.83225173277272E-03 
841	 8.67296742053611E-03 
842	 8.54579519397516E-03 
843	 8.57483155109176E-03 
844	 8.47581147033594E-03 
845	 8.47755340630014E-03 
846	 8.61891557788739E-03 
847	 8.75424096423222E-03 
848	 8.47796609828011E-03 
849	 8.33613997111421E-03 
850	 8.43495128088347E-03 
851	 8.21458199489858E-03 
852	 8.29459662292751E-03 
853	 8.33865333020591E-03 
854	 8.14778056051744E-03 
855	 8.23939538580496E-03 
856	 8.18356243528555E-03 
857	 8.04121006564027E-03 
858	 8.00259086059577E-03 
859	 8.23491843795021E-03 
860	 8.22770364291079E-03 
861	 8.07632971079858E-03 
862	 8.14194206831906E-03 
863	 8.29697824597253E-03 
864	 8.18400963457861E-03 
865	 7.91187847878559E-03 
866	 7.96662482704709E-03 
867	 7.88978247764267E-03 
868	 7.82974752048427E-03 
869	 7.78744189719808E-03 
870	 7.49364493320635E-03 
871	 7.65726788842508E-03 
872	 7.96563338657155E-03 
873	 8.02264358652159E-03 
874	 7.75852504903134E-03 
875	 7.74810255742514E-03 
876	 7.79513217156746E-03 
877	 7.64494888572687E-03 
878	 7.80762084900023E-03 
879	 7.89633771193148E-03 
880	 7.72314412125317E-03 
881	 7.33294355872449E-03 
882	 7.31158497803927E-03 
883	 7.4882412116232E-03 
884	 7.60289196933656E-03 
885	 7.4450312521974E-03 
886	 7.47127736143483E-03 
887	 7.56923422721695E-03 
888	 7.58845667370797E-03 
889	 7.43671834663575E-03 
890	 7.38541470629429E-03 
891	 7.43375750020412E-03 
892	 7.5089813311896E-03 
893	 7.50387364445361E-03 
894	 7.48555479498144E-03 
895	 7.47617136542235E-03 
896	 7.43086072682502E-03 
897	 7.11435645432885E-03 
898	 7.42857023889125E-03 
899	 7.48576336185898E-03 
900	 6.64047487735157E-03 
901	 7.21566682875798E-03 
902	 7.28323130958155E-03 
903	 6.86559716814472E-03 
904	 6.71737269040615E-03 
905	 7.05767021227949E-03 
906	 7.31082510290331E-03 
907	 7.26236604873171E-03 
908	 7.05272728927033E-03 
909	 7.07491078477138E-03 
910	 7.06389502279951E-03 
911	 7.01499314291865E-03 
912	 7.21063135334478E-03 
913	 7.89088617063851E-03 
914	 7.7887366791871E-03 
915	 7.00438146316146E-03 
916	 7.17617371634502E-03 
917	 6.92357674773218E-03 
918	 6.48712335197735E-03 
919	 6.27129638098012E-03 
920	 6.53411104308834E-03 
921	 6.58119044917283E-03 
922	 6.79898404482552E-03 
923	 7.21711313058917E-03 
924	 6.67512046976715E-03 
925	 6.85713074589102E-03 
926	 7.22764044958698E-03 
927	 6.73157917722188E-03 
928	 4.99766412932791E-03 
929	 5.3676980129029E-03 
930	 6.99630386452945E-03 
931	 6.95820393932179E-03 
932	 8.04877074145814E-03 
933	 6.13392312586355E-03 
934	 3.27149996406424E-03 
935	 3.64733998925346E-03 
936	 4.25945035473726E-03 
937	 5.52634003553492E-03 
938	 6.98331258221127E-03 
939	 7.61680019648318E-03 
940	 4.76298123254355E-03 
941	 4.36026666958563E-03 
942	 5.47697019523598E-03 
943	 4.66828335190077E-03 
944	 6.65017040801227E-03 
945	 7.32473263332465E-03 
946	 5.6769377882571E-03 
947	 3.64493058421062E-03 
948	 4.91910396607273E-03 
949	 6.08827719794247E-03 
950	 5.87883320539673E-03 
951	 5.14461342999245E-03 
952	 6.7055120545956E-03 
953	 6.31294526380057E-03 
954	 4.77580330710633E-03 
955	 5.81703078987529E-03 
956	 5.43558867035924E-03 
957	 4.61949870459339E-03 
958	 4.79493055305759E-03 
959	 6.63391233581408E-03 
960	 6.60597686097506E-03 
961	 4.77718039721377E-03 
962	 3.58085352508953E-03 
963	 0.005589609917409 
964	 5.65207857425829E-03 
965	 5.61343088769812E-03 
966	 6.12394596832243E-03 
967	 6.44795706576195E-03 
968	 6.04148930990543E-03 
969	 6.12041120247469E-03 
970	 6.37501193359399E-03 
971	 5.39661641482815E-03 
972	 5.15638505770576E-03 
973	 5.53199057708218E-03 
974	 6.16775471933798E-03 
975	 6.57997033680341E-03 
976	 5.12089798593689E-03 
977	 4.83101618714373E-03 
978	 5.34474600440789E-03 
979	 3.8184521833813E-03 
980	 6.2149636937166E-03 
981	 7.62253440526185E-03 
982	 6.24662412966001E-03 
983	 4.27065651293377E-03 
984	 5.5200448894722E-03 
985	 6.26517605027533E-03 
986	 6.03239637479407E-03 
987	 6.94609318744578E-03 
988	 5.13647626358913E-03 
989	 5.02482362172209E-03 
990	 6.71013366345224E-03 
991	 6.78483704846787E-03 
992	 6.13688037787537E-03 
993	 4.91319856873441E-03 
994	 0.004426864975374 
995	 6.0439414172688E-03 
996	 7.03528714359691E-03 
997	 6.77649742799024E-03 
998	 5.83474397714613E-03 
999	 5.56797349597877E-03 
1000	 7.66811202749056E-03 
1001	 4.98920613043357E-03 
1002	 5.30223406640874E-03 
1003	 5.53127461001382E-03 
1004	 5.92743527028941E-03 
1005	 5.97363581716538E-03 
1006	 5.84729746941209E-03 
1007	 5.73657823821221E-03 
1008	 5.2096919963444E-03 
1009	 5.00302579698272E-03 
1010	 5.07238120408992E-03 
1011	 5.14580835393594E-03 
1012	 5.48462786644115E-03 
1013	 5.79014963686877E-03 
1014	 5.75955069213615E-03 
1015	 5.33499876247471E-03 
1016	 5.22489160143897E-03 
1017	 4.96409506966662E-03 
1018	 4.93469211257643E-03 
1019	 5.13872008061655E-03 
1020	 5.36135655025322E-03 
1021	 5.79079784152721E-03 
1022	 6.00652294916164E-03 
1023	 6.07905939487898E-03 
1024	 6.04812776622419E-03 
1025	 5.55912738951681E-03 
1026	 5.10328859551462E-03 
1027	 4.84307935085689E-03 
1028	 4.46566646568369E-03 
1029	 4.62177537500943E-03 
1030	 5.24152396700862E-03 
1031	 5.50596097625096E-03 
1032	 6.2427460743431E-03 
1033	 6.29612726526613E-03 
1034	 5.70552144824137E-03 
1035	 5.43034435684862E-03 
1036	 4.85838471357918E-03 
1037	 4.60521033898306E-03 
1038	 4.56642882867759E-03 
1039	 4.56548880978409E-03 
1040	 4.97324094922251E-03 
1041	 5.05023744865277E-03 
1042	 5.18524183118285E-03 
1043	 5.48736203317557E-03 
1044	 5.46097943268113E-03 
1045	 5.08365852445307E-03 
1046	 5.07679438426166E-03 
1047	 5.0245512135222E-03 
1048	 5.11791546925296E-03 
1049	 5.66223811530657E-03 
1050	 5.74922389931714E-03 
1051	 5.59239686432065E-03 
1052	 5.52412781148059E-03 
1053	 5.15249090334502E-03 
1054	 5.05959260787551E-03 
1055	 5.24618138092647E-03 
1056	 5.32578219796901E-03 
1057	 5.41774747500248E-03 
1058	 5.64760003522822E-03 
1059	 5.62081880104613E-03 
1060	 5.38638467629321E-03 
1061	 5.34897995139417E-03 
1062	 5.24763680437352E-03 
1063	 5.26234668412793E-03 
1064	 5.52199732459885E-03 
1065	 5.55063030396918E-03 
1066	 5.47308918466843E-03 
1067	 5.42648058992392E-03 
1068	 5.25909458215801E-03 
1069	 5.18554969533988E-03 
1070	 5.16317813980649E-03 
1071	 5.17663539042446E-03 
1072	 5.46635217326883E-03 
1073	 0.005272244281479 
1074	 5.35287578437768E-03 
1075	 5.60992917515923E-03 
1076	 5.5031387049063E-03 
1077	 5.18069690986279E-03 
1078	 5.07654099369823E-03 
1079	 4.72098477905213E-03 
1080	 4.71114398807003E-03 
1081	 5.12836011957206E-03 
1082	 5.28026663895338E-03 
1083	 5.46122194469293E-03 
1084	 5.54150739252499E-03 
1085	 5.51213634902268E-03 
1086	 5.49155861401711E-03 
1087	 5.38236037477304E-03 
1088	 5.3055054174665E-03 
1089	 5.27550983188306E-03 
1090	 5.17450580449256E-03 
1091	 4.99148855691821E-03 
1092	 4.69316017949596E-03 
1093	 4.69088565608398E-03 
1094	 4.68812641782273E-03 
1095	 4.68259782017496E-03 
1096	 5.04326250391949E-03 
1097	 5.08639132834329E-03 
1098	 4.76728841619615E-03 
1099	 4.79399219348877E-03 
1100	 4.86396665973957E-03 
1101	 4.96684430593751E-03 
1102	 5.62042608471125E-03 
1103	 5.69612479084832E-03 
1104	 5.36826175829806E-03 
1105	 4.98118968913882E-03 
1106	 5.07123617946922E-03 
1107	 4.93194365823579E-03 
1108	 4.96064631613627E-03 
1109	 5.08192481069317E-03 
1110	 5.00677349684352E-03 
1111	 4.01776489324716E-03 
1112	 4.06670336743581E-03 
1113	 5.39562414574268E-03 
1114	 5.84172512189202E-03 
1115	 6.01370591042613E-03 
1116	 6.43544104640793E-03 
1117	 6.72454648259117E-03 
1118	 6.35076312322356E-03 
1119	 5.52368931590322E-03 
1120	 5.62768528727342E-03 
1121	 5.72561296240143E-03 
1122	 4.09793573356785E-03 
1123	 6.00022666656873E-03 
1124	 8.39409556070844E-03 
1125	 6.21767700448093E-03 
1126	 4.44488621522404E-03 
1127	 4.93248022111092E-03 
1128	 4.26003935746614E-03 
1129	 3.31206114477955E-03 
1130	 3.4347590771111E-03 
1131	 3.82148418811877E-03 
1132	 3.03909957598031E-03 
1133	 3.03301737855588E-03 
1134	 4.49245838094349E-03 
1135	 4.7775093826053E-03 
1136	 4.16579573035553E-03 
1137	 4.07414433407828E-03 
1138	 3.95037252461088E-03 
1139	 4.46398929839924E-03 
1140	 4.83828203957624E-03 
1141	 5.14877152040287E-03 
1142	 5.70645734512802E-03 
1143	 5.68707248471762E-03 
1144	 5.51488202063917E-03 
1145	 4.83866577410154E-03 
1146	 3.31470923756391E-03 
1147	 3.48004135507412E-03 
1148	 4.76617767636093E-03 
1149	 5.2879908915573E-03 
1150	 5.21719294678338E-03 
1151	 4.77984253945668E-03 
1152	 4.87738379186937E-03 
1153	 4.67144382912609E-03 
1154	 4.70814260781901E-03 
1155	 5.43431056267016E-03 
1156	 5.58081822713161E-03 
1157	 4.59640197113913E-03 
1158	 4.26085056312974E-03 
1159	 4.77563357750085E-03 
1160	 4.88540683751145E-03 
1161	 4.95426997125824E-03 
1162	 4.69922775339296E-03 
1163	 4.10847621065423E-03 
1164	 4.06957016538388E-03 
1165	 4.4346629701852E-03 
1166	 4.83282776901082E-03 
1167	 5.04023668280225E-03 
1168	 4.94316685438186E-03 
1169	 4.75584593210162E-03 
1170	 4.80411317160337E-03 
1171	 4.82233128291276E-03 
1172	 4.86677528724591E-03 
1173	 4.79463279760505E-03 
1174	 4.70895228826991E-03 
1175	 4.62242256266239E-03 
1176	 4.59295333427905E-03 
1177	 4.7824049182502E-03 
1178	 5.03089851720772E-03 
1179	 4.76810756579606E-03 
1180	 4.32434128038321E-03 
1181	 4.34771327166539E-03 
1182	 4.48819080855904E-03 
1183	 4.57307239834934E-03 
1184	 4.73203163170232E-03 
1185	 4.82021005573035E-03 
1186	 4.74119918796259E-03 
1187	 4.60791116275915E-03 
1188	 4.69106568660047E-03 
1189	 4.85551215415483E-03 
1190	 4.55318228896427E-03 
1191	 4.24087620429637E-03 
1192	 4.33177920208297E-03 
1193	 4.71270200508906E-03 
1194	 4.73262979123339E-03 
1195	 4.65132278999795E-03 
1196	 4.78797244324194E-03 
1197	 4.66030237677472E-03 
1198	 0.004551655189774 
1199	 4.62979331619894E-03 
1200	 4.65456304833533E-03 
1201	 4.69893085553296E-03 
1202	 4.66854306292761E-03 
1203	 4.69852844861061E-03 
1204	 4.80120934099851E-03 
1205	 4.76791185848775E-03 
1206	 4.57200203815368E-03 
1207	 4.43350528773091E-03 
1208	 4.62018656977506E-03 
1209	 4.63141027292792E-03 
1210	 4.30888134374732E-03 
1211	 4.29754045716834E-03 
1212	 4.54750474009581E-03 
1213	 4.61129987488216E-03 
1214	 4.57067256989649E-03 
1215	 4.58694779529181E-03 
1216	 4.51964734613436E-03 
1217	 4.37860835991553E-03 
1218	 4.43551082240229E-03 
1219	 4.79212036015803E-03 
1220	 4.84163641782113E-03 
1221	 4.33535148830744E-03 
1222	 4.22724189556274E-03 
1223	 4.54025645054505E-03 
1224	 4.53937186565317E-03 
1225	 4.56070264423048E-03 
1226	 4.64644794907494E-03 
1227	 4.47974759298246E-03 
1228	 4.40362896228398E-03 
1229	 4.53378318565657E-03 
1230	 4.65899572547105E-03 
1231	 4.58192091850467E-03 
1232	 4.50685873658795E-03 
1233	 4.55031181926502E-03 
1234	 4.42350862194948E-03 
1235	 4.39095054806138E-03 
1236	 4.37965720572677E-03 
1237	 4.40281584437056E-03 
1238	 4.45333361013955E-03 
1239	 4.62063881948314E-03 
1240	 4.68177033198623E-03 
1241	 4.49815343294536E-03 
1242	 4.34714880530459E-03 
1243	 4.13712127990024E-03 
1244	 4.02741326163024E-03 
1245	 4.1696559071879E-03 
1246	 4.28222710326658E-03 
1247	 4.53230992034563E-03 
1248	 4.71895257487589E-03 
1249	 4.54425958319593E-03 
1250	 4.37479317480918E-03 
1251	 4.29639917848178E-03 
1252	 4.3637219935607E-03 
1253	 4.54328475399129E-03 
1254	 4.44992561953093E-03 
1255	 4.28002167704698E-03 
1256	 4.31443150313913E-03 
1257	 4.33200857553874E-03 
1258	 4.25517263758376E-03 
1259	 4.39613017360906E-03 
1260	 4.35672142454309E-03 
1261	 3.8053844330888E-03 
1262	 3.72832468952549E-03 
1263	 3.91858602707135E-03 
1264	 4.27278130646091E-03 
1265	 4.46734077363503E-03 
1266	 4.51614447855651E-03 
1267	 4.35424163149745E-03 
1268	 4.18353264912792E-03 
1269	 4.29248242214303E-03 
1270	 4.41903076712653E-03 
1271	 4.48254164271998E-03 
1272	 4.61306874813143E-03 
1273	 4.48918453849172E-03 
1274	 4.27241063017264E-03 
1275	 4.23343050833376E-03 
1276	 4.19496592178342E-03 
1277	 4.22630415705923E-03 
1278	 4.30774597554277E-03 
1279	 4.33589167715683E-03 
1280	 4.33804026312404E-03 
1281	 4.34231191869301E-03 
1282	 4.32861521688911E-03 
1283	 4.29600444489001E-03 
1284	 4.25854244891707E-03 
1285	 4.21679740040185E-03 
1286	 4.13145635404108E-03 
1287	 4.1062625000546E-03 
1288	 4.0694292928925E-03 
1289	 4.10572444213931E-03 
1290	 4.26634479882614E-03 
1291	 4.2684318345254E-03 
1292	 4.24770898150787E-03 
1293	 4.3319762754667E-03 
1294	 4.26953216480403E-03 
1295	 4.29376691178535E-03 
1296	 4.38818680973457E-03 
1297	 4.22604219504078E-03 
1298	 4.14598407921907E-03 
1299	 4.09551165071335E-03 
1300	 3.91848519641412E-03 
1301	 4.10979092232327E-03 
1302	 4.46759443059112E-03 
1303	 4.62336455912298E-03 
1304	 4.79435185817923E-03 
1305	 4.89415211499141E-03 
1306	 4.75641842071818E-03 
1307	 4.0510227823386E-03 
1308	 4.00333860709433E-03 
1309	 4.0994888739321E-03 
1310	 4.22213497173618E-03 
1311	 5.08871087115234E-03 
1312	 5.15771358068784E-03 
1313	 4.37345990895836E-03 
1314	 4.43882016547673E-03 
1315	 4.84142220301692E-03 
1316	 4.66139321634008E-03 
1317	 4.60034905250883E-03 
1318	 4.70286118753076E-03 
1319	 4.26301288227929E-03 
1320	 4.01624158443426E-03 
1321	 4.16675009877632E-03 
1322	 4.54046428929168E-03 
1323	 4.41679084523926E-03 
1324	 0.004247960454394 
1325	 4.29141219648266E-03 
1326	 4.31175869530725E-03 
1327	 4.12706458602672E-03 
1328	 3.92294352368867E-03 
1329	 4.21757954975184E-03 
1330	 4.54462420745085E-03 
1331	 4.60575484683205E-03 
1332	 4.57230412223732E-03 
1333	 4.04918927438961E-03 
1334	 3.77163229571737E-03 
1335	 3.70213804512933E-03 
1336	 3.78935460551356E-03 
1337	 3.99488560632958E-03 
1338	 4.63531342571038E-03 
1339	 4.67915020652649E-03 
1340	 4.64714175786776E-03 
1341	 4.56638907073481E-03 
1342	 4.00444174270966E-03 
1343	 3.7232764336033E-03 
1344	 3.16392739515662E-03 
1345	 2.99380380821171E-03 
1346	 3.53716175224874E-03 
1347	 3.88025572096205E-03 
1348	 5.0095206135382E-03 
1349	 5.71714928714709E-03 
1350	 5.61216757043901E-03 
1351	 5.30352561510193E-03 
1352	 4.75494812903686E-03 
1353	 2.96452822454745E-03 
1354	-1.86330622851666E-03 
1355	-0.015336747883684 
1356	-0.021148380936205 
1357	-3.29616904120748E-02 
1358	-4.12856097303603E-02 
1359	-9.36317826407588E-03 
1360	-5.84858241547919E-02 
1361	-9.65150162116688E-02 
1362	-6.11483928752017E-03 
1363	 3.67038650652709E-02 
1364	-2.62644890094856E-03 
1365	-5.68309498506591E-02 
1366	-6.40614499302181E-02 
1367	-0.241245316050999 
1368	-0.299030881233962 
1369	-0.127836325592394 
1370	-9.49916844077173E-03 
1371	 0.122894613669655 
1372	 0.046342464779211 
1373	-0.175996872829601 
1374	-0.135770759028007 
1375	-0.150202768196689 
1376	-0.224824937301859 
1377	-1.13450784009867E-02 
1378	 0.11610301851214 
1379	 9.09460137306571E-02 
1380	-4.18968595922384E-02 
1381	-0.146263843308601 
1382	-0.163064875710608 
1383	-0.433161057296314 
1384	-0.557504802958057 
1385	-0.322085878664793 
1386	-0.213257612048823 
1387	-0.347374616112205 
1388	-0.415883142000784 
1389	-0.404908892773483 
1390	-0.313521051510867 
1391	-0.406778289844165 
1392	-0.136341128249533 
1393	 0.055646202644424 
1394	-0.147735078104247 
1395	-0.136739481214301 
1396	-5.93965007805517E-02 
1397	-0.280683089350043 
1398	-0.23745925072102 
1399	 0.445596430704166 
1400	 0.35820247252718 
1401	-3.30617567503988E-02 
1402	 0.190658560311601 
1403	 0.471855761274712 
1404	 0.373073667498574 
1405	 0.184237292702787 
1406	 5.52627894221615E-02 
1407	 5.89371681593944E-02 
1408	-7.10366521380885E-02 
1409	-0.110292368352951 
1410	 1.21563094337474E-02 
1411	 1.11114027393317E-02 
1412	-0.121268504375509 
1413	-9.99869293218625E-02 
1414	 1.97944029697904E-02 
1415	 2.33596973405406E-02 
1416	-1.17402012681329E-02 
1417	 3.32570102849034E-03 
1418	 1.38725856387211E-02 
1419	 7.70547688004464E-03 
1420	 1.71660725976218E-02 
1421	 1.87210601074214E-02 
1422	-1.03274926497876E-04 
1423	-5.47813895267136E-04 
1424	 1.11665933013479E-02 
1425	 1.61627025798392E-02 
1426	 2.27949897474371E-02 
1427	 2.15611279469117E-02 
1428	 1.63910840362915E-02 
1429	 0.015315857519844 
1430	 1.21495680665167E-02 
1431	 8.14423382512972E-03 
1432	 3.62444557482588E-03 
1433	 3.15538138255301E-03 
1434	 4.69788718318889E-03 
1435	 4.11276284840992E-03 
1436	 6.19524889403116E-03 
1437	 7.66292957941755E-03 
1438	 6.02864691148276E-03 
1439	 1.88641881574139E-03 
1440	 4.55215265082324E-04 
1441	-1.25971548998029E-03 
1442	 3.37286604685911E-04 
1443	 6.64290005344551E-04 
1444	 6.85073601058466E-04 
1445	 5.95979458693972E-03 
1446	 5.56227955727139E-03 
1447	 2.61042214021599E-03 
1448	 3.6129471098743E-03 
1449	 4.48269589220801E-03 
1450	 4.7738796625353E-03 
1451	 5.15256854337722E-03 
1452	 5.2582749035515E-03 
1453	 5.1388248459795E-03 
1454	 4.9013747345867E-03 
1455	 4.99418321144535E-03 
1456	 5.10106435012557E-03 
1457	 4.95095491542932E-03 
1458	 4.53565955242314E-03 
1459	 4.29491298279538E-03 
1460	 4.1220111625559E-03 
1461	 3.19356542214221E-03 
1462	 3.20946130009933E-03 
1463	 4.30328248635669E-03 
1464	 4.52033489063653E-03 
1465	 4.5440723942989E-03 
1466	 4.65293490412101E-03 
1467	 4.79150410259331E-03 
1468	 4.21944177139584E-03 
1469	 2.8139691812649E-03 
1470	 2.70594921496782E-03 
1471	 2.50482064894421E-03 
1472	 2.29742315506321E-03 
1473	 3.25655823377432E-03 
1474	 3.95506770324514E-03 
1475	 4.38623751765304E-03 
1476	 4.30469941269083E-03 
1477	 4.4581242921122E-03 
1478	 4.22178791078345E-03 
1479	 2.51915145992557E-03 
1480	 2.59696699106406E-03 
1481	 4.30862747268998E-03 
1482	 4.29182923296812E-03 
1483	 3.62225930882698E-03 
1484	 3.87104449384353E-03 
1485	 4.01665530096589E-03 
1486	 3.79706202213222E-03 
1487	 4.02486923650345E-03 
1488	 4.1000002155236E-03 
1489	 3.49307629864908E-03 
1490	 3.30651194476275E-03 
1491	 3.6968607531829E-03 
1492	 3.80865518972818E-03 
1493	 3.72061966966165E-03 
1494	 3.6453720917842E-03 
1495	 3.41843728853694E-03 
1496	 3.43208442998719E-03 
1497	 3.67984635578934E-03 
1498	 3.69349446860739E-03 
1499	 3.61675244042769E-03 
1500	 3.75908220451394E-03 
1501	 4.07604714975247E-03 
1502	 3.98085018598861E-03 
1503	 3.60915112834138E-03 
1504	 3.61267580379765E-03 
1505	 3.47338854989697E-03 
1506	 3.5336746846676E-03 
1507	 3.56066175749078E-03 
1508	 3.6472493053443E-03 
1509	 3.82489457857596E-03 
1510	 3.82545140432121E-03 
1511	 3.72489759571811E-03 
1512	 3.69821909864159E-03 
1513	 3.60410026791006E-03 
1514	 3.39091775825691E-03 
1515	 3.44470243378894E-03 
1516	 3.75159841163378E-03 
1517	 3.76966271701303E-03 
1518	 3.51209207512595E-03 
1519	 3.25749400377687E-03 
1520	 3.27229159777542E-03 
1521	 3.53203846971464E-03 
1522	 3.60347774173668E-03 
1523	 3.72475351010931E-03 
1524	 3.93691501947265E-03 
1525	 3.72012527907162E-03 
1526	 3.4467162200596E-03 
1527	 3.59712866688147E-03 
1528	 3.70168712358381E-03 
1529	 3.57252430239957E-03 
1530	 3.55507065830648E-03 
1531	 3.52328750435734E-03 
1532	 3.41094692577095E-03 
1533	 3.41508176825234E-03 
1534	 3.51938611908291E-03 
1535	 3.58229092210726E-03 
1536	 3.52847293357744E-03 
1537	 3.61186679813109E-03 
1538	 3.70651788331223E-03 
1539	 3.57313687674396E-03 
1540	 3.52331680134618E-03 
1541	 3.55676647104219E-03 
1542	 3.53906714528193E-03 
1543	 3.4646466461889E-03 
1544	 3.42370394705565E-03 
1545	 3.56415676062767E-03 
1546	 3.6853882073835E-03 
1547	 3.60661286949213E-03 
1548	 3.46450984969942E-03 
1549	 3.41160887990196E-03 
1550	 3.3800039506309E-03 
1551	 3.42959309310967E-03 
1552	 3.57936567001015E-03 
1553	 3.53260342699867E-03 
1554	 3.3437933572155E-03 
1555	 3.35828521066569E-03 
1556	 3.44396189234499E-03 
1557	 3.30763933577309E-03 
1558	 3.34003275688061E-03 
1559	 3.53521696120421E-03 
1560	 3.50987801399361E-03 
1561	 3.54873544979879E-03 
1562	 3.62677318933066E-03 
1563	 3.55781305467874E-03 
1564	 3.44472854551753E-03 
1565	 3.50660139779343E-03 
1566	 3.55603566082547E-03 
1567	 3.40975743300427E-03 
1568	 3.52900590989303E-03 
1569	 3.65703135365393E-03 
1570	 3.51701729709756E-03 
1571	 3.43804533045955E-03 
1572	 3.48974556679873E-03 
1573	 3.52136648304968E-03 
1574	 3.42130635288912E-03 
1575	 3.42819202274121E-03 
1576	 3.48938863369394E-03 
1577	 3.33796646544135E-03 
1578	 3.37797028999491E-03 
1579	 3.61648155430963E-03 
1580	 3.56194151758555E-03 
1581	 3.45784161614436E-03 
1582	 3.3600010498957E-03 
1583	 3.23941001841535E-03 
1584	 3.32421695297548E-03 
1585	 3.40953859358055E-03 
1586	 3.42314546897963E-03 
1587	 3.54535152611647E-03 
1588	 3.61395486307998E-03 
1589	 3.50569036765339E-03 
1590	 3.56269898566498E-03 
1591	 3.55824866236788E-03 
1592	 3.27776108979826E-03 
1593	 3.12159242099263E-03 
1594	 3.22322709063056E-03 
1595	 3.43957443298262E-03 
1596	 3.46900895036037E-03 
1597	 3.39387540222035E-03 
1598	 3.50810807037917E-03 
1599	 3.54633457896222E-03 
1600	 3.38176997897985E-03 
1601	 3.39052520786884E-03 
1602	 3.32434415056096E-03 
1603	 3.08783813430746E-03 
1604	 3.29806004925713E-03 
1605	 3.72857554781513E-03 
1606	 3.75121311415084E-03 
1607	 3.52391110368962E-03 
1608	 3.4247351094563E-03 
1609	 3.32603452951481E-03 
1610	 3.36387528806242E-03 
1611	 3.80034638048572E-03 
1612	 3.88502287196435E-03 
1613	 3.40836032471662E-03 
1614	 3.41731042075821E-03 
1615	 3.69350675934768E-03 
1616	 0.003507422736861 
1617	 3.4664000807437E-03 
1618	 3.61840575713927E-03 
1619	 3.44558892876333E-03 
1620	 3.29511841013472E-03 
1621	 3.4099879090719E-03 
1622	 3.3818523919425E-03 
1623	 3.20183507698769E-03 
1624	 3.30167796980752E-03 
1625	 3.43610559287149E-03 
1626	 3.2100934763509E-03 
1627	 3.09629452233366E-03 
1628	 3.2761059540178E-03 
1629	 3.22187054645793E-03 
1630	 3.16612093931943E-03 
1631	 3.20202326021746E-03 
1632	 2.95623790086787E-03 
1633	 3.00125138392195E-03 
1634	 3.31857406038704E-03 
1635	 3.29902180887562E-03 
1636	 3.34156833997003E-03 
1637	 3.55416077200123E-03 
1638	 3.62111018509062E-03 
1639	 3.57047459840071E-03 
1640	 3.43529291861354E-03 
1641	 3.29849822481891E-03 
1642	 3.3378549860894E-03 
1643	 3.64763699895853E-03 
1644	 3.75435905608198E-03 
1645	 3.56014092384881E-03 
1646	 3.43435414951731E-03 
1647	 3.19169171301089E-03 
1648	 3.1802531181715E-03 
1649	 3.60048403251859E-03 
1650	 3.60514971226847E-03 
1651	 3.33821262067279E-03 
1652	 3.4324236450576E-03 
1653	 3.44159032498571E-03 
1654	 3.27577153419607E-03 
1655	 3.25174239289532E-03 
1656	 3.27092435847324E-03 
1657	 2.94544504621967E-03 
1658	 2.88884143824553E-03 
1659	 3.24489212005011E-03 
1660	 3.29437281522393E-03 
1661	 3.31362688611372E-03 
1662	 3.30715504670457E-03 
1663	 2.96390572647776E-03 
1664	 3.04696087541851E-03 
1665	 3.52186659893503E-03 
1666	 3.4400659738868E-03 
1667	 3.24129792672725E-03 
1668	 3.24557116408292E-03 
1669	 3.21310525999736E-03 
1670	 3.18087723979336E-03 
1671	 3.13190955581202E-03 
1672	 3.01147453167812E-03 
1673	 2.8007072868613E-03 
1674	 3.01467297760188E-03 
1675	 3.31903574667515E-03 
1676	 3.34090429760589E-03 
1677	 3.44283431352912E-03 
1678	 3.18046409837543E-03 
1679	 3.00277594799085E-03 
1680	 3.48083649408036E-03 
1681	 3.55620542087985E-03 
1682	 3.33187220448404E-03 
1683	 3.43541548028633E-03 
1684	 3.41584485368491E-03 
1685	 3.26745526049114E-03 
1686	 3.11312943762341E-03 
1687	 2.91109052270041E-03 
1688	 3.03770047000343E-03 
1689	 3.28511769119536E-03 
1690	 3.58476644801844E-03 
1691	 3.88154566392304E-03 
1692	 3.54219831472194E-03 
1693	 3.42844773520783E-03 
1694	 3.75932578032336E-03 
1695	 3.70685356874066E-03 
1696	 3.69798127677657E-03 
1697	 3.62630329129269E-03 
1698	 3.19153803094374E-03 
1699	 3.27587701204561E-03 
1700	 3.97055405036536E-03 
1701	 3.97455890048853E-03 
1702	 3.39053854874836E-03 
1703	 3.25691704318546E-03 
1704	 3.09205774614452E-03 
1705	 2.99335731745175E-03 
1706	 3.5105131130786E-03 
1707	 3.63284078437448E-03 
1708	 3.29582801225628E-03 
1709	 3.27320688425783E-03 
1710	 3.33512796963552E-03 
1711	 3.51259050439642E-03 
1712	 3.71208427249949E-03 
1713	 3.25599149204532E-03 
1714	 3.18881428652481E-03 
1715	 3.14463162996204E-03 
1716	 3.38670964739818E-03 
1717	 3.56765742071718E-03 
1718	 3.12899847209045E-03 
1719	 3.15871612749893E-03 
1720	 3.48243136641903E-03 
1721	 3.42754810927145E-03 
1722	 3.57523623518978E-03 
1723	 3.47640931949891E-03 
1724	 3.08813315187185E-03 
1725	 3.44496848263868E-03 
1726	 4.14134011720026E-03 
1727	 3.92530176259573E-03 
1728	 3.2814224628299E-03 
1729	 3.09709149049984E-03 
1730	 3.00044499436318E-03 
1731	 3.29806066120879E-03 
1732	 3.77849975237656E-03 
1733	 3.61989899296578E-03 
1734	 3.37532610622693E-03 
1735	 3.37723197992943E-03 
1736	 3.33402417695474E-03 
1737	 3.46848373914578E-03 
1738	 3.45508526127552E-03 
1739	 3.11857649138603E-03 
1740	 3.09060819081002E-03 
1741	 3.26654300417946E-03 
1742	 3.93072666599908E-03 
1743	 4.50612577598649E-03 
1744	 4.11954040222015E-03 
1745	 3.60292140645516E-03 
1746	 2.21475037888844E-03 
1747	 1.94204022731845E-03 
1748	 3.36869155322786E-03 
1749	 3.61579261684388E-03 
1750	 3.36563041832615E-03 
1751	 3.37748266411385E-03 
1752	 3.08151016919734E-03 
1753	 2.92352768828736E-03 
1754	 2.76548232925024E-03 
1755	 3.15438253126747E-03 
1756	 4.13108336330222E-03 
1757	 3.89314038028802E-03 
1758	 3.9029733886931E-03 
1759	 3.87404410517107E-03 
1760	 3.27391877218324E-03 
1761	 2.95874266994763E-03 
1762	 3.16206507866224E-03 
1763	 3.37901751281207E-03 
1764	 3.14945819900123E-03 
1765	 3.44709981466017E-03 
1766	 4.25138982540961E-03 
1767	 3.6957253703865E-03 
1768	 3.36072257824674E-03 
1769	 4.25762353763864E-03 
1770	 3.74962645852074E-03 
1771	 2.93227089465484E-03 
1772	 3.7954335844151E-03 
1773	 4.41713436836184E-03 
1774	 4.27168757607517E-03 
1775	 4.63925225688124E-03 
1776	 4.6196055403196E-03 
1777	 3.27072619077152E-03 
1778	 3.04767469297839E-03 
1779	 3.9958674640505E-03 
1780	 3.80608912429457E-03 
1781	 3.06882801471717E-03 
1782	 3.25977581762683E-03 
1783	 3.33035619912153E-03 
1784	 3.41852731928222E-03 
1785	 4.81698495329274E-03 
1786	 4.38127376197708E-03 
1787	 2.3531205744712E-03 
1788	 1.98650090319592E-03 
1789	 1.07800390144901E-03 
1790	 3.02802879930626E-03 
1791	 3.94204887770198E-03 
1792	 1.94191102942344E-03 
1793	 1.33223373869403E-03 
1794	 2.08015582537303E-03 
1795	 2.94309963991504E-03 
1796	 6.14032909858035E-03 
1797	 0.011098210948685 
1798	 8.9609761001887E-03 
1799	 7.42058895232272E-03 
1800	 5.11159423548998E-03 
1801	 1.10053553365955E-03 
1802	-6.72272836613919E-03 
1803	-8.35653813019461E-03 
1804	 7.2755457519522E-04 
1805	 2.58382985361772E-03 
1806	 1.30177284358957E-02 
1807	 1.13717286932758E-02 
1808	-3.73020907283648E-02 
1809	-5.43598516207697E-02 
1810	-3.78474548072349E-02 
1811	-3.96393479306916E-02 
1812	-1.17588089743928E-02 
1813	 4.77760968861183E-03 
1814	-1.76945350493001E-02 
1815	-1.21707172375575E-02 
1816	 5.42928508506946E-02 
1817	-0.052886367419915 
1818	-9.21144215645751E-02 
1819	-1.07620320361393E-02 
1820	 9.13741227121198E-03 
1821	 0.27570435354343 
1822	 0.533319447881884 
1823	 4.08252210816339E-03 
1824	-0.147846041681949 
1825	-0.16226082526018 
1826	-0.185461567953126 
1827	-0.22965899367214 
1828	-0.115865015643617 
1829	 0.265309387520511 
1830	 0.488956255589924 
1831	 0.915025254615093 
1832	 1.05700537739713 
1833	 0.670496644468298 
1834	 0.58876584375566 
1835	 0.780591351404671 
1836	 0.737856391193646 
1837	 0.210363056511392 
1838	-0.035435222497361 
1839	 0.341811811950817 
1840	-5.84993076303577E-02 
1841	-0.427193984685099 
1842	-1.12976331314416 
1843	-1.50714648788034 
1844	 6.53284911456955 
1845	 3.0063379241664 
1846	 0.952662627156734 
1847	 0.783570919270759 
1848	-0.119176299124086 
1849	-1.1300837336926 
1850	-6.78212756369469 
1851	-1.67667960772556 
1852	-1.61837843487829 
1853	-1.14525853468901 
1854	-0.888294288773656 
1855	-0.501739765221118 
1856	-0.171905512084187 
1857	 1.77991183781836 
1858	-5.1299394445653 
1859	-1.45569965257406 
1860	-1.62349091726319 
1861	-1.05487309967457 
1862	-1.69978605395678 
1863	-4.35798070785056 
1864	-2.1674096205526 
1865	-5.55423146663867 
1866	 2.42193861277955 
1867	 1.72145337378223 
1868	 1.04560388295986 
1869	 0.926595890138188 
1870	 1.12002054605622 
1871	 2.18172180510446 
1872	 5.06403977364177 
1873	-19.6996648365344 
1874	 4.85203124651836 
1875	-5.85524705518236E-02 
1876	-0.693457366306157 
1877	-1.29349618940946 
1878	-1.47626943262126 
1879	-0.892227410117655 
1880	-0.517328018320914 
1881	-0.926308806941967 
1882	-1.29220848741414 
1883	 0.411919234703894 
1884	-8.76702826448445 
1885	-0.997487888484792 
1886	 1.12882337397366 
1887	-0.507963937519073 
1888	 0.490220510682738 
1889	 0.810826756663635 
1890	 1.16250375566688 
1891	 1.30660957913436 
1892	 2.37666472645416 
1893	 3.70370130845218 
1894	 2.40199199704597 
1895	 0.702908874797443 
1896	 0.254010605869356 
1897	 0.155316493030351 
1898	-0.234230659198829 
1899	-0.137200154700653 
1900	-0.111793210971929 
1901	 0.218173444323636 
1902	 0.342479845841076 
1903	 0.722853490108784 
1904	-0.236365167961424 
1905	-4.30582171022797 
1906	-5.37921957933364 
1907	-11.4101423291412 
1908	-17.4386305427864 
1909	-3.13442291464094 
1910	-1.59080457226297 
1911	-2.55171963825631 
1912	-2.49764495499183 
1913	-1.69712221861568 
1914	-2.3181152165284 
1915	-1.73893928527881 
1916	-0.915714527632647 
1917	-0.339296060902989 
1918	 0.546665267810129 
1919	 2.3704575847895 
1920	-5.10729785703439 
1921	-0.556409237519806 
1922	 0.547045230415262 
1923	-6.86001321904634 
1924	-1.17903740708917 
1925	 0.610283248893385 
1926	 0.411548681082367 
1927	 0.472076274130159 
1928	-0.157828531674229 
1929	-0.2339923130394 
1930	-0.247672830336977 
1931	-0.313201459669688 
1932	-0.080161084351704 
1933	 3.24380570881546E-02 
1934	 1.88231546195611E-02 
1935	-2.85032506566466E-02 
1936	 0.027622972174843 
1937	 5.80804007380473E-02 
1938	 4.33739702366321E-02 
1939	 5.01810937353342E-02 
1940	 7.86029856272361E-02 
1941	 3.46396308703157E-02 
1942	 9.16175576788739E-03 
1943	 0.019270075945625 
1944	 1.42694623145204E-02 
1945	 3.46316701874095E-02 
1946	 3.63261366843895E-02 
1947	 0.036446969505589 
1948	 5.45998071480641E-02 
1949	 3.86221102301918E-02 
1950	 1.17181421007817E-02 
1951	 1.32434390335668E-03 
1952	-3.8498236735434E-03 
1953	-1.62081188420256E-02 
1954	-2.10859985439076E-02 
1955	-1.21048997627776E-02 
1956	-9.49968670906827E-03 
1957	-1.02791138768194E-02 
1958	-1.22704133775728E-02 
1959	-1.73565821798018E-02 
1960	-1.13114541844032E-02 
1961	-3.63878637862365E-03 
1962	-2.36060916157652E-03 
1963	 2.03344232928047E-03 
1964	 5.73352207700353E-03 
1965	 4.22316621038292E-03 
1966	 4.42880844595705E-03 
1967	 5.04205458488269E-03 
1968	 8.63315999551479E-03 
1969	 9.72866901717634E-03 
1970	 9.4907592970973E-03 
1971	 9.78623373352694E-03 
1972	 7.89588646859758E-03 
1973	 6.25584511010254E-03 
1974	 7.46086399911334E-03 
1975	 6.92551575329652E-03 
1976	 5.63152096838536E-03 
1977	 6.71861426975395E-03 
1978	 6.09562383990517E-03 
1979	 5.28176974870352E-03 
1980	 4.56098576622322E-03 
1981	 4.99121829435492E-03 
1982	 3.85708146353596E-03 
1983	 2.93575698876784E-03 
1984	 2.49211012650585E-03 
1985	 2.83888755356249E-03 
1986	 3.5519465153782E-03 
1987	 3.38599071717012E-03 
1988	 3.17154816569999E-03 
1989	 3.24096229824671E-03 
1990	 3.13065928409117E-03 
1991	 2.68806264000759E-03 
1992	 2.2992839140498E-03 
1993	 1.69768115517453E-03 
1994	 1.41227525213693E-03 
1995	 5.88591742316896E-04 
1996	 8.0381336914581E-04 
1997	 1.83493734819997E-03 
1998	 2.71469339571365E-03 
1999	 2.54126673576666E-03 
2000	 1.89698094589523E-03 
2001	 2.6290949625161E-03 
2002	 4.43350525558585E-03 
2003	 5.75759045435803E-03 
2004	 6.24993101581881E-03 
2005	 5.72199000435319E-03 
2006	 3.03476789708976E-03 
2007	 2.52471742201152E-03 
2008	 3.96798658752912E-03 
2009	 4.16309528029822E-03 
2010	 3.48614207332545E-03 
2011	 3.87368716028913E-03 
2012	 4.36915001941923E-03 
2013	 5.46395782808733E-03 
2014	 5.34932462655574E-03 
2015	 5.6952030985899E-03 
2016	 6.68777863308407E-03 
2017	 6.14342187042216E-03 
2018	 4.56678603542484E-03 
2019	 3.08927810248329E-03 
2020	 2.27600373212037E-03 
2021	 1.87442799286046E-03 
2022	 2.78551766589656E-03 
2023	 4.54862227084752E-03 
2024	 4.69829660278248E-03 
2025	 3.41724268618442E-03 
2026	 3.00757506006012E-03 
2027	 2.23193945793487E-03 
2028	 2.30883764674997E-03 
2029	 2.93891623271026E-03 
2030	 3.93715121474167E-03 
2031	 4.13424209628196E-03 
2032	 3.44011115779663E-03 
2033	 3.21001735279437E-03 
2034	 2.75240611351888E-03 
2035	 2.58606454002501E-03 
2036	 3.04882818440371E-03 
2037	 2.24560898149062E-03 
2038	 1.94591096483139E-03 
2039	 1.96379104756495E-03 
2040	 1.96116440898288E-03 
2041	 1.85222063911814E-03 
2042	 2.10536603036653E-03 
2043	 2.45435288076067E-03 
2044	 2.55016744074884E-03 
2045	 3.68081605955304E-03 
2046	 4.23298747793312E-03 
2047	 4.42647771746335E-03 
2048	 4.37207406242053E-03 
2049	 3.13104040836471E-03 
2050	 2.94128364661222E-03 
2051	 3.22298804795972E-03 
2052	 1.83889199074229E-03 
2053	 7.04218373852275E-04 
2054	 4.41006161352265E-04 
2055	 1.44264225643499E-04 
2056	 2.47801014258927E-04 
2057	 1.96324738779815E-03 
2058	 2.6393615784162E-03 
2059	 2.58722239257983E-03 
2060	 2.62471754128744E-03 
2061	 2.44119926223782E-03 
2062	 2.77178240860513E-03 
2063	 2.90336226570556E-03 
2064	 2.80133848493784E-03 
2065	 2.76837100786088E-03 
2066	 2.89589068538611E-03 
2067	 3.37222442827572E-03 
2068	 4.57652187494038E-03 
2069	 5.58787788870226E-03 
2070	 5.89666552836501E-03 
2071	 6.28779349099458E-03 
2072	 6.07879068813523E-03 
2073	 5.43663190228186E-03 
2074	 4.30142947310946E-03 
2075	 3.94187054769876E-03 
2076	 3.4056070882719E-03 
2077	 2.93432844955882E-03 
2078	 2.8222004221867E-03 
2079	 2.77082248452327E-03 
2080	 2.60303646112453E-03 
2081	 0.002344991208801 
2082	 0.002635429656329 
2083	 2.85477618885124E-03 
2084	 2.33051590426801E-03 
2085	 2.0571908479197E-03 
2086	 0.002114477877217 
2087	 2.09254586546466E-03 
2088	 1.87390062764636E-03 
2089	 1.70436353971448E-03 
2090	 1.56174215458593E-03 
2091	 0.001566590376985 
2092	 1.74930838598391E-03 
2093	 2.66252982887858E-03 
2094	 2.86971564844788E-03 
2095	 2.43776424903022E-03 
2096	 2.56496394004865E-03 
2097	 3.04523969062388E-03 
2098	 3.11849521465309E-03 
2099	 3.24867589042051E-03 
2100	 3.25079978893772E-03 
2101	 2.99152072644585E-03 
2102	 2.77069698636084E-03 
2103	 2.46905951812996E-03 
2104	 2.29220212724413E-03 
2105	 2.06433816831731E-03 
2106	 1.79090702669137E-03 
2107	 2.06132834612137E-03 
2108	 3.42975652232169E-03 
2109	 0.004315009890996 
2110	 3.82796945082344E-03 
2111	 4.00943689940904E-03 
2112	 4.21684320283659E-03 
2113	 3.77195939548083E-03 
2114	 3.07678589628206E-03 
2115	 3.11933644828484E-03 
2116	 2.5859411417518E-03 
2117	 2.34888047942555E-03 
2118	 3.4883604766474E-03 
2119	 3.64771992825747E-03 
2120	 2.97092211852157E-03 
2121	 2.56453156643053E-03 
2122	 2.96857955447475E-03 
2123	 2.97665774127403E-03 
2124	 3.14635102282163E-03 
2125	 3.43561379175257E-03 
2126	 3.14023784692624E-03 
2127	 3.64253443771869E-03 
2128	 4.63295165531505E-03 
2129	 4.75778372782149E-03 
2130	 4.99548720474483E-03 
2131	 4.67044874297737E-03 
2132	 3.99599672949436E-03 
2133	 4.36635809368667E-03 
2134	 4.49952519684835E-03 
2135	 4.95557302048803E-03 
2136	 4.9586465094759E-03 
2137	 4.8017125370684E-03 
2138	 4.4739976162804E-03 
2139	 3.87806446828262E-03 
2140	 3.57820828893091E-03 
2141	 3.38544846809255E-03 
2142	 2.91509605510101E-03 
2143	 2.35440582112365E-03 
2144	 1.68551259712349E-03 
2145	 1.40291819177494E-03 
2146	 1.65701801186392E-03 
2147	 2.15199770879096E-03 
2148	 2.17795226113621E-03 
2149	 3.12152651655474E-03 
2150	 4.60976988025964E-03 
2151	 4.9126319311456E-03 
2152	 5.86647794441906E-03 
2153	 5.89667018460757E-03 
2154	 4.38703817859194E-03 
2155	 4.99034088353334E-03 
2156	 5.62770521533046E-03 
2157	 5.32141460518928E-03 
2158	 4.61791659324011E-03 
2159	 4.34997896134327E-03 
2160	 3.25443945192131E-03 
2161	 2.89230173149761E-03 
2162	 3.33358757359691E-03 
2163	 3.29023674888335E-03 
2164	 3.1342011228465E-03 
2165	 3.15669945225444E-03 
2166	 3.41897924909137E-03 
2167	 3.62565004343858E-03 
2168	 3.80994789109069E-03 
2169	 3.62688450047645E-03 
2170	 3.28499905582022E-03 
2171	 2.68996061022293E-03 
2172	 2.89402174778959E-03 
2173	 3.23276838105712E-03 
2174	 3.34768212766937E-03 
2175	 3.65465070968762E-03 
2176	 3.56379088723557E-03 
2177	 3.52261082528113E-03 
2178	 3.31795381257809E-03 
2179	 3.61787811192019E-03 
2180	 3.48830096698486E-03 
2181	 2.20669773683786E-03 
2182	 2.08426836082336E-03 
2183	 2.20913630091174E-03 
2184	 2.42122750417985E-03 
2185	 3.69798680355137E-03 
2186	 4.24203313621013E-03 
2187	 4.7541011726373E-03 
2188	 4.96764530278163E-03 
2189	 4.56876707682753E-03 
2190	 4.56318634267517E-03 
2191	 5.04646133051622E-03 
2192	 5.01282403763855E-03 
2193	 4.43893427756234E-03 
2194	 4.21694827287307E-03 
2195	 3.70962430699253E-03 
2196	 3.46425958671203E-03 
2197	 4.06565718266906E-03 
2198	 3.91976688978672E-03 
2199	 3.13795976946037E-03 
2200	 2.99877691377716E-03 
2201	 2.48488078921754E-03 
2202	 2.1744625229036E-03 
2203	 3.20175305521945E-03 
2204	 3.55315852091068E-03 
2205	 3.63370628702828E-03 
2206	 3.82960668079807E-03 
2207	 0.002094708096967 
2208	 5.5208675590419E-04 
2209	 5.61760713399515E-04 
2210	 1.80364642474977E-03 
2211	 3.4895429061477E-03 
2212	 2.64579252313481E-03 
2213	 1.88883172486861E-03 
2214	 7.29512251743207E-04 
2215	-7.26859735728499E-04 
2216	 1.49554284478191E-03 
2217	 2.31601406197542E-03 
2218	 3.48076807662021E-03 
2219	 3.08046471477894E-03 
2220	 8.0114764195648E-04 
2221	 6.96229231070724E-04 
2222	 1.3344639212377E-03 
2223	 1.57492298715301E-03 
2224	 3.44786829976957E-03 
2225	 3.99441752949146E-03 
2226	 2.78030736057451E-03 
2227	 1.97411210386519E-03 
2228	 1.1724835273567E-03 
2229	 1.34676580453291E-03 
2230	 2.3269416663919E-03 
2231	 1.85323058601637E-03 
2232	 8.85933390326928E-04 
2233	 3.07740067359903E-04 
2234	-1.61520120766277E-03 
2235	-2.15036555996063E-03 
2236	-3.99753696722938E-04 
2237	 1.10494857646077E-03 
2238	 1.77269559547033E-03 
2239	 3.1237755100468E-03 
2240	 3.26295709806171E-03 
2241	 2.12965235866827E-03 
2242	 2.02873428972373E-03 
2243	 1.72806429142756E-03 
2244	 4.97917872930395E-04 
2245	 1.53642615075046E-03 
2246	 3.91724465754243E-03 
2247	 3.48694691101493E-03 
2248	 1.84562557281828E-03 
2249	 2.67531687971699E-04 
2250	-1.96957861264876E-03 
2251	-3.25857618600583E-03 
2252	-6.5676525887911E-04 
2253	 3.34872036570549E-03 
2254	 3.77965159383839E-03 
2255	 4.43569161373723E-03 
2256	 5.36868239780263E-03 
2257	 2.2895188630287E-03 
2258	 2.50084234510561E-04 
2259	 1.59191020993691E-03 
2260	 1.83931402438022E-03 
2261	 1.26198481919395E-03 
2262	 2.23207594769049E-03 
2263	 3.96563920218667E-03 
2264	 4.75999241742666E-03 
2265	 6.77711157651105E-03 
2266	 7.64669013708273E-03 
2267	 8.21520351064329E-03 
2268	 7.80042116563593E-03 
2269	 5.14150100189426E-03 
2270	 3.78785557024833E-03 
2271	 2.18944979964539E-03 
2272	 1.93705287619701E-03 
2273	 2.92632886632603E-03 
2274	 3.08128617268102E-03 
2275	 4.5753985525767E-03 
2276	 5.15782147671805E-03 
2277	 4.71338591985283E-03 
2278	 5.09807727172383E-03 
2279	 4.56113273513608E-03 
2280	 3.93566463127134E-03 
2281	 3.25044276826473E-03 
2282	 4.32756549675785E-03 
2283	 4.97810350164471E-03 
2284	 4.91527387810151E-03 
2285	 3.19087414222892E-03 
2286	 2.77571697223422E-03 
2287	 2.93917180833206E-03 
2288	 2.13069274876395E-03 
2289	 3.76091905663563E-03 
2290	 4.06757366477396E-03 
2291	 2.53871048150139E-03 
2292	 4.24265566746841E-03 
2293	 5.56566041485712E-03 
2294	 6.22101962395079E-03 
2295	 6.63833314943572E-03 
2296	 3.42482541724201E-03 
2297	 1.18496336516189E-03 
2298	 1.93443169514077E-03 
2299	 2.16264579969892E-03 
2300	 3.56656734139412E-03 
2301	 5.87293210238201E-03 
2302	 5.27336890279418E-03 
2303	 4.31458754921112E-03 
2304	 3.46606047746659E-03 
2305	 1.2563887792005E-03 
2306	-4.96168529328411E-04 
2307	-1.04309301496039E-03 
2308	 5.87108042868593E-04 
2309	 1.65181471964039E-03 
2310	 3.15063901169739E-03 
2311	 5.67572460647919E-03 
2312	 6.14766412219651E-03 
2313	 5.45086333453617E-03 
2314	 4.22550003099312E-03 
2315	 4.51836903908573E-03 
2316	 5.1402643049341E-03 
2317	 5.43491841654142E-03 
2318	 7.11984618051732E-03 
2319	 6.31710261747365E-03 
2320	 0.004282685107022 
2321	 4.9590720580124E-03 
2322	 5.60362123024436E-03 
2323	 4.39575486678774E-03 
2324	 1.89581322344447E-03 
2325	 6.10326275306378E-04 
2326	 8.3570873737855E-04 
2327	-6.60130904142357E-04 
2328	-2.52164812498582E-03 
2329	 6.59994746802105E-04 
2330	 5.30109769316245E-03 
2331	 4.95664602306524E-03 
2332	 4.44024362763954E-03 
2333	 1.1368075640023E-03 
2334	-5.81854551022331E-03 
2335	-5.7586803155876E-03 
2336	 1.87569801624048E-03 
2337	 8.45346914521246E-03 
2338	 7.22021709939376E-03 
2339	 5.86601193234265E-03 
2340	 3.22072688815863E-03 
2341	-5.76388004560937E-03 
2342	-9.15996896975818E-03 
2343	-9.99757475108845E-03 
2344	-1.30960306002624E-02 
2345	-1.07300884111199E-02 
2346	-3.84839361948131E-03 
2347	 8.91474620629556E-04 
2348	 1.02136662737175E-04 
2349	-4.86689888873089E-03 
2350	-4.30877646769927E-03 
2351	 4.22826918631354E-04 
2352	 5.33748879551042E-03 
2353	 1.83918393298196E-02 
2354	 2.04777340183671E-02 
2355	 6.61887134334058E-03 
2356	 8.25086793534799E-04 
2357	-2.84919133619468E-03 
2358	-5.99490714161226E-03 
2359	 6.06312599256731E-04 
2360	 8.00502346702589E-03 
2361	 3.47505748881031E-03 
2362	-2.12369334667373E-03 
2363	 3.21522456346877E-03 
2364	 2.63517745492516E-03 
2365	 4.26242503675069E-03 
2366	 8.6628600988876E-03 
2367	-4.44890660812431E-03 
2368	-1.15874725064226E-02 
2369	-1.67781943504346E-02 
2370	-2.04419115795673E-02 
2371	-1.19683013979324E-02 
2372	-9.18288067659487E-03 
2373	 3.15260962267554E-03 
2374	 4.57666167136004E-03 
2375	 1.13911426136423E-03 
2376	 7.47875695660795E-03 
2377	-6.79048170320972E-03 
2378	 2.08345053146391E-04 
2379	 1.49332613272345E-02 
2380	 7.57266026142927E-03 
2381	 1.56031212491927E-02 
2382	 1.75004049912827E-02 
2383	 3.3367428313711E-03 
2384	-1.05320142419108E-02 
2385	-0.022157052155015 
2386	-1.30336843757774E-02 
2387	 1.51758136864378E-03 
2388	 2.5330267980072E-03 
2389	 1.30380760213071E-02 
2390	 1.78685857450441E-02 
2391	-3.12471591982111E-03 
2392	 4.11850882038965E-03 
2393	 2.21454754165108E-02 
2394	 3.93891442893569E-03 
2395	 1.49851058523143E-02 
2396	 4.14126547723152E-02 
2397	 1.88024069636837E-02 
2398	 2.60826790647511E-05 
2399	 1.63797303292838E-02 
2400	 3.56146093632323E-02 
2401	 3.24274075734478E-02 
2402	 9.4261728387398E-03 
2403	-1.32983208428459E-02 
2404	-4.58493169707838E-02 
2405	-3.13636249280045E-02 
2406	 4.96282035712447E-02 
2407	 9.66717897729193E-02 
2408	 9.26659138713967E-02 
2409	 0.052964455051424 
2410	 1.79126363257069E-02 
2411	 4.05338051647326E-03 
2412	 1.49940870785125E-02 
2413	 0.100422407812317 
2414	 0.140464780834866 
2415	 9.14362330175182E-02 
2416	 2.39905556461767E-02 
2417	-0.042061693837365 
2418	-0.041327682238718 
2419	-2.47221696513109E-02 
2420	-5.09099738709193E-02 
2421	-4.45607987110537E-03 
2422	 1.74553560845729E-02 
2423	 5.47331414853724E-02 
2424	 0.112722386699436 
2425	 6.43406419891857E-02 
2426	-7.00453871492878E-03 
2427	-9.46164279966966E-02 
2428	-0.108604393304399 
2429	-6.04590867324161E-02 
2430	-7.52207111114524E-02 
2431	-9.79054334954431E-03 
2432	 4.92512940983224E-02 
2433	-4.30932191644203E-02 
2434	-8.07173868692432E-02 
2435	-7.75780056792755E-02 
2436	-9.85469014902499E-02 
2437	-5.37558930098942E-02 
2438	-2.18452713521444E-02 
2439	 1.76454046556518E-03 
2440	 6.53442648575424E-02 
2441	 0.148283764288959 
2442	 0.190475037383647 
2443	 0.141491577274921 
2444	 7.36794670626697E-02 
2445	-1.01749122358133E-02 
2446	-0.028124195565966 
2447	 2.23851612714009E-03 
2448	-0.064009760848774 
2449	-0.261661095009142 
2450	-0.314984727053382 
2451	-0.205728617923232 
2452	-0.029434031954571 
2453	 3.46459216728067E-02 
2454	 0.135735297944985 
2455	 1.66911925696837E-02 
2456	-0.217220920107171 
2457	-0.204053831440192 
2458	-0.165755160818563 
2459	-7.83657578420117E-02 
2460	-3.76436111705825E-02 
2461	-0.203395166673907 
2462	-0.271614256941117 
2463	-9.58825807319539E-02 
2464	 0.241242750091195 
2465	 0.370284759671063 
2466	 0.110401960139325 
2467	-0.188589024277608 
2468	-0.284712879268166 
2469	 7.36106726030392E-04 
2470	 0.50440089688672 
2471	 0.707482411843604 
2472	 0.648276724901927 
2473	 0.274870209701575 
2474	 8.27114324600124E-02 
2475	-0.193591979772561 
2476	-0.76548226592405 
2477	-0.438732037510696 
2478	-0.344121979095644 
2479	-0.282726505428965 
2480	-0.43876615596283 
2481	-0.953028018324322 
2482	-1.16309771490924 
2483	-0.998715119543149 
2484	 38.9040981498171 
2485	-0.23345313728346 
2486	-0.271127218123768 
2487	-0.149880277167758 
2488	 0.83670888520808 
2489	-1.10296194466858 
2490	 0.83192476089978 
2491	 3.14621312218741 
2492	 9.02584544166898 
2493	-0.618758769494808 
2494	 2.04957501945497 
2495	 1.54679778397836 
2496	-8.03016221809818 
2497	 8.37086899236886 
2498	 0.873909698412672 
2499	 1.08255854045523 
2500	 9.40702084885178E-02 
