Wavelength	rt0718west_algea00007.asd
350	 0.037274550567 
351	 3.84326474965269E-02 
352	 3.81869551632441E-02 
353	 3.78713544277846E-02 
354	 3.83870090259996E-02 
355	 3.84920221534739E-02 
356	 3.85716886430403E-02 
357	 0.03873356091263 
358	 0.039040682904484 
359	 3.97686610676247E-02 
360	 0.039717783730519 
361	 3.92783960655806E-02 
362	 3.97944796810623E-02 
363	 4.04492494511766E-02 
364	 4.08250819835149E-02 
365	 4.07876437889086E-02 
366	 4.05172096202129E-02 
367	 4.06446344223683E-02 
368	 4.11420368473766E-02 
369	 4.16589093028734E-02 
370	 4.14410402247196E-02 
371	 4.16230807572862E-02 
372	 4.20847007285658E-02 
373	 4.20854388269362E-02 
374	 4.25981021248292E-02 
375	 4.28631712011305E-02 
376	 4.26999427511039E-02 
377	 4.29312929087535E-02 
378	 4.31299070769809E-02 
379	 4.34171850405224E-02 
380	 4.38910297914238E-02 
381	 4.42583361395983E-02 
382	 4.42769516961231E-02 
383	 4.41963800028508E-02 
384	 4.44697195478462E-02 
385	 4.51483751118221E-02 
386	 4.51557141781935E-02 
387	 4.46629841607978E-02 
388	 4.52274100423594E-02 
389	 4.59986164614657E-02 
390	 4.61660293474108E-02 
391	 4.56935065324261E-02 
392	 4.63182549609004E-02 
393	 4.66810231440202E-02 
394	 4.66742333656758E-02 
395	 4.66500577162677E-02 
396	 0.046581089360831 
397	 4.68354017744848E-02 
398	 4.72631085439764E-02 
399	 4.73025687059523E-02 
400	 4.70924305060342E-02 
401	 4.69990731939291E-02 
402	 4.71777744186647E-02 
403	 4.72685883483759E-02 
404	 4.74646696471025E-02 
405	 0.047660162007349 
406	 0.047696045860459 
407	 4.77530765176407E-02 
408	 4.77732698675766E-02 
409	 0.047816452004204 
410	 4.80504061626891E-02 
411	 4.81873033130272E-02 
412	 4.81503070323047E-02 
413	 4.80270082542825E-02 
414	 4.81790959413075E-02 
415	 4.83980317432089E-02 
416	 4.85810814263135E-02 
417	 4.86844896272188E-02 
418	 4.87540719756136E-02 
419	 4.88719913433546E-02 
420	 4.90155146511317E-02 
421	 4.90585816075143E-02 
422	 4.93160686778879E-02 
423	 4.95454969417819E-02 
424	 4.96273037271845E-02 
425	 5.01452172712995E-02 
426	 5.04400445941961E-02 
427	 5.05531862464505E-02 
428	 5.08403896620885E-02 
429	 5.12215348617855E-02 
430	 5.16011573582731E-02 
431	 0.051933912133837 
432	 5.22409470502548E-02 
433	 5.24770716719514E-02 
434	 5.27179967191504E-02 
435	 5.30220248765531E-02 
436	 5.33108878145348E-02 
437	 5.37133096247825E-02 
438	 5.41173318348656E-02 
439	 5.43196151965718E-02 
440	 5.45633124680397E-02 
441	 5.48267322777992E-02 
442	 5.51128397962911E-02 
443	 5.55088243855326E-02 
444	 5.58146506966204E-02 
445	 5.60368002181338E-02 
446	 5.62394826951991E-02 
447	 5.64592216794917E-02 
448	 5.66413481052565E-02 
449	 5.68273832900096E-02 
450	 5.71080231234741E-02 
451	 5.72322328238431E-02 
452	 5.73425735576192E-02 
453	 0.057540548425284 
454	 5.77334344218821E-02 
455	 5.78371979158694E-02 
456	 5.79151818083714E-02 
457	 5.80440534872923E-02 
458	 5.80231928133382E-02 
459	 5.80859942085735E-02 
460	 0.058248648225057 
461	 5.82993313838464E-02 
462	 0.058423322083115 
463	 5.85967149701352E-02 
464	 5.87420383117563E-02 
465	 5.87371513480272E-02 
466	 5.88051005736168E-02 
467	 5.89338274773554E-02 
468	 5.90068149475463E-02 
469	 5.90889238626609E-02 
470	 5.92167105482739E-02 
471	 5.93696238210453E-02 
472	 0.059454970723751 
473	 5.96647855905468E-02 
474	 5.98645156293026E-02 
475	 5.99269616869372E-02 
476	 6.00616407201554E-02 
477	 6.02114239031831E-02 
478	 6.03427708583126E-02 
479	 6.04525591647212E-02 
480	 6.06643006922555E-02 
481	 0.060940640309721 
482	 6.12208040635279E-02 
483	 6.14389811441564E-02 
484	 6.16846111986925E-02 
485	 0.061951531174847 
486	 6.22169793034885E-02 
487	 6.25744222927282E-02 
488	 6.28829237087646E-02 
489	 6.31656355870378E-02 
490	 6.36016451193876E-02 
491	 6.39463193928722E-02 
492	 6.43050046053781E-02 
493	 6.47765561945274E-02 
494	 6.52765395882049E-02 
495	 6.56774140168634E-02 
496	 6.60319170061309E-02 
497	 6.64813981349192E-02 
498	 6.70015699732407E-02 
499	 6.75424214559816E-02 
500	 6.80809284637104E-02 
501	 6.86455669790798E-02 
502	 6.90838808788486E-02 
503	 6.95321761260651E-02 
504	 0.070121680239541 
505	 7.06025281960816E-02 
506	 0.071103988791238 
507	 7.16559505977989E-02 
508	 0.072198175372016 
509	 7.26688516378046E-02 
510	 7.31616167837047E-02 
511	 7.37396164360708E-02 
512	 7.43396160992241E-02 
513	 0.074997263920044 
514	 7.56710890324094E-02 
515	 7.63121132454831E-02 
516	 7.71252351127282E-02 
517	 7.77860164386004E-02 
518	 7.83039084889594E-02 
519	 7.91429531948875E-02 
520	 0.07988019772327 
521	 8.05815611769168E-02 
522	 8.13765178506992E-02 
523	 8.21961514409274E-02 
524	 8.30188745650157E-02 
525	 0.083850259332158 
526	 8.47156050141564E-02 
527	 8.55736861841101E-02 
528	 8.64616968130504E-02 
529	 8.73864672576063E-02 
530	 8.82721916595633E-02 
531	 8.92270553500598E-02 
532	 9.02407082433066E-02 
533	 9.12524470097737E-02 
534	 0.092216628972163 
535	 9.32166527429157E-02 
536	 9.42894152828282E-02 
537	 9.54029535258728E-02 
538	 9.64629760950499E-02 
539	 9.75117663904286E-02 
540	 9.85862896840677E-02 
541	 9.95856374774777E-02 
542	 0.100596232501094 
543	 0.101614227210408 
544	 0.102591355507976 
545	 0.103599674402326 
546	 0.104620545382514 
547	 0.105613308405561 
548	 0.106512843633125 
549	 0.107454335113386 
550	 0.108379724708536 
551	 0.109201779548721 
552	 0.110069952706586 
553	 0.110985739575569 
554	 0.111909253188853 
555	 0.112762537105199 
556	 0.113689128051155 
557	 0.114557321043628 
558	 0.11528293357261 
559	 0.116186363633248 
560	 0.117051858832429 
561	 0.117823693352131 
562	 0.118557455638119 
563	 0.119296975923119 
564	 0.120006220027784 
565	 0.120662861654565 
566	 0.121293235490457 
567	 0.121950337220333 
568	 0.122534528549348 
569	 0.122947935173385 
570	 0.12345337677775 
571	 0.123948448575192 
572	 0.124371110742642 
573	 0.12472845057379 
574	 0.125094341399801 
575	 0.125417361021836 
576	 0.125653984543779 
577	 0.125896387771938 
578	 0.12608020158115 
579	 0.126205853342233 
580	 0.126307675790553 
581	 0.126324073906035 
582	 0.126302957084672 
583	 0.126274707949611 
584	 0.126218677786551 
585	 0.12605880645098 
586	 0.12591283268929 
587	 0.125889424761263 
588	 0.12561026376425 
589	 0.125305427667887 
590	 0.125055451300055 
591	 0.124719070200092 
592	 0.124314318276782 
593	 0.123787107152229 
594	 0.123129771973613 
595	 0.12248365012436 
596	 0.121694891211503 
597	 0.120748152678605 
598	 0.119734082159398 
599	 0.118857669656612 
600	 0.11804388978125 
601	 0.117292044611682 
602	 0.11679345647128 
603	 0.116424503348136 
604	 0.116204054711706 
605	 0.116153294140381 
606	 0.116066129779328 
607	 0.116050226380575 
608	 0.116120626170221 
609	 0.116179609882966 
610	 0.116142904450964 
611	 0.116131102037037 
612	 0.11619378490438 
613	 0.11600809387183 
614	 0.116009905630053 
615	 0.116125160790741 
616	 0.116022090279408 
617	 0.115894101760295 
618	 0.115846965740595 
619	 0.11587141611568 
620	 0.115791318034656 
621	 0.115774479891846 
622	 0.115734279455927 
623	 0.115578540478721 
624	 0.115599557538108 
625	 0.115550382115785 
626	 0.115436899066633 
627	 0.11550324916151 
628	 0.115413808856944 
629	 0.115321697647158 
630	 0.115340512397413 
631	 0.115226437466391 
632	 0.11512658954513 
633	 0.115063788260529 
634	 0.114985856643016 
635	 0.11473698160538 
636	 0.114556210376892 
637	 0.114520874274855 
638	 0.114427918751838 
639	 0.114304652813362 
640	 0.114176734395605 
641	 0.114056198660206 
642	 0.113865463991181 
643	 0.113706216500587 
644	 0.113588222935362 
645	 0.113445389940978 
646	 0.113282120853405 
647	 0.113081831499207 
648	 0.112841819554859 
649	 0.112579497511152 
650	 0.112398530002898 
651	 0.112163201712011 
652	 0.111699810120489 
653	 0.111214033671513 
654	 0.110630314898751 
655	 0.109919774577523 
656	 0.10924144888694 
657	 0.108564762941976 
658	 0.107950193975481 
659	 0.107429074663454 
660	 0.106974253554573 
661	 0.106574981677992 
662	 0.106148630188583 
663	 0.105614404673906 
664	 0.105308664634125 
665	 0.105047341570511 
666	 0.104711030125528 
667	 0.104420949164071 
668	 0.10423077070647 
669	 0.104066129448904 
670	 0.103847800769411 
671	 0.103713640563081 
672	 0.103630431817853 
673	 0.103566401656767 
674	 0.103502399545299 
675	 0.103487738509861 
676	 0.103470063137984 
677	 0.103431308804215 
678	 0.103472080023842 
679	 0.103693359835921 
680	 0.103958570636316 
681	 0.104064453405661 
682	 0.104193537731356 
683	 0.104476649278366 
684	 0.104870362597882 
685	 0.105136555318562 
686	 0.105488333993488 
687	 0.105732577127058 
688	 0.105706123101912 
689	 0.105744154593982 
690	 0.105841734061549 
691	 0.105873366000189 
692	 0.105656282960655 
693	 0.105356503025189 
694	 0.104980469363271 
695	 0.104527783519152 
696	 0.10396022607885 
697	 0.103474873740616 
698	 0.102896251578647 
699	 0.102050468301281 
700	 0.101232793048841 
701	 0.100308716703525 
702	 0.099290913806228 
703	 0.098284651426857 
704	 9.72183826192488E-02 
705	 9.60293010057153E-02 
706	 9.47445200468674E-02 
707	 9.35221332575587E-02 
708	 9.21047101332933E-02 
709	 9.05770908779254E-02 
710	 8.90795949883546E-02 
711	 8.73095864482694E-02 
712	 0.085464715485591 
713	 8.36544779482152E-02 
714	 0.081821364283213 
715	 8.00475650442043E-02 
716	 7.81908514961873E-02 
717	 7.62185371097686E-02 
718	 7.41739923045154E-02 
719	 7.19271001571209E-02 
720	 0.069866015419372 
721	 6.80342329277375E-02 
722	 6.63094267149752E-02 
723	 6.45530087726706E-02 
724	 0.062803560004691 
725	 6.07794068621303E-02 
726	 5.87619584747932E-02 
727	 5.66207740999091E-02 
728	 5.43364792037453E-02 
729	 5.23853065071097E-02 
730	 5.02428362797199E-02 
731	 4.81346483222199E-02 
732	 4.64414882489129E-02 
733	 4.48723410737765E-02 
734	 4.36618979349597E-02 
735	 4.28337982810101E-02 
736	 4.20561971631997E-02 
737	 4.14235223547666E-02 
738	 4.09784534043585E-02 
739	 4.07041774692316E-02 
740	 4.03978722355638E-02 
741	 0.040154198802167 
742	 4.00089890998862E-02 
743	 3.99473777549981E-02 
744	 3.98527266026112E-02 
745	 3.98065751433592E-02 
746	 3.97940114661953E-02 
747	 0.039644857060303 
748	 3.95457621183424E-02 
749	 0.039558912826349 
750	 3.96372869400494E-02 
751	 3.94932504689642E-02 
752	 3.94109465027443E-02 
753	 0.039467190778566 
754	 3.95826336596976E-02 
755	 3.94886778070696E-02 
756	 0.039338907264112 
757	 3.93087693781427E-02 
758	 3.96389042371067E-02 
759	 3.98060489232423E-02 
760	 3.97673406300113E-02 
761	 0.039838149624613 
762	 3.98070259848196E-02 
763	 3.97374229718005E-02 
764	 3.96901880105352E-02 
765	 3.96957608074017E-02 
766	 3.97230326014214E-02 
767	 3.97857984063724E-02 
768	 3.98946912909846E-02 
769	 4.00488408060045E-02 
770	 4.00346690303976E-02 
771	 4.00625950934908E-02 
772	 4.02806419115489E-02 
773	 0.040440763450994 
774	 4.05235537999467E-02 
775	 4.06132785531139E-02 
776	 4.08218497973344E-02 
777	 4.10763795089046E-02 
778	 4.13049708541355E-02 
779	 0.041487995617668 
780	 4.16639996094779E-02 
781	 4.18773595808026E-02 
782	 4.21218646810374E-02 
783	 0.042370336245702 
784	 4.25655642688888E-02 
785	 0.04286909505514 
786	 4.32257419330495E-02 
787	 4.35182058637077E-02 
788	 4.37762654530414E-02 
789	 4.40102173444858E-02 
790	 4.43423454730171E-02 
791	 4.49079994198626E-02 
792	 4.49652751831848E-02 
793	 4.51717228283698E-02 
794	 4.57666138069023E-02 
795	 4.59866278618673E-02 
796	 4.63824652171102E-02 
797	 0.046728914811928 
798	 4.68176175671448E-02 
799	 4.71910954699147E-02 
800	 4.74513533913651E-02 
801	 4.76252697984337E-02 
802	 4.79447869639787E-02 
803	 4.81975205474125E-02 
804	 4.83972456976946E-02 
805	 4.84861283181885E-02 
806	 4.83297443688316E-02 
807	 4.84296532098627E-02 
808	 4.84121286740169E-02 
809	 0.048068938443201 
810	 4.80709650948595E-02 
811	 4.80822617059233E-02 
812	 4.79713713764317E-02 
813	 0.047681854937381 
814	 4.71905614863111E-02 
815	 4.70858523746515E-02 
816	 4.70606682278333E-02 
817	 4.62544739256983E-02 
818	 4.57917823898537E-02 
819	 4.51326945100188E-02 
820	 4.42493535015307E-02 
821	 4.40047616171298E-02 
822	 4.31239375263047E-02 
823	 4.19392298922715E-02 
824	 4.09664649237897E-02 
825	 3.99513128910581E-02 
826	 3.87978452993075E-02 
827	 3.75263297129679E-02 
828	 3.63366681859381E-02 
829	 3.55621490386946E-02 
830	 3.47413296116712E-02 
831	 0.033870744698351 
832	 3.33128097623377E-02 
833	 3.29547873273436E-02 
834	 0.032527990191312 
835	 3.20645900648939E-02 
836	 3.19941865102972E-02 
837	 3.17555519236147E-02 
838	 0.031413047033234 
839	 0.031140729008693 
840	 3.10150073439845E-02 
841	 3.09647530042593E-02 
842	 3.09066938968988E-02 
843	 3.07709045101425E-02 
844	 3.05841888308221E-02 
845	 3.02790604440194E-02 
846	 3.00624765790743E-02 
847	 0.030230409925304 
848	 3.01368167078089E-02 
849	 2.98893776712648E-02 
850	 2.96797643885195E-02 
851	 2.96688079358847E-02 
852	 2.97519020160131E-02 
853	 2.96688431546167E-02 
854	 2.93809304405495E-02 
855	 2.93632876238386E-02 
856	 2.92916561195079E-02 
857	 2.91809623876564E-02 
858	 2.90800569392785E-02 
859	 2.87792763747833E-02 
860	 2.87937723498885E-02 
861	 2.90071789867802E-02 
862	 2.89874145677386E-02 
863	 2.85800240148678E-02 
864	 2.85635074918953E-02 
865	 2.87728729583311E-02 
866	 2.82835165990776E-02 
867	 2.83229352007231E-02 
868	 2.83704609496963E-02 
869	 0.028158455857207 
870	 2.80499536222824E-02 
871	 0.027783987473689 
872	 2.76010801355202E-02 
873	 2.76969537006703E-02 
874	 2.79763871022235E-02 
875	 2.76125406622315E-02 
876	 2.72081554376734E-02 
877	 2.74052414114953E-02 
878	 2.72290521159983E-02 
879	 2.70289656430094E-02 
880	 2.69632862677474E-02 
881	 0.027013733432037 
882	 2.67750703756112E-02 
883	 2.65470929506776E-02 
884	 0.02648451067832 
885	 2.65647383247774E-02 
886	 2.65954206450859E-02 
887	 2.63610681871247E-02 
888	 2.60972929025841E-02 
889	 2.64474739539103E-02 
890	 2.64830112158631E-02 
891	 2.60061233710897E-02 
892	 2.54431443939772E-02 
893	 2.60977237553358E-02 
894	 2.61991518322861E-02 
895	 2.58703019150414E-02 
896	 2.57240316841779E-02 
897	 2.60220895455214E-02 
898	 0.025664301470881 
899	 2.54720907147317E-02 
900	 0.026134079344939 
901	 2.54466593612851E-02 
902	 2.58866285230887E-02 
903	 2.63274760538561E-02 
904	 2.51213323463786E-02 
905	 0.025351490289415 
906	 0.025450073922208 
907	 0.025244182312299 
908	 2.54714147401718E-02 
909	 2.48905887868991E-02 
910	 2.52645759574193E-02 
911	 2.60230601351047E-02 
912	 2.48048606969928E-02 
913	 2.47652705835441E-02 
914	 2.53610888919157E-02 
915	 2.57131235835951E-02 
916	 2.52941545838636E-02 
917	 2.50558650810079E-02 
918	 2.48067721743763E-02 
919	 2.43381105457328E-02 
920	 2.36917067161856E-02 
921	 2.42902365451902E-02 
922	 2.48608974217627E-02 
923	 0.02453368337567 
924	 2.43836202265012E-02 
925	 2.39133828549411E-02 
926	 2.40242906887276E-02 
927	 2.51216821461124E-02 
928	 2.41491780154045E-02 
929	 2.43194131827284E-02 
930	 2.55358543046718E-02 
931	 2.56127949554106E-02 
932	 2.28275575100828E-02 
933	 2.48006031801261E-02 
934	 2.79413283156615E-02 
935	 2.51833686337949E-02 
936	 2.38875029468232E-02 
937	 2.42491830514046E-02 
938	 2.45838887929018E-02 
939	 2.38614254542519E-02 
940	 2.58626994542381E-02 
941	 0.024413346469956 
942	 2.17819553532079E-02 
943	 2.31579649801935E-02 
944	 2.26669559491395E-02 
945	 2.50134596415696E-02 
946	 2.64295449002448E-02 
947	 0.021016403641459 
948	 0.021083827907213 
949	 2.33186056147722E-02 
950	 2.33736966551119E-02 
951	 1.92007628268025E-02 
952	 2.08511104565736E-02 
953	 2.29029101141982E-02 
954	 2.25611386836746E-02 
955	 2.06595283568019E-02 
956	 2.13361432505229E-02 
957	 2.16411690775462E-02 
958	 2.04124794026443E-02 
959	 0.018921098708585 
960	 2.25679438578713E-02 
961	 2.20007818345483E-02 
962	 1.89730846263476E-02 
963	 2.18952796726362E-02 
964	 2.20379085744009E-02 
965	 2.20982261503018E-02 
966	 2.26295884802817E-02 
967	 2.20865433928189E-02 
968	 2.09418651333018E-02 
969	 2.17309354452513E-02 
970	 2.30142838164925E-02 
971	 2.07512496919907E-02 
972	 1.94310012552498E-02 
973	 2.12903454750942E-02 
974	 2.39095336083012E-02 
975	 2.19144855481452E-02 
976	 2.14085546440774E-02 
977	 2.10619822446258E-02 
978	 2.07148332349494E-02 
979	 2.15306242258577E-02 
980	 2.08213677977774E-02 
981	 2.07640535384635E-02 
982	 2.17937712492811E-02 
983	 2.23985919058103E-02 
984	 2.09309077381226E-02 
985	 2.08363968159804E-02 
986	 2.16369771341559E-02 
987	 2.02856047437441E-02 
988	 2.18740827490011E-02 
989	 2.26817034804491E-02 
990	 2.14720074033948E-02 
991	 0.019852477385519 
992	 1.97382830856557E-02 
993	 2.09865415804892E-02 
994	 2.20145854613092E-02 
995	 2.12243696881777E-02 
996	 2.18861821469304E-02 
997	 2.15609897958753E-02 
998	 2.10223010069258E-02 
999	 2.23310929575645E-02 
1000	 2.18079164203607E-02 
1001	 0.021178593624269 
1002	 0.021361366797744 
1003	 2.13160401273777E-02 
1004	 2.10417164578441E-02 
1005	 0.021058159455444 
1006	 2.10629136717496E-02 
1007	 2.12564322128574E-02 
1008	 2.12238542924757E-02 
1009	 2.13046502086023E-02 
1010	 2.12018147584222E-02 
1011	 2.08271310844613E-02 
1012	 2.08130495086287E-02 
1013	 2.08362800350498E-02 
1014	 2.09195019299606E-02 
1015	 2.10211663118287E-02 
1016	 2.11407258323353E-02 
1017	 2.15336717142843E-02 
1018	 2.16324962071551E-02 
1019	 2.15888965695163E-02 
1020	 2.15507280199646E-02 
1021	 2.13776778727832E-02 
1022	 2.10342182783121E-02 
1023	 2.11850551149617E-02 
1024	 2.14313374407477E-02 
1025	 2.18146129295226E-02 
1026	 2.20566799823998E-02 
1027	 2.20076012718384E-02 
1028	 2.16813033170832E-02 
1029	 2.14025472724606E-02 
1030	 2.07178149444183E-02 
1031	 2.06483579012144E-02 
1032	 2.08260800071072E-02 
1033	 2.09686384207028E-02 
1034	 2.16209493257999E-02 
1035	 2.18066080543524E-02 
1036	 2.16010295701258E-02 
1037	 2.16534006694934E-02 
1038	 2.16886692310838E-02 
1039	 2.17149159358159E-02 
1040	 2.20123072712972E-02 
1041	 2.21881484858113E-02 
1042	 0.022077247163615 
1043	 0.021629560032389 
1044	 2.15892236654483E-02 
1045	 2.15156415452858E-02 
1046	 2.14785966714468E-02 
1047	 2.17696626612133E-02 
1048	 2.17861085095682E-02 
1049	 2.14795681865622E-02 
1050	 2.14502840472323E-02 
1051	 2.14570635705804E-02 
1052	 2.15966178561861E-02 
1053	 2.21329951395351E-02 
1054	 2.22729762722489E-02 
1055	 2.22662108963321E-02 
1056	 2.22805767335482E-02 
1057	 2.21986018095743E-02 
1058	 2.17435467702806E-02 
1059	 2.17581127911908E-02 
1060	 2.20983424264284E-02 
1061	 2.20966580333319E-02 
1062	 2.21142599788548E-02 
1063	 2.20519226799855E-02 
1064	 2.16324265243092E-02 
1065	 2.15945804002709E-02 
1066	 2.18704247307276E-02 
1067	 2.19115417014344E-02 
1068	 2.19300700853927E-02 
1069	 2.20167590054299E-02 
1070	 2.20675224139013E-02 
1071	 2.20630179167926E-02 
1072	 2.21745003623991E-02 
1073	 2.22139870745124E-02 
1074	 2.21094548791244E-02 
1075	 2.17456772735749E-02 
1076	 2.16173884925299E-02 
1077	 2.14967053964739E-02 
1078	 2.14566736657581E-02 
1079	 2.15880316136956E-02 
1080	 2.15742744926561E-02 
1081	 2.14318440153513E-02 
1082	 2.14854060661371E-02 
1083	 2.15463102711046E-02 
1084	 2.16789209798641E-02 
1085	 2.23215811819582E-02 
1086	 2.23865228008614E-02 
1087	 0.021836506983425 
1088	 2.17283234349064E-02 
1089	 2.15612461495647E-02 
1090	 2.14464373862721E-02 
1091	 2.13938655962263E-02 
1092	 2.18282571633244E-02 
1093	 2.17977363779259E-02 
1094	 2.12931372897926E-02 
1095	 2.12216970293249E-02 
1096	 0.021233392245249 
1097	 0.021365088152528 
1098	 2.20207363115335E-02 
1099	 2.21189377222229E-02 
1100	 2.19353949316947E-02 
1101	 2.18007557904181E-02 
1102	 2.11192233299346E-02 
1103	 2.08507809672099E-02 
1104	 2.07049625809966E-02 
1105	 2.10441297895814E-02 
1106	 2.12711195215141E-02 
1107	 2.14150694101425E-02 
1108	 2.12670818422026E-02 
1109	 2.12400866956895E-02 
1110	 2.12451809687929E-02 
1111	 2.10201397544487E-02 
1112	 2.13047514178126E-02 
1113	 2.25533712086544E-02 
1114	 2.25944757856815E-02 
1115	 2.21610695513111E-02 
1116	 2.18887264560883E-02 
1117	 1.96213320235476E-02 
1118	 1.88139365994691E-02 
1119	 0.020112976386029 
1120	 2.07495394098945E-02 
1121	 2.21808795555205E-02 
1122	 2.34187377581972E-02 
1123	 2.42600420496839E-02 
1124	 2.32732905824838E-02 
1125	 2.19914084578314E-02 
1126	 2.18653149817515E-02 
1127	 2.14688894331335E-02 
1128	 2.29877732795261E-02 
1129	 0.022722438409258 
1130	 2.14553159565675E-02 
1131	 2.12785656997154E-02 
1132	 2.11776622868781E-02 
1133	 2.07972467060887E-02 
1134	 0.021383752672821 
1135	 2.12277761979056E-02 
1136	 1.95784535995074E-02 
1137	 1.94242840023621E-02 
1138	 2.00734015356664E-02 
1139	 0.020446285342486 
1140	 2.01927966172938E-02 
1141	 1.95664096016575E-02 
1142	 1.83456372555563E-02 
1143	 1.77342707182523E-02 
1144	 1.84083035998578E-02 
1145	 1.92521690194102E-02 
1146	 1.96100321644582E-02 
1147	 2.00913184380351E-02 
1148	 2.00321299486405E-02 
1149	 1.94755137573717E-02 
1150	 1.92492266592753E-02 
1151	 1.90944056450399E-02 
1152	 1.89118283116575E-02 
1153	 1.87074417068211E-02 
1154	 1.85255148485337E-02 
1155	 0.018584659429932 
1156	 1.81324147769855E-02 
1157	 1.73849037894987E-02 
1158	 1.76439994870942E-02 
1159	 1.72987789450976E-02 
1160	 1.65764262789736E-02 
1161	 1.68974330445986E-02 
1162	 1.72435349188979E-02 
1163	 0.017440355044175 
1164	 1.76226917146489E-02 
1165	 1.74471330291528E-02 
1166	 1.71814121198562E-02 
1167	 1.69290212992438E-02 
1168	 1.67863589142586E-02 
1169	 1.70264715326579E-02 
1170	 1.72270503746789E-02 
1171	 0.017012949070915 
1172	 1.63458521258083E-02 
1173	 1.63596987196706E-02 
1174	 1.64830135236189E-02 
1175	 1.63469270506138E-02 
1176	 0.016607961648257 
1177	 1.71087954404446E-02 
1178	 1.70933621077337E-02 
1179	 1.67970894256325E-02 
1180	 0.016812914202827 
1181	 1.69834067672484E-02 
1182	 1.65371362745218E-02 
1183	 1.61343958499963E-02 
1184	 1.64754820991063E-02 
1185	 0.01683584701732 
1186	 1.69321916553271E-02 
1187	 1.68982437072301E-02 
1188	 1.66450905470496E-02 
1189	 1.63696702007279E-02 
1190	 0.016384722641546 
1191	 1.65880467752698E-02 
1192	 1.66833200421605E-02 
1193	 1.67241007333992E-02 
1194	 1.65638524997971E-02 
1195	 1.66160491925661E-02 
1196	 1.68625329930677E-02 
1197	 1.69169839791303E-02 
1198	 1.67051875149311E-02 
1199	 1.64313994006883E-02 
1200	 1.63106427546065E-02 
1201	 1.63884151376397E-02 
1202	 1.63783505878971E-02 
1203	 1.63321584315537E-02 
1204	 1.63744463986141E-02 
1205	 0.016268841825276 
1206	 1.62734943499648E-02 
1207	 1.66765221375513E-02 
1208	 1.67558593722339E-02 
1209	 1.64751839768199E-02 
1210	 1.66354064260308E-02 
1211	 0.016871227260765 
1212	 1.68437690564621E-02 
1213	 1.69064557605465E-02 
1214	 1.69358712126967E-02 
1215	 1.68682820478635E-02 
1216	 1.65866347704735E-02 
1217	 1.65208845849407E-02 
1218	 1.65944000841141E-02 
1219	 0.016719751617532 
1220	 1.67865958711591E-02 
1221	 1.67375345960073E-02 
1222	 1.67850888728318E-02 
1223	 1.66991272614114E-02 
1224	 1.64674209630543E-02 
1225	 1.64322081714262E-02 
1226	 1.65214648081329E-02 
1227	 1.64900497137664E-02 
1228	 1.63793372610212E-02 
1229	 1.66019755470898E-02 
1230	 1.67588049467495E-02 
1231	 1.65668145387833E-02 
1232	 1.66803104547811E-02 
1233	 1.68050014217558E-02 
1234	 1.65661317851163E-02 
1235	 1.64700107793003E-02 
1236	 0.016723326227177 
1237	 1.67577804565705E-02 
1238	 0.016618359439528 
1239	 1.63568320985223E-02 
1240	 1.63276735920993E-02 
1241	 1.63419293980357E-02 
1242	 1.62846319251317E-02 
1243	 1.64427083776548E-02 
1244	 1.66754185480665E-02 
1245	 1.66730732601603E-02 
1246	 1.65833507705173E-02 
1247	 1.64580638299867E-02 
1248	 1.63276762517799E-02 
1249	 1.63529381441845E-02 
1250	 1.64397441880671E-02 
1251	 1.64798802439058E-02 
1252	 0.016521237708025 
1253	 1.64865076075859E-02 
1254	 1.64851294795358E-02 
1255	 1.66153367362591E-02 
1256	 0.016604930458234 
1257	 1.65885510832576E-02 
1258	 1.65983801213303E-02 
1259	 1.64977387239508E-02 
1260	 1.63955946212482E-02 
1261	 1.63365388576562E-02 
1262	 1.63432175315772E-02 
1263	 1.62415146230427E-02 
1264	 1.63585518973842E-02 
1265	 1.66075221952174E-02 
1266	 1.67239858198716E-02 
1267	 1.66581882824955E-02 
1268	 1.65064850720194E-02 
1269	 0.016419869523342 
1270	 1.64159604186107E-02 
1271	 1.64647575686301E-02 
1272	 1.64057510804263E-02 
1273	 1.63763674129592E-02 
1274	 0.01651858875532 
1275	 1.64558688599417E-02 
1276	 1.63332841793636E-02 
1277	 1.65096311662757E-02 
1278	 1.65369297030191E-02 
1279	 1.65067967290947E-02 
1280	 1.66525625181276E-02 
1281	 1.65537113874532E-02 
1282	 1.59132379109073E-02 
1283	 1.59166691117473E-02 
1284	 1.63627824117973E-02 
1285	 1.63448648788416E-02 
1286	 1.63085213596924E-02 
1287	 1.63480994546781E-02 
1288	 1.62089285952071E-02 
1289	 1.60540371004426E-02 
1290	 1.59961319128909E-02 
1291	 1.59792785910615E-02 
1292	 1.60137490136868E-02 
1293	 1.59736147458817E-02 
1294	 1.59293402103416E-02 
1295	 1.59613038638295E-02 
1296	 1.58240900440613E-02 
1297	 1.55935589658788E-02 
1298	 1.57490875927007E-02 
1299	 1.60684325341454E-02 
1300	 0.016061725559189 
1301	 1.59150379016051E-02 
1302	 1.57973998812033E-02 
1303	 1.57570824920772E-02 
1304	 1.56265887674417E-02 
1305	 1.55462403061803E-02 
1306	 1.55769992604321E-02 
1307	 1.57329353587561E-02 
1308	 1.55975719925504E-02 
1309	 1.53700839540938E-02 
1310	 1.52696358818111E-02 
1311	 1.50365802486899E-02 
1312	 1.48704174194005E-02 
1313	 1.48801041898219E-02 
1314	 1.49314008936225E-02 
1315	 1.48394896054409E-02 
1316	 1.47744372853492E-02 
1317	 1.50921322087573E-02 
1318	 1.51139305539347E-02 
1319	 0.014633298033788 
1320	 1.45979308161189E-02 
1321	 1.47716196781075E-02 
1322	 1.50717298129121E-02 
1323	 1.47521573507959E-02 
1324	 1.42107464663759E-02 
1325	 1.41092912868683E-02 
1326	 1.41948801045986E-02 
1327	 1.46152684511224E-02 
1328	 1.48847879545833E-02 
1329	 1.44424050460621E-02 
1330	 1.38304003799448E-02 
1331	 1.37398123273766E-02 
1332	 1.39904023674489E-02 
1333	 1.41904081751656E-02 
1334	 1.41176989028985E-02 
1335	 1.39556381669705E-02 
1336	 0.013248401591955 
1337	 1.32035485705968E-02 
1338	 1.37086628560043E-02 
1339	 1.35423932757492E-02 
1340	 1.31166824922527E-02 
1341	 1.31450724521805E-02 
1342	 0.012969350745939 
1343	 1.27696339998747E-02 
1344	 1.33571834630708E-02 
1345	 1.32391737961576E-02 
1346	 1.20128437831011E-02 
1347	 0.011240107136929 
1348	 9.75969302031534E-03 
1349	 8.63432027862352E-03 
1350	 8.27638138458523E-03 
1351	 7.60117320247919E-03 
1352	 9.95848168614179E-03 
1353	 1.16932385265427E-02 
1354	 1.39205267502276E-02 
1355	 1.16622427599194E-02 
1356	 0.031798179437239 
1357	 5.35636895651138E-02 
1358	 5.86594863261451E-02 
1359	 8.36884447623396E-02 
1360	 4.61974357184315E-02 
1361	 1.45468551554224E-02 
1362	 0.111196202179224 
1363	 0.171862731417457 
1364	 0.152860175139651 
1365	 0.223358895436442 
1366	 0.319077147754578 
1367	 0.268816297456121 
1368	 0.194365050348349 
1369	 0.077556944633134 
1370	 0.122552896467657 
1371	 0.214631353733523 
1372	 0.17779435008743 
1373	 0.194666763642937 
1374	 0.260394316085455 
1375	 0.223016366721227 
1376	 0.163973799720688 
1377	 0.185981023525238 
1378	 0.258397618028195 
1379	 0.243310314382345 
1380	 0.169169224742525 
1381	 0.191596711315246 
1382	 0.327390546791763 
1383	 0.318578560728178 
1384	 0.181120258627058 
1385	 0.416038507733638 
1386	 0.457515387159459 
1387	 5.74585245100843E-02 
1388	-9.40067155562148E-02 
1389	-0.244216684530136 
1390	-0.232222521550973 
1391	-0.202302663402262 
1392	 0.164773527070025 
1393	 0.502753488018062 
1394	 0.325563352755224 
1395	 0.294281369484169 
1396	 0.360791923398654 
1397	 0.254595653212681 
1398	 0.131462060852663 
1399	 0.20983707468347 
1400	 0.316071994581648 
1401	 0.418486161282178 
1402	 0.548223838504804 
1403	 0.477988843773709 
1404	 0.114947826974858 
1405	 3.00662203655521E-02 
1406	 0.111308594461433 
1407	 0.100598617715943 
1408	 5.02038690774433E-03 
1409	 5.01751820665332E-03 
1410	 5.28986968223996E-02 
1411	 4.41176551875909E-02 
1412	 3.86341465714782E-02 
1413	 1.84758028290979E-02 
1414	-3.04198108719311E-02 
1415	-2.48675690204084E-02 
1416	-8.16468135805566E-03 
1417	 1.8680172412624E-03 
1418	 0.041282451327704 
1419	 3.52973418283975E-02 
1420	 6.91206578699731E-03 
1421	 3.01319581211976E-03 
1422	-5.58611038930172E-03 
1423	-6.60694705209736E-03 
1424	 1.09233668335028E-03 
1425	 4.37186522110412E-03 
1426	 8.32297853128208E-03 
1427	 8.72401843526029E-03 
1428	 9.00140542861632E-03 
1429	 7.78379297862224E-03 
1430	 1.69292986777019E-03 
1431	-1.55428369862555E-04 
1432	-1.05365795721125E-03 
1433	-1.2108216032172E-03 
1434	 1.85255470635586E-03 
1435	 3.80811317382394E-03 
1436	 6.19162276208873E-03 
1437	 7.88691856787379E-03 
1438	 3.76335574196187E-03 
1439	 1.64522021450632E-03 
1440	 6.46706484761974E-03 
1441	 4.39933015046319E-03 
1442	 4.6980330248224E-03 
1443	 9.64927672785375E-03 
1444	 8.35350226129651E-03 
1445	 5.61363866012782E-03 
1446	 5.96484323251877E-03 
1447	 6.48096617585197E-03 
1448	 6.64126571394736E-03 
1449	 7.70799548154816E-03 
1450	 7.17880453009351E-03 
1451	 5.49907050715857E-03 
1452	 5.05446635988181E-03 
1453	 4.62914545178714E-03 
1454	 4.25168291180875E-03 
1455	 4.22713789667305E-03 
1456	 4.57296465827414E-03 
1457	 4.87113444884867E-03 
1458	 4.89681006834664E-03 
1459	 5.72744659507852E-03 
1460	 5.27083629399874E-03 
1461	 3.16574473032837E-03 
1462	 3.2224872865178E-03 
1463	 4.19040347808432E-03 
1464	 4.14060533955533E-03 
1465	 4.51890777695229E-03 
1466	 5.2936527627844E-03 
1467	 5.7683185884129E-03 
1468	 5.38345773301989E-03 
1469	 5.46687503952575E-03 
1470	 5.84751029753726E-03 
1471	 5.01258105082072E-03 
1472	 4.58674780650794E-03 
1473	 4.85458234925952E-03 
1474	 5.31498750822337E-03 
1475	 5.66291126974448E-03 
1476	 5.39979506261989E-03 
1477	 5.73186578270235E-03 
1478	 5.81979962220646E-03 
1479	 4.79863365531245E-03 
1480	 4.57618176780911E-03 
1481	 5.09749182070893E-03 
1482	 5.11162185359833E-03 
1483	 4.74714479232112E-03 
1484	 4.70156611800836E-03 
1485	 4.84575110718136E-03 
1486	 5.06371381603594E-03 
1487	 5.54942981076437E-03 
1488	 5.48233546689498E-03 
1489	 5.0677046397509E-03 
1490	 5.02860871524278E-03 
1491	 5.20208229964581E-03 
1492	 4.91427518767439E-03 
1493	 4.28133870102065E-03 
1494	 4.25529918387621E-03 
1495	 4.31708738272855E-03 
1496	 4.21610231773414E-03 
1497	 4.35401622282146E-03 
1498	 4.55615234635095E-03 
1499	 4.72885453234877E-03 
1500	 4.64869562533747E-03 
1501	 4.62316417807695E-03 
1502	 4.61784442925316E-03 
1503	 4.01995388691681E-03 
1504	 3.99369218233534E-03 
1505	 4.51358795831095E-03 
1506	 4.97777162377652E-03 
1507	 4.80022954839267E-03 
1508	 4.73502375359803E-03 
1509	 4.84303580642972E-03 
1510	 4.89307203033468E-03 
1511	 4.87714932900628E-03 
1512	 5.07530392044184E-03 
1513	 5.35590775541011E-03 
1514	 0.005235221207312 
1515	 5.23341985473188E-03 
1516	 5.44689375467027E-03 
1517	 5.3769668190085E-03 
1518	 5.24553466887964E-03 
1519	 5.21663349758422E-03 
1520	 5.34332388941001E-03 
1521	 5.57310358211183E-03 
1522	 5.45572724782784E-03 
1523	 5.25235555135138E-03 
1524	 5.38158001110007E-03 
1525	 5.47883332618695E-03 
1526	 5.49423471194724E-03 
1527	 5.54147870805147E-03 
1528	 5.58988963088601E-03 
1529	 5.66945692456556E-03 
1530	 5.5346889588216E-03 
1531	 5.43213317150276E-03 
1532	 5.7307459925777E-03 
1533	 5.83432502565355E-03 
1534	 5.65874472001124E-03 
1535	 5.81834965559883E-03 
1536	 5.99999718374508E-03 
1537	 5.87428451210602E-03 
1538	 5.71963990571434E-03 
1539	 5.71507530993813E-03 
1540	 5.7944365992508E-03 
1541	 5.83744768372443E-03 
1542	 5.98883870865164E-03 
1543	 6.2033819038142E-03 
1544	 6.26095972424611E-03 
1545	 6.13879619660414E-03 
1546	 6.05284720051594E-03 
1547	 6.33251977144899E-03 
1548	 6.56343256505236E-03 
1549	 6.45062436661673E-03 
1550	 6.50102356891398E-03 
1551	 6.43586386256514E-03 
1552	 6.19003996955719E-03 
1553	 6.3413429821975E-03 
1554	 6.59983587788725E-03 
1555	 6.64943144270195E-03 
1556	 6.69703520126596E-03 
1557	 6.80312915465844E-03 
1558	 6.79775315761396E-03 
1559	 6.70972050548894E-03 
1560	 6.74097449623922E-03 
1561	 6.80334895193403E-03 
1562	 6.76109192999375E-03 
1563	 6.94492390851376E-03 
1564	 7.10827182921228E-03 
1565	 6.85081179960283E-03 
1566	 6.85444935391809E-03 
1567	 7.05587811771245E-03 
1568	 6.96629684520762E-03 
1569	 7.08428644814594E-03 
1570	 7.29371848134583E-03 
1571	 7.11433610517644E-03 
1572	 7.01935951725877E-03 
1573	 7.22032036310738E-03 
1574	 7.29637272554453E-03 
1575	 7.24953960875208E-03 
1576	 7.1543904544374E-03 
1577	 7.01005714016919E-03 
1578	 7.00677488502734E-03 
1579	 7.15601015890398E-03 
1580	 7.28778686467184E-03 
1581	 7.26633516023903E-03 
1582	 7.32704440324264E-03 
1583	 7.4154721372388E-03 
1584	 7.42125212205131E-03 
1585	 7.41801420521787E-03 
1586	 7.24357279170716E-03 
1587	 7.14815991311954E-03 
1588	 7.1661617428302E-03 
1589	 7.10861629696658E-03 
1590	 7.06333373892864E-03 
1591	 7.2226156309696E-03 
1592	 7.4201428536857E-03 
1593	 7.43386254629299E-03 
1594	 7.54562790010706E-03 
1595	 7.79823751604423E-03 
1596	 7.95209099203921E-03 
1597	 7.91636394386842E-03 
1598	 7.89435636018337E-03 
1599	 7.92721831452693E-03 
1600	 7.84880067619451E-03 
1601	 7.81165919949182E-03 
1602	 7.8820164319324E-03 
1603	 7.85595970534284E-03 
1604	 7.87967089077606E-03 
1605	 8.02730636432003E-03 
1606	 8.26571311140397E-03 
1607	 8.42837756254874E-03 
1608	 8.16208280642896E-03 
1609	 8.00599809888079E-03 
1610	 8.05865744741724E-03 
1611	 7.87822363134882E-03 
1612	 7.95760236923197E-03 
1613	 8.30564714633138E-03 
1614	 8.20709810292855E-03 
1615	 8.02283269765439E-03 
1616	 8.12584555073306E-03 
1617	 7.88448794407439E-03 
1618	 7.68477931879928E-03 
1619	 7.97915043366777E-03 
1620	 8.15172747358787E-03 
1621	 8.16540033392435E-03 
1622	 8.06512100642931E-03 
1623	 7.95587811886728E-03 
1624	 8.06326204271879E-03 
1625	 8.11221881365787E-03 
1626	 8.21342246349515E-03 
1627	 8.41305118131379E-03 
1628	 8.33321890257363E-03 
1629	 8.15908182390625E-03 
1630	 8.34079932312936E-03 
1631	 8.46762986964401E-03 
1632	 8.21752417320442E-03 
1633	 8.13815663136954E-03 
1634	 8.33748824479838E-03 
1635	 8.51011957880331E-03 
1636	 8.53702952638859E-03 
1637	 8.52248210659083E-03 
1638	 8.41119973024099E-03 
1639	 8.08983838022339E-03 
1640	 8.09005978246193E-03 
1641	 8.40544130935514E-03 
1642	 8.56147402007856E-03 
1643	 8.61138948428216E-03 
1644	 8.5319744730538E-03 
1645	 8.34007513458203E-03 
1646	 8.2901255468632E-03 
1647	 8.48463368564078E-03 
1648	 8.71306389645083E-03 
1649	 8.74262317360051E-03 
1650	 8.56430460586729E-03 
1651	 8.40876969780275E-03 
1652	 8.38556190340372E-03 
1653	 8.34163250870761E-03 
1654	 8.30690632444043E-03 
1655	 8.50583943170829E-03 
1656	 8.43744744774373E-03 
1657	 7.90587869666797E-03 
1658	 8.0639097567883E-03 
1659	 8.75428420912158E-03 
1660	 8.79937831029188E-03 
1661	 8.79638415542795E-03 
1662	 8.86893644412667E-03 
1663	 8.58181157346865E-03 
1664	 8.42410981587829E-03 
1665	 8.56636047860468E-03 
1666	 8.55050712355317E-03 
1667	 8.16163610080024E-03 
1668	 8.43575630197752E-03 
1669	 8.68540239341638E-03 
1670	 8.90141214744869E-03 
1671	 9.00371214529883E-03 
1672	 8.69981509932449E-03 
1673	 8.59621158770261E-03 
1674	 8.90430137020393E-03 
1675	 8.92218695601907E-03 
1676	 8.70502178545963E-03 
1677	 8.55773463653142E-03 
1678	 8.47722998143204E-03 
1679	 8.47934980628388E-03 
1680	 8.40619705292181E-03 
1681	 8.49030290762604E-03 
1682	 8.78778902602215E-03 
1683	 8.69666385166997E-03 
1684	 8.49280643257208E-03 
1685	 8.50219199597626E-03 
1686	 8.16229416177842E-03 
1687	 7.95384727026652E-03 
1688	 8.21390766272002E-03 
1689	 8.43319698667714E-03 
1690	 8.61640244852891E-03 
1691	 8.69994276990419E-03 
1692	 8.74390236683522E-03 
1693	 8.81370694105902E-03 
1694	 8.89725995297217E-03 
1695	 8.96486961257171E-03 
1696	 8.91981719862105E-03 
1697	 8.71292047344886E-03 
1698	 8.50586080156031E-03 
1699	 8.63947836085072E-03 
1700	 8.84835698488893E-03 
1701	 8.9401218084382E-03 
1702	 8.83076152593265E-03 
1703	 8.37173515533418E-03 
1704	 8.01127618953561E-03 
1705	 8.33919609350327E-03 
1706	 8.87864204662673E-03 
1707	 8.60508355401699E-03 
1708	 8.3014289620201E-03 
1709	 8.53223080485974E-03 
1710	 8.27277817334581E-03 
1711	 8.3583377374639E-03 
1712	 9.16624329611654E-03 
1713	 8.10673221609388E-03 
1714	 7.77157709759545E-03 
1715	 7.81407228791652E-03 
1716	 7.92045110351998E-03 
1717	 8.51846943894879E-03 
1718	 8.86392225207492E-03 
1719	 8.62374438104907E-03 
1720	 8.00062595854308E-03 
1721	 7.67869512751997E-03 
1722	 8.05168607400546E-03 
1723	 8.52389440020456E-03 
1724	 8.32500399708664E-03 
1725	 7.69559893939673E-03 
1726	 7.4636653378126E-03 
1727	 7.64390011639002E-03 
1728	 8.29109430896085E-03 
1729	 9.02165144548464E-03 
1730	 8.59139922911664E-03 
1731	 7.80151748761055E-03 
1732	 7.60124022050369E-03 
1733	 7.48590305159117E-03 
1734	 8.05343672722052E-03 
1735	 8.6029712633006E-03 
1736	 8.18210435829298E-03 
1737	 7.95313670848624E-03 
1738	 7.77014137400549E-03 
1739	 7.22578148776826E-03 
1740	 7.45194303640434E-03 
1741	 7.98057092534134E-03 
1742	 7.86470008819339E-03 
1743	 8.03062141152019E-03 
1744	 8.19171372589231E-03 
1745	 7.53971657872939E-03 
1746	 7.3667512899183E-03 
1747	 7.30499619051605E-03 
1748	 6.81976262033655E-03 
1749	 7.13918541665314E-03 
1750	 8.44448139753361E-03 
1751	 8.40978348576803E-03 
1752	 7.91898060793242E-03 
1753	 7.92598468680765E-03 
1754	 7.66350093240415E-03 
1755	 7.49593331468782E-03 
1756	 7.70930395672903E-03 
1757	 7.24559728756114E-03 
1758	 6.17555211708266E-03 
1759	 5.76268974559962E-03 
1760	 6.79238942553434E-03 
1761	 7.11478780283799E-03 
1762	 7.17006166502468E-03 
1763	 7.58561470329094E-03 
1764	 7.50744795407027E-03 
1765	 7.50269238728529E-03 
1766	 7.59444431187261E-03 
1767	 7.14350327123378E-03 
1768	 6.72559826626922E-03 
1769	 7.1935884157014E-03 
1770	 7.95648842884703E-03 
1771	 8.58118616426801E-03 
1772	 8.81901558130323E-03 
1773	 7.64268076718698E-03 
1774	 6.47118632161481E-03 
1775	 6.10975064242458E-03 
1776	 6.03452183198919E-03 
1777	 7.54851653986458E-03 
1778	 8.19764728012942E-03 
1779	 8.39504142616181E-03 
1780	 8.29789195687798E-03 
1781	 6.89139572722886E-03 
1782	 6.67891058766123E-03 
1783	 7.25049634004237E-03 
1784	 7.97079692443878E-03 
1785	 1.09464891401722E-02 
1786	 1.07825230579488E-02 
1787	 7.44630674051225E-03 
1788	 6.65121092003193E-03 
1789	 4.9058087894774E-03 
1790	 4.72007851529412E-03 
1791	 6.02331223219991E-03 
1792	 6.2953956356827E-03 
1793	 8.14956313608207E-03 
1794	 1.04952513196748E-02 
1795	 1.26804942636522E-02 
1796	 0.010154421577924 
1797	 4.06451993759429E-03 
1798	 3.2376257475012E-03 
1799	 1.7391858039936E-03 
1800	-7.98195828865873E-04 
1801	-7.89462517187698E-04 
1802	-6.80166533158687E-03 
1803	-7.14258081141086E-03 
1804	 1.51723173185461E-02 
1805	 2.00930579755135E-02 
1806	 7.53192699617165E-03 
1807	 5.09114752339478E-03 
1808	-1.90982371154202E-02 
1809	-2.74603114983782E-02 
1810	 4.26895767229613E-03 
1811	 7.4726337115471E-03 
1812	-1.13316782271318E-02 
1813	 4.59298555234118E-03 
1814	 5.39769444064937E-02 
1815	 6.75274687831831E-02 
1816	 0.102261896225448 
1817	 6.05038477437993E-02 
1818	-6.26027412141149E-02 
1819	-5.25773157709005E-02 
1820	 2.51344774947254E-02 
1821	 0.118310587077594 
1822	 0.184051240969054 
1823	 0.183552925152697 
1824	 0.185770848997373 
1825	 0.105278099650074 
1826	 7.81332950320515E-02 
1827	 0.132100246598398 
1828	 0.10225649759458 
1829	-9.58240176728977E-03 
1830	-0.122414249992151 
1831	 3.33998312099899 
1832	 4.61415239821463 
1833	-1.3068259788005 
1834	-1.16582092063636 
1835	-2.94698026073975 
1836	-2.73008273194757 
1837	-4.18632871236038 
1838	-26.9756781343914 
1839	 4.76945667186124 
1840	 8.44621577637139 
1841	 4.24294198751388 
1842	 2.44303380456659 
1843	 3.31711559228194 
1844	-0.901088028786703 
1845	-0.658222701401071 
1846	-0.281763995690731 
1847	-0.197063091240033 
1848	 19.6392240304798 
1849	 0.936666634336058 
1850	 1.05745406708361 
1851	 1.40486221167141 
1852	 1.29451646259878 
1853	 0.731472533731581 
1854	 0.397048196745629 
1855	-1.11537847174568E-02 
1856	-0.181785085846438 
1857	-12.3094663112132 
1858	 55.776333753832 
1859	-18.0332319027003 
1860	-10.0720649207921 
1861	 7.64702861454071 
1862	 26.7720499740269 
1863	 15.6815542002979 
1864	 1.5411645969737 
1865	 1.39708545861309 
1866	-1.66517970928547 
1867	-1.69482885921732 
1868	 2.62134640744155 
1869	 2.61966152542273 
1870	 1.49543488586936 
1871	 1.54200953955137 
1872	-7.88070305042703 
1873	-1.97299494879993 
1874	-2.83922149493201 
1875	-10.3443156638685 
1876	-75.3404742456863 
1877	 1.95294288375606 
1878	 1.46031947171751 
1879	-0.531929950680253 
1880	 0.270214140521687 
1881	 1.44181210804228 
1882	 4.66569781282513 
1883	-1.19526565044582 
1884	-0.243031544632403 
1885	-0.120574854945729 
1886	-1.19793394079545 
1887	-9.13624835247949E-02 
1888	-0.3816360445773 
1889	-0.459486854472726 
1890	-0.483547801327642 
1891	-0.327843681954764 
1892	-0.050327098632674 
1893	 0.181616732011562 
1894	 1.31048187505395 
1895	 18.5316297797688 
1896	-21.5052537732263 
1897	 7.85949283408521 
1898	 4.30952868057986 
1899	 4.56812548787405 
1900	 6.48754237105079 
1901	 3.34205699761893 
1902	 4.29189411075726 
1903	-9.81133889492322 
1904	-4.49268112925527 
1905	 7.08740685497528 
1906	-1.45491185998965 
1907	 0.127805079177172 
1908	 9.59951005247574E-02 
1909	 0.156373261271559 
1910	 0.106699176211771 
1911	 0.393018783367899 
1912	 0.433018655058639 
1913	 0.304601177829399 
1914	 0.040958564249382 
1915	-9.80724303368883E-02 
1916	-1.73432066221466 
1917	-5.03201824242553 
1918	-1.25226457344453 
1919	 8.94884195541713E-02 
1920	-3.99316597769211E-02 
1921	-0.463006023665417 
1922	-1.15783315644917 
1923	-1.76481713974559 
1924	-1.88962311690299 
1925	-1.63693724491944 
1926	-3.16590443882468 
1927	-7.3451995953709 
1928	 3.72473755544562 
1929	 1.18246563419798 
1930	 0.55057879733259 
1931	 0.323341181709512 
1932	 0.332857956130996 
1933	 0.106970141967876 
1934	-9.75697560905474E-02 
1935	 4.09329949144715E-02 
1936	 1.57845525321875E-02 
1937	-3.93853911342553E-02 
1938	 1.93381476201781E-02 
1939	 3.71793457383747E-02 
1940	 1.81415829705501E-02 
1941	 4.72477425258412E-02 
1942	 8.18232233841899E-02 
1943	 6.94094332030392E-02 
1944	 6.46209778890457E-02 
1945	 8.73357392032574E-02 
1946	 9.38677354817775E-02 
1947	 7.63020962705854E-02 
1948	 7.31959150118538E-02 
1949	 6.00281340037895E-02 
1950	 2.46476970045647E-02 
1951	 1.86982766018144E-02 
1952	 1.57936670249081E-02 
1953	 1.59644931355864E-02 
1954	 6.63425830446759E-04 
1955	 6.44273557557673E-03 
1956	 1.24063502028621E-02 
1957	 1.12869940340656E-02 
1958	 1.28253498617613E-02 
1959	 1.23339190060217E-02 
1960	 0.014492616389355 
1961	 1.57449852369699E-02 
1962	 0.011146574580491 
1963	 6.35778875115427E-03 
1964	 4.0474581882894E-03 
1965	 1.86181270727774E-03 
1966	 1.64771135236076E-03 
1967	 3.38559557635286E-03 
1968	 6.70157851095129E-03 
1969	 5.61280461440827E-03 
1970	 4.03981633696467E-03 
1971	 4.85411816923321E-03 
1972	 5.21558494301817E-03 
1973	 5.82419180963011E-03 
1974	 5.61239777356719E-03 
1975	 3.78593223816345E-03 
1976	 2.63582311344598E-03 
1977	 2.97101904334088E-03 
1978	 3.19179127544716E-03 
1979	 3.01076654059217E-03 
1980	 3.00104574081616E-03 
1981	 2.63460219870742E-03 
1982	 2.07383158456035E-03 
1983	 2.70203912589553E-03 
1984	 3.38298562641176E-03 
1985	 3.70160547234974E-03 
1986	 4.17134158610893E-03 
1987	 3.08716601858163E-03 
1988	 1.62108919011914E-03 
1989	 1.33704612876655E-03 
1990	 1.29507918907804E-03 
1991	 1.6737727146927E-03 
1992	 3.03448901518971E-03 
1993	 4.46345726151207E-03 
1994	 4.84221036416888E-03 
1995	 3.85794996234915E-03 
1996	 2.61290671252784E-03 
1997	 2.58898569350993E-03 
1998	 1.98526067649816E-03 
1999	 2.37165158576897E-03 
2000	 5.38454878849191E-03 
2001	 5.40442837759626E-03 
2002	 4.34189183669833E-03 
2003	 3.93203147197966E-03 
2004	 1.52830870412002E-03 
2005	 4.69608266608978E-03 
2006	 1.10240684695031E-02 
2007	 1.23682345373457E-02 
2008	 8.87736247508814E-03 
2009	 7.18139528854933E-03 
2010	 1.60449976020671E-03 
2011	 1.41920541204389E-04 
2012	 4.88058965089021E-04 
2013	 3.33056308135635E-03 
2014	 6.28197166406886E-03 
2015	 5.80062463612154E-03 
2016	 3.1779599640012E-03 
2017	 3.77271392887748E-03 
2018	 5.03490294357322E-03 
2019	 4.72335969519775E-03 
2020	 3.83956640868386E-03 
2021	 4.06273009188021E-03 
2022	 5.57690816758211E-03 
2023	 5.69044585890964E-03 
2024	 5.55123477271609E-03 
2025	 6.63250771088272E-03 
2026	 6.19239472695393E-03 
2027	 4.20734605280517E-03 
2028	 2.82280297767272E-03 
2029	 2.50544119806979E-03 
2030	 2.28773726357001E-03 
2031	 2.86561889565701E-03 
2032	 3.78206925941453E-03 
2033	 4.22500571467263E-03 
2034	 4.23881742803341E-03 
2035	 4.17706781371941E-03 
2036	 3.97180957445066E-03 
2037	 3.36377489776196E-03 
2038	 3.17183066048349E-03 
2039	 2.98834617796198E-03 
2040	 2.18212140021709E-03 
2041	 2.21494279828488E-03 
2042	 3.33500784029164E-03 
2043	 3.66180692653696E-03 
2044	 4.00372190697932E-03 
2045	 3.95291938203423E-03 
2046	 3.93508446415138E-03 
2047	 3.9381990663164E-03 
2048	 3.74769484063016E-03 
2049	 4.17097364651389E-03 
2050	 4.15282724944537E-03 
2051	 3.73542358789888E-03 
2052	 3.66506348661462E-03 
2053	 3.71829250055633E-03 
2054	 3.6704121774545E-03 
2055	 3.57764832113434E-03 
2056	 3.09147903373668E-03 
2057	 1.37708861019876E-03 
2058	 1.21584741592844E-03 
2059	 2.19466780257334E-03 
2060	 2.11032422233717E-03 
2061	 2.12677963617983E-03 
2062	 2.74907760019591E-03 
2063	 1.75363634542755E-03 
2064	 1.28729666716468E-03 
2065	 2.18330841629012E-03 
2066	 2.91658828903535E-03 
2067	 4.36120657591004E-03 
2068	 5.31244818677636E-03 
2069	 4.22878560578661E-03 
2070	 3.71009528612976E-03 
2071	 4.60747148796229E-03 
2072	 4.30449895296524E-03 
2073	 4.09155672496251E-03 
2074	 4.79805803653288E-03 
2075	 5.02654542979033E-03 
2076	 4.40075753503878E-03 
2077	 3.9818236557083E-03 
2078	 3.73519302734683E-03 
2079	 3.5962998206259E-03 
2080	 2.96098916014375E-03 
2081	 3.00679873010784E-03 
2082	 3.80571356972161E-03 
2083	 4.06207777417667E-03 
2084	 4.04999536880822E-03 
2085	 4.15872438089879E-03 
2086	 4.32567821839291E-03 
2087	 4.77086533233792E-03 
2088	 4.63821040946706E-03 
2089	 4.31417728956059E-03 
2090	 4.37409878232534E-03 
2091	 4.03963459030562E-03 
2092	 3.6072764777573E-03 
2093	 3.05497876642195E-03 
2094	 3.37155000483646E-03 
2095	 3.8150958148815E-03 
2096	 3.95484074256906E-03 
2097	 5.00749383801253E-03 
2098	 5.4684637269904E-03 
2099	 5.14180941319741E-03 
2100	 4.9993423497727E-03 
2101	 5.17358368741931E-03 
2102	 5.25906759915051E-03 
2103	 4.22126235755318E-03 
2104	 3.00805120169839E-03 
2105	 2.37625386511159E-03 
2106	 1.59553934242262E-03 
2107	 1.6786843924293E-03 
2108	 2.51831280974137E-03 
2109	 3.03039522443767E-03 
2110	 3.68790506483759E-03 
2111	 4.93044593787527E-03 
2112	 5.43855693542419E-03 
2113	 5.67587414477861E-03 
2114	 6.19971659618567E-03 
2115	 6.1474027181358E-03 
2116	 4.77235320319261E-03 
2117	 4.26525631745327E-03 
2118	 4.01459830500458E-03 
2119	 3.47454526754995E-03 
2120	 2.31326565114539E-03 
2121	 2.89220471348854E-03 
2122	 4.21348750153938E-03 
2123	 5.00054759568677E-03 
2124	 5.67631148949435E-03 
2125	 5.51154677403278E-03 
2126	 4.04606079180313E-03 
2127	 3.05783531654069E-03 
2128	 2.64078139895669E-03 
2129	 2.88129578933883E-03 
2130	 3.5060312484324E-03 
2131	 0.003453263514049 
2132	 3.36960343213582E-03 
2133	 3.00672625746768E-03 
2134	 2.72491233034882E-03 
2135	 1.96127374408447E-03 
2136	 2.13137015177116E-03 
2137	 3.00319868224673E-03 
2138	 3.25199277544228E-03 
2139	 3.60070827408465E-03 
2140	 3.75269653816222E-03 
2141	 3.46909759778229E-03 
2142	 3.57685969629185E-03 
2143	 4.11762987007828E-03 
2144	 4.16570311096197E-03 
2145	 4.0234700523669E-03 
2146	 3.80132505165229E-03 
2147	 3.3915656056647E-03 
2148	 3.91166078675103E-03 
2149	 5.08295740710083E-03 
2150	 5.46020384818586E-03 
2151	 4.36172577961895E-03 
2152	 2.68626981708673E-03 
2153	 0.002971689128132 
2154	 3.40082194951841E-03 
2155	 3.02951760359528E-03 
2156	 4.30648721824956E-03 
2157	 4.90725319059626E-03 
2158	 3.46003158929285E-03 
2159	 3.35788652419778E-03 
2160	 5.31688731395129E-03 
2161	 5.82085331724246E-03 
2162	 5.35942049674229E-03 
2163	 4.8702303466959E-03 
2164	 0.003904534486589 
2165	 3.71045034073754E-03 
2166	 3.5986662954158E-03 
2167	 3.65772672322397E-03 
2168	 4.58224397444428E-03 
2169	 4.62544463815079E-03 
2170	 3.90360716129283E-03 
2171	 3.47793476291179E-03 
2172	 3.23114359280747E-03 
2173	 2.74857124821615E-03 
2174	 2.1923215015514E-03 
2175	 2.09907198535264E-03 
2176	 1.61864530970797E-03 
2177	 1.82847664584012E-03 
2178	 3.11919710865274E-03 
2179	 3.46278920559356E-03 
2180	 2.74987052343648E-03 
2181	 2.76463879150493E-03 
2182	 3.38729499200844E-03 
2183	 3.26266615402637E-03 
2184	 4.25417477180039E-03 
2185	 5.53087979201966E-03 
2186	 5.73475915731698E-03 
2187	 3.97931958534902E-03 
2188	 4.23084497818684E-03 
2189	 5.39435037189849E-03 
2190	 6.04013565876843E-03 
2191	 7.46776351868906E-03 
2192	 7.68569523188384E-03 
2193	 5.97826870529467E-03 
2194	 6.5549542837394E-03 
2195	 9.71199132213355E-03 
2196	 9.76467158037497E-03 
2197	 8.93222525831824E-03 
2198	 8.39778671207205E-03 
2199	 6.17043615143438E-03 
2200	 2.22964475329761E-03 
2201	 1.88391191340566E-03 
2202	 3.41494448440591E-03 
2203	 3.17850225514628E-03 
2204	 3.99843806018383E-03 
2205	 4.74896343141613E-03 
2206	 2.72805961775739E-03 
2207	 1.67057543734033E-03 
2208	 2.69105631597553E-03 
2209	 2.76560054314906E-03 
2210	 2.49797236550454E-03 
2211	 2.5388232924633E-03 
2212	 2.50874354626882E-03 
2213	 3.33819671766724E-03 
2214	 5.1994333353623E-03 
2215	 5.71984492898702E-03 
2216	 4.78011586689589E-03 
2217	 3.75676238505768E-03 
2218	 4.20540702483146E-04 
2219	 2.57225366762571E-04 
2220	 1.82315536881959E-03 
2221	 2.60617498466348E-03 
2222	 5.29310191444453E-03 
2223	 6.09364379419124E-03 
2224	 4.88132434297016E-03 
2225	 4.9690498113445E-03 
2226	 5.67496122395463E-03 
2227	 5.32021693023493E-03 
2228	 4.88150881401255E-03 
2229	 4.5071864573837E-03 
2230	 2.42832165871843E-03 
2231	 1.86940317343239E-03 
2232	 3.22188089264065E-03 
2233	 3.46838117183304E-03 
2234	 2.91309030788872E-03 
2235	 3.85480577441392E-03 
2236	 5.71510985717977E-03 
2237	 5.47213489721208E-03 
2238	 6.08218797864139E-03 
2239	 7.06478701949682E-03 
2240	 5.78495501818144E-03 
2241	 4.55663749369288E-03 
2242	 3.87158246222763E-03 
2243	 3.11559906948488E-03 
2244	 4.80440167255107E-03 
2245	 6.45619205623384E-03 
2246	 5.86887967525979E-03 
2247	 6.15756172705572E-03 
2248	 6.61832522148643E-03 
2249	 5.5453341256756E-03 
2250	 5.1571665936477E-03 
2251	 6.78655105957265E-03 
2252	 6.16580126621794E-03 
2253	 4.26690801703921E-03 
2254	 5.55647350424631E-03 
2255	 6.41270280809273E-03 
2256	 5.46459739980077E-03 
2257	 6.56916724096563E-03 
2258	 7.08373286585339E-03 
2259	 5.90284505014929E-03 
2260	 5.99517825520479E-03 
2261	 6.96422746694034E-03 
2262	 7.35546701198419E-03 
2263	 8.62628300650142E-03 
2264	 7.95941001146857E-03 
2265	 5.50057665769742E-03 
2266	 5.50678247720832E-03 
2267	 4.88908990529193E-03 
2268	 4.86780678654631E-03 
2269	 8.09847979243028E-03 
2270	 8.56015744333944E-03 
2271	 6.74465157308512E-03 
2272	 6.65284175192164E-03 
2273	 6.3669765540867E-03 
2274	 5.74544397228415E-03 
2275	 6.51814722656767E-03 
2276	 5.88498710932864E-03 
2277	 3.53645299858495E-03 
2278	 2.8106351595624E-03 
2279	 2.4513990952735E-03 
2280	 1.16692531024356E-03 
2281	-6.90487257411533E-04 
2282	-6.45761548607054E-04 
2283	 2.12362506413714E-03 
2284	 3.73833558890256E-03 
2285	 6.43365593561495E-03 
2286	 9.93083354450265E-03 
2287	 6.47948453379032E-03 
2288	 2.94897025889133E-03 
2289	 6.50882013132128E-03 
2290	 7.99182840396362E-03 
2291	 6.58862724400713E-03 
2292	 7.86188714378649E-03 
2293	 6.40458649840136E-03 
2294	 4.02444645148933E-03 
2295	 4.47633729542692E-03 
2296	 3.86622574123345E-03 
2297	 5.16724190213625E-03 
2298	 3.81646090339106E-03 
2299	-6.31458265674106E-04 
2300	 3.04839946740352E-03 
2301	 5.91120170521659E-03 
2302	 2.60065368727947E-03 
2303	 4.03679551723573E-03 
2304	 6.40562284211546E-03 
2305	 4.59148744160992E-03 
2306	 5.32681759883116E-03 
2307	 8.46379873950703E-03 
2308	 7.82335218947671E-03 
2309	 5.4299043421034E-03 
2310	 4.40338214005175E-03 
2311	 3.43598403600593E-03 
2312	 2.98126014704459E-03 
2313	 2.98096998302256E-03 
2314	 4.33658049842296E-03 
2315	 7.41583415554937E-03 
2316	 8.5531681943969E-03 
2317	 7.77386255304347E-03 
2318	 5.4141448684175E-03 
2319	 8.6958599321983E-04 
2320	-5.07189041811747E-04 
2321	 1.95930809332724E-03 
2322	 2.95651702724606E-03 
2323	 3.7675468513594E-03 
2324	 7.99027343139645E-03 
2325	 1.07298524248578E-02 
2326	 1.12124641391066E-02 
2327	 1.28346248233754E-02 
2328	 0.011948557299519 
2329	 7.48949702715632E-03 
2330	 5.58245710549876E-03 
2331	 5.49100940957845E-03 
2332	 9.31869115685602E-04 
2333	-5.05960071607403E-04 
2334	 1.53528096513302E-03 
2335	 1.71455989138198E-03 
2336	 0.003944297880977 
2337	 6.78589724113576E-03 
2338	 9.8166100990607E-03 
2339	 1.17987661003102E-02 
2340	 8.93272452249289E-03 
2341	 5.99782892775643E-03 
2342	 3.42052540660183E-03 
2343	-1.78963716605398E-03 
2344	-1.45691908301584E-03 
2345	 5.6078670793216E-03 
2346	 1.26831358030438E-02 
2347	 1.76489846447981E-02 
2348	 2.23723150223337E-02 
2349	 1.80946424575497E-02 
2350	 8.16455780859251E-03 
2351	 7.32470868649777E-03 
2352	 6.69575717271785E-03 
2353	 6.26609366638757E-05 
2354	-5.59187816326352E-03 
2355	-9.46307611373831E-03 
2356	-0.012899263265449 
2357	-2.77503152828712E-03 
2358	 8.79340683084438E-03 
2359	 1.34019050508329E-02 
2360	 2.58756884523579E-02 
2361	 2.79252362743717E-02 
2362	 1.75264862193324E-02 
2363	 1.17612185680699E-02 
2364	 4.61327098737957E-03 
2365	-6.9406781672998E-03 
2366	-9.41094001153957E-03 
2367	-4.7011177590403E-03 
2368	-1.56621720829076E-02 
2369	-1.56844148461682E-02 
2370	 3.92791023647871E-03 
2371	 2.81663839335755E-03 
2372	-2.07160469134026E-03 
2373	 5.13082820613778E-03 
2374	-5.51621663827011E-03 
2375	-0.014384872996285 
2376	 6.00674641257124E-03 
2377	 1.77615937225451E-03 
2378	-1.55678356317995E-02 
2379	-1.16544377892982E-02 
2380	-2.11617287111711E-02 
2381	-1.85228283736293E-02 
2382	-1.88567988840091E-02 
2383	-3.08054627537506E-02 
2384	-2.94910360179104E-02 
2385	-0.029603975835737 
2386	-1.38417239169606E-02 
2387	 1.30095528802116E-03 
2388	-5.08281524636327E-03 
2389	-8.65468126649891E-03 
2390	-1.47624637318831E-02 
2391	-2.43863919781026E-02 
2392	 4.06244778966915E-03 
2393	 3.10553588732774E-02 
2394	 0.014160083211392 
2395	 1.04162087193772E-02 
2396	 3.3893982040466E-03 
2397	-3.98135929675585E-02 
2398	-5.43786573551494E-02 
2399	-4.27569629738373E-02 
2400	-3.95601755203999E-02 
2401	-4.65649199347305E-02 
2402	-3.73341642804927E-02 
2403	-1.62286460565582E-02 
2404	-1.18477360498361E-02 
2405	-2.64988509489028E-03 
2406	-8.64505335978613E-03 
2407	-1.87856270403229E-02 
2408	-0.027508926755795 
2409	-5.2457954893279E-04 
2410	 5.82128675864623E-02 
2411	 6.97938241723198E-02 
2412	 5.35470536692692E-02 
2413	 4.51933282593904E-02 
2414	 8.24609299188277E-02 
2415	 9.98531362894385E-02 
2416	 0.107377199776812 
2417	 0.106230420463357 
2418	 4.24282731969751E-02 
2419	-5.82691747568736E-03 
2420	-7.22378373781811E-04 
2421	 1.57776447040437E-02 
2422	 2.94118970973445E-02 
2423	 2.52088383986789E-02 
2424	-2.62354412266475E-02 
2425	-0.097987337371949 
2426	-0.134181803421879 
2427	-0.105218572702091 
2428	-3.00830314003396E-02 
2429	-1.21286113291238E-02 
2430	-1.89628884297679E-02 
2431	-2.36389987856838E-02 
2432	-6.86140780347843E-02 
2433	-8.07841786952601E-02 
2434	-9.72226147015246E-02 
2435	-0.16105670826398 
2436	-0.180968906492395 
2437	-0.122387640663805 
2438	-2.52553603859163E-02 
2439	 7.71426331674558E-02 
2440	 0.164864229918682 
2441	 0.171976949470747 
2442	 1.92725369806528E-02 
2443	-0.121541642532176 
2444	-0.115563413637071 
2445	-4.02293970557944E-02 
2446	 5.71451460183482E-02 
2447	 0.144318584105929 
2448	 0.199940356776 
2449	 0.151288440187253 
2450	 0.15610852048066 
2451	 0.241542804533485 
2452	 0.378802886315471 
2453	 0.301468595726799 
2454	 0.247827938299147 
2455	 9.78738146404635E-02 
2456	-0.321388229226393 
2457	-0.357591508820176 
2458	-0.123195362422533 
2459	-5.06728052231873E-02 
2460	-7.06087972283649E-02 
2461	-6.01225473825604E-02 
2462	-0.130714547499707 
2463	-8.98931047791176E-02 
2464	-7.73930495565763E-03 
2465	 7.82669893298861E-02 
2466	-0.224946796766859 
2467	-0.974294539369907 
2468	-1.52932463073993 
2469	-0.989292240691213 
2470	-0.582731434369837 
2471	 0.099164502555014 
2472	-13.6835804986722 
2473	-82.2721898038347 
2474	-3.69486281046136 
2475	 8.81285618815389 
2476	 1.65346593764173E-02 
2477	-1.03866132249974 
2478	-0.904822306756126 
2479	-0.258343257728447 
2480	-0.168715442247963 
2481	 0.746494881673097 
2482	 0.588400153799226 
2483	 0.151879390165958 
2484	 0.195619816627284 
2485	 0.14200042687072 
2486	-4.76810926347073E-02 
2487	-0.46938162556622 
2488	-0.637428532875516 
2489	-0.336748142030327 
2490	 0.520474041488678 
2491	 1.11181745056506 
2492	 0.564436792191084 
2493	 2.47875079679102 
2494	 2.38322028695217 
2495	 0.881020868785512 
2496	 0.350422877878996 
2497	-0.86747742241274 
2498	-36.0792763253254 
2499	 688.045760583536 
2500	-2.64189914728264 
