Wavelength	rt0718close00002.asd
350	 1.30888199452831E-02 
351	 1.26835140510766E-02 
352	 1.29927517699445E-02 
353	 1.37331093406931E-02 
354	 1.43307800165997E-02 
355	 1.39543258532244E-02 
356	 1.38438799215359E-02 
357	 1.39435212821063E-02 
358	 1.39121549576657E-02 
359	 1.41091621752534E-02 
360	 1.41685449516623E-02 
361	 1.41275077051009E-02 
362	 1.42717846073065E-02 
363	 1.43157243978936E-02 
364	 1.43605875120818E-02 
365	 1.45055012171711E-02 
366	 1.47871738048408E-02 
367	 1.47445816345596E-02 
368	 1.46046119422115E-02 
369	 1.46565058865887E-02 
370	 1.47164346301234E-02 
371	 1.46877599999651E-02 
372	 1.46772016186303E-02 
373	 1.48678592221563E-02 
374	 1.49553722836294E-02 
375	 1.51562559310463E-02 
376	 1.56486445635891E-02 
377	 1.64699932253417E-02 
378	 1.60528155785595E-02 
379	 1.56343985260732E-02 
380	 1.63408383273823E-02 
381	 1.68688048622856E-02 
382	 1.66608930040864E-02 
383	 1.62146459059439E-02 
384	 1.64347761799645E-02 
385	 0.016847877208711 
386	 1.73079885860805E-02 
387	 1.75486357383978E-02 
388	 1.72058222637035E-02 
389	 0.017330961422325 
390	 1.74813149892362E-02 
391	 0.017320439249579 
392	 1.75018299824421E-02 
393	 1.77510723862919E-02 
394	 1.80605929785722E-02 
395	 1.84220019144143E-02 
396	 1.82725243487565E-02 
397	 1.84316815946689E-02 
398	 1.89108341707774E-02 
399	 1.90138921460204E-02 
400	 1.91248709019258E-02 
401	 0.019184658267479 
402	 1.91754768672733E-02 
403	 1.93231157159769E-02 
404	 1.94743401571069E-02 
405	 1.95026687229637E-02 
406	 1.93903004683225E-02 
407	 1.96382770315944E-02 
408	 1.99799822346852E-02 
409	 2.01752210099252E-02 
410	 2.00929915923074E-02 
411	 2.02457950957177E-02 
412	 2.05519573375887E-02 
413	 2.07941443320075E-02 
414	 2.06633849112163E-02 
415	 2.08798456085489E-02 
416	 2.12362171863025E-02 
417	 2.12577418075148E-02 
418	 2.13856106892777E-02 
419	 2.15226392730155E-02 
420	 2.16894961429949E-02 
421	 2.20575141456783E-02 
422	 2.21749948713148E-02 
423	 2.22676683327316E-02 
424	 2.25259583905771E-02 
425	 2.26116897525428E-02 
426	 2.28848621202677E-02 
427	 2.32165119725943E-02 
428	 2.33147837218148E-02 
429	 2.35455793808469E-02 
430	 2.38994090432857E-02 
431	 2.42752395031337E-02 
432	 2.45166034661461E-02 
433	 0.024822811477821 
434	 2.50701916345448E-02 
435	 2.52021719545202E-02 
436	 2.55945372705489E-02 
437	 2.57864917125467E-02 
438	 2.59225119432974E-02 
439	 2.63923435904199E-02 
440	 2.66014310070201E-02 
441	 2.68259718883583E-02 
442	 0.027177644650695 
443	 2.73882714656831E-02 
444	 2.76655874055591E-02 
445	 2.79392974404346E-02 
446	 2.81252806364517E-02 
447	 0.028392197698807 
448	 2.85944147545407E-02 
449	 2.87568819297017E-02 
450	 2.90158324978184E-02 
451	 2.91645556054568E-02 
452	 2.93401297580299E-02 
453	 2.95969175966562E-02 
454	 2.97141314814223E-02 
455	 2.98922674120115E-02 
456	 3.00431320956883E-02 
457	 3.00585485440794E-02 
458	 3.02995521613721E-02 
459	 3.04587963146151E-02 
460	 3.05067713373906E-02 
461	 3.07108982625137E-02 
462	 3.08346238340359E-02 
463	 3.09593450463523E-02 
464	 3.11404237530605E-02 
465	 3.11713147075397E-02 
466	 3.13434278974784E-02 
467	 3.15440685654597E-02 
468	 3.15309921617487E-02 
469	 3.17120284723297E-02 
470	 3.18603979599442E-02 
471	 3.19207474136517E-02 
472	 3.21393464487585E-02 
473	 3.23536788595693E-02 
474	 3.24843625880477E-02 
475	 3.25477377534681E-02 
476	 3.28212565409647E-02 
477	 3.30182550904135E-02 
478	 3.31545434459428E-02 
479	 3.34283654465239E-02 
480	 3.35475388259772E-02 
481	 3.36743551645377E-02 
482	 3.39258330894929E-02 
483	 3.42129815951394E-02 
484	 3.44418295805566E-02 
485	 3.46308760634106E-02 
486	 3.48495636034237E-02 
487	 3.51558904419648E-02 
488	 3.53763771342797E-02 
489	 3.55583130206301E-02 
490	 3.59508756089992E-02 
491	 3.61462636274231E-02 
492	 3.63450077912211E-02 
493	 3.67177475431357E-02 
494	 3.70362017520048E-02 
495	 3.73098531381674E-02 
496	 3.75753724028253E-02 
497	 3.78884841277886E-02 
498	 3.82862874383822E-02 
499	 3.86113615057625E-02 
500	 3.88437336649421E-02 
501	 3.91997614968816E-02 
502	 3.95744739913073E-02 
503	 0.039958669153631 
504	 4.03559273882506E-02 
505	 4.07261388089085E-02 
506	 4.10300669171316E-02 
507	 0.04133531016401 
508	 4.17712749626878E-02 
509	 4.20600317610953E-02 
510	 4.23600923116789E-02 
511	 4.28007131458968E-02 
512	 4.33019369002232E-02 
513	 4.36931325434934E-02 
514	 4.40107439409468E-02 
515	 4.43939478960957E-02 
516	 0.044935449666718 
517	 4.54685982189292E-02 
518	 4.59000190872281E-02 
519	 4.62635136660344E-02 
520	 0.046682839076854 
521	 4.71449430031808E-02 
522	 4.76195489817053E-02 
523	 4.81464876780322E-02 
524	 4.86269031714878E-02 
525	 4.90643997015736E-02 
526	 4.95381737278188E-02 
527	 5.00581148844984E-02 
528	 0.050562289588361 
529	 5.10272977485758E-02 
530	 5.15282060149268E-02 
531	 5.20201414114033E-02 
532	 5.25349409597828E-02 
533	 5.31008407982671E-02 
534	 5.35628363534868E-02 
535	 5.41032694661942E-02 
536	 5.47044034093236E-02 
537	 5.51034330367081E-02 
538	 5.56619804615399E-02 
539	 5.62820554631064E-02 
540	 5.68243982500962E-02 
541	 5.74065578804636E-02 
542	 5.79374244336303E-02 
543	 5.84392559230196E-02 
544	 5.89968299598051E-02 
545	 5.95280262886542E-02 
546	 6.00872432955733E-02 
547	 6.06717385486163E-02 
548	 6.11269216520267E-02 
549	 6.16967454405883E-02 
550	 6.22992779563148E-02 
551	 6.27838048959366E-02 
552	 0.063319065521691 
553	 6.38619027732283E-02 
554	 6.43980525429927E-02 
555	 6.49555431826883E-02 
556	 6.55193838847388E-02 
557	 6.60488755990762E-02 
558	 6.65273762186986E-02 
559	 6.70530804389361E-02 
560	 6.75726110570096E-02 
561	 6.80492331627997E-02 
562	 6.84723897742244E-02 
563	 6.89536880427339E-02 
564	 6.94286681342235E-02 
565	 6.98443295965739E-02 
566	 7.02159872530528E-02 
567	 7.05725471108455E-02 
568	 7.09556834589862E-02 
569	 7.13713476726948E-02 
570	 7.16182065690669E-02 
571	 7.18846831622251E-02 
572	 7.22309472095968E-02 
573	 0.072553167058841 
574	 0.072805707314627 
575	 0.073019207206854 
576	 7.32226019357476E-02 
577	 0.073372382469515 
578	 7.34851296256735E-02 
579	 7.36136389742579E-02 
580	 7.38066882702131E-02 
581	 7.38438067147233E-02 
582	 7.38959649474088E-02 
583	 7.40137501750838E-02 
584	 7.39295539365063E-02 
585	 7.39070526003083E-02 
586	 7.38808948325108E-02 
587	 7.37148400255929E-02 
588	 7.35861908690129E-02 
589	 0.073501035165456 
590	 7.33940182179106E-02 
591	 7.31453893697605E-02 
592	 7.30185749187791E-02 
593	 7.28240428581251E-02 
594	 7.24113149370094E-02 
595	 7.20348381559182E-02 
596	 7.15232397089255E-02 
597	 7.09409170361476E-02 
598	 7.04619414595617E-02 
599	 6.98847145199062E-02 
600	 6.93170502233651E-02 
601	 6.88751565261854E-02 
602	 6.86213362919392E-02 
603	 6.84976511075726E-02 
604	 6.84372699478893E-02 
605	 6.83857545517595E-02 
606	 0.068370222229613 
607	 0.06832818688935 
608	 0.06831858246682 
609	 6.85110832598972E-02 
610	 6.85129711696662E-02 
611	 6.84555337042241E-02 
612	 6.84953428524939E-02 
613	 6.85146322845061E-02 
614	 6.85394995423964E-02 
615	 6.85605712611987E-02 
616	 6.85616076332573E-02 
617	 6.86455360710258E-02 
618	 6.86573319590979E-02 
619	 6.85556077433891E-02 
620	 6.85162197367581E-02 
621	 6.85641375956338E-02 
622	 6.86402615964984E-02 
623	 6.86519561799771E-02 
624	 0.068533638265821 
625	 6.84128348786954E-02 
626	 6.83751613938168E-02 
627	 6.84473847646044E-02 
628	 6.84808683400798E-02 
629	 6.84661576797097E-02 
630	 6.84408430368259E-02 
631	 6.84909899525182E-02 
632	 6.84606154538463E-02 
633	 6.83598379907931E-02 
634	 6.82899457723346E-02 
635	 6.83591179244696E-02 
636	 6.84267432640436E-02 
637	 6.84055054332088E-02 
638	 6.83174871866991E-02 
639	 0.068251808872595 
640	 0.068208716837209 
641	 6.81743680802163E-02 
642	 6.82177068076453E-02 
643	 6.81731978472854E-02 
644	 6.80326923350542E-02 
645	 6.79192831726478E-02 
646	 6.78226128472687E-02 
647	 6.77570886871226E-02 
648	 6.77108727976104E-02 
649	 6.76097900479647E-02 
650	 6.75061490202425E-02 
651	 6.73398380597691E-02 
652	 6.70448310266839E-02 
653	 6.67785720639595E-02 
654	 6.64347647803308E-02 
655	 6.59889420829264E-02 
656	 6.56139051749588E-02 
657	 6.52491380385607E-02 
658	 6.49079313610395E-02 
659	 6.46085688377298E-02 
660	 6.43885242304818E-02 
661	 6.41484629948228E-02 
662	 6.39354879875169E-02 
663	 6.38643901319987E-02 
664	 0.063673394967491 
665	 6.35348569432629E-02 
666	 6.35159851362669E-02 
667	 6.33984155022097E-02 
668	 6.33450910530717E-02 
669	 6.33197370072363E-02 
670	 6.32451890262952E-02 
671	 6.31676088157866E-02 
672	 6.31706059792913E-02 
673	 6.31976735720766E-02 
674	 6.30807186930738E-02 
675	 6.31341421544083E-02 
676	 6.32226773272534E-02 
677	 0.063215954442785 
678	 6.32108038812935E-02 
679	 6.32482452765899E-02 
680	 6.32906389232746E-02 
681	 6.32832626612828E-02 
682	 6.33629069902342E-02 
683	 6.33834255439961E-02 
684	 6.33026036135317E-02 
685	 6.32395812805245E-02 
686	 6.32509202607014E-02 
687	 6.32335724450306E-02 
688	 6.30926413054268E-02 
689	 6.29424255908084E-02 
690	 6.28361599065156E-02 
691	 6.26655193895928E-02 
692	 6.22548914903316E-02 
693	 6.19243511522138E-02 
694	 6.16125467667018E-02 
695	 6.12458978248225E-02 
696	 6.07907753201362E-02 
697	 0.060253134421692 
698	 5.96806960153371E-02 
699	 5.91411705240226E-02 
700	 5.85654219993714E-02 
701	 5.78050591310902E-02 
702	 5.69832951922625E-02 
703	 5.63832320832215E-02 
704	 5.56755799686268E-02 
705	 5.48282953741375E-02 
706	 5.39102396937341E-02 
707	 5.30695600763823E-02 
708	 5.20051495974703E-02 
709	 5.08549978492674E-02 
710	 4.98409286746059E-02 
711	 4.86747508350562E-02 
712	 4.73589443194631E-02 
713	 4.59722013089885E-02 
714	 4.46171349001269E-02 
715	 4.32774342265956E-02 
716	 4.18284431400471E-02 
717	 4.02625728534867E-02 
718	 3.87242960004066E-02 
719	 3.71379860294491E-02 
720	 3.57909685401618E-02 
721	 3.46765120226282E-02 
722	 0.03331532531763 
723	 3.18685444025083E-02 
724	 3.05381640600783E-02 
725	 2.90705752357991E-02 
726	 2.75262022289712E-02 
727	 2.59616824302304E-02 
728	 0.024401665787543 
729	 2.26738467865132E-02 
730	 2.09376593231876E-02 
731	 1.94123976805751E-02 
732	 1.82021182144268E-02 
733	 1.71900756365186E-02 
734	 1.62542253627512E-02 
735	 1.54128982802858E-02 
736	 1.48432700440138E-02 
737	 1.44547743593139E-02 
738	 0.014137330548636 
739	 1.38314883375791E-02 
740	 1.36203615548925E-02 
741	 1.34923133937429E-02 
742	 1.34201704983006E-02 
743	 1.33666317231585E-02 
744	 1.33136036915349E-02 
745	 1.32826624532264E-02 
746	 1.32643054052441E-02 
747	 1.32016160383556E-02 
748	 1.31781274167492E-02 
749	 1.31880339202911E-02 
750	 1.31989031772565E-02 
751	 1.31789290054857E-02 
752	 1.31087334823269E-02 
753	 0.013088951013801 
754	 1.32354570418842E-02 
755	 1.32293095284536E-02 
756	 1.32334847071932E-02 
757	 1.33053241809452E-02 
758	 0.013275658010506 
759	 1.31805683246778E-02 
760	 1.31804883362107E-02 
761	 1.33820177144397E-02 
762	 0.013477240451532 
763	 1.33387810228072E-02 
764	 1.32883392545897E-02 
765	 1.35646521653711E-02 
766	 1.35565775343049E-02 
767	 1.36361229744235E-02 
768	 1.38224557390532E-02 
769	 1.37912773182924E-02 
770	 1.38988241759014E-02 
771	 1.40746641383923E-02 
772	 1.41962861674768E-02 
773	 1.42346811200386E-02 
774	 1.43293311767174E-02 
775	 1.44919664659425E-02 
776	 1.46750643285611E-02 
777	 1.48789950254378E-02 
778	 1.49757109286552E-02 
779	 1.50644800331554E-02 
780	 1.54450455153264E-02 
781	 1.56366654683493E-02 
782	 1.57495280484618E-02 
783	 1.59432412694094E-02 
784	 1.62456738498093E-02 
785	 1.64399315848642E-02 
786	 1.66298686759797E-02 
787	 1.69653123085681E-02 
788	 1.71750894773555E-02 
789	 1.74377236405906E-02 
790	 1.77268047720976E-02 
791	 1.78754726229623E-02 
792	 1.82191265751882E-02 
793	 1.85396566043686E-02 
794	 1.87451874443768E-02 
795	 1.90689917787507E-02 
796	 1.93694056581192E-02 
797	 1.95975692800815E-02 
798	 1.97755490886038E-02 
799	 2.00501076740234E-02 
800	 2.02501988689759E-02 
801	 2.04405743816471E-02 
802	 0.020760564773049 
803	 2.08336801643298E-02 
804	 2.08901337916949E-02 
805	 2.09907851975663E-02 
806	 2.09579742511639E-02 
807	 0.020919477758081 
808	 0.021001846480564 
809	 2.11575700094194E-02 
810	 2.08952478456151E-02 
811	 2.06440325151462E-02 
812	 2.05065040198556E-02 
813	 2.04396518485004E-02 
814	 2.03510232412369E-02 
815	 2.00425017622617E-02 
816	 0.019544625057819 
817	 1.90998495396308E-02 
818	 1.89561827054792E-02 
819	 1.87449196288593E-02 
820	 1.82509954505129E-02 
821	 1.75204141416041E-02 
822	 1.67533752274967E-02 
823	 0.016071070863888 
824	 1.54370247879453E-02 
825	 1.44848358042499E-02 
826	 0.013563690597049 
827	 0.012659003054186 
828	 1.17002826433725E-02 
829	 1.07681423129269E-02 
830	 0.01012517117859 
831	 9.68723335219217E-03 
832	 9.16463736836064E-03 
833	 8.81999606821534E-03 
834	 8.50136738212199E-03 
835	 8.18872117306582E-03 
836	 8.09065119554483E-03 
837	 7.85431653024468E-03 
838	 7.60973469200549E-03 
839	 7.5078477329344E-03 
840	 7.48008060417415E-03 
841	 7.41112994391036E-03 
842	 7.29085003544309E-03 
843	 7.13920176434128E-03 
844	 6.84435318329044E-03 
845	 6.84741163094898E-03 
846	 6.99901907101609E-03 
847	 6.79734047049492E-03 
848	 6.63028078716879E-03 
849	 6.52398587487416E-03 
850	 6.44306517759671E-03 
851	 6.32860180842555E-03 
852	 6.33852926474146E-03 
853	 6.24935586402415E-03 
854	 6.03782189246531E-03 
855	 6.26602790902995E-03 
856	 6.20127141941686E-03 
857	 5.91292979740021E-03 
858	 5.69917641273474E-03 
859	 5.8111400857904E-03 
860	 5.8094208563809E-03 
861	 5.68424386050951E-03 
862	 5.64660718490542E-03 
863	 5.74283089970277E-03 
864	 5.64252692995871E-03 
865	 5.41061105168908E-03 
866	 5.44903352241858E-03 
867	 5.44089072867028E-03 
868	 5.3714833693688E-03 
869	 5.27141522467912E-03 
870	 5.17423218700641E-03 
871	 5.07075992251307E-03 
872	 5.08094236729889E-03 
873	 5.16356701390373E-03 
874	 4.85707914517792E-03 
875	 4.79517808911412E-03 
876	 4.81829415723446E-03 
877	 4.67088112197758E-03 
878	 4.71791497420344E-03 
879	 4.75327268245495E-03 
880	 4.61500999541119E-03 
881	 4.27397435452167E-03 
882	 4.19303607025772E-03 
883	 4.28083040372395E-03 
884	 4.28327842864264E-03 
885	 3.94880519101334E-03 
886	 3.83082882321516E-03 
887	 3.97934277698933E-03 
888	 4.18513258347708E-03 
889	 4.05999040020195E-03 
890	 3.87871133826067E-03 
891	 3.84838290654676E-03 
892	 3.99773747687334E-03 
893	 4.04574153928112E-03 
894	 3.7850003431985E-03 
895	 3.60825759526386E-03 
896	 3.84504803228053E-03 
897	 4.04020021823071E-03 
898	 3.69068086200536E-03 
899	 3.2001662950416E-03 
900	 3.15455968669448E-03 
901	 3.48468526768593E-03 
902	 3.47680918365182E-03 
903	 3.13050363247311E-03 
904	 2.82377753443063E-03 
905	 3.19254127825012E-03 
906	 3.49497084058224E-03 
907	 3.39071638181839E-03 
908	 2.97403208977307E-03 
909	 2.78023101081311E-03 
910	 3.03088990603445E-03 
911	 3.59089516370899E-03 
912	 3.99463937788381E-03 
913	 3.39562200464867E-03 
914	 3.13817774813062E-03 
915	 3.48002828864617E-03 
916	 3.21673535565001E-03 
917	 2.87910289564896E-03 
918	 2.69261901940523E-03 
919	 2.69489175254099E-03 
920	 2.7430058972523E-03 
921	 2.94778984093411E-03 
922	 2.98095379511935E-03 
923	 2.77658212083327E-03 
924	 2.97009937228942E-03 
925	 3.09424429629367E-03 
926	 3.07423539527947E-03 
927	 2.75717441505521E-03 
928	 1.20306309693942E-03 
929	 1.74572964456609E-03 
930	 2.93100084105629E-03 
931	 1.42976384423797E-03 
932	 2.77242034448171E-03 
933	 2.49320107599766E-03 
934	 1.27221627884547E-03 
935	 1.5752040466341E-03 
936	-4.37320721118579E-04 
937	 1.90723646210958E-04 
938	 2.59869696091698E-03 
939	 4.04225014260187E-03 
940	 2.09476257487446E-03 
941	 1.84033312244887E-03 
942	 2.42741433796359E-03 
943	 7.82901228632293E-04 
944	 3.94102531732515E-04 
945	 1.2578605115704E-03 
946	 1.59183142169003E-03 
947	 2.93719464514634E-05 
948	 2.55873689193719E-03 
949	 3.91966003311535E-03 
950	 3.16677828201854E-03 
951	 2.74128194645732E-03 
952	 5.25874574296882E-03 
953	 3.63495383489968E-03 
954	 1.75533640462262E-04 
955	 2.32727709897137E-03 
956	 3.22252587098575E-03 
957	 1.4049881547018E-03 
958	 3.01308474748066E-04 
959	 4.22835654850569E-03 
960	 2.69740835701507E-03 
961	 6.1189160002381E-04 
962	 4.55306436688076E-04 
963	 1.46495550707362E-03 
964	 2.50343236948809E-03 
965	 3.32687885723636E-03 
966	 3.16704311387005E-03 
967	 1.48782666186358E-03 
968	 2.77686696823798E-03 
969	 3.89740057375185E-03 
970	 3.83993967741864E-03 
971	 3.86188482555103E-03 
972	 2.2105550099498E-03 
973	 1.6630191202314E-03 
974	 2.48752781883719E-03 
975	 2.23549505553865E-03 
976	 1.56249890049657E-03 
977	 1.75089431092673E-03 
978	 2.2498267656544E-03 
979	 1.44439484467404E-03 
980	 2.82292012233747E-03 
981	 3.58068082866162E-03 
982	 2.47388036330404E-03 
983	 6.63633471742925E-04 
984	 2.45767663015861E-03 
985	 3.88998841479239E-03 
986	 3.73819549958739E-03 
987	 3.56462187936464E-03 
988	 2.61766347976886E-03 
989	 2.36640678153782E-03 
990	 3.04933387455141E-03 
991	 3.6810742246724E-03 
992	 3.19057817991459E-03 
993	 1.98229210669724E-03 
994	 1.26895235468254E-03 
995	 2.16774414036466E-03 
996	 2.80953056505269E-03 
997	 3.12410153862082E-03 
998	 2.92534461604039E-03 
999	 2.27505013530504E-03 
1000	 3.0404967995149E-03 
1001	 2.59947424384468E-03 
1002	 2.59711893481831E-03 
1003	 2.60635110964577E-03 
1004	 2.42261598980626E-03 
1005	 2.35878979686605E-03 
1006	 2.51103691561999E-03 
1007	 2.4326130846138E-03 
1008	 2.33513948791321E-03 
1009	 1.85121655970776E-03 
1010	 1.46289053057113E-03 
1011	 1.21582229758389E-03 
1012	 1.21563854103236E-03 
1013	 1.63764204132996E-03 
1014	 1.95675576637547E-03 
1015	 2.69945880415206E-03 
1016	 2.94080272311364E-03 
1017	 2.90306146620172E-03 
1018	 2.91491484521997E-03 
1019	 2.78458435337113E-03 
1020	 2.68185139995355E-03 
1021	 2.46978335871902E-03 
1022	 2.45766595397816E-03 
1023	 2.57539057698051E-03 
1024	 2.46788503899648E-03 
1025	 2.65401163366354E-03 
1026	 2.75358355655276E-03 
1027	 2.62723256904233E-03 
1028	 2.23260327148772E-03 
1029	 2.11004994891099E-03 
1030	 1.88319505903465E-03 
1031	 1.87595215257841E-03 
1032	 2.17708686536025E-03 
1033	 2.26845134772812E-03 
1034	 2.38508676642556E-03 
1035	 2.40732838018283E-03 
1036	 2.26682952731082E-03 
1037	 2.24112919277895E-03 
1038	 2.27469736381621E-03 
1039	 2.15294459937017E-03 
1040	 2.32838406344926E-03 
1041	 2.43084735415668E-03 
1042	 2.51058380211823E-03 
1043	 2.68264559924015E-03 
1044	 2.67608278304544E-03 
1045	 2.46346621914304E-03 
1046	 2.46549888032899E-03 
1047	 2.57059405837572E-03 
1048	 2.49825509122657E-03 
1049	 2.33240498578571E-03 
1050	 2.34756770678747E-03 
1051	 2.31863157111023E-03 
1052	 2.31172429835935E-03 
1053	 2.55748490019845E-03 
1054	 2.67308657859616E-03 
1055	 2.69037881791481E-03 
1056	 0.002664043090041 
1057	 2.60164313910729E-03 
1058	 2.51794433697836E-03 
1059	 2.44446104510467E-03 
1060	 2.29792279525618E-03 
1061	 2.18718923024224E-03 
1062	 2.09381367930844E-03 
1063	 2.04154744369154E-03 
1064	 1.9012434592853E-03 
1065	 1.95443773765384E-03 
1066	 2.12288230056283E-03 
1067	 2.36351814810932E-03 
1068	 3.01606110849624E-03 
1069	 3.17416052325298E-03 
1070	 3.12579251292998E-03 
1071	 3.07510882811884E-03 
1072	 2.65957494180324E-03 
1073	 2.26226465222804E-03 
1074	 2.21304639045987E-03 
1075	 2.44451787151345E-03 
1076	 2.50732712120697E-03 
1077	 2.77299883280917E-03 
1078	 2.76603579766321E-03 
1079	 2.5072302123931E-03 
1080	 2.41595746696928E-03 
1081	 2.2955973052762E-03 
1082	 2.21575348979799E-03 
1083	 2.24081440789544E-03 
1084	 2.23416223328581E-03 
1085	 2.10731431242023E-03 
1086	 2.14411087781447E-03 
1087	 2.45308566741766E-03 
1088	 2.48086951308484E-03 
1089	 2.29609266737738E-03 
1090	 2.38757906584344E-03 
1091	 2.35316208104902E-03 
1092	 2.10453394646241E-03 
1093	 2.06625805121034E-03 
1094	 2.18977220514604E-03 
1095	 2.23650579522833E-03 
1096	 2.23988501078377E-03 
1097	 2.31343031884401E-03 
1098	 2.62905913430507E-03 
1099	 2.59473847736722E-03 
1100	 2.2816286350859E-03 
1101	 2.17080505600469E-03 
1102	 1.68454255421232E-03 
1103	 1.70224188438749E-03 
1104	 2.50829465289049E-03 
1105	 2.79883713846283E-03 
1106	 2.47486578213889E-03 
1107	 2.4603978453793E-03 
1108	 1.86018492262098E-03 
1109	 1.41483896618821E-03 
1110	 1.44925971113252E-03 
1111	 2.4148033205695E-03 
1112	 2.58331933239356E-03 
1113	 2.93474629310486E-03 
1114	 2.83374453758543E-03 
1115	 0.001634872172472 
1116	 1.15511751250825E-03 
1117	 1.95122381623157E-04 
1118	-1.56002408344815E-04 
1119	 1.84928529835865E-03 
1120	 2.40345811032792E-03 
1121	 2.46907800522065E-03 
1122	 1.86931413076524E-03 
1123	 1.82952718706653E-03 
1124	 7.79216343999748E-04 
1125	 1.21789828836125E-03 
1126	 3.09013953016022E-03 
1127	 2.13724276001104E-03 
1128	-6.80876501891685E-04 
1129	-4.54866198308057E-04 
1130	 1.92176308531731E-03 
1131	 1.37312045238901E-03 
1132	-3.32214745480743E-04 
1133	 7.45080787697759E-04 
1134	 2.78262280924039E-03 
1135	 2.0324268057771E-03 
1136	 1.2974796960088E-03 
1137	 1.29519766621122E-03 
1138	-3.72114718944288E-04 
1139	-1.5752904210993E-03 
1140	-1.7985872153463E-04 
1141	 2.01017229887324E-03 
1142	 2.32654775230445E-03 
1143	 1.35175046732285E-03 
1144	 9.59437690538534E-04 
1145	 1.25388062392936E-03 
1146	 8.41160211603419E-04 
1147	 2.25660278066827E-04 
1148	 6.79484044022785E-04 
1149	 1.32807869863932E-03 
1150	 1.22906671533381E-03 
1151	 1.21780889804801E-03 
1152	 1.5482498035378E-03 
1153	 1.21259004180963E-03 
1154	 1.25543825391038E-03 
1155	 1.83049185108952E-03 
1156	 2.45886134220319E-03 
1157	 2.15119371710365E-03 
1158	 1.83682010153122E-03 
1159	 1.86578014194928E-03 
1160	 2.02037257558703E-03 
1161	 2.08811009189804E-03 
1162	 0.001945866257294 
1163	 1.83811072425363E-03 
1164	 2.02642783188367E-03 
1165	 2.11269097817792E-03 
1166	 1.92763621795286E-03 
1167	 2.04491746688973E-03 
1168	 2.13354987120039E-03 
1169	 1.99034132948568E-03 
1170	 2.20425498002949E-03 
1171	 2.35232942176066E-03 
1172	 2.4448095051132E-03 
1173	 2.26371670836029E-03 
1174	 1.94377856948357E-03 
1175	 1.91116754106091E-03 
1176	 1.82837927496157E-03 
1177	 1.8326387575499E-03 
1178	 0.002126867188856 
1179	 2.23928717627467E-03 
1180	 2.06401318530344E-03 
1181	 1.94316380393329E-03 
1182	 2.13233881014436E-03 
1183	 2.26038286035654E-03 
1184	 2.1340250639149E-03 
1185	 2.26049723135299E-03 
1186	 2.31463896485152E-03 
1187	 2.10708257503275E-03 
1188	 2.27111891640929E-03 
1189	 2.34274088135194E-03 
1190	 1.82125342237534E-03 
1191	 1.51616173450605E-03 
1192	 1.5133951130277E-03 
1193	 1.73165038214393E-03 
1194	 1.61995466948246E-03 
1195	 1.64599725969717E-03 
1196	 1.8858945535456E-03 
1197	 1.71121477662372E-03 
1198	 1.66582851149105E-03 
1199	 1.8168920353626E-03 
1200	 1.78341529287697E-03 
1201	 1.84204826423454E-03 
1202	 1.96296102560968E-03 
1203	 2.10326430167204E-03 
1204	 2.19818993825097E-03 
1205	 2.02743705517159E-03 
1206	 1.86880965151455E-03 
1207	 2.07542355757225E-03 
1208	 2.14367893883711E-03 
1209	 2.03920079072175E-03 
1210	 2.07218026038118E-03 
1211	 1.85419503907067E-03 
1212	 1.78400511935903E-03 
1213	 2.11261384825688E-03 
1214	 2.20737349782768E-03 
1215	 2.21756353873828E-03 
1216	 2.17260810251723E-03 
1217	 2.2620617539419E-03 
1218	 2.16635001511147E-03 
1219	 2.02796576569355E-03 
1220	 1.93662602593661E-03 
1221	 1.84708140052571E-03 
1222	 1.92470800052819E-03 
1223	 1.84412109146493E-03 
1224	 1.66247874017289E-03 
1225	 1.77721456542674E-03 
1226	 1.77661048797312E-03 
1227	 1.82526190809213E-03 
1228	 2.03520492924948E-03 
1229	 1.93368164770042E-03 
1230	 1.89459989553941E-03 
1231	 2.01149422881817E-03 
1232	 1.9979014807652E-03 
1233	 1.95089056760288E-03 
1234	 1.81084833920263E-03 
1235	 1.81354551353282E-03 
1236	 2.03336414387116E-03 
1237	 2.02841576711087E-03 
1238	 2.0076984567368E-03 
1239	 1.88861670744375E-03 
1240	 1.86089315748236E-03 
1241	 1.91363595795941E-03 
1242	 2.03191356297289E-03 
1243	 2.20366732434619E-03 
1244	 2.25242705042123E-03 
1245	 2.05888844906908E-03 
1246	 2.00809009060851E-03 
1247	 2.12704856739047E-03 
1248	 1.99553596580807E-03 
1249	 1.83551358677818E-03 
1250	 1.96183460032878E-03 
1251	 2.09340112703499E-03 
1252	 2.05441137839025E-03 
1253	 1.92666843873562E-03 
1254	 1.94153948453581E-03 
1255	 2.14827206245441E-03 
1256	 2.11618691436828E-03 
1257	 2.0644748712337E-03 
1258	 2.07889043116429E-03 
1259	 1.93263997947251E-03 
1260	 1.85031098636262E-03 
1261	 1.95520688687969E-03 
1262	 1.9997067389664E-03 
1263	 1.98574622089978E-03 
1264	 1.88355715034936E-03 
1265	 2.02005995087274E-03 
1266	 2.32983484796247E-03 
1267	 2.24470065943257E-03 
1268	 1.78475879473695E-03 
1269	 1.62134984439094E-03 
1270	 1.79860527696072E-03 
1271	 2.07645680136563E-03 
1272	 2.28769877989447E-03 
1273	 2.10772398443276E-03 
1274	 1.84637284217798E-03 
1275	 1.84383236114817E-03 
1276	 1.9565977730283E-03 
1277	 2.0093444788484E-03 
1278	 1.92720238871622E-03 
1279	 1.84635113845883E-03 
1280	 1.82487992222841E-03 
1281	 1.82257185823394E-03 
1282	 1.92136048451293E-03 
1283	 1.9420234996348E-03 
1284	 1.90326415371854E-03 
1285	 1.92629058271179E-03 
1286	 2.00676212443178E-03 
1287	 2.01074838246208E-03 
1288	 1.96428075620246E-03 
1289	 1.98576846323316E-03 
1290	 0.002009387053546 
1291	 2.01597359732276E-03 
1292	 2.14067168660367E-03 
1293	 2.13790635234765E-03 
1294	 2.02071318372528E-03 
1295	 1.92166484056672E-03 
1296	 1.88652704155749E-03 
1297	 1.94557777278217E-03 
1298	 1.77060698443589E-03 
1299	 1.81232313260696E-03 
1300	 2.0935755121829E-03 
1301	 1.92612521605814E-03 
1302	 1.71836759581183E-03 
1303	 1.75697717819722E-03 
1304	 1.79783520786239E-03 
1305	 1.76751150302416E-03 
1306	 1.71851321650555E-03 
1307	 2.01546606124593E-03 
1308	 2.09150702702007E-03 
1309	 1.70122544729838E-03 
1310	 1.64169034446848E-03 
1311	 0.001977428123233 
1312	 0.001968862844434 
1313	 1.69239590300241E-03 
1314	 1.71209428043833E-03 
1315	 1.8609172267726E-03 
1316	 1.84812901481599E-03 
1317	 1.87344515994562E-03 
1318	 1.91935251974561E-03 
1319	 1.79139418604543E-03 
1320	 1.75033578368187E-03 
1321	 1.73687745212003E-03 
1322	 2.11781093205067E-03 
1323	 1.85082220700108E-03 
1324	 1.19872331109614E-03 
1325	 1.15909320463736E-03 
1326	 1.25411346382588E-03 
1327	 1.3109988234857E-03 
1328	 1.66538866887107E-03 
1329	 2.04068907382557E-03 
1330	 1.99650055839499E-03 
1331	 1.70263773622456E-03 
1332	 2.13673214093012E-03 
1333	 2.50255619706761E-03 
1334	 1.55047888324748E-03 
1335	 1.05281529541119E-03 
1336	 6.67903457662965E-04 
1337	 5.95175507184604E-04 
1338	 4.26578374357364E-04 
1339	 2.89198669752405E-04 
1340	 8.24584480367325E-04 
1341	 1.22751825175101E-03 
1342	 0.001224752566756 
1343	 1.05214645526214E-03 
1344	 1.12482098249867E-03 
1345	 8.44091608501765E-04 
1346	-2.97915192531555E-04 
1347	-8.96683609756725E-04 
1348	-9.66275763255506E-04 
1349	-1.87669341371884E-03 
1350	-6.23414114891752E-03 
1351	-7.82738317644451E-03 
1352	 7.24060979618763E-04 
1353	 2.61988133022249E-03 
1354	 1.17213186229576E-03 
1355	-4.64591096393956E-03 
1356	-1.76698318141502E-02 
1357	-4.06361401976593E-02 
1358	-6.69883325902924E-02 
1359	-4.07243576599891E-02 
1360	 3.96729322634649E-02 
1361	-1.10557481071754E-02 
1362	-0.136523452671031 
1363	-0.104182790938348 
1364	-6.29116478025908E-02 
1365	-8.23341724862297E-02 
1366	-9.19716318710555E-02 
1367	-0.183619078428057 
1368	-0.200929215163732 
1369	-0.346886330805264 
1370	-0.397388877787594 
1371	-0.265972268961998 
1372	-0.204660404375803 
1373	-0.220859679704787 
1374	-0.260184139921658 
1375	-0.271665658488511 
1376	-0.192294820132687 
1377	-0.186306228823562 
1378	-0.183580182183666 
1379	-7.04115407274644E-02 
1380	-5.17350211343687E-02 
1381	-0.104478348703714 
1382	-0.106821239002367 
1383	-6.97544861898018E-02 
1384	-9.56001082666265E-02 
1385	-0.261878797825127 
1386	-0.390212166107748 
1387	-0.607604130134736 
1388	-0.524011643065253 
1389	 0.197722811089215 
1390	 0.262844312468594 
1391	-0.144769710698523 
1392	-0.337832940987023 
1393	-0.167047055781585 
1394	-0.162482459718771 
1395	-0.164991306562037 
1396	-4.27619838547035E-02 
1397	-0.138698524257706 
1398	-0.46364726422932 
1399	-0.3046857736325 
1400	-6.93231774718561E-02 
1401	-6.16600089228055E-02 
1402	 5.39393983789343E-02 
1403	-6.71350942524536E-02 
1404	-0.203055997585314 
1405	-0.151829707490436 
1406	-9.93558119033558E-02 
1407	-0.148890474654818 
1408	-0.135603102807019 
1409	-0.099358294732161 
1410	-0.149657287214171 
1411	-0.124033319805037 
1412	-9.21983026234936E-03 
1413	 1.73254264943303E-02 
1414	 1.62573376598316E-02 
1415	 1.00943785553556E-02 
1416	-1.53140189377129E-02 
1417	-1.66176182753922E-02 
1418	-1.25305867201324E-02 
1419	-1.81261330056501E-02 
1420	-2.25178011027422E-02 
1421	-1.74408665300621E-02 
1422	-1.09316141757825E-02 
1423	-1.22096731753955E-02 
1424	-1.58008552443529E-02 
1425	-1.11865948048358E-02 
1426	-7.20489854026125E-03 
1427	-6.14330968655762E-03 
1428	 1.86250635250721E-03 
1429	 5.60612116413364E-03 
1430	 4.36617365904277E-03 
1431	 2.0492194912578E-03 
1432	-2.18341556332723E-03 
1433	-3.16428110561082E-03 
1434	-6.25836274938801E-03 
1435	-6.50855398997059E-03 
1436	-3.84791000451422E-03 
1437	 2.23497029264512E-03 
1438	 1.00572048780875E-02 
1439	 1.21387143426564E-02 
1440	 9.78315120383712E-03 
1441	 7.3704679811614E-03 
1442	 1.94418572471919E-03 
1443	-2.62090487453103E-03 
1444	-1.92434971750007E-03 
1445	 5.73313413064455E-04 
1446	 1.37292349613529E-03 
1447	 3.90520427385787E-05 
1448	-6.77092171732299E-04 
1449	-1.25930629234108E-04 
1450	 5.24201651291521E-04 
1451	 1.24264108227461E-03 
1452	 2.38799169699678E-03 
1453	 3.31955030002478E-03 
1454	 3.1863290391084E-03 
1455	 2.56847682463218E-03 
1456	 2.38561297709329E-03 
1457	 1.77267548577246E-03 
1458	 1.50738240789877E-03 
1459	 1.61404701038485E-03 
1460	 1.50483667444708E-03 
1461	 1.34145386321172E-03 
1462	 1.02469021892481E-03 
1463	 3.12962026955325E-04 
1464	 3.25588233830506E-04 
1465	 6.26643628745855E-04 
1466	 7.55709281084221E-04 
1467	 1.60941899516451E-03 
1468	 1.85796774810907E-03 
1469	 1.4323741680016E-03 
1470	 1.08511065371071E-03 
1471	 8.82164253420817E-04 
1472	 4.35205670446633E-04 
1473	-8.60613231147408E-04 
1474	-8.95506358461423E-04 
1475	 1.85560610050636E-04 
1476	 4.28264214974185E-05 
1477	-7.14975173228349E-04 
1478	-1.13820865099078E-04 
1479	 1.26018045494308E-03 
1480	 7.43681374558094E-04 
1481	-4.9720875030512E-04 
1482	-9.63784898790205E-05 
1483	-2.31611167925874E-04 
1484	-1.05611372136446E-04 
1485	 2.00617827820925E-03 
1486	 2.47630931669916E-03 
1487	 1.43566295034022E-03 
1488	 1.1909123723087E-03 
1489	 1.14363356499432E-03 
1490	 9.60927290171649E-04 
1491	 4.61883167552611E-04 
1492	 8.03936477650776E-04 
1493	 2.09100454013046E-03 
1494	 2.05912485207736E-03 
1495	 1.47514604022392E-03 
1496	 1.49924967956365E-03 
1497	 1.14807056009651E-03 
1498	 8.9575684662378E-04 
1499	 1.27551921742572E-03 
1500	 1.47570067921308E-03 
1501	 1.25941139428564E-03 
1502	 1.11460884231593E-03 
1503	 1.24709485838845E-03 
1504	 1.30512220772942E-03 
1505	 1.23133579524828E-03 
1506	 1.0060474010543E-03 
1507	 1.10907502041086E-03 
1508	 1.16353288155496E-03 
1509	 9.49204114358335E-04 
1510	 9.47683663519469E-04 
1511	 1.11211103361335E-03 
1512	 1.20539919135773E-03 
1513	 1.23197012834184E-03 
1514	 1.22238494564472E-03 
1515	 1.27873737967471E-03 
1516	 1.30604251054053E-03 
1517	 1.31348711777614E-03 
1518	 1.54208672785312E-03 
1519	 1.63303968059631E-03 
1520	 1.42886125243343E-03 
1521	 1.29416863145324E-03 
1522	 1.3063097900267E-03 
1523	 1.45937571355475E-03 
1524	 1.42301043993616E-03 
1525	 1.22662642763747E-03 
1526	 1.24169420649919E-03 
1527	 1.22873614197345E-03 
1528	 1.0984267344284E-03 
1529	 1.18457687425755E-03 
1530	 1.31074830261972E-03 
1531	 1.21377311218493E-03 
1532	 1.26996223799105E-03 
1533	 1.34900220058068E-03 
1534	 1.2416285847038E-03 
1535	 0.001279344506151 
1536	 1.37507858113477E-03 
1537	 1.4393440433539E-03 
1538	 1.49682652239585E-03 
1539	 1.49721869093122E-03 
1540	 1.48187231318129E-03 
1541	 1.46602462837121E-03 
1542	 1.5455800621751E-03 
1543	 1.6413022432601E-03 
1544	 1.61819502320263E-03 
1545	 1.56678414218775E-03 
1546	 1.48703579005777E-03 
1547	 1.37827085331173E-03 
1548	 1.33007177903646E-03 
1549	 1.25818115576387E-03 
1550	 1.26342588437486E-03 
1551	 1.37265647241571E-03 
1552	 1.26431610165531E-03 
1553	 1.13875647193261E-03 
1554	 1.23787020494498E-03 
1555	 1.2961153317475E-03 
1556	 1.29047780966884E-03 
1557	 1.32923821627133E-03 
1558	 1.33706270733829E-03 
1559	 1.42267394543874E-03 
1560	 1.54950193365871E-03 
1561	 1.53149992355471E-03 
1562	 1.51806222619305E-03 
1563	 1.52633221287728E-03 
1564	 1.48546593982504E-03 
1565	 1.51794501827922E-03 
1566	 1.50814851638441E-03 
1567	 1.2928913494497E-03 
1568	 1.09801163545661E-03 
1569	 1.14027112910147E-03 
1570	 1.33010467123913E-03 
1571	 1.38559848160785E-03 
1572	 1.24418854092738E-03 
1573	 1.31694775829921E-03 
1574	 1.50045173579033E-03 
1575	 1.44028191707035E-03 
1576	 1.53188692463155E-03 
1577	 1.73955092448403E-03 
1578	 1.6316095871819E-03 
1579	 1.39322280234916E-03 
1580	 1.37870850477904E-03 
1581	 1.49470784607068E-03 
1582	 1.37721386483281E-03 
1583	 1.24538771725327E-03 
1584	 1.24606184652615E-03 
1585	 1.09233119125394E-03 
1586	 1.08055310673246E-03 
1587	 1.48297763673208E-03 
1588	 1.67935857662656E-03 
1589	 1.38497219603758E-03 
1590	 1.31727418528808E-03 
1591	 1.5072978997986E-03 
1592	 1.38322294673588E-03 
1593	 1.21771064327414E-03 
1594	 1.22795977084882E-03 
1595	 1.09406682698321E-03 
1596	 1.03026536264212E-03 
1597	 1.39356662528523E-03 
1598	 1.68924871931145E-03 
1599	 1.63969842750174E-03 
1600	 1.65161688692562E-03 
1601	 1.71898823271991E-03 
1602	 1.65679909323901E-03 
1603	 1.54222597838201E-03 
1604	 1.54489177539999E-03 
1605	 1.6337601947776E-03 
1606	 1.60067331348704E-03 
1607	 1.48359649990889E-03 
1608	 1.37047516528501E-03 
1609	 1.28067532642655E-03 
1610	 1.28277951159072E-03 
1611	 1.32255043104806E-03 
1612	 1.42107230143906E-03 
1613	 1.51529003534918E-03 
1614	 1.5237617069368E-03 
1615	 1.63711745971044E-03 
1616	 1.50402976264338E-03 
1617	 1.1165963415583E-03 
1618	 1.13275913574884E-03 
1619	 1.26424562127157E-03 
1620	 1.2699686920143E-03 
1621	 1.51561766935428E-03 
1622	 1.69079430590019E-03 
1623	 1.41541442753695E-03 
1624	 1.34785970733208E-03 
1625	 1.64094910284329E-03 
1626	 1.43713953463262E-03 
1627	 1.18061727584554E-03 
1628	 1.56885145672508E-03 
1629	 1.81382474124693E-03 
1630	 1.50559900657798E-03 
1631	 1.35628878632031E-03 
1632	 1.48782863700198E-03 
1633	 1.31012666571542E-03 
1634	 1.23680816230101E-03 
1635	 1.64238587481247E-03 
1636	 1.59981927901273E-03 
1637	 1.22104089048167E-03 
1638	 1.59213667428973E-03 
1639	 1.97168346589237E-03 
1640	 1.59294774998637E-03 
1641	 1.36287563032368E-03 
1642	 1.44950422832115E-03 
1643	 1.51388554341957E-03 
1644	 1.53735627081321E-03 
1645	 1.52171863500645E-03 
1646	 1.66095872768565E-03 
1647	 1.54465003789495E-03 
1648	 1.38606574359808E-03 
1649	 1.75223567275064E-03 
1650	 1.6641287763169E-03 
1651	 1.01491949445651E-03 
1652	 9.07960617082158E-04 
1653	 1.27736074895615E-03 
1654	 1.23905791415675E-03 
1655	 1.34530406780077E-03 
1656	 1.52001083080369E-03 
1657	 1.31766749401433E-03 
1658	 1.28217860068077E-03 
1659	 1.81292232633721E-03 
1660	 1.79986586916554E-03 
1661	 1.11577569894038E-03 
1662	 1.0679067800872E-03 
1663	 1.35349183482502E-03 
1664	 1.31661658346491E-03 
1665	 1.35154891316056E-03 
1666	 1.46097391835721E-03 
1667	 1.35727978527399E-03 
1668	 1.4020478136141E-03 
1669	 1.56621983998098E-03 
1670	 1.20431084452227E-03 
1671	 9.62037322024675E-04 
1672	 1.23272091184203E-03 
1673	 1.31196040331601E-03 
1674	 1.44548556366702E-03 
1675	 1.5672811078205E-03 
1676	 1.4125360435945E-03 
1677	 1.48632167716985E-03 
1678	 1.6696276744471E-03 
1679	 1.50318713734297E-03 
1680	 1.21593708600439E-03 
1681	 1.20681762612699E-03 
1682	 1.46293444442362E-03 
1683	 1.72183322696385E-03 
1684	 1.84125786542941E-03 
1685	 1.78791920086267E-03 
1686	 1.54387887455722E-03 
1687	 1.39547572631315E-03 
1688	 1.33018931563833E-03 
1689	 1.2163446826443E-03 
1690	 1.46089084152227E-03 
1691	 1.75070789698882E-03 
1692	 1.68669117487086E-03 
1693	 1.56059783091415E-03 
1694	 1.27327148732402E-03 
1695	 1.09370636507779E-03 
1696	 1.48828261987123E-03 
1697	 1.74737770151585E-03 
1698	 1.59611339670076E-03 
1699	 1.63413932247705E-03 
1700	 1.6363146620916E-03 
1701	 1.70469422663792E-03 
1702	 1.95432733657596E-03 
1703	 1.62930894002195E-03 
1704	 1.11829004864559E-03 
1705	 1.25717119082759E-03 
1706	 1.4703912193505E-03 
1707	 1.43986429605226E-03 
1708	 1.6531124744344E-03 
1709	 1.54059297116819E-03 
1710	 1.0423016952791E-03 
1711	 1.06079156611284E-03 
1712	 1.45353868842122E-03 
1713	 1.09590847737989E-03 
1714	 1.02231057433925E-03 
1715	 1.03779159583664E-03 
1716	 1.15531323537896E-03 
1717	 1.80805831234815E-03 
1718	 2.05920583513578E-03 
1719	 1.88433031796509E-03 
1720	 1.61664465186761E-03 
1721	 1.51673336545751E-03 
1722	 1.77204118491753E-03 
1723	 1.97877388701371E-03 
1724	 2.00271448621184E-03 
1725	 1.70789659296248E-03 
1726	 1.40890031990939E-03 
1727	 1.5572057753073E-03 
1728	 1.46269238402272E-03 
1729	 9.32731993972182E-04 
1730	 1.19019187430499E-03 
1731	 1.60665728728531E-03 
1732	 1.20556952951762E-03 
1733	 1.42635287527266E-03 
1734	 1.65290537581517E-03 
1735	 1.00085630888072E-03 
1736	 9.64346479820003E-04 
1737	 1.43116979327755E-03 
1738	 1.3806144036743E-03 
1739	 8.57681240230329E-04 
1740	 9.72174446174989E-04 
1741	 1.28252225367971E-03 
1742	 7.10258499204496E-04 
1743	 8.54257486603714E-04 
1744	 1.69158034797464E-03 
1745	 1.65440028207669E-03 
1746	 2.06139295442577E-03 
1747	 2.15928945044657E-03 
1748	 9.03142516864405E-04 
1749	 5.89509643414591E-04 
1750	 1.11652891617708E-03 
1751	 9.99086828271782E-04 
1752	 9.49665458297485E-04 
1753	 1.27719462567171E-03 
1754	 1.34202583064769E-03 
1755	 1.11889159458951E-03 
1756	 9.84335572882497E-04 
1757	 8.05754843162701E-04 
1758	 1.41551473551172E-03 
1759	 1.87991915747877E-03 
1760	 1.57083712744825E-03 
1761	 1.07678527426634E-03 
1762	 5.57317077889155E-04 
1763	 9.54456891347294E-04 
1764	 1.7381192856405E-03 
1765	 1.98886248141404E-03 
1766	 1.81708496824358E-03 
1767	 6.76061780308433E-04 
1768	 2.43388791875601E-04 
1769	 1.12584563196829E-03 
1770	 9.52332752683991E-04 
1771	 1.22167915102501E-03 
1772	 1.92743207948569E-03 
1773	 1.18531600578862E-03 
1774	 1.69955326993552E-03 
1775	 2.65181309029327E-03 
1776	 2.41495423036078E-03 
1777	 4.63030722304502E-04 
1778	-1.43728599127235E-04 
1779	-2.56865622983923E-04 
1780	-2.3116738081614E-04 
1781	 1.4629252333239E-03 
1782	 1.89358293736986E-03 
1783	 6.38181434022585E-04 
1784	 6.25915823909524E-04 
1785	 1.19565361130351E-03 
1786	 1.11901221600685E-03 
1787	 1.78676014773773E-03 
1788	 2.12877266774898E-03 
1789	 1.23500038286025E-03 
1790	 1.94324299881199E-03 
1791	 6.20796459164685E-04 
1792	-5.1004861689713E-04 
1793	 1.09018766802821E-03 
1794	 7.26339317423313E-04 
1795	 1.01460834859193E-03 
1796	 4.02886390372644E-04 
1797	-2.3492662657412E-03 
1798	 2.39952550541702E-03 
1799	 6.60877142731803E-03 
1800	 1.85061200099715E-03 
1801	 5.50884586774917E-04 
1802	-1.10850414271005E-02 
1803	-0.018432357478717 
1804	-9.92734532912207E-03 
1805	-1.53968941557174E-02 
1806	-4.25061815402703E-02 
1807	-4.83869584082268E-02 
1808	-3.42904234817417E-02 
1809	-3.22698324450219E-02 
1810	-4.1444012196733E-03 
1811	 1.66776585699857E-03 
1812	-4.80751665459351E-02 
1813	-6.42939565266095E-02 
1814	-3.14709442210436E-02 
1815	-0.066293893044525 
1816	-0.181203939592104 
1817	-0.179777563353848 
1818	-0.181901154460443 
1819	-0.236297701609393 
1820	-0.251593091702027 
1821	-0.40332967667517 
1822	-0.424473726583811 
1823	 0.393187845173495 
1824	 0.490317741327104 
1825	 0.157652738141101 
1826	 3.9841246665859E-04 
1827	-0.583947395631084 
1828	-0.744307453179429 
1829	-0.510227452990127 
1830	-0.457976359641023 
1831	 1.22256785920678 
1832	 0.659468249524611 
1833	-1.36553941447775E-02 
1834	-1.34586402072141E-03 
1835	 0.403360554842075 
1836	 0.566478661707155 
1837	 1.86404502738878 
1838	 1.96007475330065 
1839	 0.895003943131891 
1840	-6.14722266244741E-02 
1841	-0.128971683801343 
1842	-0.189026479823718 
1843	-0.406025413100054 
1844	-0.286300164108956 
1845	-1.0674287353231 
1846	 0.8733561959832 
1847	 0.284012411732603 
1848	-0.102854900522607 
1849	 0.200579377897653 
1850	 4.1697156432191 
1851	 0.180361854601256 
1852	 0.276241482460204 
1853	 0.514401569895344 
1854	 0.462373832000116 
1855	 4.38123082631612E-02 
1856	 0.300878393824391 
1857	 4.07071451811389 
1858	-7.02337963497312 
1859	-1.13263677066417 
1860	-1.44714632833359 
1861	-1.85201059602511 
1862	-1.23548862806502 
1863	-1.31281766484132 
1864	-1.36450618451297 
1865	-4.32371888688186 
1866	 1.48260370743644 
1867	 1.07974804086375 
1868	 1.11477291911748 
1869	 1.0623282226444 
1870	 0.856103836031069 
1871	 1.87074171529445 
1872	 6.64469422569142 
1873	-14.0738944538401 
1874	 0.893525397608465 
1875	 1.25144520248758 
1876	 1.02191030831641 
1877	 0.078351970472318 
1878	 1.90926170441053E-02 
1879	 0.407913547650474 
1880	 1.83059862151204 
1881	 3.4421636396802 
1882	 4.82966533125158 
1883	-5.26860892516801 
1884	 18.0648695868998 
1885	 3.60587472516792 
1886	-6.91281497087492 
1887	 1.81689682642152 
1888	 1.80062424484361 
1889	 2.11574612148493 
1890	 3.13482335981809 
1891	 2.73888320441815 
1892	 3.71813468670344 
1893	 2.37244708330883 
1894	-0.202310394151381 
1895	-0.198735322836389 
1896	 0.109357565635084 
1897	 0.368732348631415 
1898	 0.654253384997675 
1899	 1.87738127484256 
1900	 2.11788443082544 
1901	-2.2033567743713 
1902	-8.00184479909564 
1903	-2.55848588098615 
1904	-1.34901268194616 
1905	 0.448911334526249 
1906	 75.5355595501033 
1907	-22.0485568111808 
1908	-12.3427737527406 
1909	-1.7713880278933 
1910	-2.58702734614958 
1911	-3.9490428366612 
1912	-5.76731151653923 
1913	-3.93182703694504 
1914	-1.45863498472753 
1915	-0.995335881161363 
1916	-0.925197369050476 
1917	-1.23096488835313 
1918	-1.15307570610565 
1919	-2.4788719931931 
1920	 7.04673844371674 
1921	 0.60670916235254 
1922	 0.227861474443311 
1923	-10.472093464722 
1924	-7.77308398453468 
1925	 3.26877347952384 
1926	 2.27991314699023 
1927	 0.471567118556694 
1928	-0.49206311293971 
1929	-0.550137539268019 
1930	-0.137059658891749 
1931	 0.27728538703737 
1932	 3.20578737297009E-02 
1933	-0.17417177605244 
1934	-0.131735254659773 
1935	-9.70246394195214E-02 
1936	-5.54355935095002E-02 
1937	 9.91058060086987E-02 
1938	 0.137463481286466 
1939	 0.132871219714683 
1940	 8.19534460431968E-02 
1941	 7.43777811330896E-02 
1942	 8.08525389215025E-02 
1943	 6.39151980496774E-02 
1944	 4.68427443531336E-02 
1945	 0.063199942684254 
1946	 6.85465017964533E-02 
1947	 4.83219177676585E-02 
1948	 3.82133993064822E-02 
1949	 3.57434830438553E-02 
1950	 2.59621910343254E-02 
1951	 3.07722243005359E-02 
1952	 2.84527122949091E-02 
1953	 2.89955573045179E-02 
1954	 1.36104323215734E-02 
1955	 1.52238809320508E-02 
1956	 1.75184936856535E-02 
1957	 1.64938112172143E-02 
1958	 2.21862138364755E-02 
1959	 1.58487372592355E-02 
1960	 5.48469058971133E-03 
1961	 5.13994602207503E-03 
1962	 7.27673184501087E-03 
1963	 5.06949508926694E-03 
1964	 3.20436606256456E-03 
1965	 2.77818472317873E-03 
1966	 1.72239309265536E-03 
1967	-1.22848833577622E-03 
1968	-2.18500004152898E-03 
1969	 7.08434038975344E-04 
1970	 2.62415977874442E-03 
1971	 2.24291981615149E-03 
1972	 2.97840121111007E-03 
1973	 3.27958434958044E-03 
1974	 2.06002027952786E-03 
1975	 2.93997129665825E-03 
1976	 4.18295234368835E-03 
1977	 3.62040297176352E-03 
1978	 3.90219723308053E-03 
1979	 3.77250795864095E-03 
1980	 3.44685052745405E-03 
1981	 2.21100129612605E-03 
1982	 1.9053765015971E-03 
1983	 2.21936903884399E-03 
1984	 2.30962121182592E-03 
1985	 2.39582293706811E-03 
1986	 2.3422124585131E-03 
1987	 1.54488789892353E-03 
1988	 1.76891101362592E-05 
1989	-3.34213831696212E-04 
1990	 1.03811289762918E-03 
1991	 9.79024508596207E-04 
1992	 8.27512176230087E-04 
1993	 2.09224884689578E-03 
1994	 2.93943693997514E-03 
1995	 3.20507516064088E-03 
1996	 3.96419089714749E-03 
1997	 5.10248083690503E-03 
1998	 5.62134643026521E-03 
1999	 4.50801317804962E-03 
2000	 3.24046315018352E-03 
2001	 2.4066881952739E-03 
2002	 1.17388144768406E-03 
2003	 2.71504008588739E-03 
2004	 3.25364452055276E-03 
2005	 2.27200788914614E-03 
2006	 2.1541075601802E-03 
2007	-5.11590720164314E-04 
2008	-3.1321323852923E-03 
2009	-3.54441166634903E-03 
2010	-1.18087639708343E-03 
2011	-6.32700658990804E-05 
2012	 6.91984636270911E-04 
2013	 4.02256580359115E-03 
2014	 6.10126645845361E-03 
2015	 5.14351881427758E-03 
2016	 4.25135828753673E-03 
2017	 3.16741727323218E-03 
2018	 1.87616438443275E-03 
2019	 2.61985869952015E-03 
2020	 0.003858066315311 
2021	 2.87719064573299E-03 
2022	 2.59896684776877E-03 
2023	 3.71727064180902E-03 
2024	 3.48277528621162E-03 
2025	 2.62280555520097E-03 
2026	 2.62428047901406E-03 
2027	 2.8556695073374E-03 
2028	 1.90806235380681E-03 
2029	 1.88668699343343E-03 
2030	 2.58309047739651E-03 
2031	 2.41458812226539E-03 
2032	 1.87196701258372E-03 
2033	 2.30871158818346E-03 
2034	 2.31452427031306E-03 
2035	 1.88891182620489E-03 
2036	 2.1234345619896E-03 
2037	 2.26512605613861E-03 
2038	 2.09926950884294E-03 
2039	 1.75582196087766E-03 
2040	 1.31034629637882E-03 
2041	 1.21137369355027E-03 
2042	 9.37533324990076E-04 
2043	 8.06761050780803E-04 
2044	 1.14627187861548E-03 
2045	 1.49100139608292E-03 
2046	 1.18524450248434E-03 
2047	 4.37632220366463E-04 
2048	 1.16293469254569E-03 
2049	 2.05292675258717E-03 
2050	 1.41541454615801E-03 
2051	 1.82488393749249E-03 
2052	 2.21113430132141E-03 
2053	 9.99364215235761E-04 
2054	 5.20327615773409E-04 
2055	 9.82277425873772E-04 
2056	 1.49138937301182E-03 
2057	 1.43057419067167E-03 
2058	 2.1584396482778E-03 
2059	 5.05406744906651E-03 
2060	 5.44752018902041E-03 
2061	 4.42996030326255E-03 
2062	 3.72316203223099E-03 
2063	 0.002918888103021 
2064	 1.88195382848632E-03 
2065	 1.35057430910164E-03 
2066	 1.08075828632999E-03 
2067	 1.51364190005848E-03 
2068	 1.68116894135615E-03 
2069	 2.16513218537563E-03 
2070	 3.2027565549515E-03 
2071	 3.16789974412003E-03 
2072	 2.64482312549184E-03 
2073	 2.22159605814178E-03 
2074	 1.37064843496106E-03 
2075	 1.01915689689636E-03 
2076	 9.2994974234152E-04 
2077	 7.16702056915567E-04 
2078	 3.34985508807246E-04 
2079	 6.59573232241838E-04 
2080	 1.57177947530273E-03 
2081	 1.82368625692892E-03 
2082	 1.53349827248051E-03 
2083	 1.39219742452528E-03 
2084	 1.57534420173175E-03 
2085	 2.33844709138696E-03 
2086	 3.50886513165784E-03 
2087	 4.32776406087909E-03 
2088	 4.09038229249843E-03 
2089	 2.79814944253924E-03 
2090	 2.03180158772595E-03 
2091	 1.96468703287898E-03 
2092	 1.82686272057158E-03 
2093	 2.07651686316881E-03 
2094	 2.01439618571472E-03 
2095	 1.80765768288387E-03 
2096	 1.70701416291025E-03 
2097	 1.38126148067277E-03 
2098	 1.23682929112313E-03 
2099	 1.14489205814837E-03 
2100	 1.47753058978701E-03 
2101	 0.001706923135158 
2102	 2.63005833639273E-03 
2103	 2.97388896104488E-03 
2104	 2.46166586578243E-03 
2105	 2.65917241407378E-03 
2106	 2.75495294475591E-03 
2107	 2.88880974961337E-03 
2108	 3.20782435252425E-03 
2109	 2.86600121683696E-03 
2110	 2.08129700638642E-03 
2111	 1.50509338903485E-03 
2112	 1.85536918284479E-03 
2113	 2.19377093637159E-03 
2114	 3.25252511764302E-03 
2115	 3.37743390665605E-03 
2116	 3.21662606060426E-03 
2117	 2.92190210834387E-03 
2118	 1.88941596945085E-03 
2119	 1.60555713979523E-03 
2120	 1.58775308390278E-03 
2121	 1.63781972432353E-03 
2122	 2.47543571638153E-03 
2123	 2.33211559097462E-03 
2124	 1.67190162815746E-03 
2125	 1.99814722909869E-03 
2126	 1.8065872530076E-03 
2127	 1.6302652794006E-03 
2128	 2.63316272545578E-03 
2129	 3.53815051023166E-03 
2130	 2.89473127608982E-03 
2131	 2.54706526735776E-03 
2132	 2.70206661947622E-03 
2133	 1.35961442617073E-03 
2134	 1.03376470996109E-03 
2135	 1.80270143321466E-03 
2136	 2.24240151661824E-03 
2137	 2.90740716459699E-03 
2138	 3.02254952782271E-03 
2139	 2.87104532924455E-03 
2140	 2.80176353210143E-03 
2141	 1.88049431723457E-03 
2142	 1.7881792644277E-03 
2143	 2.46705122633832E-03 
2144	 3.08898782016982E-03 
2145	 3.16105664361611E-03 
2146	 3.40546032962875E-03 
2147	 2.65895445933399E-03 
2148	 2.02114592361932E-03 
2149	 2.4074142480633E-03 
2150	 2.27343513872401E-03 
2151	 2.1307928908374E-03 
2152	 2.06764367093153E-03 
2153	 2.07231069902067E-03 
2154	 2.04019026272189E-03 
2155	 1.70508207928206E-03 
2156	 1.96991625353029E-03 
2157	 1.6497071519208E-03 
2158	-5.09050231852467E-05 
2159	-7.65225074401542E-06 
2160	 6.39642063979532E-04 
2161	 1.36997485202464E-03 
2162	 4.05491370811575E-03 
2163	 4.71278123083402E-03 
2164	 3.78229767898475E-03 
2165	 4.10622470335589E-03 
2166	 4.40948821575685E-03 
2167	 3.98587563496813E-03 
2168	 3.77012079457711E-03 
2169	 4.16116293573436E-03 
2170	 4.23294746111574E-03 
2171	 3.99421269785003E-03 
2172	 5.04192860527055E-03 
2173	 4.81784519248259E-03 
2174	 3.56713330148043E-03 
2175	 3.22846187712845E-03 
2176	 2.85441227778969E-03 
2177	 3.05019789711004E-03 
2178	 4.33231422032421E-03 
2179	 4.48139408415963E-03 
2180	 4.14231023238155E-03 
2181	 3.66075244694492E-03 
2182	 2.45273152775251E-03 
2183	 1.71077126753249E-03 
2184	 2.39108079123281E-03 
2185	 3.54912427084607E-03 
2186	 3.64097620606391E-03 
2187	 3.36656553347262E-03 
2188	 3.63196553818894E-03 
2189	 3.46159626464838E-03 
2190	 3.27461929485041E-03 
2191	 4.15731640421211E-03 
2192	 3.7725080405067E-03 
2193	 1.90905373364845E-03 
2194	 4.78197283868714E-04 
2195	-2.04875829683028E-03 
2196	-2.17693558662258E-03 
2197	-4.11204204000621E-04 
2198	-2.91711749124498E-04 
2199	-1.22597249328374E-04 
2200	 1.94068319093183E-03 
2201	 1.73708300518798E-03 
2202	 1.66714848855785E-03 
2203	 3.31937527419916E-03 
2204	 3.04914334245326E-03 
2205	 3.07469513585786E-03 
2206	 2.73926522163381E-03 
2207	 2.86520035357817E-03 
2208	 4.80946578101605E-03 
2209	 4.18294885014285E-03 
2210	 3.57010716396716E-03 
2211	 5.69491221586922E-03 
2212	 6.20327339499311E-03 
2213	 6.12718413123022E-03 
2214	 8.08332709267059E-03 
2215	 8.91388046259255E-03 
2216	 7.28725408060884E-03 
2217	 5.58571653697059E-03 
2218	 2.9901683954841E-03 
2219	 2.02903001482957E-03 
2220	 5.1213726358223E-04 
2221	-2.51328277717768E-04 
2222	 4.57256768728394E-04 
2223	 1.29666678136371E-03 
2224	 3.15666479045259E-03 
2225	 3.09798123418412E-03 
2226	 0.002329531981595 
2227	 2.47571413496433E-03 
2228	 8.30049085319793E-04 
2229	 2.16716135998887E-04 
2230	 2.10394758828759E-03 
2231	 3.26454435405333E-03 
2232	 3.98996819631879E-03 
2233	 4.21674514299471E-03 
2234	 4.85755656229055E-03 
2235	 4.38731267299688E-03 
2236	 2.61775065989187E-03 
2237	 3.39167988099237E-04 
2238	 6.32877447225861E-04 
2239	 1.01879107341235E-03 
2240	 3.61982012359183E-04 
2241	 1.66479939834534E-03 
2242	 1.12142568010406E-03 
2243	-1.02326112013473E-03 
2244	-2.84968625399755E-04 
2245	 6.98056022410324E-04 
2246	 2.7042058625614E-03 
2247	 4.28743783859217E-03 
2248	 3.01390848108545E-03 
2249	 3.37327672756573E-03 
2250	 2.44877560178681E-03 
2251	 1.91020351856526E-03 
2252	 5.32639368950715E-03 
2253	 6.40351577328408E-03 
2254	 5.88967778941549E-03 
2255	 5.44679093233407E-03 
2256	 4.97522723653115E-03 
2257	 3.69737395182467E-03 
2258	 2.11512470567967E-03 
2259	 3.06863378330442E-03 
2260	 2.56052603899503E-03 
2261	 2.35376720141476E-04 
2262	 5.39026627855256E-04 
2263	 1.42019301547492E-03 
2264	 1.98830736598094E-03 
2265	 4.51564509412569E-03 
2266	 5.45176516043032E-03 
2267	 5.96143075790521E-03 
2268	 6.15415450495213E-03 
2269	 5.17095155457285E-03 
2270	 5.21632117202072E-03 
2271	 5.10867619339591E-03 
2272	 5.40373830131389E-03 
2273	 7.83233984497532E-03 
2274	 7.26533161581555E-03 
2275	 4.06244154652312E-03 
2276	 3.25355388099527E-03 
2277	 1.5914419614611E-03 
2278	 1.1581603199566E-03 
2279	 3.45959084515361E-03 
2280	 4.23075197752919E-03 
2281	 4.58200756066854E-03 
2282	 4.95727054159272E-03 
2283	 4.70801356637454E-03 
2284	 3.84094164572171E-03 
2285	 1.93550422875642E-03 
2286	-0.000319399055119 
2287	 4.8064398106318E-04 
2288	 8.00419890932686E-05 
2289	-2.34265523945852E-04 
2290	 1.54702990472243E-03 
2291	-6.50234850683329E-04 
2292	-8.07916598388405E-04 
2293	 0.001530798527513 
2294	 1.69585103310642E-03 
2295	 1.90229820911871E-03 
2296	-7.60518473366198E-04 
2297	-4.14236873512349E-03 
2298	-2.73262931276592E-03 
2299	 5.30444663024021E-04 
2300	 2.57702201338753E-03 
2301	 3.13950055067675E-03 
2302	 9.63832107920198E-05 
2303	-3.25132138195962E-03 
2304	-7.58798467838498E-04 
2305	 2.62400415568912E-03 
2306	 4.56788293764018E-03 
2307	 5.5064943991889E-03 
2308	 2.09062020758223E-03 
2309	 3.40351574791989E-04 
2310	 1.86799632929819E-03 
2311	 2.78329713925158E-03 
2312	 4.08524991663249E-03 
2313	 5.27901493686783E-03 
2314	 6.87151337954139E-03 
2315	 8.73913018281251E-03 
2316	 9.07967501531583E-03 
2317	 8.56744151943807E-03 
2318	 9.12583335578955E-03 
2319	 1.08572351067177E-02 
2320	 1.16795895139767E-02 
2321	 8.84504908384626E-03 
2322	 5.71747060159515E-03 
2323	 4.06851471987185E-03 
2324	 6.14166172847171E-04 
2325	 3.85231854087479E-03 
2326	 7.43414107018843E-03 
2327	 4.25653917565371E-03 
2328	 5.81154573939141E-03 
2329	 5.06414109105839E-03 
2330	 5.49143288849024E-05 
2331	-2.32418051597189E-03 
2332	-1.87001092181956E-03 
2333	 3.44601628764571E-03 
2334	 9.61107599838852E-03 
2335	 1.25688377289844E-02 
2336	 1.30558983209296E-02 
2337	 1.37425209089271E-02 
2338	 1.21278832453262E-02 
2339	 6.56385583333853E-03 
2340	 5.28738859895868E-03 
2341	 4.08258921742355E-03 
2342	-3.20540087203376E-04 
2343	 3.76669105452981E-03 
2344	 6.21046443623432E-03 
2345	 6.81886721448662E-03 
2346	 1.09845181608027E-02 
2347	 7.66001109351502E-03 
2348	 8.83053359007108E-03 
2349	 1.50560282653224E-02 
2350	 1.31805563340007E-02 
2351	 1.27912667961453E-02 
2352	 1.58458842196116E-02 
2353	 8.35275364311993E-03 
2354	 3.55448172510965E-03 
2355	 0.011311605703741 
2356	 1.44093991690859E-02 
2357	 1.10334661101124E-02 
2358	 5.47867145057916E-03 
2359	 2.41343120969339E-03 
2360	-8.36264355466467E-04 
2361	 3.01046226567164E-03 
2362	 1.87233707375096E-02 
2363	 1.86031574569751E-02 
2364	 1.04652507704232E-02 
2365	-6.75245642842624E-04 
2366	-1.87786981374493E-02 
2367	-1.89419763441378E-02 
2368	-1.38271125362031E-02 
2369	-7.80029167716394E-04 
2370	 2.72035665672981E-02 
2371	 3.43978690728233E-02 
2372	 3.07374457070853E-02 
2373	 0.037422901568309 
2374	 2.93593234041624E-02 
2375	 2.16505815898091E-02 
2376	 3.88694674921052E-02 
2377	 4.89657759792106E-02 
2378	 4.75021010366212E-02 
2379	 4.67190104843982E-02 
2380	 5.08557655968453E-02 
2381	 5.08539333509525E-02 
2382	 3.50207282219027E-02 
2383	 2.98661000756912E-02 
2384	 1.53931503558495E-02 
2385	-9.96478103191813E-03 
2386	-7.11267990363516E-04 
2387	 9.67110868332791E-03 
2388	 1.61250671862615E-02 
2389	 4.22532254366664E-02 
2390	 0.038977389943304 
2391	 2.09749979324329E-02 
2392	 3.15279226379712E-03 
2393	-2.74122179858527E-02 
2394	-2.66150456384202E-02 
2395	-1.31369322932458E-02 
2396	-7.8107722584433E-03 
2397	 1.10437556357143E-02 
2398	 1.68166354289305E-02 
2399	-4.88640992945567E-03 
2400	-7.67949040719389E-03 
2401	 2.54984163503514E-03 
2402	-4.67299869093684E-03 
2403	 0.015696824397425 
2404	 5.12677944700317E-02 
2405	 6.36950846962573E-02 
2406	 7.88553153908094E-02 
2407	 8.32530240059521E-02 
2408	 6.45333705621756E-02 
2409	 5.63498855937203E-02 
2410	 7.72770045350684E-02 
2411	 9.31369693068204E-02 
2412	 7.16177797616901E-02 
2413	 4.65233135919333E-02 
2414	 2.38994431081899E-02 
2415	-2.39057262753567E-02 
2416	 1.39783455151559E-02 
2417	 0.125890915694513 
2418	 0.154080951596506 
2419	 0.107004302953156 
2420	 7.21391631180735E-02 
2421	 3.92695773879071E-02 
2422	-9.37562688283534E-03 
2423	-2.48164970292009E-02 
2424	 1.74923046079163E-02 
2425	 9.33055020581382E-04 
2426	-3.49566906476319E-02 
2427	-2.81398691210976E-02 
2428	-5.59919883546238E-02 
2429	-0.106992445387759 
2430	-0.104330569691182 
2431	-7.96381972416251E-02 
2432	-2.85922539886919E-02 
2433	 4.78262325371427E-02 
2434	 4.86232637532331E-02 
2435	 5.40143263761016E-02 
2436	 5.78831647106654E-02 
2437	 3.23976785967308E-03 
2438	 3.20222654069779E-02 
2439	 4.25345454173482E-02 
2440	 2.64470453277258E-03 
2441	 3.91231852700503E-02 
2442	-5.02845499428792E-03 
2443	 1.69326254286212E-02 
2444	 9.52326625741943E-02 
2445	 4.91504064976323E-02 
2446	 9.00162687782282E-02 
2447	 0.189743733260613 
2448	 0.192684529326592 
2449	 0.167181692426344 
2450	 0.230532347539691 
2451	 0.222883209573016 
2452	 0.323749207099168 
2453	 0.393035842894597 
2454	 0.182644170274338 
2455	-1.05375176338803E-02 
2456	-0.086769879990315 
2457	-3.65337830848633E-02 
2458	 0.154923561840469 
2459	 0.17940987670617 
2460	 6.15517624069432E-02 
2461	 1.41830078799183E-02 
2462	-8.60291933281361E-02 
2463	-0.187983975175363 
2464	 0.192156429891139 
2465	 0.419668203220743 
2466	 0.543607527358633 
2467	 0.685801211205808 
2468	 0.622086434611699 
2469	 0.43296294292289 
2470	 3.66873979608409E-02 
2471	-0.186524176600152 
2472	-0.090040377764082 
2473	-0.301452386514199 
2474	-0.777731382303004 
2475	-1.05765439692818 
2476	-1.09546373989129 
2477	-0.270783467131006 
2478	-0.069097199355653 
2479	-0.291959976022528 
2480	-0.270304430034907 
2481	-0.397823919379476 
2482	-1.34783915847996 
2483	-0.362148910690985 
2484	 3.95609208905128 
2485	-1.62615648420029 
2486	-6.34634899937338E-02 
2487	 0.671823777584578 
2488	 0.245901346257984 
2489	-0.551400773488766 
2490	-0.346293870451597 
2491	-0.764555748647831 
2492	-4.15160498079239 
2493	 3.41381020833463 
2494	 8.64049260340824 
2495	 44.4158401938629 
2496	 9.20460312319305 
2497	-8.94319372624148 
2498	-1.11543332049303 
2499	-1.60213444777057 
2500	-0.924804626736701 
