Wavelength	rt0718close00005.asd
350	 1.13184947262472E-02 
351	 1.11830008906501E-02 
352	 1.09528633190418E-02 
353	 1.12285988725766E-02 
354	 1.20149278670811E-02 
355	 1.18769811230035E-02 
356	 1.18479850732567E-02 
357	 1.18507000990519E-02 
358	 1.16795438898728E-02 
359	 1.20592119732205E-02 
360	 1.24931177848608E-02 
361	 1.25994525824852E-02 
362	 1.22249522031136E-02 
363	 0.012278043772512 
364	 1.23634989801951E-02 
365	 1.23132783938627E-02 
366	 1.25556843965066E-02 
367	 1.27314248108736E-02 
368	 1.28209029443819E-02 
369	 1.29066014033201E-02 
370	 1.31066180500105E-02 
371	 1.31974081675337E-02 
372	 1.31643638869787E-02 
373	 1.31376452957963E-02 
374	 1.32940830347458E-02 
375	 0.013313087128453 
376	 1.33033854058071E-02 
377	 1.39913822161398E-02 
378	 1.38297406066253E-02 
379	 1.35458379512209E-02 
380	 1.39256741525402E-02 
381	 1.41909995195237E-02 
382	 1.43021933296526E-02 
383	 1.43552391353321E-02 
384	 1.45427620262803E-02 
385	 0.015103144207072 
386	 1.53861129774084E-02 
387	 1.52690973266836E-02 
388	 1.52766750520489E-02 
389	 1.52438350397723E-02 
390	 1.53843170029124E-02 
391	 1.56846951580032E-02 
392	 1.53634197453844E-02 
393	 1.58046933398497E-02 
394	 1.65343077359884E-02 
395	 1.65702511944616E-02 
396	 0.016140716494519 
397	 1.63131060833331E-02 
398	 1.69433804925463E-02 
399	 1.69093110782849E-02 
400	 1.69668044317944E-02 
401	 1.70639527234071E-02 
402	 1.71094584474578E-02 
403	 1.71942873783041E-02 
404	 1.74266041253401E-02 
405	 1.76270779978094E-02 
406	 1.76103084436843E-02 
407	 1.78186874460023E-02 
408	 1.80205388270037E-02 
409	 1.80903654113721E-02 
410	 1.80631058397401E-02 
411	 1.82911150779522E-02 
412	 1.85126977159211E-02 
413	 1.85532826904648E-02 
414	 1.87043258644478E-02 
415	 1.89779640489009E-02 
416	 1.91677775144848E-02 
417	 0.019093371341451 
418	 1.93193372582838E-02 
419	 1.95971920218173E-02 
420	 1.98059029903819E-02 
421	 2.00234633004481E-02 
422	 2.01162666889615E-02 
423	 2.02583214272352E-02 
424	 0.020533169285871 
425	 2.05783824229722E-02 
426	 2.08050735377242E-02 
427	 2.11185375389005E-02 
428	 2.12402172489966E-02 
429	 2.14869633137871E-02 
430	 2.17885547457093E-02 
431	 2.20690720950387E-02 
432	 2.22923991042697E-02 
433	 2.25763062846857E-02 
434	 2.28315943743848E-02 
435	 2.30019062279018E-02 
436	 2.32705682967744E-02 
437	 0.023475198025813 
438	 2.36948509680468E-02 
439	 2.40878834186183E-02 
440	 2.42828403941146E-02 
441	 2.45057719483735E-02 
442	 2.48251458200596E-02 
443	 0.024981570409433 
444	 2.52213480570994E-02 
445	 2.55242773354495E-02 
446	 2.57964558569858E-02 
447	 2.59572258972553E-02 
448	 2.61690757925538E-02 
449	 2.63946049257234E-02 
450	 2.64747807271493E-02 
451	 2.67225616234072E-02 
452	 2.69520814185127E-02 
453	 2.70434467047438E-02 
454	 2.71516079512344E-02 
455	 2.72926707821448E-02 
456	 2.74368795648829E-02 
457	 2.75587585293803E-02 
458	 2.77969537601131E-02 
459	 2.79339703167444E-02 
460	 2.79669685894907E-02 
461	 2.81166532370103E-02 
462	 2.82942703953354E-02 
463	 2.84126892110205E-02 
464	 2.84475655210442E-02 
465	 2.85344517271973E-02 
466	 2.87160016934897E-02 
467	 2.88936477692646E-02 
468	 0.028940273386911 
469	 2.91201884899427E-02 
470	 0.029262359163849 
471	 2.93082047566476E-02 
472	 2.93980388468754E-02 
473	 2.96365041056108E-02 
474	 0.029861057510567 
475	 0.029929559446731 
476	 3.00334715174895E-02 
477	 3.01830646558426E-02 
478	 3.04088142027865E-02 
479	 3.07294876322169E-02 
480	 3.09087477043443E-02 
481	 3.10412593987534E-02 
482	 0.03120604398935 
483	 3.13451071061324E-02 
484	 3.15892714641511E-02 
485	 3.18602761526599E-02 
486	 3.20491353223393E-02 
487	 3.23545903813888E-02 
488	 3.25579468856776E-02 
489	 3.26982383069249E-02 
490	 3.30587517048957E-02 
491	 3.32093521110228E-02 
492	 3.34004981450839E-02 
493	 3.38283367401647E-02 
494	 3.41974117281472E-02 
495	 3.44929526993494E-02 
496	 3.47098356487672E-02 
497	 3.48820845253808E-02 
498	 3.52195178281523E-02 
499	 3.55664239459988E-02 
500	 3.58462009791744E-02 
501	 3.61639705517855E-02 
502	 3.64808115941951E-02 
503	 3.68301264982401E-02 
504	 3.72303789461439E-02 
505	 3.75703861122009E-02 
506	 3.78831065621984E-02 
507	 3.81877858652076E-02 
508	 3.84895072467545E-02 
509	 3.87866489004057E-02 
510	 3.91353485972304E-02 
511	 3.95511797104612E-02 
512	 0.039949643789768 
513	 4.03078568872714E-02 
514	 4.06613664753208E-02 
515	 4.10695981378913E-02 
516	 4.15361380832702E-02 
517	 4.20236884739291E-02 
518	 0.042474170509281 
519	 0.042817098538764 
520	 4.31507831918203E-02 
521	 4.35500512812355E-02 
522	 4.40461255780052E-02 
523	 4.45613352886433E-02 
524	 4.50116373458714E-02 
525	 4.54189326422366E-02 
526	 4.58802927000671E-02 
527	 4.63913660634676E-02 
528	 4.68449553131408E-02 
529	 0.047219549014217 
530	 4.76900727853764E-02 
531	 0.048154226263135 
532	 4.86436330722301E-02 
533	 4.91969634573462E-02 
534	 4.96133183489475E-02 
535	 5.01129684075962E-02 
536	 5.07015416487569E-02 
537	 5.11162417307597E-02 
538	 5.15895122599081E-02 
539	 5.21268606767307E-02 
540	 5.26770975484543E-02 
541	 5.31991602818684E-02 
542	 0.053676877912271 
543	 5.41572728144415E-02 
544	 5.47085367768413E-02 
545	 5.51484372793043E-02 
546	 5.56415110064931E-02 
547	 0.05623505592364 
548	 5.66622176450654E-02 
549	 0.057150083958668 
550	 5.76852178352065E-02 
551	 5.81923144575394E-02 
552	 5.87530422168706E-02 
553	 0.059267702239664 
554	 5.97364812344076E-02 
555	 6.02763978772181E-02 
556	 0.060757924551057 
557	 6.12124084703209E-02 
558	 6.16913541470582E-02 
559	 6.22002963861677E-02 
560	 6.26874909394219E-02 
561	 6.31312548162227E-02 
562	 0.063537160999755 
563	 6.39293028864276E-02 
564	 0.064365285480581 
565	 6.48273718312275E-02 
566	 6.51453459994614E-02 
567	 6.54732294339532E-02 
568	 6.58308811206553E-02 
569	 6.61798419132736E-02 
570	 6.64540316104924E-02 
571	 6.67061518244382E-02 
572	 6.69721833373222E-02 
573	 6.72584553805252E-02 
574	 6.74525196705549E-02 
575	 6.76456765446333E-02 
576	 6.79057075321231E-02 
577	 0.068069214806316 
578	 6.82285516625234E-02 
579	 6.83777723072757E-02 
580	 6.84530634656751E-02 
581	 6.84371018063351E-02 
582	 6.84923784916272E-02 
583	 6.86246151783935E-02 
584	 6.85066958408884E-02 
585	 6.84408546425881E-02 
586	 6.83972894949389E-02 
587	 6.82665660528612E-02 
588	 6.81998517220834E-02 
589	 0.068162761779665 
590	 6.80614763979309E-02 
591	 6.77701424081906E-02 
592	 6.76243859144833E-02 
593	 6.74541115828304E-02 
594	 6.70939123521783E-02 
595	 6.67173076670285E-02 
596	 6.62454686935923E-02 
597	 6.57310061217873E-02 
598	 6.52793663052892E-02 
599	 6.47011816903388E-02 
600	 6.41651736754838E-02 
601	 6.38045399708025E-02 
602	 6.36219998836122E-02 
603	 0.063417242871902 
604	 6.32654383455846E-02 
605	 6.32782094960424E-02 
606	 6.32354631638265E-02 
607	 0.063196503161964 
608	 6.32184518880214E-02 
609	 0.063334412827021 
610	 6.33624784940872E-02 
611	 0.063354535657844 
612	 6.33797841975485E-02 
613	 0.063401442756288 
614	 6.33819443204156E-02 
615	 6.33619969309225E-02 
616	 6.34119910110373E-02 
617	 6.34209672350528E-02 
618	 6.34526480934194E-02 
619	 6.35033522079902E-02 
620	 6.34254387686713E-02 
621	 6.33886816195377E-02 
622	 6.34174588448799E-02 
623	 6.34657496484454E-02 
624	 6.34116134130854E-02 
625	 6.32927335485382E-02 
626	 6.32007328240332E-02 
627	 6.32563338535691E-02 
628	 6.32472642446096E-02 
629	 6.32481863727014E-02 
630	 6.33252770162678E-02 
631	 0.06338889266269 
632	 6.33152912146882E-02 
633	 6.31925072358693E-02 
634	 6.31936117414155E-02 
635	 6.32393425604907E-02 
636	 6.32492953571816E-02 
637	 6.32020505751134E-02 
638	 6.31571604561401E-02 
639	 6.31875254599514E-02 
640	 6.31786057235693E-02 
641	 0.063037419425256 
642	 6.30018525720731E-02 
643	 6.29192858553217E-02 
644	 6.27880550728253E-02 
645	 6.27299454540811E-02 
646	 0.062674691360505 
647	 6.26227970409604E-02 
648	 6.25617384040487E-02 
649	 6.24090291834965E-02 
650	 6.23607849631696E-02 
651	 6.22711641220922E-02 
652	 6.19335613398211E-02 
653	 6.16622355873026E-02 
654	 6.13902108941059E-02 
655	 6.10333371469191E-02 
656	 6.05762200290687E-02 
657	 6.02354211921908E-02 
658	 5.99565201131782E-02 
659	 5.96675068579826E-02 
660	 5.94711729012727E-02 
661	 5.92481252773146E-02 
662	 5.90143741706488E-02 
663	 5.88659786422867E-02 
664	 5.87246128012893E-02 
665	 5.86191383955531E-02 
666	 5.85566264710378E-02 
667	 0.058486999308875 
668	 5.84006836229955E-02 
669	 5.83415788322264E-02 
670	 5.83430278175513E-02 
671	 0.058280916066729 
672	 5.82537635535026E-02 
673	 5.82716526917012E-02 
674	 5.82568022096544E-02 
675	 5.82525575346075E-02 
676	 5.82680449951278E-02 
677	 5.83028322358894E-02 
678	 5.83548056326161E-02 
679	 0.058359626299662 
680	 5.83689063255292E-02 
681	 5.84604345790875E-02 
682	 5.84884944081998E-02 
683	 5.84784040339189E-02 
684	 5.84493613806524E-02 
685	 5.83879901364263E-02 
686	 5.83051152377227E-02 
687	 5.82346821353866E-02 
688	 5.81864577860976E-02 
689	 5.80606720973621E-02 
690	 0.05792968153511 
691	 5.77196064279609E-02 
692	 5.73006608836518E-02 
693	 0.057019074883038 
694	 5.67670901611736E-02 
695	 5.64547867852756E-02 
696	 5.61139215315071E-02 
697	 5.55525141089493E-02 
698	 0.054913916222079 
699	 5.44188711183639E-02 
700	 5.39165905125473E-02 
701	 5.32757740537688E-02 
702	 5.25341403785631E-02 
703	 5.18374491127563E-02 
704	 5.10876961424243E-02 
705	 5.03255125973863E-02 
706	 4.95770479711225E-02 
707	 4.87615358220976E-02 
708	 4.77478409117243E-02 
709	 4.67079753355617E-02 
710	 4.58304656855485E-02 
711	 4.47048012560716E-02 
712	 4.34848993867511E-02 
713	 4.22280610843792E-02 
714	 4.08297829597473E-02 
715	 3.95405499093643E-02 
716	 3.82247786611408E-02 
717	 3.67909968473157E-02 
718	 3.53097149700832E-02 
719	 3.38394406035005E-02 
720	 3.26118371870817E-02 
721	 3.15450175419749E-02 
722	 0.030256612812959 
723	 2.88945978490633E-02 
724	 2.76601754966744E-02 
725	 0.026344093520261 
726	 2.49285000561771E-02 
727	 2.34656854335122E-02 
728	 2.19985837721391E-02 
729	 2.03894539884375E-02 
730	 1.87910616062672E-02 
731	 1.74164085892008E-02 
732	 1.63519473186774E-02 
733	 1.53400868864289E-02 
734	 1.44817332959663E-02 
735	 1.38153480702896E-02 
736	 0.013246176310365 
737	 1.28275247504081E-02 
738	 1.24967104528176E-02 
739	 1.22155810835221E-02 
740	 1.20846703649366E-02 
741	 1.19891702308417E-02 
742	 1.19327298996292E-02 
743	 1.19542405289079E-02 
744	 1.18327006896974E-02 
745	 1.17740783309819E-02 
746	 0.011812318042995 
747	 1.16948211311637E-02 
748	 1.17027627120273E-02 
749	 1.17507394740305E-02 
750	 1.17265842934566E-02 
751	 1.17595568042117E-02 
752	 1.17170057445716E-02 
753	 1.16551511270229E-02 
754	 1.17081701790663E-02 
755	 1.17260620985025E-02 
756	 1.17378044280736E-02 
757	 1.17598429487799E-02 
758	 1.17660237827509E-02 
759	 1.16291095432816E-02 
760	 0.011428495054447 
761	 1.14889160419516E-02 
762	 1.17451039709869E-02 
763	 1.17793065887463E-02 
764	 1.17932153503132E-02 
765	 1.20398519652229E-02 
766	 1.20484242961883E-02 
767	 1.21068182028445E-02 
768	 1.22354987510997E-02 
769	 1.21973110105576E-02 
770	 1.23294677659097E-02 
771	 1.25242672969857E-02 
772	 1.26402994343708E-02 
773	 1.26935990987735E-02 
774	 1.27873232953096E-02 
775	 1.29502247508749E-02 
776	 1.31569354684446E-02 
777	 0.013305998676761 
778	 1.34243691782594E-02 
779	 1.35579806263108E-02 
780	 1.37543061987243E-02 
781	 1.39041439613627E-02 
782	 1.40427680722122E-02 
783	 1.42210294640469E-02 
784	 1.44680765829848E-02 
785	 1.46793218993913E-02 
786	 0.014893092686609 
787	 1.51712889653634E-02 
788	 1.54124831742758E-02 
789	 1.56435790538016E-02 
790	 1.58585619960343E-02 
791	 1.60378194180473E-02 
792	 1.63203780704251E-02 
793	 1.66211998870828E-02 
794	 1.68754302908838E-02 
795	 1.70979139923071E-02 
796	 1.73750970180687E-02 
797	 1.76239139077052E-02 
798	 1.77933449201611E-02 
799	 1.80908393796125E-02 
800	 0.018329126446188 
801	 1.84988570443216E-02 
802	 1.86750008073846E-02 
803	 1.86945677577336E-02 
804	 1.87657130057148E-02 
805	 1.89303000259909E-02 
806	 1.90143750136147E-02 
807	 1.89181496190071E-02 
808	 1.89052266933346E-02 
809	 1.90650299362675E-02 
810	 1.88466059333543E-02 
811	 1.86396776392334E-02 
812	 1.85118893851596E-02 
813	 1.83991956857129E-02 
814	 1.82414864905802E-02 
815	 1.79416429783853E-02 
816	 1.75229611434391E-02 
817	 1.71218898364538E-02 
818	 1.69161804181981E-02 
819	 1.67156744904551E-02 
820	 1.63057065873744E-02 
821	 1.54856896296352E-02 
822	 1.48981769328495E-02 
823	 1.43028412341205E-02 
824	 1.34699619538606E-02 
825	 1.26912966023986E-02 
826	 1.19940710382193E-02 
827	 1.12357372234931E-02 
828	 1.03192987194561E-02 
829	 9.58019303040984E-03 
830	 8.94852298584653E-03 
831	 8.42825012877667E-03 
832	 8.08194633486302E-03 
833	 7.69212635805239E-03 
834	 7.40067779164526E-03 
835	 7.23237914716352E-03 
836	 7.01259605751264E-03 
837	 6.89269235112738E-03 
838	 6.73269374744542E-03 
839	 6.47704716149732E-03 
840	 6.44965200696308E-03 
841	 6.39377424456233E-03 
842	 6.2865307528149E-03 
843	 6.16979515953409E-03 
844	 5.93425069718818E-03 
845	 5.84769550084182E-03 
846	 5.97934371879484E-03 
847	 6.1780661510677E-03 
848	 5.79753325474641E-03 
849	 5.49198155426866E-03 
850	 5.52864586642471E-03 
851	 5.48489398978609E-03 
852	 5.42601597182957E-03 
853	 5.28106134717136E-03 
854	 5.11087273454725E-03 
855	 5.27608485093988E-03 
856	 5.35187604337714E-03 
857	 5.18988516614856E-03 
858	 4.87580309798877E-03 
859	 4.99613769965134E-03 
860	 4.98562200667559E-03 
861	 4.89126958031879E-03 
862	 5.00145319987494E-03 
863	 4.98923468524171E-03 
864	 4.7938838733397E-03 
865	 4.57375615900603E-03 
866	 4.61214755425475E-03 
867	 4.49499661391512E-03 
868	 4.36625208058921E-03 
869	 4.28581707664606E-03 
870	 4.11599917598404E-03 
871	 4.24911291861458E-03 
872	 4.38406767562266E-03 
873	 4.25962327189413E-03 
874	 4.03647510950778E-03 
875	 4.0024825581959E-03 
876	 4.01404151741612E-03 
877	 3.87681639315589E-03 
878	 3.75019942995642E-03 
879	 3.90166928260987E-03 
880	 0.00396459214988 
881	 3.50616530428191E-03 
882	 3.47477985055809E-03 
883	 3.65732576721236E-03 
884	 3.74176792966091E-03 
885	 3.47344975144788E-03 
886	 3.25582209106547E-03 
887	 3.27654344008853E-03 
888	 3.46479332091604E-03 
889	 3.50398847277293E-03 
890	 3.38284090562602E-03 
891	 3.22221504689763E-03 
892	 3.13250139230135E-03 
893	 3.14434241034113E-03 
894	 2.98260145592583E-03 
895	 2.91474402014087E-03 
896	 3.0707753534384E-03 
897	 2.63572565032974E-03 
898	 2.71106103161289E-03 
899	 2.74363602438759E-03 
900	 2.21014489479656E-03 
901	 2.76620977249197E-03 
902	 2.91808217604964E-03 
903	 2.5836512684514E-03 
904	 2.28213260065728E-03 
905	 2.44748202479222E-03 
906	 2.53552307379477E-03 
907	 2.34436998366892E-03 
908	 2.07865028350896E-03 
909	 2.6871455598896E-03 
910	 2.64649088012663E-03 
911	 2.18197282941388E-03 
912	 2.91996003313924E-03 
913	 2.39633045865697E-03 
914	 1.92600448985049E-03 
915	 2.00192625872818E-03 
916	 1.72433093741307E-03 
917	 1.95163608180721E-03 
918	 2.11878864117481E-03 
919	 2.04247144635023E-03 
920	 2.2736298498359E-03 
921	 1.82910594279949E-03 
922	 1.68791108652672E-03 
923	 2.29479024769369E-03 
924	 2.2040387982512E-03 
925	 2.79249901551814E-03 
926	 2.87966011927253E-03 
927	 1.36601831381656E-03 
928	 3.66903508765314E-04 
929	 9.64798266429075E-04 
930	 1.72698847019918E-03 
931	 1.66691292696808E-04 
932	-3.96661314013184E-04 
933	 1.44575327609979E-05 
934	-9.68290164304561E-05 
935	-1.7527568479243E-03 
936	-1.93402882861741E-03 
937	 5.27635442156346E-04 
938	 2.58005822773467E-03 
939	 1.56818543122463E-03 
940	 3.49934732302854E-04 
941	 1.11671389911033E-03 
942	 1.80868182916071E-03 
943	-5.2533077453539E-04 
944	-1.18684409883272E-04 
945	 6.44960484404253E-04 
946	 3.56495512180243E-04 
947	-6.68821024878198E-04 
948	 1.51256009760205E-03 
949	 9.46569529353479E-04 
950	-1.51851097858517E-03 
951	-9.61235676914017E-04 
952	 2.39578645546758E-03 
953	 1.9257132120837E-03 
954	-8.94749023738987E-04 
955	 1.00176330201948E-04 
956	 1.04984681538484E-04 
957	-3.78013039978061E-04 
958	-2.9982860975239E-05 
959	 1.98617317302549E-03 
960	 2.24241519718972E-03 
961	-2.67662179988895E-04 
962	-2.14654794215092E-03 
963	 1.05585347855747E-03 
964	 2.06172807264464E-03 
965	 2.22052895471708E-03 
966	 2.15084743501664E-03 
967	 1.52348725611148E-03 
968	 1.70335961234499E-03 
969	 1.97179215707379E-03 
970	 2.15730247678317E-03 
971	 2.50301106979604E-03 
972	 7.97590087457647E-04 
973	 4.81643449433948E-04 
974	 1.42012461097678E-03 
975	 1.15702348203404E-04 
976	 8.2160025190784E-04 
977	 1.54410810464796E-03 
978	 1.29740446720218E-03 
979	 8.51866641723027E-04 
980	 1.65999684426238E-03 
981	 1.75965538682191E-03 
982	 1.0489287931737E-03 
983	 1.07545796038667E-03 
984	 1.3340917741217E-03 
985	 1.72087802707914E-03 
986	 2.30310929713806E-03 
987	 3.02327409063403E-03 
988	 2.04025855232004E-03 
989	 1.54624928322553E-03 
990	 2.00070204815044E-03 
991	 2.24857836510289E-03 
992	 2.18464061918186E-03 
993	 1.48803114997871E-03 
994	 5.20299451787528E-04 
995	 1.49926689434296E-04 
996	 1.16395091913925E-03 
997	 2.25617193331743E-03 
998	 2.78452312265278E-03 
999	 2.7059424295265E-03 
1000	 1.77365414724622E-03 
1001	 9.72607745791499E-04 
1002	 1.27431344935478E-03 
1003	 1.42018708528136E-03 
1004	 1.69943541683537E-03 
1005	 1.89239502750962E-03 
1006	 2.0532472973519E-03 
1007	 2.09086594775781E-03 
1008	 2.26438282680784E-03 
1009	 2.62558131511349E-03 
1010	 2.90580356207413E-03 
1011	 3.05402736493837E-03 
1012	 2.83309995079341E-03 
1013	 2.79687238051076E-03 
1014	 2.70985313505167E-03 
1015	 2.42752386893859E-03 
1016	 2.33665462264832E-03 
1017	 2.33281791708009E-03 
1018	 2.3515238065466E-03 
1019	 2.61729519401367E-03 
1020	 2.59700140009859E-03 
1021	 2.38044313840685E-03 
1022	 2.3734930850461E-03 
1023	 2.26056128625956E-03 
1024	 2.1903470173545E-03 
1025	 2.39679213327086E-03 
1026	 2.36705906042084E-03 
1027	 2.25200979991885E-03 
1028	 1.87197430440922E-03 
1029	 1.74075692796105E-03 
1030	 1.4380572234191E-03 
1031	 1.67903898141006E-03 
1032	 2.58781049666564E-03 
1033	 2.82423723788498E-03 
1034	 3.19459628054826E-03 
1035	 3.20250772453581E-03 
1036	 2.30447387139492E-03 
1037	 2.04321210571473E-03 
1038	 2.07050384367639E-03 
1039	 2.02693524451274E-03 
1040	 2.16175450737864E-03 
1041	 2.36970062793471E-03 
1042	 0.002377622520994 
1043	 2.23478121665561E-03 
1044	 2.18929031226989E-03 
1045	 2.05331373200427E-03 
1046	 2.06808876263578E-03 
1047	 2.12689939440307E-03 
1048	 2.23151000235018E-03 
1049	 2.60016907940385E-03 
1050	 2.66204822309056E-03 
1051	 2.6029505286251E-03 
1052	 2.53810688854527E-03 
1053	 2.11543456550192E-03 
1054	 2.02362791652552E-03 
1055	 2.25751575453372E-03 
1056	 2.28442329285333E-03 
1057	 2.29623514784788E-03 
1058	 2.37605818902285E-03 
1059	 2.4436453140588E-03 
1060	 2.34788927152559E-03 
1061	 2.42375354065231E-03 
1062	 2.83646096864684E-03 
1063	 2.7880833695888E-03 
1064	 2.35210321749238E-03 
1065	 2.30583770792359E-03 
1066	 2.16475984376725E-03 
1067	 2.2028221323318E-03 
1068	 2.70448073326351E-03 
1069	 2.93001312102955E-03 
1070	 3.16918107136136E-03 
1071	 3.17338387694469E-03 
1072	 3.01680812859156E-03 
1073	 2.75683470099284E-03 
1074	 2.4692953077945E-03 
1075	 1.78970656331322E-03 
1076	 0.001798222999514 
1077	 2.1420538200968E-03 
1078	 2.33737268596403E-03 
1079	 3.0624650778119E-03 
1080	 3.11032598810852E-03 
1081	 2.61300205804781E-03 
1082	 2.39467184986543E-03 
1083	 1.90237485102625E-03 
1084	 1.73403647305552E-03 
1085	 1.94210997083014E-03 
1086	 2.02027794191783E-03 
1087	 2.05930922584682E-03 
1088	 2.1678177609562E-03 
1089	 2.55227363545225E-03 
1090	 2.46728417526926E-03 
1091	 2.3757852431256E-03 
1092	 2.27544293126283E-03 
1093	 2.20002339610365E-03 
1094	 1.80618995818924E-03 
1095	 1.83480594631153E-03 
1096	 2.20809506683837E-03 
1097	 2.34172530866257E-03 
1098	 2.66524630095144E-03 
1099	 2.60375814822898E-03 
1100	 2.0299301627894E-03 
1101	 2.00038022971019E-03 
1102	 2.08575029181329E-03 
1103	 2.11561511719356E-03 
1104	 2.68472052420034E-03 
1105	 2.80414216501613E-03 
1106	 2.32305707452977E-03 
1107	 1.83687571135327E-03 
1108	 1.36833892358938E-03 
1109	 1.24354882509321E-03 
1110	 1.26761190494971E-03 
1111	 1.92530577932926E-03 
1112	 2.01653005452654E-03 
1113	 1.91572869545152E-03 
1114	 1.87875466723639E-03 
1115	 1.46034233992445E-03 
1116	 1.31500213848316E-03 
1117	 1.95496766563226E-03 
1118	 2.12830432288721E-03 
1119	 1.03734163198195E-03 
1120	 1.04824746800905E-03 
1121	 3.23240153410276E-03 
1122	 2.24472108123999E-03 
1123	-1.31264668270405E-03 
1124	 5.02711006143761E-05 
1125	-1.56480424928494E-03 
1126	-3.34185706073423E-03 
1127	 2.52615209448046E-03 
1128	 5.33135080877996E-03 
1129	 4.65466347426435E-03 
1130	 2.14777130837801E-03 
1131	 0.001675831914179 
1132	-2.03689952265622E-03 
1133	-1.84381690455377E-03 
1134	 2.63238029797327E-03 
1135	 2.64745074404647E-03 
1136	 1.03338112463691E-03 
1137	 9.53184426904961E-04 
1138	 3.29273119150976E-04 
1139	-8.53182230888919E-04 
1140	 9.53915587320085E-04 
1141	 2.56754758364983E-03 
1142	 1.71388602458629E-03 
1143	 1.5803855207146E-03 
1144	 2.11392147701402E-03 
1145	 1.09115491392475E-03 
1146	 1.28278055611591E-03 
1147	 2.76085403334629E-03 
1148	 1.97945305097105E-03 
1149	 1.06679311097297E-03 
1150	 8.86018862675306E-04 
1151	 8.10086658119701E-04 
1152	 8.58238615784583E-04 
1153	 1.20083202152657E-03 
1154	 1.50747815387191E-03 
1155	 2.0052341152346E-03 
1156	 2.13443115044871E-03 
1157	 1.57267527888557E-03 
1158	 1.55885713884456E-03 
1159	 1.53637110105752E-03 
1160	 1.3211391646446E-03 
1161	 1.61347382137005E-03 
1162	 1.85684130210225E-03 
1163	 1.85643363618467E-03 
1164	 1.7344827890626E-03 
1165	 1.50830246438353E-03 
1166	 1.70429042474051E-03 
1167	 2.05679223378342E-03 
1168	 1.99650916172848E-03 
1169	 1.90156149954462E-03 
1170	 1.86204532232413E-03 
1171	 1.86576097807124E-03 
1172	 1.78036709054614E-03 
1173	 1.85846105295616E-03 
1174	 2.19906960754936E-03 
1175	 2.20404210462962E-03 
1176	 2.17090568586845E-03 
1177	 2.08124560656234E-03 
1178	 1.86813211792455E-03 
1179	 1.91475257264706E-03 
1180	 1.8860435448625E-03 
1181	 1.69617214968044E-03 
1182	 1.78076228020008E-03 
1183	 1.71897355777567E-03 
1184	 1.2787427071148E-03 
1185	 1.16186262156415E-03 
1186	 1.51789953834037E-03 
1187	 1.74691248684836E-03 
1188	 1.77448652326345E-03 
1189	 1.83634300492374E-03 
1190	 1.6156032711331E-03 
1191	 1.27067422674147E-03 
1192	 1.32251465028057E-03 
1193	 1.85403960394945E-03 
1194	 2.26989409293211E-03 
1195	 2.00373453831132E-03 
1196	 1.81462731872592E-03 
1197	 1.7166633686072E-03 
1198	 1.49577093352166E-03 
1199	 1.69142541632496E-03 
1200	 1.98867614843407E-03 
1201	 1.80706155054844E-03 
1202	 1.70363823819201E-03 
1203	 1.84005598969136E-03 
1204	 1.83273272080846E-03 
1205	 1.85783445010718E-03 
1206	 1.84317385281929E-03 
1207	 1.62645701171247E-03 
1208	 1.55466188231932E-03 
1209	 1.64859217618454E-03 
1210	 1.69310840555655E-03 
1211	 1.64847774151266E-03 
1212	 1.50212156885696E-03 
1213	 1.39262760744889E-03 
1214	 1.42309354718011E-03 
1215	 1.50335558780754E-03 
1216	 1.69659474481653E-03 
1217	 1.80554986565576E-03 
1218	 1.71844027156142E-03 
1219	 1.71228607869373E-03 
1220	 1.68628315025973E-03 
1221	 1.58547040550399E-03 
1222	 1.74269495319941E-03 
1223	 1.82195104520759E-03 
1224	 1.70395871868428E-03 
1225	 1.67960447930442E-03 
1226	 1.65684084982896E-03 
1227	 1.66695181549747E-03 
1228	 1.64093055167106E-03 
1229	 1.60594444506852E-03 
1230	 1.76275153727371E-03 
1231	 1.7594547143018E-03 
1232	 1.63527023782275E-03 
1233	 1.73953584655528E-03 
1234	 0.001779198960933 
1235	 1.76783492989754E-03 
1236	 1.67821194548481E-03 
1237	 1.71919754632576E-03 
1238	 1.75381182537106E-03 
1239	 1.87047148481868E-03 
1240	 2.16266595489738E-03 
1241	 2.11415682060837E-03 
1242	 1.83363147525019E-03 
1243	 1.84457856124315E-03 
1244	 1.81092915948044E-03 
1245	 1.75564987835585E-03 
1246	 1.9320661764444E-03 
1247	 1.87642466776955E-03 
1248	 1.64531611603282E-03 
1249	 1.72163629549185E-03 
1250	 1.85134700032006E-03 
1251	 1.73839965762527E-03 
1252	 1.73710336976379E-03 
1253	 1.9161939801038E-03 
1254	 1.91708913520176E-03 
1255	 1.89321338763718E-03 
1256	 1.89380762136705E-03 
1257	 1.69944673413323E-03 
1258	 1.6014559551962E-03 
1259	 1.71797521336537E-03 
1260	 1.78412087750458E-03 
1261	 1.74607878109401E-03 
1262	 1.76997815510602E-03 
1263	 1.89502424044626E-03 
1264	 1.87585281730224E-03 
1265	 1.71059308030409E-03 
1266	 1.72995921624381E-03 
1267	 1.69866917098359E-03 
1268	 1.62195720691205E-03 
1269	 1.80102537701861E-03 
1270	 1.89336572191304E-03 
1271	 2.03979718956927E-03 
1272	 2.19925825632188E-03 
1273	 1.95964623168916E-03 
1274	 1.83877193158992E-03 
1275	 1.74179897753621E-03 
1276	 1.44993850572579E-03 
1277	 1.5064478827737E-03 
1278	 1.62346459760246E-03 
1279	 1.55622540708612E-03 
1280	 1.62738027757603E-03 
1281	 1.66425773045487E-03 
1282	 1.64893398041369E-03 
1283	 1.60512173117036E-03 
1284	 1.53509627302826E-03 
1285	 1.59811695130207E-03 
1286	 1.6737869592906E-03 
1287	 1.72896183024214E-03 
1288	 1.97242437657916E-03 
1289	 2.00593478719742E-03 
1290	 1.7450757789969E-03 
1291	 1.84061265820094E-03 
1292	 2.0969363182683E-03 
1293	 1.98502735402734E-03 
1294	 1.86767007162667E-03 
1295	 1.93150063498355E-03 
1296	 1.73380334075809E-03 
1297	 1.75814847209193E-03 
1298	 2.11587563880197E-03 
1299	 2.00217283865437E-03 
1300	 1.79694856825566E-03 
1301	 1.9320194669194E-03 
1302	 1.97232498760652E-03 
1303	 1.89827317798096E-03 
1304	 1.85236391057442E-03 
1305	 1.74112279522499E-03 
1306	 1.67812632711751E-03 
1307	 1.62565815381189E-03 
1308	 1.57870155207243E-03 
1309	 1.58130520673631E-03 
1310	 1.54317067941209E-03 
1311	 1.36079295869428E-03 
1312	 1.37464358744785E-03 
1313	 1.64558023623995E-03 
1314	 1.64305056305122E-03 
1315	 1.5612203798812E-03 
1316	 1.54700036089902E-03 
1317	 1.25836703574149E-03 
1318	 1.22576823939658E-03 
1319	 1.63305646982918E-03 
1320	 1.70009649935675E-03 
1321	 1.56715031447361E-03 
1322	 1.60144177592956E-03 
1323	 1.78287155419088E-03 
1324	 1.72045470333295E-03 
1325	 1.70893182868292E-03 
1326	 1.5169790368171E-03 
1327	 1.52432343168011E-03 
1328	 2.06786505879486E-03 
1329	 2.11414445532089E-03 
1330	 1.6839540671442E-03 
1331	 1.51520855367441E-03 
1332	 8.99502803822806E-04 
1333	-1.43725930278373E-05 
1334	 2.63403777058919E-04 
1335	 6.80821630580072E-04 
1336	 1.04351444014955E-03 
1337	 9.35111881900681E-04 
1338	 1.58010156975869E-03 
1339	 2.04308414847656E-03 
1340	 1.52847101869817E-03 
1341	 1.13209601293972E-03 
1342	 1.32009024063485E-03 
1343	 1.50485585408746E-03 
1344	 8.89653830898843E-04 
1345	 6.6862028501689E-04 
1346	 1.99706444015691E-03 
1347	 2.05694722944384E-03 
1348	-5.25277182960224E-04 
1349	-1.70769239576707E-03 
1350	-3.02448669213383E-04 
1351	-1.15185812100634E-03 
1352	-7.89934202544707E-03 
1353	-1.01439644682507E-02 
1354	-3.80895467963763E-03 
1355	-3.89867162204986E-03 
1356	-2.13611138857363E-02 
1357	-1.69728577665534E-03 
1358	 2.43394715890981E-02 
1359	-1.48846935653569E-03 
1360	 2.17322391619128E-02 
1361	 2.34537170823324E-02 
1362	-5.40868308230001E-02 
1363	-3.63201730695855E-02 
1364	-5.83602662329821E-02 
1365	-7.32990973483808E-02 
1366	 0.072045786083766 
1367	 4.43235370473499E-02 
1368	-2.98943823511423E-03 
1369	 1.11852929527355E-02 
1370	 1.28986930280932E-02 
1371	-0.170472287511825 
1372	-0.204124494977043 
1373	-1.13762964916186E-02 
1374	 2.54253924547839E-02 
1375	-0.126625275470823 
1376	-0.153774321860311 
1377	-5.28974412427593E-02 
1378	-0.129274123168044 
1379	-0.340750477890043 
1380	-0.290957364043039 
1381	-0.177016815920697 
1382	-0.254710179539317 
1383	-0.201436542313769 
1384	-0.159888571430708 
1385	-0.383427737713368 
1386	-0.507856064032331 
1387	-0.449900976753623 
1388	-0.310672996706545 
1389	-1.85285943839265E-02 
1390	-4.93736408213941E-02 
1391	-0.22653880382059 
1392	-0.222220752905875 
1393	-0.169874492436183 
1394	-0.131610915708076 
1395	-0.10210526439312 
1396	-2.35786296425473E-02 
1397	 5.52867186228963E-02 
1398	 5.64807038237766E-02 
1399	-0.144490555300486 
1400	-0.167271594005519 
1401	 0.105818316830336 
1402	 4.28367202930762E-02 
1403	-5.60006478753682E-02 
1404	-0.131721787651712 
1405	-0.116891633796367 
1406	-0.290346297935222 
1407	-0.197928187469945 
1408	 9.43372884111832E-02 
1409	 0.104181901344759 
1410	 5.55531682476395E-02 
1411	 1.8642407178176E-03 
1412	-0.133219892717889 
1413	-0.101223034271205 
1414	-4.57487671351551E-03 
1415	-1.41769510334258E-02 
1416	-1.85318824674234E-02 
1417	-5.02475064195579E-03 
1418	-2.66457801011854E-02 
1419	-0.033197984713021 
1420	-1.69208592681256E-02 
1421	-6.54229646164595E-03 
1422	-3.35095959827234E-03 
1423	-5.62066320954789E-03 
1424	-1.38786052960963E-03 
1425	-4.93854278351173E-04 
1426	-1.11963229119765E-02 
1427	-1.41029641057219E-02 
1428	-8.59074666555744E-03 
1429	-8.82341166810158E-03 
1430	-1.49403026446781E-02 
1431	-1.47226794087296E-02 
1432	-1.01533648652825E-02 
1433	-8.82068688217597E-03 
1434	-7.51474233890641E-03 
1435	-4.70945421786816E-03 
1436	-4.22389426638675E-03 
1437	-1.53306029372676E-03 
1438	 4.67412141201199E-04 
1439	 3.21994307213332E-03 
1440	 5.46667322173929E-03 
1441	 2.78531547347912E-03 
1442	-1.31258299990039E-03 
1443	-1.46369102606827E-03 
1444	 6.27909475185374E-04 
1445	 3.02103754370109E-04 
1446	 8.84981283437959E-04 
1447	 2.20175547365286E-03 
1448	 3.3033928512633E-04 
1449	 2.72375892059954E-04 
1450	 1.93790791549608E-03 
1451	 1.48262905833513E-03 
1452	 1.14578516059602E-03 
1453	 1.45280280592844E-03 
1454	 1.12416103461411E-03 
1455	 8.42749454577503E-05 
1456	 4.85746121529711E-04 
1457	 1.89503951273114E-03 
1458	 1.43536518367866E-03 
1459	 1.88335853920727E-04 
1460	 3.8480578140307E-04 
1461	 5.92977542187907E-04 
1462	 3.14352010746385E-04 
1463	 8.97308886397887E-04 
1464	 1.40035810855393E-03 
1465	 6.08131948369321E-04 
1466	 4.88596522770469E-04 
1467	 2.02430547320202E-03 
1468	 2.13644045447912E-03 
1469	 1.03216743502442E-03 
1470	 4.52939953061711E-04 
1471	-6.518531628497E-04 
1472	-2.63993334902767E-04 
1473	 1.39614729519113E-03 
1474	 1.50095042479938E-03 
1475	 1.4347678574131E-03 
1476	 1.42199404700038E-03 
1477	 9.08045831419885E-04 
1478	 3.83271381383398E-04 
1479	-5.22594089678788E-04 
1480	 1.2316434564254E-05 
1481	 1.47732983372186E-03 
1482	 1.4551979937754E-03 
1483	 1.53690183491952E-03 
1484	 1.64041015908695E-03 
1485	 9.7286389597387E-04 
1486	 5.0546796359182E-04 
1487	-1.27325059071433E-05 
1488	 3.3662252295692E-04 
1489	 1.31046538694173E-03 
1490	 1.25669870761665E-03 
1491	 1.0909288170377E-03 
1492	 1.2582472607371E-03 
1493	 1.11277844735983E-03 
1494	 8.43469602470788E-04 
1495	 7.00653987284742E-04 
1496	 8.45630717706867E-04 
1497	 1.07576230714441E-03 
1498	 9.10494451503081E-04 
1499	 6.47589908978437E-04 
1500	 7.6884158333487E-04 
1501	 8.21460297020941E-04 
1502	 7.13168914756262E-04 
1503	 8.87462796009349E-04 
1504	 1.03988059953009E-03 
1505	 1.12061022982503E-03 
1506	 8.31812390591047E-04 
1507	 4.95990522242362E-04 
1508	 6.4651053523723E-04 
1509	 1.02727363104082E-03 
1510	 8.28926013454031E-04 
1511	 6.33616942815235E-04 
1512	 9.97342834365209E-04 
1513	 1.09531683674199E-03 
1514	 9.35136320017723E-04 
1515	 1.03693033724605E-03 
1516	 1.03595731995359E-03 
1517	 9.46736340484119E-04 
1518	 9.77992392340108E-04 
1519	 1.00757307639187E-03 
1520	 1.17095322193266E-03 
1521	 1.1877669413558E-03 
1522	 1.0655828620214E-03 
1523	 1.16315169528691E-03 
1524	 1.20109407150704E-03 
1525	 1.02216536150486E-03 
1526	 8.61410202309285E-04 
1527	 9.97699045073816E-04 
1528	 1.11659952365806E-03 
1529	 9.28641006751868E-04 
1530	 9.14314775544367E-04 
1531	 1.07705068350211E-03 
1532	 9.96433110176183E-04 
1533	 9.54112483967486E-04 
1534	 1.24904740777945E-03 
1535	 1.33468861873301E-03 
1536	 1.0432080641851E-03 
1537	 1.01377885915713E-03 
1538	 1.19674463309987E-03 
1539	 1.2116514796035E-03 
1540	 1.15942906402297E-03 
1541	 0.001150211809933 
1542	 1.2423704687281E-03 
1543	 1.28881487851673E-03 
1544	 1.12878178575018E-03 
1545	 1.14363697040956E-03 
1546	 1.40916213579389E-03 
1547	 1.25793303659158E-03 
1548	 1.05035695758629E-03 
1549	 1.14353202023708E-03 
1550	 9.60064468155699E-04 
1551	 9.36435886289809E-04 
1552	 1.16574694159493E-03 
1553	 1.04213917398529E-03 
1554	 9.69381310339233E-04 
1555	 1.15592452980306E-03 
1556	 1.1507871417804E-03 
1557	 1.13119258306784E-03 
1558	 1.37261982345542E-03 
1559	 1.46044745891385E-03 
1560	 1.33438321994031E-03 
1561	 1.42790627903606E-03 
1562	 1.44709757640861E-03 
1563	 1.13978483569902E-03 
1564	 1.0427030871423E-03 
1565	 1.26337234368389E-03 
1566	 1.28651356119013E-03 
1567	 1.03298408316173E-03 
1568	 1.05203355818401E-03 
1569	 1.33497182245844E-03 
1570	 1.36547203663471E-03 
1571	 1.36467364527963E-03 
1572	 1.39751065316989E-03 
1573	 1.16560833435918E-03 
1574	 1.04780114285714E-03 
1575	 1.28216681266182E-03 
1576	 1.5537085909052E-03 
1577	 1.56561586207162E-03 
1578	 1.31640058400028E-03 
1579	 9.67648102365314E-04 
1580	 8.59110353061465E-04 
1581	 1.08755029509037E-03 
1582	 1.30987434907293E-03 
1583	 1.37728195685555E-03 
1584	 1.34839546913667E-03 
1585	 1.30986197606195E-03 
1586	 1.1881491431932E-03 
1587	 1.25556164208383E-03 
1588	 1.55962699790155E-03 
1589	 1.44188373311356E-03 
1590	 1.19973389728379E-03 
1591	 1.20031434517724E-03 
1592	 1.23043035470371E-03 
1593	 1.28511892931901E-03 
1594	 1.23323688934521E-03 
1595	 1.23510358099573E-03 
1596	 1.36325289368222E-03 
1597	 1.44112810957128E-03 
1598	 1.45831392969872E-03 
1599	 1.44235230922202E-03 
1600	 1.35172680692833E-03 
1601	 1.0707366566652E-03 
1602	 9.36093095459586E-04 
1603	 1.14065425913513E-03 
1604	 1.14448340830389E-03 
1605	 9.97814678108949E-04 
1606	 1.2429870730913E-03 
1607	 1.42734367561917E-03 
1608	 1.19920933507034E-03 
1609	 1.05294758846275E-03 
1610	 1.16887322340393E-03 
1611	 1.38691400302421E-03 
1612	 1.41722080969687E-03 
1613	 1.26683213036583E-03 
1614	 1.15778936685131E-03 
1615	 9.69546793312354E-04 
1616	 8.25847503421016E-04 
1617	 1.0514856386644E-03 
1618	 1.43069479738045E-03 
1619	 1.49293944709544E-03 
1620	 1.38897925817134E-03 
1621	 1.3925649724635E-03 
1622	 1.24380430284154E-03 
1623	 1.04588988155763E-03 
1624	 1.13890109612126E-03 
1625	 1.27653457321366E-03 
1626	 1.2459832616897E-03 
1627	 1.18815116848843E-03 
1628	 1.14474915074303E-03 
1629	 1.11758863077296E-03 
1630	 1.14635875297108E-03 
1631	 1.1196291500329E-03 
1632	 1.12725248770105E-03 
1633	 1.24037672315618E-03 
1634	 1.34525656297502E-03 
1635	 1.4276454343771E-03 
1636	 1.34722514612965E-03 
1637	 1.28600670596331E-03 
1638	 1.36600757152003E-03 
1639	 1.41145525227926E-03 
1640	 1.53133255664831E-03 
1641	 1.66045698120542E-03 
1642	 1.59141388297918E-03 
1643	 1.48132802424586E-03 
1644	 1.47314304243086E-03 
1645	 1.50416026888831E-03 
1646	 1.41880603890052E-03 
1647	 1.3003019443997E-03 
1648	 1.43302073965226E-03 
1649	 1.38325348116983E-03 
1650	 1.09677930739723E-03 
1651	 1.12246634251511E-03 
1652	 1.30729040464451E-03 
1653	 1.63856945641109E-03 
1654	 1.57051241179047E-03 
1655	 1.20648371186797E-03 
1656	 1.22325270582231E-03 
1657	 1.25037281016873E-03 
1658	 1.12329638162011E-03 
1659	 1.24425838931213E-03 
1660	 1.32998751431284E-03 
1661	 1.1158212055827E-03 
1662	 9.14403427580304E-04 
1663	 8.19743702661169E-04 
1664	 1.0305076555572E-03 
1665	 1.30539856074476E-03 
1666	 1.26167001859463E-03 
1667	 1.44864238609854E-03 
1668	 1.4277471631113E-03 
1669	 1.04153193742939E-03 
1670	 9.42938995182759E-04 
1671	 1.13104346948913E-03 
1672	 1.10725338835222E-03 
1673	 9.44974981368733E-04 
1674	 1.18410308053901E-03 
1675	 1.4377747479053E-03 
1676	 1.17448862493691E-03 
1677	 1.12548613742052E-03 
1678	 1.32078049069259E-03 
1679	 1.33932235708941E-03 
1680	 1.34650255978628E-03 
1681	 1.41458044674405E-03 
1682	 1.12795417915332E-03 
1683	 8.0953810830983E-04 
1684	 1.26804483466512E-03 
1685	 1.5436373409088E-03 
1686	 1.31882919005971E-03 
1687	 1.19371392897049E-03 
1688	 9.65259535069336E-04 
1689	 8.04912939668526E-04 
1690	 9.95093814822341E-04 
1691	 1.24997394048046E-03 
1692	 1.2311434902774E-03 
1693	 1.16966333311064E-03 
1694	 1.27154089569708E-03 
1695	 1.23145463127388E-03 
1696	 1.08255524074879E-03 
1697	 1.07036169320831E-03 
1698	 1.14109483925896E-03 
1699	 1.41015844313519E-03 
1700	 1.62996713425711E-03 
1701	 1.45946007443683E-03 
1702	 1.30321197472506E-03 
1703	 1.13428481410301E-03 
1704	 8.12329263973933E-04 
1705	 9.70338950578212E-04 
1706	 1.32450437949413E-03 
1707	 1.3816342213686E-03 
1708	 1.49294720881229E-03 
1709	 1.41498517626796E-03 
1710	 1.06625282650646E-03 
1711	 8.91398667898713E-04 
1712	 9.43834310980661E-04 
1713	 8.46225110653919E-04 
1714	 8.4008356675563E-04 
1715	 7.43241226735167E-04 
1716	 8.21235462808313E-04 
1717	 1.34666073536425E-03 
1718	 1.45087434675737E-03 
1719	 1.56632092075254E-03 
1720	 1.45612688972768E-03 
1721	 9.53738899216496E-04 
1722	 1.0184334873873E-03 
1723	 9.12646810382331E-04 
1724	 5.95081313800492E-04 
1725	 1.04132009334113E-03 
1726	 1.34946206048319E-03 
1727	 1.40766122011134E-03 
1728	 1.31936324381338E-03 
1729	 7.13645305243924E-04 
1730	 8.36695162707274E-04 
1731	 1.24342572678704E-03 
1732	 1.35839092976944E-03 
1733	 1.71711144400869E-03 
1734	 1.32322137482028E-03 
1735	 7.65549714986017E-04 
1736	 1.26260564786925E-03 
1737	 1.65216491263932E-03 
1738	 1.55042019990976E-03 
1739	 1.74649664590783E-03 
1740	 1.76216817642553E-03 
1741	 1.28538893470244E-03 
1742	 1.09108580835138E-03 
1743	 1.21407332057275E-03 
1744	 7.81678705520147E-04 
1745	 5.32626854429723E-04 
1746	 1.16412424322282E-03 
1747	 1.24849373414058E-03 
1748	 1.78306864529516E-03 
1749	 0.001830364433999 
1750	 7.12761163831838E-04 
1751	 5.28096955556839E-04 
1752	 8.58956599902711E-04 
1753	 9.17828792427276E-04 
1754	 1.57790255988556E-03 
1755	 1.65041805475828E-03 
1756	 7.9675608105831E-04 
1757	 6.06986975415932E-04 
1758	 6.97053849015236E-04 
1759	 5.45822305747212E-04 
1760	 8.53872823807259E-04 
1761	 1.1379140199368E-03 
1762	 1.19709822104905E-03 
1763	 1.46793639436195E-03 
1764	 0.001061798591231 
1765	 3.34494663858877E-04 
1766	 1.56981377276107E-04 
1767	 1.99472455621024E-05 
1768	 4.85357675586927E-04 
1769	 1.01422464294817E-03 
1770	 2.00940710192226E-04 
1771	-1.34042817448056E-04 
1772	 1.70272181338054E-04 
1773	-1.03702197970885E-04 
1774	 5.08685488599408E-04 
1775	-1.83900031495101E-04 
1776	-6.54566304506351E-04 
1777	-1.35760969382892E-03 
1778	-1.01447826451598E-03 
1779	 1.13537376055643E-03 
1780	 1.52842838190531E-03 
1781	 1.46322145682718E-03 
1782	 1.42423749313106E-03 
1783	-7.18447344991228E-04 
1784	-1.0606898502157E-03 
1785	 8.03302442421415E-04 
1786	 9.53362207692113E-04 
1787	 3.58323987067325E-05 
1788	 6.70940934093382E-04 
1789	 1.94502674886862E-03 
1790	 1.04003061443942E-03 
1791	 2.65693750165962E-03 
1792	 3.74105491527636E-03 
1793	 2.08601524143288E-03 
1794	 3.80674452648421E-03 
1795	 5.00301460377328E-03 
1796	-9.87104480014656E-04 
1797	-5.58624420863504E-03 
1798	-4.77936800569554E-03 
1799	-6.83407682520705E-03 
1800	-2.1216686721015E-03 
1801	-2.14227753474746E-04 
1802	-8.97350097584155E-03 
1803	-1.08129195808532E-02 
1804	-3.20615904042818E-03 
1805	-1.22632490758697E-03 
1806	 4.45333282129025E-03 
1807	 1.79180249356839E-03 
1808	-2.90642041967216E-02 
1809	-3.45622893720341E-02 
1810	-1.43024966406537E-02 
1811	-8.82792573932117E-03 
1812	 2.88205054095073E-02 
1813	 2.97181453208221E-02 
1814	-4.70749548087601E-02 
1815	-0.103121170252993 
1816	-0.182321689098477 
1817	-9.68646955721736E-02 
1818	 2.31946885638051E-04 
1819	 0.118980902939029 
1820	 8.94995390377506E-02 
1821	-0.580509867054657 
1822	-1.22258335715929 
1823	-1.06920385553397 
1824	-0.853611188250868 
1825	 1.05083726807756E-03 
1826	 0.172105346650968 
1827	 0.199580975781026 
1828	 0.271011381468362 
1829	 0.10922866706727 
1830	-9.89687545602959E-02 
1831	 0.812828385283691 
1832	 0.662729888592902 
1833	 0.587045433340361 
1834	 0.409385792685722 
1835	-0.368781544557657 
1836	-0.493049719580021 
1837	 0.364115874343499 
1838	 0.299977015574824 
1839	 0.113810654496378 
1840	 0.259903792484979 
1841	-5.66160364135842E-02 
1842	-0.857911419713918 
1843	-1.06591540864511 
1844	-6.61539406467597 
1845	-3.00827784423587 
1846	-2.03758504574759 
1847	-0.624107087069816 
1848	 0.27534084348339 
1849	 0.299823386506087 
1850	 11.7109957052573 
1851	 3.53623377222276 
1852	 2.7326201098885 
1853	 1.73152599901645 
1854	 1.3304497586725 
1855	 0.87201415922602 
1856	 0.91731648637304 
1857	 1.12148632737215 
1858	-1.73559462055579 
1859	-0.940000205799622 
1860	-1.27372129340744 
1861	-1.38564754886318 
1862	-2.57017978103408 
1863	-4.76839961757721 
1864	-2.01691724017466 
1865	-4.29897612282748 
1866	 1.51538619685644 
1867	 0.889521949898693 
1868	 0.509664478608553 
1869	 0.418079586147946 
1870	 0.557954988864165 
1871	 0.382867144776101 
1872	 0.627049402082979 
1873	 5.11021694193719 
1874	-6.61373154075762 
1875	-1.43956677500957 
1876	-1.01316962198706 
1877	-1.15831016172036 
1878	-0.436264537994726 
1879	 2.9558630010518 
1880	 4.87267752016043 
1881	 2.03547652816387 
1882	 2.0195715125089 
1883	-2.64974528055537 
1884	 1.57449753649599 
1885	-0.915876715360189 
1886	-1.03636092774763 
1887	 0.405575543824073 
1888	-0.265047667543185 
1889	-0.160117296351848 
1890	 0.991051249312925 
1891	 1.15708628627292 
1892	 1.37192546608865 
1893	 2.37953981459511 
1894	 1.54116346438343 
1895	 0.301380197232418 
1896	 0.108338893842224 
1897	 0.128737461431644 
1898	-0.163007414661887 
1899	 0.226820079128203 
1900	 0.720342345232076 
1901	 1.95664697530456 
1902	 4.95449116945688 
1903	 2.22660564431053 
1904	-0.625815027130096 
1905	-4.26915251490351 
1906	-19.8592609971289 
1907	-5.02610133616453 
1908	-13.185077222073 
1909	-1.00367914971419 
1910	 0.516172721013344 
1911	 2.85096154621355 
1912	 2.34025437030146 
1913	 0.585984045698424 
1914	-1.02806653479924 
1915	-1.08652256663862 
1916	-0.85830533388728 
1917	-0.524064906635036 
1918	-0.165743692920455 
1919	-0.207024063727494 
1920	-0.910190796134164 
1921	-0.382095633552088 
1922	 0.160261962200449 
1923	-2.88580759627384 
1924	-0.727675998591572 
1925	 0.36970242119423 
1926	 1.0273220206909 
1927	 1.34687565002746 
1928	 0.945555358988993 
1929	 0.760731327544812 
1930	 0.862299352427349 
1931	 0.450904198731925 
1932	 0.102413630580613 
1933	 0.146745947693695 
1934	 0.309345048014389 
1935	 0.365233322684464 
1936	 0.414057470836065 
1937	 0.430464982772699 
1938	 0.272644632258551 
1939	 0.184238600484444 
1940	 0.10389320263625 
1941	 6.04011450571352E-02 
1942	 5.24292273954305E-02 
1943	 6.43196535155777E-02 
1944	 2.67694372528781E-02 
1945	-5.05064330626563E-03 
1946	-8.95317375964629E-03 
1947	-1.61143638180346E-02 
1948	-6.89086832640819E-03 
1949	 1.62046313822085E-02 
1950	 1.16640880359267E-02 
1951	 3.52568735564414E-03 
1952	-1.1640952177057E-03 
1953	-4.02232483585929E-03 
1954	-1.10975660347446E-02 
1955	-4.37305567426448E-03 
1956	-4.41184271262257E-03 
1957	-9.82726691696243E-03 
1958	 9.55161152255105E-04 
1959	 7.67018607421085E-03 
1960	 5.08091686970272E-03 
1961	 7.04377102288876E-03 
1962	 6.45923052966438E-03 
1963	 2.00375685434438E-03 
1964	 1.96490862936551E-03 
1965	 1.48977252923018E-03 
1966	 1.20571208634138E-03 
1967	 8.66617847171144E-04 
1968	 2.85033406795212E-03 
1969	 3.90982149435547E-03 
1970	 3.47459657412088E-03 
1971	 3.97773117799575E-03 
1972	 4.53878562143495E-03 
1973	 4.18285941321769E-03 
1974	 4.56586722154967E-03 
1975	 4.29149224502839E-03 
1976	 2.30297830073855E-03 
1977	 1.61855243982257E-03 
1978	 1.70015302430421E-03 
1979	 1.24571251035363E-03 
1980	 9.31195028385215E-04 
1981	 1.51367002966563E-03 
1982	 1.27854736774991E-03 
1983	 5.87896033124259E-04 
1984	 5.1081125813176E-04 
1985	 7.25672408016675E-04 
1986	 1.22531030506373E-03 
1987	 1.30681497145964E-03 
1988	 1.26815008179889E-03 
1989	 1.4442231650215E-03 
1990	 1.01101057437216E-03 
1991	 2.86187470603971E-04 
1992	 5.68709742269087E-04 
1993	 1.37733006533839E-03 
1994	 1.62208522996299E-03 
1995	 1.78439377722089E-03 
1996	 1.95329097361472E-03 
1997	 1.71799415158079E-03 
1998	 5.6353285465112E-04 
1999	 5.83439569690547E-04 
2000	 2.42968296912432E-03 
2001	 2.61024150763498E-03 
2002	 2.2750764709082E-03 
2003	 5.81893181732962E-03 
2004	 8.1277853752238E-03 
2005	 5.76112245909123E-03 
2006	 5.10897579260976E-03 
2007	 5.03136916278854E-03 
2008	 2.94014138994829E-03 
2009	 2.19504889830655E-03 
2010	 7.79015163514164E-03 
2011	 8.7117929337818E-03 
2012	 6.53093496354484E-03 
2013	 3.09132661674078E-03 
2014	 4.02436899846724E-03 
2015	 3.33639447879939E-03 
2016	 1.90637050267428E-03 
2017	 1.46547718751717E-03 
2018	 7.58709488092532E-04 
2019	 7.63382073928807E-04 
2020	 3.01235627251996E-04 
2021	 5.35535466875675E-04 
2022	 1.97044777231233E-03 
2023	 2.39492108249757E-03 
2024	 2.53585334350633E-03 
2025	 3.52929022257734E-03 
2026	 3.82912888808674E-03 
2027	 3.47243972934621E-03 
2028	 2.36902213109282E-03 
2029	 2.4681671155092E-03 
2030	 2.26047948868332E-03 
2031	 1.19429606110754E-03 
2032	 1.09312770254007E-03 
2033	 1.13254203443475E-03 
2034	 4.19350743834369E-04 
2035	 7.70738016058621E-04 
2036	 1.17456558319023E-03 
2037	 1.53141890604104E-03 
2038	 2.29535769536883E-03 
2039	 2.53398994991164E-03 
2040	 2.46668353643067E-03 
2041	 2.63753707707223E-03 
2042	 2.47513315027717E-03 
2043	 2.74412585260471E-03 
2044	 3.75082931294783E-03 
2045	 3.68370003663965E-03 
2046	 3.24241008590099E-03 
2047	 2.21665259203675E-03 
2048	 9.34761022892356E-04 
2049	 7.97252907598707E-04 
2050	 1.59400051148888E-03 
2051	 2.41569726589331E-03 
2052	 2.19958602237535E-03 
2053	 1.61708400584558E-03 
2054	 1.48418897481957E-03 
2055	 1.43471806572884E-03 
2056	 1.63312819778013E-03 
2057	 3.28051311345577E-03 
2058	 3.40440541187612E-03 
2059	 2.16096925313271E-03 
2060	 2.03960148372954E-03 
2061	 2.05753588992366E-03 
2062	 1.95378616329622E-03 
2063	 2.19479138238701E-03 
2064	 2.27855360005909E-03 
2065	 3.00683048479542E-03 
2066	 3.34013822792777E-03 
2067	 3.03306802004546E-03 
2068	 3.19257115248298E-03 
2069	 2.25760883899618E-03 
2070	 1.60767580013826E-03 
2071	 1.91706765877566E-03 
2072	 1.84198659654997E-03 
2073	 1.71710352567315E-03 
2074	 1.49120505597999E-03 
2075	 1.2570839406351E-03 
2076	 9.24791280779293E-04 
2077	 8.87382534976188E-04 
2078	 9.15328471235129E-04 
2079	 9.4599009127395E-04 
2080	 8.73796508755876E-04 
2081	 1.36953468616305E-03 
2082	 1.88737706215475E-03 
2083	 2.08349982350192E-03 
2084	 1.87118604803608E-03 
2085	 1.65828423187243E-03 
2086	 1.77430918970821E-03 
2087	 1.74407954305599E-03 
2088	 2.01662743540475E-03 
2089	 2.46311894346669E-03 
2090	 2.48696261455918E-03 
2091	 2.78952333735149E-03 
2092	 2.78742125864608E-03 
2093	 2.8840672388541E-03 
2094	 2.56738943815804E-03 
2095	 1.31487912247371E-03 
2096	 1.17751994148699E-03 
2097	 2.14466638332738E-03 
2098	 2.16369103024961E-03 
2099	 2.22462970123099E-03 
2100	 1.77529318295673E-03 
2101	 1.45592892057881E-03 
2102	 2.16020047880608E-04 
2103	-2.75365573916237E-04 
2104	 4.74915002582828E-04 
2105	 1.0677372689943E-03 
2106	 1.29938552487432E-03 
2107	 1.25711226433428E-03 
2108	 1.44523456730043E-03 
2109	 1.27645005275245E-03 
2110	 8.63409041565946E-04 
2111	 6.50291837762201E-04 
2112	 5.08045523871997E-04 
2113	 4.79065973269946E-04 
2114	 3.33239565382586E-04 
2115	 3.79361545990503E-04 
2116	 7.53631456584302E-04 
2117	 1.03330234128189E-03 
2118	 1.54492184015342E-03 
2119	 1.51812293877914E-03 
2120	 1.21682372988403E-03 
2121	 1.04650797687035E-03 
2122	 1.02728789294108E-03 
2123	 4.66917860802795E-04 
2124	 4.13594863998776E-04 
2125	 5.89612609502256E-04 
2126	 1.68451336008901E-04 
2127	 1.58267684995781E-04 
2128	 4.61850284569813E-04 
2129	 7.38904146519918E-04 
2130	 1.16372644173589E-03 
2131	 1.80490945510313E-03 
2132	 2.59009390668196E-03 
2133	 3.04282229350799E-03 
2134	 3.18101768481072E-03 
2135	 2.88226858464868E-03 
2136	 2.6672404339254E-03 
2137	 2.25295275273721E-03 
2138	 1.98335395850759E-03 
2139	 1.48157146597464E-03 
2140	 1.35940497874666E-03 
2141	 1.50830116887585E-03 
2142	 1.37295354265506E-03 
2143	 1.33397329302715E-03 
2144	 1.62998913631343E-03 
2145	 1.46444250428182E-04 
2146	-6.58242618339841E-04 
2147	 1.83473241211298E-04 
2148	 5.07935840876033E-04 
2149	 4.89659896123257E-04 
2150	 4.44514346786649E-04 
2151	 2.14388493033663E-04 
2152	-3.60027989402592E-04 
2153	 2.46232758299642E-04 
2154	 1.66798453007952E-03 
2155	 1.57457426425416E-03 
2156	 1.4600110289915E-03 
2157	 1.54702352201002E-03 
2158	 1.9078858917565E-03 
2159	 1.88959788171184E-03 
2160	 1.44240313095426E-03 
2161	 1.44582210376416E-03 
2162	 1.4418833268255E-03 
2163	 1.68103478541924E-03 
2164	 2.91329716152513E-03 
2165	 2.82900673618448E-03 
2166	 2.02981155758252E-03 
2167	 1.86685861783929E-03 
2168	 6.11424427307684E-04 
2169	 4.3441542705154E-04 
2170	 1.55669663109558E-03 
2171	 2.08389893155738E-03 
2172	 1.76064384427339E-03 
2173	 1.84634075553924E-03 
2174	 2.2450060502087E-03 
2175	 2.61256657594676E-03 
2176	 2.26982616148937E-03 
2177	 2.81012048205539E-03 
2178	 3.46857336109443E-03 
2179	 1.95993349084484E-03 
2180	 1.93239601228014E-03 
2181	 2.99073570066406E-03 
2182	 2.29198917397044E-03 
2183	 1.73119239785041E-03 
2184	 1.97387630996837E-03 
2185	 2.30410970819073E-03 
2186	 2.61242603164526E-03 
2187	 4.24621668556095E-03 
2188	 4.27660078298493E-03 
2189	 2.77890054266701E-03 
2190	 2.25369679340642E-03 
2191	 1.22979294258975E-03 
2192	 7.89570667764881E-04 
2193	 1.46526125613973E-03 
2194	 1.78779121356224E-03 
2195	 2.38237257587314E-03 
2196	 2.1236861091841E-03 
2197	 8.82050346166267E-04 
2198	 3.64833552194396E-04 
2199	-8.77957569508251E-04 
2200	-5.44895448420087E-04 
2201	-1.61060852474663E-05 
2202	 2.43472724641831E-04 
2203	 9.51807438866349E-04 
2204	 1.02238550154621E-04 
2205	-1.7904097374579E-04 
2206	 5.36513202115319E-04 
2207	 9.30857354711727E-04 
2208	 2.23175543615379E-03 
2209	 2.99940621443302E-03 
2210	 2.76192146850774E-03 
2211	 2.67444815611719E-03 
2212	 2.02078770842701E-03 
2213	 1.63259868754282E-03 
2214	 2.34255339200226E-03 
2215	 2.44526750494729E-03 
2216	 2.37804203115504E-03 
2217	 2.41813392327959E-03 
2218	 2.76282011439031E-03 
2219	 2.77214305764189E-03 
2220	 2.64795235778806E-03 
2221	 2.54577551901465E-03 
2222	 2.24743073682601E-03 
2223	 2.1851162679865E-03 
2224	 2.21969777452369E-03 
2225	 1.93259740296802E-03 
2226	 1.75165407140994E-03 
2227	 1.63288352797208E-03 
2228	 8.53320152323787E-04 
2229	 7.08383977771792E-04 
2230	 9.55464687522509E-04 
2231	 9.57562204273783E-04 
2232	 2.2799868117917E-03 
2233	 2.47079262566341E-03 
2234	 1.49860731777668E-03 
2235	 1.05564872951226E-03 
2236	 1.18594091573464E-03 
2237	-2.00046734711227E-04 
2238	 2.03974799289049E-04 
2239	 2.10399920900256E-03 
2240	 2.79791975403152E-03 
2241	 2.03710598292168E-03 
2242	 1.82857875923246E-03 
2243	 1.32916393413556E-03 
2244	 7.76399275111152E-04 
2245	 1.46043221510298E-03 
2246	 2.03710075547296E-03 
2247	 1.45726834104239E-03 
2248	 6.22286597166513E-04 
2249	 4.47955504252219E-04 
2250	 5.3971140959196E-04 
2251	 1.54909648672276E-03 
2252	 3.74704460044796E-03 
2253	 3.98661729708279E-03 
2254	 3.64414513551567E-03 
2255	 4.20771337435345E-03 
2256	 3.66147069788599E-03 
2257	 0.005051902042838 
2258	 4.24970993252546E-03 
2259	 1.16516302943817E-03 
2260	 8.52967478259915E-04 
2261	 1.28206722406977E-03 
2262	 8.01413644240064E-04 
2263	 2.52949975009759E-03 
2264	 2.07842301044838E-03 
2265	-2.12532380233261E-03 
2266	-1.81524738910722E-03 
2267	 1.04170278035302E-03 
2268	 2.10518457553486E-03 
2269	 5.1859137592477E-03 
2270	 5.62162956959026E-03 
2271	 3.06465323206468E-03 
2272	 2.48441499199074E-03 
2273	 2.91533094630804E-03 
2274	 1.75698486016689E-03 
2275	-1.57048391204134E-03 
2276	-1.51309208098998E-03 
2277	-2.83976359117337E-05 
2278	 3.51301575616907E-04 
2279	 3.36512244117503E-03 
2280	 4.61928902345469E-03 
2281	 3.24196072309648E-03 
2282	 2.7507002210424E-03 
2283	 5.84926614349199E-03 
2284	 7.93203331773932E-03 
2285	 6.32865605469702E-03 
2286	 3.17178288326174E-03 
2287	-6.7151042486113E-04 
2288	-3.6513665759146E-03 
2289	-2.28126295770164E-03 
2290	-9.6920350760988E-04 
2291	-2.05618516925742E-03 
2292	-3.53700907635675E-03 
2293	-4.60365154414054E-03 
2294	-4.67754803950244E-03 
2295	-4.69501614290055E-03 
2296	-4.43141812427425E-03 
2297	-4.86088756328835E-03 
2298	-5.90630518888978E-03 
2299	-4.34932167062894E-03 
2300	 2.60434876899395E-04 
2301	 1.10879987638055E-03 
2302	 1.22932400428306E-04 
2303	 3.31824286136105E-03 
2304	 2.00914071257427E-03 
2305	-8.24697563119537E-04 
2306	 1.98779674836304E-03 
2307	 9.12776568019541E-04 
2308	-1.68807114700122E-03 
2309	-7.36531715786201E-04 
2310	-2.83552226152127E-04 
2311	 1.50792998202753E-03 
2312	 2.6721423297736E-03 
2313	 3.31114270129564E-04 
2314	-1.93740626854949E-03 
2315	-1.29968408437106E-03 
2316	-4.44945690870327E-04 
2317	 6.84564783750742E-04 
2318	 5.5038877602354E-03 
2319	 4.35280918481666E-03 
2320	 2.07630179122246E-05 
2321	 7.23892384400184E-04 
2322	 3.31566436909463E-04 
2323	 2.36971975350067E-03 
2324	 3.83442804505055E-03 
2325	 2.50345267868962E-03 
2326	 3.89130634168178E-03 
2327	 5.12515638918812E-03 
2328	 3.17311707979521E-03 
2329	 4.11710506380445E-04 
2330	 1.16105610451539E-03 
2331	 1.7355581848604E-03 
2332	-1.58727774339429E-03 
2333	-2.6751263082033E-03 
2334	-4.57113275641872E-03 
2335	-9.86659750389166E-03 
2336	-9.33690026824958E-03 
2337	-3.53271205932734E-03 
2338	 6.1721886883953E-04 
2339	-2.0185093266115E-05 
2340	-4.64907190381521E-05 
2341	 1.46228660098029E-03 
2342	-1.79669872183696E-03 
2343	-4.93873483657556E-04 
2344	 2.52736012182973E-03 
2345	-3.0902201363896E-04 
2346	 1.03474703179579E-03 
2347	 2.22137370080161E-03 
2348	 7.4420681833961E-04 
2349	-6.00689628914569E-04 
2350	-2.98092645628634E-03 
2351	 7.60722001672717E-04 
2352	 4.58821925120731E-03 
2353	-5.08163838408145E-03 
2354	-1.33000760141323E-02 
2355	-1.63684268942568E-02 
2356	-1.80472952871605E-02 
2357	 6.84325815880251E-04 
2358	 1.71855967485262E-02 
2359	 1.49489874123425E-02 
2360	 1.16827322008487E-02 
2361	 3.83327969429309E-03 
2362	-3.87052316648069E-03 
2363	 5.44154270007398E-03 
2364	 1.31339755716087E-02 
2365	 1.85236794997097E-03 
2366	-8.03051326777637E-03 
2367	-7.81377708435031E-03 
2368	-1.00458751473293E-02 
2369	-6.25367537210755E-03 
2370	 1.36533893945704E-02 
2371	 1.76158530445234E-02 
2372	 1.25835613333654E-02 
2373	 2.96815034593336E-02 
2374	 3.18883595017354E-02 
2375	 1.20989087831857E-02 
2376	 6.52230342071117E-03 
2377	 5.7748887162221E-03 
2378	 3.13358848500933E-03 
2379	-6.09694194309582E-04 
2380	-4.59107856472077E-03 
2381	-1.30989642844884E-02 
2382	-0.020415233065865 
2383	-1.66537350776108E-02 
2384	-2.90245067582187E-02 
2385	-3.29519092561741E-02 
2386	-3.00228225094753E-02 
2387	-4.30818130083931E-02 
2388	-2.61346712367249E-02 
2389	-1.11501527735712E-02 
2390	-2.01036511501425E-02 
2391	-4.02949161079824E-03 
2392	-1.18689092465595E-03 
2393	-1.50304142404286E-02 
2394	-1.98525771778836E-02 
2395	-2.52322359974933E-02 
2396	-0.023786193641755 
2397	-8.51421602366774E-03 
2398	 2.9784152370027E-03 
2399	 0.015432194072688 
2400	 3.75927467532596E-02 
2401	 1.40802047603594E-02 
2402	 3.93794886698403E-04 
2403	 3.58665706926198E-03 
2404	-4.36532963032276E-02 
2405	-6.22435231242643E-02 
2406	-5.98856811628667E-02 
2407	-6.28817544508132E-02 
2408	-4.03831908773362E-02 
2409	-0.01217713217835 
2410	 0.028934165001059 
2411	 5.26454901847035E-02 
2412	 8.56241033485518E-02 
2413	 7.18656257122648E-02 
2414	-5.93928063441024E-03 
2415	-1.15538812645667E-02 
2416	 4.20021803525034E-03 
2417	 5.19403126720765E-02 
2418	 0.135483024168114 
2419	 0.144300978202401 
2420	 0.131211995192271 
2421	 6.43175531494412E-02 
2422	 4.24185877234722E-02 
2423	 3.96254477227641E-02 
2424	-1.09870766537778E-02 
2425	-3.18908950003288E-02 
2426	-3.26427105903433E-02 
2427	-0.047318684755172 
2428	-8.68216504400633E-02 
2429	-0.133991899514472 
2430	-0.101798535368175 
2431	-5.65334562651658E-02 
2432	-0.081328843948769 
2433	-2.11242954498329E-02 
2434	 1.51029691536087E-02 
2435	-4.71826824694261E-02 
2436	 4.36613596055955E-02 
2437	 0.118071827957618 
2438	 9.58321872576416E-02 
2439	 0.101186079101952 
2440	 3.05107542028454E-02 
2441	-4.21533879097038E-02 
2442	-3.65440974809111E-02 
2443	 7.53617899425061E-03 
2444	-4.19578993603939E-02 
2445	-0.153065740131932 
2446	-4.97865167922168E-02 
2447	-2.35810108018363E-05 
2448	-0.069740256690978 
2449	-0.152439785370253 
2450	-0.25508751826514 
2451	-0.593685286718528 
2452	-0.334322474030655 
2453	-0.372190477990343 
2454	-0.28181109269409 
2455	 0.111262820691589 
2456	 0.177128172312765 
2457	 0.251892381445354 
2458	 6.24308123576428E-02 
2459	-0.191036904858886 
2460	-0.14913042941449 
2461	-0.278697236908531 
2462	-0.192191062364713 
2463	 0.231936625541284 
2464	-5.89511585162344E-02 
2465	-6.49824244733451E-02 
2466	-0.16556988542264 
2467	-0.291426410866412 
2468	-0.16230048977486 
2469	-0.128530073758712 
2470	 0.123411073626957 
2471	 0.193380287693037 
2472	 0.118533564063005 
2473	-0.234446057867243 
2474	-0.883167616157767 
2475	-1.12868437426258 
2476	-1.27327041629222 
2477	-0.60724565290175 
2478	-0.389648098874193 
2479	-0.510133197430044 
2480	-0.607530657492594 
2481	-0.78534830391564 
2482	-0.762972002539142 
2483	-0.465054262506674 
2484	 14.8398144398969 
2485	 0.248131946435337 
2486	-1.55053562621538E-02 
2487	 0.613075024179308 
2488	 1.0593742739652 
2489	-2.18882423058576 
2490	-1.17018630325145 
2491	-2.38413822103039 
2492	-6.783285621018 
2493	 1.31725352937874 
2494	 2.53608999225371 
2495	 16.0440716240653 
2496	 4.62017954529629 
2497	-5.59584660066355 
2498	-0.156609996335133 
2499	-0.897179667513303 
2500	-0.985625112673652 
